Data from hue_24_FLMS001491_00045.txt Node
Date: Tue Feb 07 17:12:19 GMT 2017
User: dcchb
Spectrometer: FLMS00149
Trigger mode: 0
Integration Time (sec): 2.000000E-2
Scans to average: 10
Electric dark correction enabled: true
Nonlinearity correction enabled: false
Boxcar width: 0
XAxis mode: Wavelengths
Number of Pixels in Spectrum: 2048
>>>>>Begin Spectral Data<<<<<
341.393	-27.47
341.776	-27.47
342.16	-27.47
342.543	-72.67
342.927	-60.69
343.31	-84.87
343.693	-81.03
344.077	-55.72
344.46	-61.59
344.843	-50.52
345.226	-32.44
345.61	-47.81
345.993	-11.43
346.376	-19.56
346.759	3.04
347.142	16.82
347.525	54.33
347.908	76.48
348.291	92.3
348.674	87.78
349.057	114.22
349.44	125.07
349.823	121.68
350.206	172.75
350.588	199.42
350.971	219.3
351.354	227.21
351.737	228.79
352.119	238.51
352.502	261.33
352.884	281.9
353.267	293.2
353.65	286.42
354.032	294.55
354.414	309.92
354.797	305.85
355.179	326.64
355.562	317.15
355.944	330.71
356.326	318.96
356.709	323.25
357.091	328.68
357.473	348.34
357.855	333.88
358.238	337.27
358.62	335.23
359.002	345.63
359.384	349.47
359.766	337.94
360.148	342.24
360.53	340.2
360.912	330.26
361.294	318.51
361.676	335.46
362.057	336.14
362.439	330.94
362.821	339.98
363.203	350.82
363.584	318.28
363.966	321.45
364.348	314.67
364.729	323.25
365.111	296.36
365.493	313.08
365.874	329.58
366.256	332.07
366.637	311.05
367.019	306.53
367.4	306.53
367.781	320.54
368.163	327.32
368.544	293.2
368.925	289.13
369.306	317.83
369.688	307.66
370.069	324.84
370.45	320.54
370.831	315.34
371.212	336.36
371.593	301.79
371.974	327.77
372.355	307.44
372.736	332.29
373.117	328.23
373.498	325.29
373.879	324.84
374.26	317.38
374.641	318.73
375.021	311.28
375.402	323.71
375.783	322.58
376.163	316.93
376.544	341.78
376.925	331.62
377.305	311.73
377.686	329.58
378.066	326.87
378.447	338.17
378.827	333.65
379.208	329.58
379.588	323.93
379.968	330.71
380.349	348.79
380.729	334.55
381.109	323.48
381.489	349.02
381.87	341.56
382.25	331.16
382.63	344.5
383.01	343.37
383.39	358.51
383.77	323.25
384.15	338.4
384.53	342.01
384.91	337.72
385.29	348.56
385.67	338.85
386.049	340.43
386.429	351.05
386.809	363.71
387.189	365.74
387.568	377.04
387.948	384.04
388.328	346.53
388.707	350.6
389.087	346.53
389.466	373.87
389.846	354.67
390.225	376.81
390.605	386.53
390.984	356.7
391.363	341.33
391.743	377.26
392.122	391.95
392.501	377.04
392.881	388.11
393.26	379.3
393.639	394.44
394.018	394.66
394.397	392.86
394.776	392.18
395.155	384.27
395.534	386.53
395.913	389.92
396.292	393.31
396.671	389.02
397.05	403.03
397.429	399.18
397.808	416.59
398.186	393.31
398.565	410.48
398.944	406.42
399.323	384.95
399.701	395.79
400.08	399.86
400.458	405.96
400.837	395.57
401.215	419.07
401.594	410.03
401.972	419.75
402.351	405.74
402.729	417.72
403.107	410.94
403.486	425.85
403.864	429.92
404.242	426.3
404.62	420.88
404.999	437.38
405.377	421.78
405.755	433.53
406.133	429.47
406.511	434.66
406.889	407.77
407.267	456.81
407.645	458.62
408.023	438.73
408.401	431.95
408.779	455.91
409.156	458.62
409.534	458.17
409.912	441.22
410.29	440.54
410.667	462.69
411.045	473.31
411.422	459.07
411.8	470.37
412.178	489.13
412.555	457.94
412.933	479.18
413.31	494.78
413.687	480.99
414.065	505.4
414.442	497.03
414.819	498.39
415.197	510.82
415.574	493.42
415.951	486.87
416.328	493.87
416.705	507.2
417.082	514.44
417.46	506.75
417.837	513.53
418.214	513.76
418.591	525.73
418.967	521.22
419.344	535.68
419.721	520.76
420.098	530.71
420.475	537.03
420.852	529.58
421.228	551.72
421.605	539.07
421.982	532.06
422.358	536.13
422.735	543.81
423.111	547.2
423.488	549.24
423.864	556.02
424.241	572.51
424.617	553.53
424.994	572.51
425.37	576.81
425.746	578.84
426.123	595.34
426.499	558.5
426.875	585.85
427.251	579.07
427.627	590.59
428.003	590.82
428.379	605.28
428.756	607.99
429.132	609.57
429.507	644.38
429.883	643.47
430.259	615.9
430.635	638.95
431.011	632.62
431.387	654.32
431.763	650.03
432.138	650.48
432.514	672.17
432.89	634.43
433.265	671.95
433.641	682.79
434.016	682.57
434.392	659.29
434.767	685.96
435.143	697.26
435.518	712.4
435.894	718.27
436.269	709.68
436.644	698.84
437.02	710.36
437.395	721.66
437.77	723.92
438.145	737.48
438.52	730.48
438.895	744.49
439.271	752.62
439.646	760.3
440.021	767.31
440.395	781.77
440.77	778.61
441.145	761.43
441.52	818.38
441.895	798.5
442.27	824.71
442.645	800.53
443.019	819.96
443.394	811.15
443.769	823.81
444.143	810.7
444.518	823.81
444.892	810.93
445.267	842.79
445.641	846.86
446.016	850.92
446.39	855.67
446.764	859.51
447.139	849.12
447.513	858.16
447.887	840.75
448.262	855.44
448.636	856.35
449.01	863.13
449.384	888.21
449.758	906.74
450.132	907.19
450.506	897.7
450.88	902
451.254	900.64
451.628	915.33
452.002	935.89
452.376	925.95
452.75	937.93
453.123	927.76
453.497	958.27
453.871	943.8
454.244	976.12
454.618	972.5
454.992	975.44
455.365	998.49
455.739	1036.23
456.112	1004.59
456.486	1005.72
456.859	1042.33
457.232	1046.63
457.606	1060.64
457.979	1047.98
458.352	1066.51
458.725	1089.79
459.099	1080.07
459.472	1124.36
459.845	1125.04
460.218	1118.71
460.591	1129.56
460.964	1137.24
461.337	1167.07
461.71	1202.1
462.083	1192.38
462.456	1214.53
462.829	1223.34
463.201	1240.29
463.574	1263.12
463.947	1206.39
464.32	1283
464.692	1279.16
465.065	1301.99
465.438	1303.57
465.81	1318.26
466.183	1333.62
466.555	1351.93
466.928	1387.41
467.3	1390.34
467.672	1407.97
468.045	1435.99
468.417	1425.37
468.789	1426.73
469.161	1423.34
469.534	1504.69
469.906	1521.64
470.278	1538.59
470.65	1533.17
471.022	1581.07
471.394	1602.77
471.766	1583.56
472.138	1616.1
472.51	1652.71
472.882	1682.99
473.253	1682.09
473.625	1749.88
473.997	1761.63
474.369	1793.05
474.74	1802.09
475.112	1851.35
475.484	1882.76
475.855	1903.33
476.227	1933.83
476.598	1974.51
476.97	2010.22
477.341	2056.09
477.713	2066.71
478.084	2121.63
478.455	2144.68
478.827	2192.58
479.198	2251.11
479.569	2227.84
479.94	2332.01
480.311	2350.09
480.682	2416.08
481.053	2470.99
481.424	2482.75
481.795	2527.94
482.166	2565.46
482.537	2615.4
482.908	2685.45
483.279	2703.98
483.65	2762.74
484.021	2834.37
484.391	2859.01
484.762	2896.75
485.133	2962.05
485.503	2967.93
485.874	3038.66
486.244	3116.18
486.615	3151.2
486.985	3193.01
487.356	3254.93
487.726	3256.06
488.097	3378.32
488.467	3417.41
488.837	3439.33
489.207	3517.97
489.578	3571.76
489.948	3614.69
490.318	3710.28
490.688	3680.23
491.058	3789.15
491.428	3813.56
491.798	3901.01
492.168	3952.31
492.538	3984.17
492.908	4055.81
493.278	4095.13
493.648	4092.65
494.017	4131.52
494.387	4214.68
494.757	4241.12
495.126	4293.09
495.496	4265.3
495.866	4334.45
496.235	4419.42
496.605	4449.93
496.974	4486.53
497.344	4526.53
497.713	4555.23
498.082	4624.61
498.452	4622.58
498.821	4641.33
499.19	4683.82
499.559	4721.56
499.928	4764.49
500.298	4770.14
500.667	4852.63
501.036	4849.91
501.405	4902.12
501.774	4883.59
502.143	4952.06
502.512	4990.48
502.88	4965.62
503.249	5024.37
503.618	5023.24
503.987	5090.36
504.356	5173.97
504.724	5127.42
505.093	5184.37
505.462	5173.75
505.83	5206.29
506.199	5249.9
506.567	5334.87
506.936	5328.55
507.304	5366.74
507.672	5435.44
508.041	5434.31
508.409	5387.98
508.777	5522.21
509.145	5500.52
509.514	5450.8
509.882	5540.97
510.25	5581.42
510.618	5604.7
510.986	5639.5
511.354	5670.91
511.722	5707.75
512.09	5760.4
512.458	5716.56
512.826	5812.6
513.193	5821.87
513.561	5846.95
513.929	5856.89
514.297	5914.07
514.664	5954.07
515.032	5947.29
515.4	5966.72
515.767	5997.91
516.135	6050.56
516.502	6018.47
516.869	6061.41
517.237	6141.63
517.604	6059.6
517.972	6164.68
518.339	6220.95
518.706	6189.09
519.073	6215.08
519.44	6234.96
519.808	6285.58
520.175	6320.16
520.542	6356.09
520.909	6389.54
521.276	6393.15
521.643	6442.64
522.009	6483.54
522.376	6545.92
522.743	6502.53
523.11	6608.29
523.477	6679.02
523.843	6667.95
524.21	6712.92
524.577	6716.08
524.943	6773.48
525.31	6824.1
525.676	6832.91
526.043	6860.71
526.409	6947.49
526.776	6933.02
527.142	7032
527.508	6999.69
527.874	7079.01
528.241	7066.35
528.607	7114.94
528.973	7208.95
529.339	7193.36
529.705	7272.45
530.071	7220.7
530.437	7310.19
530.803	7360.13
531.169	7417.76
531.535	7413.01
531.901	7457.08
532.267	7457.3
532.632	7543.86
532.998	7556.74
533.364	7641.48
533.73	7636.73
534.095	7678.99
534.461	7716.51
534.826	7794.92
535.192	7829.05
535.557	7895.71
535.923	7789.27
536.288	7928.48
536.653	7917.18
537.019	7873.56
537.384	7930.74
537.749	8020.9
538.114	7977.74
538.479	8005.99
538.845	8108.81
539.21	8017.06
539.575	8075.59
539.94	8154.23
540.305	8226.1
540.67	8178.64
541.034	8265.42
541.399	8265.42
541.764	8287.11
542.129	8325.98
542.494	8315.36
542.858	8375.47
543.223	8486.66
543.587	8472.42
543.952	8450.72
544.316	8493.89
544.681	8476.94
545.045	8592.19
545.41	8604.62
545.774	8650.49
546.138	8660.89
546.503	8744.05
546.867	8694.33
547.231	8826.08
547.595	8798.06
547.959	8810.04
548.324	8869.7
548.688	8827.89
549.052	8880.32
549.416	9000.54
549.779	9016.36
550.143	9015.91
550.507	9059.97
550.871	9106.07
551.235	9037.83
551.599	9174.32
551.962	9193.3
552.326	9226.07
552.689	9229.23
553.053	9198.05
553.417	9192.63
553.78	9371.6
554.143	9334.54
554.507	9431.94
554.87	9407.76
555.234	9495.67
555.597	9464.93
555.96	9461.09
556.323	9525.5
556.686	9547.87
557.05	9564.37
557.413	9658.38
557.776	9589.9
558.139	9728.66
558.502	9743.8
558.865	9691.37
559.228	9855.43
559.59	9881.87
559.953	9951.48
560.316	10001.87
560.679	9994.19
561.041	9999.61
561.404	10029.21
561.767	10067.18
562.129	10062.21
562.492	10188.53
562.854	10157.12
563.217	10102.21
563.579	10168.42
563.941	10250.22
564.304	10297.23
564.666	10368.41
565.028	10319.6
565.39	10428.75
565.753	10446.38
566.115	10473.27
566.477	10489.77
566.839	10497.22
567.201	10579.03
567.563	10620.61
567.925	10737.22
568.287	10716.65
568.648	10770.21
569.01	10796.88
569.372	10866.48
569.734	10891.34
570.095	10899.47
570.457	10992.58
570.819	10980.15
571.18	11016.08
571.542	11116.87
571.903	11126.59
572.265	11176.98
572.626	11175.62
572.987	11238
573.349	11315.06
573.71	11402.96
574.071	11436.63
574.432	11530.64
574.794	11557.08
575.155	11586.23
575.516	11621.71
575.877	11680.24
576.238	11808.38
576.599	11869.17
576.96	11865.1
577.32	12021.25
577.681	12130.4
578.042	12224.41
578.403	12371.75
578.763	12381.47
579.124	12519.54
579.485	12563.38
579.845	12682.25
580.206	12847.22
580.566	12876.6
580.927	13049.02
581.287	13256.02
581.648	13286.53
582.008	13480.65
582.368	13550.93
582.728	13771.04
583.089	13940.98
583.449	14106.17
583.809	14184.81
584.169	14395.43
584.529	14489.89
584.889	14786.15
585.249	14910.44
585.609	15094.84
585.969	15388.62
586.329	15464.78
586.688	15749.52
587.048	15924.2
587.408	16162.84
587.768	16310.86
588.127	16526.22
588.487	16697.51
588.846	17098.18
589.206	17277.61
589.565	17504.27
589.925	17944.49
590.284	18042.79
590.643	18377.02
591.003	18840.51
591.362	19053.84
591.721	19297.9
592.08	19558.23
592.44	19789.86
592.799	20234.37
593.158	20384.87
593.517	20714.36
593.876	21114.12
594.235	21303.27
594.593	21584.84
594.952	21851.28
595.311	22096.02
595.67	22512.5
596.029	22945.94
596.387	23270.9
596.746	23465.7
597.104	23781.85
597.463	23962.86
597.822	24466.57
598.18	24578.44
598.538	24862.27
598.897	25432.88
599.255	25397.85
599.613	25972.52
599.972	26109.24
600.33	26551.04
600.688	26844.14
601.046	27110.35
601.404	27438.7
601.762	27720.27
602.12	28129.53
602.478	28324.33
602.836	28776.74
603.194	28902.39
603.552	29256.5
603.91	29149.61
604.268	29803.83
604.625	29879.09
604.983	30363.37
605.341	30485.62
605.698	30877.71
606.056	31168.32
606.413	31297.81
606.771	31649.89
607.128	31985.7
607.485	32083.1
607.843	32339.81
608.2	32650.31
608.557	33091.88
608.914	33220.02
609.272	33515.15
609.629	33800.11
609.986	34175.47
610.343	34145.87
610.7	34531.85
611.057	34704.72
611.414	34888
611.771	35009.35
612.127	35334.99
612.484	35353.07
612.841	35857.46
613.198	35864.69
613.554	36029.66
613.911	36358.46
614.267	36429.88
614.624	36723.88
614.98	36830.09
615.337	37230.53
615.693	37150.99
616.05	37340.36
616.406	37739.67
616.762	37749.84
617.118	38004.3
617.475	38172.65
617.831	38453.78
618.187	38581.91
618.543	38626.43
618.899	38909.36
619.255	39024.61
619.611	39187.09
619.967	39371.49
620.323	39518.16
620.678	39510.7
621.034	39600.41
621.39	39631.15
621.746	39757.02
622.101	40280.85
622.457	40060.97
622.812	40296.21
623.168	40346.83
623.523	40595.19
623.879	40715.41
624.234	40519.49
624.589	40688.75
624.945	40738.01
625.3	41081.96
625.655	40956.99
626.01	41060.71
626.365	41213.48
626.72	41213.48
627.075	41234.49
627.43	41371.89
627.785	41205.57
628.14	41453.02
628.495	41444.88
628.85	41578.44
629.205	41393.36
629.559	41750.41
629.914	41638.1
630.269	41688.49
630.623	41693.92
630.978	41759.45
631.332	41845.78
631.687	41998.32
632.041	41832.22
632.396	41999.45
632.75	41886
633.104	42106.34
633.459	41803.07
633.813	41980.46
634.167	41989.5
634.521	42091.87
634.875	42030.41
635.229	41994.7
635.583	42129.84
635.937	42004.19
636.291	42052.1
636.645	42050.07
636.999	41884.2
637.352	42066.79
637.706	41905.44
638.06	42125.09
638.413	41927.58
638.767	41963.52
639.121	42032.89
639.474	41772.33
639.828	41931.2
640.181	41914.03
640.534	41886.68
640.888	41827.02
641.241	41765.1
641.594	41876.06
641.947	42143.4
642.301	41994.93
642.654	41987.02
643.007	41794.03
643.36	42060.91
643.713	41989.05
644.066	42087.58
644.419	41643.07
644.771	41576.18
645.124	41150.88
645.477	41185.46
645.83	40937.33
646.182	40882.64
646.535	40711.12
646.888	40948.17
647.24	40726.49
647.593	40930.32
647.945	40879.93
648.298	40543.21
648.65	40482.88
649.002	40645.13
649.355	40767.61
649.707	40720.38
650.059	40821.85
650.411	41338.45
650.763	41283.08
651.115	41711.09
651.467	41631.32
651.819	41585.22
652.171	41458.67
652.523	41525.56
652.875	41427.94
653.227	41284.21
653.578	41580.25
653.93	41446.01
654.282	41221.39
654.633	41307.94
654.985	41279.24
655.337	41313.81
655.688	41335.96
656.039	41451.89
656.391	41200.37
656.742	41355.62
657.094	41320.82
657.445	41329.41
657.796	41436.3
658.147	41272.23
658.498	41272.23
658.849	41328.5
659.2	41315.62
659.551	41223.2
659.902	41395.85
660.253	41243.31
660.604	41362.63
660.955	41026.82
661.306	41429.52
661.656	41195.85
662.007	41302.52
662.358	41224.55
662.708	41230.65
663.059	41186.13
663.409	40855.52
663.76	41337.32
664.11	41316.07
664.461	41191.11
664.811	41283.53
665.161	41245.34
665.511	41121.05
665.862	41148.17
666.212	41220.48
666.562	41195.63
666.912	41079.7
667.262	40991.34
667.612	41156.53
667.962	41214.38
668.312	41136.42
668.662	41045.12
669.011	41021.39
669.361	41020.49
669.711	40921.96
670.06	41003.99
670.41	41004.22
670.76	40938.91
671.109	40987.27
671.459	40873.6
671.808	40827.27
672.157	40931.23
672.507	40724.45
672.856	40650.1
673.205	40751.57
673.554	41139.13
673.904	40854.17
674.253	41005.12
674.602	40825.47
674.951	40415.76
675.3	40062.55
675.649	40907.5
675.998	40758.8
676.346	40786.15
676.695	40849.19
677.044	40622.53
677.393	40632.48
677.741	40692.59
678.09	40573.04
678.438	40425.02
678.787	40649.88
679.135	40466.38
679.484	40302.32
679.832	40524.68
680.181	40164.92
680.529	40406.72
680.877	40300.73
681.225	40186.39
681.573	40485.59
681.922	40175.77
682.27	40183.45
682.618	40032.04
682.966	40021.42
683.314	40058.93
683.661	40117.46
684.009	39652.84
684.357	39742.33
684.705	39658.49
685.053	39781.65
685.4	39642.67
685.748	39431.6
686.095	39542.11
686.443	39301.89
686.79	39213.53
687.138	39339.4
687.485	39381.21
687.832	39251.95
688.18	39300.31
688.527	39005.4
688.874	39043.37
689.221	39044.27
689.568	38944.84
689.915	38827.78
690.262	38746.88
690.609	38604.51
690.956	38619.42
691.303	38588.01
691.65	38371.75
691.997	38417.39
692.344	38200.45
692.69	38282.48
693.037	38111.87
693.383	37808.82
693.73	37920.46
694.077	37737.86
694.423	37741.71
694.769	37790.52
695.116	37544.2
695.462	37603.63
695.808	37451.09
696.155	37539.68
696.501	37223.3
696.847	37209.74
697.193	37034.15
697.539	37235.73
697.885	36750.77
698.231	36715.97
698.577	36785.12
698.923	36619.02
699.269	36594.84
699.614	36330.44
699.96	36257.45
700.306	36295.42
700.651	36110.79
700.997	36032.82
701.342	35961.19
701.688	35922.54
702.033	35728.2
702.379	35814.07
702.724	35724.13
703.069	35782.43
703.415	35277.82
703.76	35429.68
704.105	35441.65
704.45	35342.45
704.795	35163.24
705.14	34964.38
705.485	35034.88
705.83	34942.91
706.175	35012.06
706.52	34756.47
706.865	34871.5
707.209	34738.17
707.554	34561.9
707.899	34678.74
708.243	34408.69
708.588	34370.27
708.932	34196.94
709.277	34081.69
709.621	34012.31
709.966	34053.67
710.31	34056.6
710.654	33716.73
710.998	33704.75
711.342	33698.87
711.687	33601.48
712.031	33658.87
712.375	33477.86
712.719	33626.79
713.063	33446.68
713.407	33469.28
713.75	33259.11
714.094	33309.51
714.438	33201.94
714.782	33113.8
715.125	33051.21
715.469	33205.78
715.812	32856.18
716.156	32807.82
716.499	32696.64
716.843	32705.91
717.186	32687.15
717.53	32822.74
717.873	32719.01
718.216	32660.03
718.559	32453.93
718.902	32351.56
719.246	32392.92
719.589	32373.26
719.932	32162.87
720.275	32210.33
720.617	32270.21
720.96	32062.08
721.303	32055.98
721.646	32017.11
721.989	31915.87
722.331	32031.57
722.674	32046.04
723.016	31890.11
723.359	31686.95
723.701	31845.82
724.044	31530.34
724.386	31404.7
724.729	31553.62
725.071	31416.67
725.413	31418.03
725.755	31462.32
726.097	31287.41
726.439	31191.6
726.782	31179.39
727.124	31313.4
727.465	31111.82
727.807	31118.38
728.149	31115.66
728.491	30954.77
728.833	31014.65
729.175	30806.97
729.516	30762.45
729.858	30847.2
730.199	30937.14
730.541	30600.88
730.882	30690.59
731.224	30761.32
731.565	30571.5
731.906	30558.17
732.248	30674.32
732.589	30418.06
732.93	30340.77
733.271	30290.83
733.612	30446.76
733.953	30406.53
734.294	30150.27
734.635	30073.21
734.976	30225.97
735.317	29978.52
735.658	30089.03
735.999	30100.32
736.339	30036.15
736.68	29952.31
737.021	29931.74
737.361	29826.89
737.702	29952.76
738.042	29887.45
738.383	29834.57
738.723	29830.73
739.063	29724.52
739.404	29774.68
739.744	29680
740.084	29544.86
740.424	29609.26
740.764	29476.61
741.104	29622.14
741.444	29472.54
741.784	29410.85
742.124	29460.79
742.464	29299.44
742.804	29286.56
743.143	29238.2
743.483	29311.42
743.823	29172.44
744.162	29072.55
744.502	29128.82
744.841	28886.57
745.181	29194.36
745.52	28958.89
745.86	29006.79
746.199	28876.18
746.538	28831.21
746.877	28936.97
747.216	28879.57
747.556	28835.72
747.895	28740.13
748.234	28737.87
748.573	28722.96
748.911	28639.12
749.25	28628.27
749.589	28576.07
749.928	28550.76
750.267	28638.44
750.605	28513.47
750.944	28429.41
751.283	28379.69
751.621	28446.58
751.96	28349.64
752.298	28180.83
752.636	28283.87
752.975	28075.74
753.313	28132.24
753.651	28230.77
753.989	28048.85
754.327	28042.98
754.666	27755.53
755.004	27853.83
755.342	27816.09
755.679	27838.69
756.017	27628.98
756.355	27847.73
756.693	27621.29
757.031	27669.43
757.368	27581.52
757.706	27349.21
758.044	27468.53
758.381	27382.2
758.719	27374.07
759.056	27358.02
759.394	27114.64
759.731	27081.87
760.068	27015.43
760.405	26966.17
760.743	26927.98
761.08	26898.6
761.417	26694.76
761.754	26670.36
762.091	26627.87
762.428	26547.88
762.765	26354.21
763.102	26499.29
763.438	26361.21
763.775	26210.48
764.112	26202.8
764.449	26250.03
764.785	26162.12
765.122	25912.19
765.458	25776.82
765.795	25863.83
766.131	25741.34
766.467	25685.98
766.804	25554.68
767.14	25504.74
767.476	25494.57
767.812	25324.86
768.148	25342.48
768.485	25121.92
768.821	25107.01
769.157	25108.14
769.492	25033.56
769.828	24939.56
770.164	24738.66
770.5	24678.55
770.836	24792.67
771.171	24581.6
771.507	24533.24
771.842	24441.49
772.178	24269.29
772.513	24310.87
772.849	24150.42
773.184	24017.09
773.519	23992.24
773.855	23920.37
774.19	23780.72
774.525	23711.34
774.86	23745.69
775.195	23610.1
775.53	23530.78
775.865	23490.78
776.2	23201.75
776.535	23193.84
776.87	23148.64
777.205	23123.33
777.539	22898.25
777.874	22919.95
778.209	22768.31
778.543	22735.55
778.878	22684.93
779.212	22625.94
779.547	22432.05
779.881	22536.91
780.215	22470.02
780.55	22354.31
780.884	22273.41
781.218	22191.61
781.552	22179.85
781.886	22044.49
782.22	21893.08
782.554	21843.82
782.888	21715.91
783.222	21622.58
783.556	21508.46
783.889	21477.27
784.223	21255.59
784.557	21226.43
784.89	21274.57
785.224	21139.88
785.557	20945.31
785.891	20974.91
786.224	20930.17
786.558	20852.88
786.891	20689.05
787.224	20680.01
787.557	20662.15
787.891	20673.45
788.224	20508.49
788.557	20504.87
788.89	20429.84
789.223	20408.83
789.556	20214.48
789.888	20187.82
790.221	20176.29
790.554	19954.6
790.887	19966.13
791.219	19976.52
791.552	19920.48
791.884	19651.11
792.217	19727.72
792.549	19591.9
792.882	19582.86
793.214	19482.98
793.546	19459.93
793.879	19314.17
794.211	19152.36
794.543	19258.58
794.875	19197.79
795.207	19234.17
795.539	19146.94
795.871	19228.07
796.203	18890.9
796.535	18904.69
796.867	18780.85
797.198	18809.77
797.53	18744.24
797.862	18656.33
798.193	18686.39
798.525	18567.29
798.856	18589.67
799.188	18167.3
799.519	18214.99
799.85	18172.73
800.182	18255.89
800.513	18210.47
800.844	17938.61
801.175	18114.65
801.506	18106.52
801.837	17995.33
802.168	17843.02
802.499	17930.02
802.83	17788.56
803.161	17731.61
803.491	17709.24
803.822	17723.47
804.153	17622.46
804.483	17528
804.814	17404.39
805.145	17424.05
805.475	17423.82
805.805	17321
806.136	17284.39
806.466	17287.55
806.796	17291.62
807.126	17095.92
807.457	17110.61
807.787	17117.84
808.117	17050.95
808.447	16892.54
808.777	16951.97
809.107	16879.88
809.436	16878.3
809.766	16762.37
810.096	16709.94
810.426	16611.87
810.755	16566.67
811.085	16506.78
811.414	16543.62
811.744	16436.28
812.073	16330.52
812.403	16390.63
812.732	16310.4
813.061	16201.48
813.39	16184.53
813.719	16090.75
814.049	16199.45
814.378	16115.38
814.707	16088.49
815.036	16055.95
815.365	15984.09
815.693	15836.29
816.022	15849.63
816.351	15852.56
816.68	15607.15
817.008	15751.32
817.337	15651.21
817.665	15710.65
817.994	15607.37
818.322	15634.26
818.651	15585.68
818.979	15477.43
819.307	15533.25
819.636	15442.18
819.964	15382.52
820.292	15448.51
820.62	15471.78
820.948	15330.32
821.276	15414.16
821.604	15347.49
821.932	15394.5
822.259	15396.98
822.587	15306.59
822.915	15289.19
823.243	15382.52
823.57	15246.25
823.898	15314.05
824.225	15244.22
824.553	15310.2
824.88	15352.01
825.207	15283.54
825.535	15211.68
825.862	15298.45
826.189	15223.43
826.516	15289.87
826.843	15326.02
827.17	15214.61
827.497	15393.37
827.824	15303.43
828.151	15283.09
828.478	15272.01
828.805	15299.13
829.131	15195.63
829.458	15190.21
829.785	15152.47
830.111	15226.82
830.438	15273.37
830.764	15178.23
831.09	15239.92
831.417	15151.79
831.743	15247.38
832.069	15250.32
832.395	15124.67
832.722	15184.78
833.048	15053.49
833.374	15085.8
833.7	14986.37
834.026	15123.77
834.351	15125.8
834.677	15062.75
835.003	15090.32
835.329	14941.85
835.654	15018.24
835.98	14942.76
836.306	15054.84
836.631	14987.28
836.956	14990.21
837.282	14923.1
837.607	14882.87
837.932	14845.36
838.258	14834.06
838.583	14781.63
838.908	14646.04
839.233	14699.83
839.558	14668.64
839.883	14656.21
840.208	14605.59
840.533	14615.31
840.858	14597.23
841.182	14639.94
841.507	14546.38
841.832	14616.66
842.156	14498.25
842.481	14546.16
842.805	14410.79
843.13	14349.78
843.454	14336.9
843.778	14303.68
844.103	14250.12
844.427	14242.66
844.751	14172.38
845.075	14115.66
845.399	14161.53
845.723	14055.77
846.047	14127.19
846.371	13984.36
846.695	14019.62
847.019	13945.27
847.343	13823.24
847.666	13735.78
847.99	13737.82
848.313	13679.29
848.637	13604.94
848.96	13631.38
849.284	13542.12
849.607	13466.64
849.931	13420.99
850.254	13329.24
850.577	13261.67
850.9	13142.35
851.223	13175.57
851.546	13010.15
851.869	13012.41
852.192	13063.48
852.515	12956.82
852.838	12921.79
853.161	12890.38
853.483	12796.15
853.806	12830.04
854.129	12785.07
854.451	12696.49
854.774	12633.44
855.096	12695.36
855.419	12551.86
855.741	12598.86
856.063	12473.67
856.385	12485.42
856.708	12427.79
857.03	12456.04
857.352	12441.81
857.674	12305.54
857.996	12218.31
858.318	12171.98
858.64	12291.08
858.961	12240
859.283	12052.21
859.605	12105.54
859.926	12165.43
860.248	12020.57
860.57	12029.84
860.891	12085.2
861.212	11931.54
861.534	11867.13
861.855	11870.07
862.176	11859.45
862.498	11921.14
862.819	11870.3
863.14	11818.77
863.461	11769.28
863.782	11665.55
864.103	11723.63
864.424	11681.83
864.745	11707.59
865.065	11608.83
865.386	11596.63
865.707	11648.15
866.027	11619.68
866.348	11579.91
866.668	11534.94
866.989	11523.86
867.309	11395.51
867.63	11474.37
867.95	11468.5
868.27	11326.81
868.59	11403.64
868.91	11371.1
869.23	11357.31
869.55	11360.03
869.87	11330.2
870.19	11339.01
870.51	11350.76
870.83	11340.82
871.15	11195.51
871.469	11256.53
871.789	11166.81
872.109	11213.82
872.428	11191.44
872.748	11163.42
873.067	11213.82
873.386	11180.82
873.706	11136.3
874.025	11069.19
874.344	10969.3
874.663	11035.74
874.982	11060.37
875.301	11014.5
875.62	10990.32
875.939	10922.52
876.258	10961.84
876.577	10927.95
876.896	10988.96
877.214	10959.58
877.533	10839.81
877.852	10835.29
878.17	10905.8
878.489	10829.42
878.807	10807.05
879.125	10800.04
879.444	10779.02
879.762	10754.84
880.08	10845.01
880.398	10678.91
880.716	10764.11
881.034	10663.32
881.352	10660.16
881.67	10574.96
881.988	10674.39
882.306	10596.43
882.624	10618.8
882.941	10494.29
883.259	10474.63
883.577	10464.46
883.894	10448.64
884.212	10444.12
884.529	10435.53
884.846	10400.28
885.164	10341.07
885.481	10341.07
885.798	10372.48
886.115	10236.21
886.432	10260.39
886.75	10273.95
887.067	10259.04
887.383	10200.73
887.7	10245.48
888.017	10126.84
888.334	10141.98
888.651	10123.9
888.967	10103.56
889.284	10045.94
889.6	10070.34
889.917	9877.13
890.233	9987.41
890.55	9916.9
890.866	9933.4
891.182	9924.13
891.498	9892.72
891.815	9806.39
892.131	9874.64
892.447	9737.7
892.763	9803.46
893.079	9753.51
893.395	9733.85
893.71	9675.78
894.026	9654.31
894.342	9647.75
894.657	9574.99
894.973	9557.14
895.289	9489.57
895.604	9493.63
895.92	9465.39
896.235	9429.68
896.55	9373.64
896.865	9335.9
897.181	9370.02
897.496	9345.16
897.811	9291.38
898.126	9194.89
898.441	9182
898.756	9182.68
899.071	9133.19
899.386	9113.08
899.7	9063.14
900.015	9036.25
900.33	8885.97
900.644	8887.77
900.959	9003.93
901.273	8907.21
901.588	8843.26
901.902	8878.51
902.216	8852.3
902.531	8749.7
902.845	8815.69
903.159	8741.79
903.473	8662.7
903.787	8648.23
904.101	8628.12
904.415	8580.66
904.729	8580.44
905.042	8504.96
905.356	8549.93
905.67	8421.35
905.984	8471.51
906.297	8490.05
906.611	8428.58
906.924	8357.17
907.237	8300.22
907.551	8383.16
907.864	8308.81
908.177	8250.28
908.491	8185.87
908.804	8190.39
909.117	8122.15
909.43	8033.79
909.743	8036.05
910.056	8075.14
910.368	7955.37
910.681	7958.99
910.994	8001.02
911.307	7945.88
911.619	7851.64
911.932	7792.66
912.244	7833.57
912.557	7795.6
912.869	7760.35
913.181	7643.51
913.494	7635.15
913.806	7688.03
914.118	7599.9
914.43	7514.25
914.742	7563.74
915.054	7544.08
915.366	7488.49
915.678	7458.43
915.99	7400.36
916.302	7399
916.613	7351.54
916.925	7328.72
917.236	7284.65
917.548	7240.81
917.859	7206.24
918.171	7165.56
918.482	7144.09
918.794	7148.84
919.105	7133.24
919.416	7062.96
919.727	7051.44
920.038	7013.93
920.349	7013.7
920.66	6977.54
920.971	6916.75
921.282	6963.31
921.593	6887.6
921.903	6860.71
922.214	6811.67
922.525	6718.11
922.835	6727.15
923.146	6709.53
923.456	6710.2
923.767	6688.96
924.077	6622.3
924.387	6650.32
924.697	6574.39
925.008	6599.02
925.318	6522.41
925.628	6525.58
925.938	6477.89
926.248	6412.36
926.558	6382.98
926.867	6436.09
927.177	6382.76
927.487	6326.94
927.796	6284.68
928.106	6298.01
928.416	6221.4
928.725	6243.1
929.034	6205.81
929.344	6205.13
929.653	6184.57
929.962	6107.06
930.271	6124.01
930.581	6070.22
930.89	6014.4
931.199	5976.66
931.508	6005.59
931.817	5952.26
932.125	5952.48
932.434	5986.83
932.743	5858.02
933.051	5855.09
933.36	5813.51
933.669	5851.47
933.977	5813.51
934.286	5773.51
934.594	5794.75
934.902	5674.3
935.21	5710.91
935.519	5728.76
935.827	5672.27
936.135	5607.18
936.443	5616.45
936.751	5585.26
937.059	5567.18
937.367	5519.5
937.674	5551.59
937.982	5539.84
938.29	5453.06
938.597	5447.87
938.905	5422.56
939.213	5383.23
939.52	5314.08
939.827	5375.1
940.135	5325.38
940.442	5272.5
940.749	5220.3
941.056	5309.56
941.363	5177.14
941.67	5203.58
941.977	5168.1
942.284	5180.08
942.591	5140.53
942.898	5130.13
943.205	5080.87
943.511	5051.94
943.818	5069.12
944.125	4988.67
944.431	4995
944.738	4971.49
945.044	4951.38
945.35	4933.53
945.657	4848.56
945.963	4917.26
946.269	4913.42
946.575	4846.53
946.881	4805.4
947.187	4798.62
947.493	4816.92
947.799	4795.45
948.105	4732.18
948.41	4719.52
948.716	4690.15
949.022	4705.74
949.327	4702.12
949.633	4613.31
949.938	4665.51
950.244	4700.09
950.549	4595.23
950.854	4594.33
951.16	4577.15
951.465	4472.75
951.77	4488.79
952.075	4489.47
952.38	4441.11
952.685	4437.27
952.99	4455.8
953.294	4388.46
953.599	4364.5
953.904	4348.46
954.209	4390.72
954.513	4312.3
954.818	4308.69
955.122	4296.71
955.426	4273.88
955.731	4262.36
956.035	4264.17
956.339	4189.82
956.643	4183.94
956.948	4195.02
957.252	4176.71
957.556	4130.39
957.86	4131.97
958.163	4146.88
958.467	4091.97
958.771	4137.84
959.075	4018.52
959.378	4037.96
959.682	4026.89
959.985	4026.89
960.289	3954.8
960.592	3974.91
960.896	3942.59
961.199	3912.09
961.502	3909.6
961.805	3912.31
962.108	3901.47
962.411	3861.47
962.714	3829.15
963.017	3841.35
963.32	3815.82
963.623	3810.62
963.926	3750.51
964.228	3772.88
964.531	3751.19
964.833	3683.17
965.136	3696.72
965.438	3669.61
965.741	3686.33
966.043	3696.05
966.345	3692.88
966.648	3620.12
966.95	3630.29
967.252	3621.7
967.554	3567.24
967.856	3588.93
968.158	3557.75
968.46	3543.96
968.761	3541.93
969.063	3519.78
969.365	3469.84
969.666	3556.62
969.968	3445.88
970.269	3449.5
970.571	3400.69
970.872	3421.03
971.174	3420.35
971.475	3423.74
971.776	3423.06
972.077	3355.72
972.378	3352.78
972.679	3327.69
972.98	3300.58
973.281	3322.27
973.582	3248.6
973.883	3283.85
974.183	3290.41
974.484	3274.36
974.785	3223.29
975.085	3253.57
975.386	3237.08
975.686	3179.68
975.986	3173.35
976.287	3171.77
976.587	3139.23
976.887	3139
977.187	3129.06
977.487	3107.81
977.787	3113.92
978.087	3082.05
978.387	3110.75
978.687	3065.33
978.987	3069.4
979.286	3060.36
979.586	3008.38
979.885	2942.17
980.185	2962.73
980.484	2978.55
980.784	2981.04
981.083	2931.1
981.382	2930.64
981.682	2941.26
981.981	2930.87
982.28	2933.13
982.579	2857.2
982.878	2906.01
983.177	2864.43
983.475	2869.63
983.774	2816.97
984.073	2843.64
984.372	2811.55
984.67	2786.92
984.969	2782.62
985.267	2807.93
985.566	2771.1
985.864	2730.2
986.162	2742.63
986.461	2726.13
986.759	2706.02
987.057	2682.06
987.355	2710.99
987.653	2695.62
987.951	2654.49
988.249	2677.99
988.547	2653.81
988.844	2634.38
989.142	2594.83
989.44	2566.81
989.737	2564.55
990.035	2558.45
990.332	2573.59
990.63	2546.92
990.927	2560.26
991.224	2549.86
991.521	2484.55
991.819	2492.24
992.116	2503.54
992.413	2449.75
992.71	2451.79
993.006	2473.48
993.303	2455.4
993.6	2423.99
993.897	2425.12
994.193	2410.43
994.49	2409.53
994.787	2393.71
995.083	2354.61
995.379	2391.22
995.676	2353.48
995.972	2369.53
996.268	2318.46
996.565	2319.81
996.861	2320.04
997.157	2292.92
997.453	2311.45
997.749	2268.29
998.044	2224.22
998.34	2283.65
998.636	2209.08
998.932	2249.98
999.227	2206.37
999.523	2204.11
999.818	2224
1000.114	2158.46
1000.409	2162.75
1000.704	2167.05
1001	2152.81
1001.295	2112.36
1001.59	2135.41
1001.885	2133.6
1002.18	2093.15
1002.475	2107.61
1002.77	2070.55
1003.065	2012.48
1003.359	2071.68
1003.654	2066.71
1003.949	2054.51
1004.243	2008.86
1004.538	2005.92
1004.832	2006.15
1005.127	1974.74
1005.421	1994.17
1005.715	1980.16
1006.009	1949.43
1006.304	1978.58
1006.598	1951.69
1006.892	1937.9
1007.186	1904.23
1007.48	1904
1007.773	1887.28
1008.067	1881.18
1008.361	1891.8
1008.655	1865.13
1008.948	1832.14
1009.242	1855.64
1009.535	1834.85
1009.829	1841.18
1010.122	1839.82
1010.415	1788.98
1010.708	1806.15
1011.001	1767.51
1011.295	1792.14
1011.588	1745.36
1011.881	1735.65
1012.173	1722.31
1012.466	1717.12
1012.759	1720.51
1013.052	1725.25
1013.344	1700.62
1013.637	1700.17
1013.93	1671.69
1014.222	1651.13
1014.514	1655.2
1014.807	1666.5
1015.099	1638.47
1015.391	1649.55
1015.683	1641.19
1015.976	1642.99
1016.268	1609.1
1016.56	1589.21
1016.851	1584.46
1017.143	1584.46
1017.435	1548.98
1017.727	1574.29
1018.018	1577.23
1018.31	1532.94
1018.602	1538.36
1018.893	1544.69
1019.185	1508.08
1019.476	1475.99
1019.767	1537.91
1020.058	1474.86
1020.35	1451.59
1020.641	1463.79
1020.932	1418.59
1021.223	1415.43
1021.514	1421.53
1021.804	1427.18
1022.095	1415.65
1022.386	1404.36
1022.677	1408.65
1022.967	1394.41
1023.258	1372.04
1023.548	1358.93
1023.839	1324.36
1024.129	1363.9
1024.419	1354.19
1024.709	1324.13
1025	1311.93
1025.29	1301.31
1025.58	1310.35
1025.87	1294.53
1026.16	1298.6
1026.449	1314.19
1026.739	1264.7
1027.029	1285.04
1027.319	1255.89
1027.608	1254.76
1027.898	1232.83
1028.187	1226.28
1028.477	1215.21
1028.766	1221.31
1029.055	1198.71
1029.344	1203.23
1029.634	1191.71
1029.923	1173.85
1030.212	1163.01
1030.501	1205.94
1030.79	1154.64
1031.078	1147.41
1031.367	1164.36
1031.656	1130.92
1031.945	1143.8
1032.233	1113.06
1032.522	1133.63
1032.81	1124.36
1033.099	1117.81
1033.387	1102.44
1033.675	1087.08
1033.963	1090.69
1034.251	1068.32
1034.54	1057.02
1034.828	1058.83
1035.116	1046.63
1035.403	1060.41
1035.691	1044.82
1035.979	1034.87
1036.267	1027.87
1036.554	1005.72
1036.842	996
1037.129	994.2
1037.417	982.9
1037.704	1025.16
1037.992	962.56
1038.279	973.18
1038.566	986.51
1038.853	986.51
1039.14	986.51
