Data from hue_220_FLMS001491_00017.txt Node
Date: Tue Feb 07 16:38:36 GMT 2017
User: dcchb
Spectrometer: FLMS00149
Trigger mode: 0
Integration Time (sec): 2.000000E-2
Scans to average: 10
Electric dark correction enabled: true
Nonlinearity correction enabled: false
Boxcar width: 0
XAxis mode: Wavelengths
Number of Pixels in Spectrum: 2048
>>>>>Begin Spectral Data<<<<<
341.393	-0.18
341.776	-0.18
342.16	-0.18
342.543	-85.61
342.927	-53.52
343.31	-76.11
343.693	-83.35
344.077	-75.66
344.46	-59.84
344.843	-61.88
345.226	-26.17
345.61	-38.15
345.993	-4.7
346.376	6.82
346.759	13.15
347.142	15.86
347.525	38.46
347.908	61.51
348.291	75.52
348.674	92.24
349.057	122.3
349.44	121.4
349.823	134.05
350.206	159.36
350.588	175.86
350.971	209.3
351.354	215.86
351.737	233.71
352.119	242.75
352.502	280.26
352.884	260.83
353.267	275.97
353.65	294.5
354.032	287.49
354.414	291.79
354.797	317.32
355.179	310.32
355.562	302.63
355.944	336.76
356.326	323.2
356.709	320.03
357.091	303.31
357.473	333.37
357.855	336.08
358.238	355.06
358.62	331.79
359.002	341.05
359.384	338.79
359.766	348.06
360.148	329.98
360.53	338.11
360.912	334.72
361.294	338.56
361.676	321.62
362.057	332.46
362.439	338.11
362.821	325.91
363.203	322.52
363.584	304.44
363.966	321.39
364.348	320.49
364.729	320.71
365.111	299.92
365.493	297.44
365.874	293.14
366.256	319.36
366.637	304.89
367.019	306.7
367.4	309.19
367.781	296.08
368.163	312.8
368.544	322.52
368.925	298.11
369.306	302.18
369.688	305.12
370.069	307.6
370.45	317.32
370.831	331.33
371.212	293.14
371.593	299.24
371.974	308.96
372.355	305.57
372.736	320.26
373.117	313.25
373.498	298.57
373.879	321.39
374.26	307.83
374.641	284.78
375.021	302.18
375.402	297.44
375.783	328.4
376.163	320.26
376.544	320.26
376.925	327.94
377.305	329.75
377.686	310.32
378.066	328.4
378.447	330.43
378.827	316.64
379.208	325.01
379.588	332.24
379.968	342.18
380.349	340.15
380.729	340.15
381.109	333.37
381.489	345.12
381.87	339.69
382.25	336.08
382.63	322.75
383.01	334.27
383.39	322.52
383.77	342.18
384.15	342.86
384.53	338.11
384.91	350.99
385.29	348.51
385.67	338.11
386.049	356.64
386.429	344.89
386.809	351.45
387.189	344.89
387.568	348.28
387.948	341.73
388.328	360.03
388.707	320.71
389.087	344.21
389.466	334.27
389.846	349.86
390.225	354.38
390.605	361.61
390.984	380.82
391.363	367.94
391.743	356.19
392.122	372.46
392.501	369.75
392.881	373.59
393.26	357.77
393.639	372.24
394.018	378.79
394.397	366.81
394.776	366.59
395.155	388.96
395.534	365.68
395.913	366.36
396.292	396.64
396.671	379.02
397.05	365.23
397.429	378.56
397.808	376.98
398.186	409.3
398.565	382.18
398.944	406.13
399.323	420.14
399.701	390.99
400.08	375.17
400.458	376.3
400.837	429.41
401.215	416.53
401.594	401.16
401.972	420.14
402.351	425.12
402.729	417.21
403.107	414.72
403.486	429.64
403.864	436.87
404.242	421.5
404.62	450.65
404.999	449.07
405.377	443.65
405.755	456.53
406.133	443.19
406.511	437.32
406.889	463.76
407.267	463.98
407.645	461.95
408.023	469.41
408.401	478.45
408.779	480.03
409.156	504.44
409.534	507.83
409.912	497.2
410.29	504.66
410.667	532.91
411.045	525.9
411.422	539.69
411.8	552.34
412.178	531.33
412.555	531.55
412.933	556.19
413.31	559.12
413.687	577.2
414.065	565
414.442	598.44
414.819	597.09
415.197	609.74
415.574	611.55
415.951	617.65
416.328	643.42
416.705	632.79
417.082	613.81
417.46	662.85
417.837	663.98
418.214	674.37
418.591	660.14
418.967	684.09
419.344	674.6
419.721	710.76
420.098	697.88
420.475	715.5
420.852	719.57
421.228	760.47
421.605	763.19
421.982	763.41
422.358	767.71
422.735	804.54
423.111	820.81
423.488	814.03
423.864	809.51
424.241	817.87
424.617	874.37
424.994	856.97
425.37	840.92
425.746	875.5
426.123	909.85
426.499	906.69
426.875	933.35
427.251	935.84
427.627	936.29
428.003	973.58
428.379	942.16
428.756	973.35
429.132	971.09
429.507	977.42
429.883	1006.8
430.259	1015.16
430.635	1042.73
431.011	1040.69
431.387	1076.17
431.763	1063.74
432.138	1096.06
432.514	1109.39
432.89	1103.52
433.265	1127.7
433.641	1177.41
434.016	1175.38
434.392	1205.89
434.767	1231.42
435.143	1231.65
435.518	1264.87
435.894	1249.05
436.269	1289.05
436.644	1323.4
437.02	1326.56
437.395	1332.66
437.77	1363.17
438.145	1400.23
438.52	1437.52
438.895	1453.79
439.271	1450.4
439.646	1482.94
440.021	1513
440.395	1536.05
440.77	1493.11
441.145	1555.26
441.52	1580.11
441.895	1618.76
442.27	1632.99
442.645	1592.32
443.019	1676.16
443.394	1654.91
443.769	1671.64
444.143	1662.37
444.518	1718.87
444.892	1707.79
445.267	1710.05
445.641	1767
446.016	1755.93
446.39	1743.73
446.764	1765.87
447.139	1787.34
447.513	1802.48
447.887	1813.55
448.262	1801.12
448.636	1811.75
449.01	1875.93
449.384	1896.72
449.758	1860.11
450.132	1899.65
450.506	1922.7
450.88	1919.99
451.254	1925.87
451.628	1994.79
452.002	1978.97
452.376	2005.19
452.75	2002.02
453.123	2031.18
453.497	2054.45
453.871	2063.04
454.244	2128.57
454.618	2108.69
454.992	2128.12
455.365	2120.89
455.739	2202.92
456.112	2222.58
456.486	2214
456.859	2263.71
457.232	2264.84
457.606	2293.09
457.979	2286.99
458.352	2326.08
458.725	2358.62
459.099	2362.24
459.472	2439.3
459.845	2453.54
460.218	2490.6
460.591	2520.88
460.964	2493.08
461.337	2541.22
461.71	2589.8
462.083	2577.6
462.456	2605.85
462.829	2610.14
463.201	2680.65
463.574	2675.68
463.947	2727.88
464.32	2764.72
464.692	2799.52
465.065	2789.8
465.438	2840.42
465.81	2875
466.183	2904.15
466.555	2950.7
466.928	2991.15
467.3	3003.13
467.672	3010.81
468.045	3058.49
468.417	3105.95
468.789	3098.94
469.161	3167.64
469.534	3207.19
469.906	3226.85
470.278	3269.56
470.65	3332.84
471.022	3344.14
471.394	3445.83
471.766	3460.97
472.138	3465.04
472.51	3544.81
472.882	3609.44
473.253	3582.32
473.625	3666.16
473.997	3738.25
474.369	3723.33
474.74	3775.31
475.112	3779.83
475.484	3913.16
475.855	3973.27
476.227	4018.92
476.598	4079.71
476.97	4081.29
477.341	4154.74
477.713	4245.81
478.084	4244.45
478.455	4325.13
478.827	4368.29
479.198	4498.23
479.569	4525.57
479.94	4575.06
480.311	4599.92
480.682	4703.2
481.053	4782.52
481.424	4834.49
481.795	4925.79
482.166	4979.35
482.537	4955.39
482.908	5142.28
483.279	5114.48
483.65	5179.12
484.021	5217.53
484.391	5329.17
484.762	5339.34
485.133	5446.68
485.503	5463.18
485.874	5593.79
486.244	5595.83
486.615	5673.11
486.985	5725.99
487.356	5824.3
487.726	5857.29
488.097	5927.8
488.467	5939.77
488.837	6044.18
489.207	6146.77
489.578	6276.94
489.948	6245.98
490.318	6366.65
490.688	6361.68
491.058	6403.49
491.428	6513.77
491.798	6563.03
492.168	6664.95
492.538	6642.58
492.908	6762.58
493.278	6808
493.648	6786.98
494.017	6872.63
494.387	6882.12
494.757	7017.03
495.126	7029.24
495.496	7048.67
495.866	7080.76
496.235	7104.71
496.605	7192.4
496.974	7160.31
497.344	7238.04
497.713	7240.08
498.082	7328.89
498.452	7320.75
498.821	7400.3
499.19	7389
499.559	7445.04
499.928	7499.28
500.298	7482.56
500.667	7548.32
501.036	7553.97
501.405	7585.15
501.774	7584.7
502.143	7623.12
502.512	7713.74
502.88	7748.54
503.249	7713.51
503.618	7741.99
503.987	7796.45
504.356	7826.28
504.724	7849.78
505.093	7826.73
505.462	7819.05
505.83	7860.85
506.199	7923
506.567	7937.01
506.936	7977.91
507.304	8026.95
507.672	8024.69
508.041	8068.08
508.409	8079.83
508.777	8086.38
509.145	8137.68
509.514	8163.44
509.882	8126.61
510.25	8174.29
510.618	8203.89
510.986	8173.16
511.354	8283.67
511.722	8268.98
512.09	8286.38
512.458	8286.15
512.826	8290.67
513.193	8302.2
513.561	8365.92
513.929	8398.69
514.297	8433.72
514.664	8457.22
515.032	8383.55
515.4	8447.73
515.767	8485.24
516.135	8485.92
516.502	8331.12
516.869	8485.92
517.237	8391.69
517.604	8443.66
517.972	8432.36
518.339	8487.05
518.706	8447.5
519.073	8452.25
519.44	8487.05
519.808	8591.45
520.175	8480.95
520.542	8564.56
520.909	8564.34
521.276	8523.21
521.643	8569.08
522.009	8615.86
522.376	8607.27
522.743	8670.1
523.11	8681.62
523.477	8701.73
523.843	8688.63
524.21	8779.7
524.577	8753.26
524.943	8742.64
525.31	8744.45
525.676	8782.18
526.043	8775.63
526.409	8743.32
526.776	8815.86
527.142	8779.92
527.508	8805.69
527.874	8822.18
528.241	8825.8
528.607	8799.13
528.973	8846.36
529.339	8794.61
529.705	8852.69
530.071	8901.05
530.437	8873.48
530.803	8891.79
531.169	8882.75
531.535	8818.34
531.901	8788.06
532.267	8836.87
532.632	8830.09
532.998	8874.61
533.364	8831
533.73	8838.23
534.095	8849.08
534.461	8802.75
534.826	8823.09
535.192	8852.92
535.557	8801.17
535.923	8753.71
536.288	8747.16
536.653	8764.33
537.019	8662.19
537.384	8684.11
537.749	8660.83
538.114	8656.09
538.479	8657.22
538.845	8623.77
539.21	8649.98
539.575	8615.41
539.94	8571.34
540.305	8604.34
540.67	8538.57
541.034	8550.1
541.399	8529.99
541.764	8481.18
542.129	8471.46
542.494	8526.6
542.858	8518.46
543.223	8418.13
543.587	8479.14
543.952	8413.61
544.316	8397.11
544.681	8401.4
545.045	8409.99
545.41	8400.05
545.774	8397.11
546.138	8353.5
546.503	8311.46
546.867	8276.89
547.231	8298.81
547.595	8281.18
547.959	8266.94
548.324	8262.88
548.688	8195.08
549.052	8124.57
549.416	8184.01
549.779	8120.05
550.143	8098.81
550.507	8129.32
550.871	8115.76
551.235	8029.21
551.599	8087.06
551.962	8053.62
552.326	8069.66
552.689	8084.8
553.053	8034.63
553.417	8020.85
553.78	8066.04
554.143	8055.88
554.507	8036.89
554.87	7978.14
555.234	8056.78
555.597	7925.71
555.96	7931.59
556.323	7960.29
556.686	7924.13
557.05	7954.18
557.413	7977.91
557.776	7935.65
558.139	7908.53
558.502	7937.01
558.865	7977.91
559.228	7936.56
559.59	7970.23
559.953	7906.95
560.316	7999.15
560.679	7950.57
561.041	7995.31
561.404	7973.17
561.767	7993.28
562.129	7944.24
562.492	8010.91
562.854	7939.95
563.217	7980.4
563.579	7947.4
563.941	7975.88
564.304	8002.32
564.666	8005.48
565.028	8059.04
565.39	8022.88
565.753	8058.36
566.115	8050
566.477	8066.5
566.839	8074.63
567.201	8125.48
567.563	8177.68
567.925	8154.86
568.287	8094.97
568.648	8177.23
569.01	8146.49
569.372	8177.68
569.734	8154.63
570.095	8217.23
570.457	8157.34
570.819	8234.85
571.18	8179.26
571.542	8215.19
571.903	8176.78
572.265	8268.07
572.626	8267.62
572.987	8271.46
573.349	8315.53
573.71	8319.37
574.071	8311.69
574.432	8386.94
574.794	8407.05
575.155	8377.22
575.516	8423.78
575.877	8389.65
576.238	8371.57
576.599	8431.01
576.96	8422.19
577.32	8439.14
577.681	8472.14
578.042	8558.24
578.403	8509.2
578.763	8479.59
579.124	8558.91
579.485	8573.38
579.845	8584.45
580.206	8593.49
580.566	8554.39
580.927	8636.43
581.287	8639.36
581.648	8614.28
582.008	8691.34
582.368	8688.63
582.728	8681.85
583.089	8750.55
583.449	8721.85
583.809	8693.37
584.169	8711
584.529	8793.48
584.889	8796.65
585.249	8696.54
585.609	8778.57
585.969	8822.41
586.329	8803.88
586.688	8835.74
587.048	8822.18
587.408	8818.79
587.768	8832.8
588.127	8847.04
588.487	8894.72
588.846	8933.59
589.206	8873.71
589.565	8909.41
589.925	8969.52
590.284	8881.16
590.643	8953.71
591.003	8973.82
591.362	8986.7
591.721	9007.94
592.08	9026.92
592.44	9011.1
592.799	9016.98
593.158	8992.35
593.517	9071.89
593.876	9043.42
594.235	9016.08
594.593	9044.1
594.952	9031.44
595.311	9068.73
595.67	9115.96
596.029	9085.91
596.387	9183.08
596.746	9280.25
597.104	9124.77
597.463	9125
597.822	9126.36
598.18	9157.09
598.538	9182.63
598.897	9233.92
599.255	9152.12
599.613	9230.53
599.972	9200.03
600.33	9169.07
600.688	9187.6
601.046	9200.03
601.404	9290.42
601.762	9226.24
602.12	9306.69
602.478	9224.88
602.836	9214.94
603.194	9226.24
603.552	9268.95
603.91	9205
604.268	9257.65
604.625	9313.02
604.983	9308.72
605.341	9257.43
605.698	9324.77
606.056	9345.56
606.413	9342.4
606.771	9302.85
607.128	9365.67
607.485	9268.05
607.843	9276.63
608.2	9345.56
608.557	9403.64
608.914	9367.03
609.272	9371.32
609.629	9372.68
609.986	9456.97
610.343	9317.31
610.7	9452.9
611.057	9396.41
611.414	9442.28
611.771	9395.05
612.127	9475.73
612.484	9443.18
612.841	9444.09
613.198	9435.95
613.554	9454.26
613.911	9509.62
614.267	9496.29
614.624	9477.08
614.98	9481.6
615.337	9431.88
615.693	9555.5
616.05	9515.95
616.406	9573.58
616.762	9550.53
617.118	9560.92
617.475	9531.77
617.831	9567.7
618.187	9581.03
618.543	9560.69
618.899	9648.15
619.255	9567.93
619.611	9588.49
619.967	9637.98
620.323	9734.48
620.678	9659.68
621.034	9578.55
621.39	9660.13
621.746	9600.24
622.101	9761.37
622.457	9595.04
622.812	9569.51
623.168	9670.52
623.523	9672.78
623.879	9631.88
624.234	9684.99
624.589	9562.73
624.945	9649.73
625.3	9689.05
625.655	9625.55
626.01	9619.9
626.365	9631.43
626.72	9595.27
627.075	9621.48
627.43	9656.96
627.785	9604.54
628.14	9615.38
628.495	9653.35
628.85	9581.94
629.205	9487.02
629.559	9580.58
629.914	9589.17
630.269	9565.89
630.623	9603.86
630.978	9527.48
631.332	9602.95
631.687	9587.13
632.041	9543.75
632.396	9567.47
632.75	9546.68
633.104	9504.43
633.459	9452.9
633.813	9431.66
634.167	9578.32
634.521	9489.06
634.875	9487.48
635.229	9473.47
635.583	9428.27
635.937	9335.16
636.291	9292.91
636.645	9400.02
636.999	9406.8
637.352	9409.51
637.706	9420.36
638.06	9408.83
638.413	9350.98
638.767	9369.06
639.121	9449.29
639.474	9280.7
639.828	9276.63
640.181	9320.25
640.534	9298.1
640.888	9291.55
641.241	9260.14
641.594	9244.32
641.947	9287.26
642.301	9232.79
642.654	9200.93
643.007	9297.88
643.36	9248.39
643.713	9162.29
644.066	9197.31
644.419	9219.91
644.771	9153.47
645.124	9059.69
645.477	9032.12
645.83	9083.87
646.182	8922.07
646.535	8973.14
646.888	8873.71
647.24	8822.64
647.593	8913.03
647.945	8876.87
648.298	8871.9
648.65	8857.66
649.002	8904.67
649.355	8859.02
649.707	8863.31
650.059	8914.38
650.411	9045.68
650.763	9017.88
651.115	9127.26
651.467	9134.94
651.819	9050.43
652.171	9145.56
652.523	9052.23
652.875	9078.45
653.227	9028.73
653.578	9095.85
653.93	9052.23
654.282	9031.44
654.633	8975.17
654.985	9048.84
655.337	9045.23
655.688	9063.76
656.039	9144.21
656.391	9073.02
656.742	9072.57
657.094	9058.11
657.445	9138.11
657.796	9049.07
658.147	9072.8
658.498	9087.26
658.849	9051.56
659.2	9097.88
659.551	9108.05
659.902	9095.17
660.253	9173.59
660.604	9133.81
660.955	9035.51
661.306	9060.82
661.656	9136.07
662.007	9102.18
662.358	9062.85
662.708	9121.84
663.059	9097.43
663.409	9035.74
663.76	9129.29
664.11	9071.67
664.461	9143.98
664.811	9190.54
665.161	9129.29
665.511	9126.58
665.862	9128.16
666.212	9184.21
666.562	9190.54
666.912	9151.21
667.262	9168.16
667.612	9093.36
667.962	9193.25
668.312	9122.06
668.662	9197.54
669.011	9110.99
669.361	9191.67
669.711	9110.54
670.06	9130.42
670.41	9149.86
670.76	9058.56
671.109	9127.49
671.459	9077.54
671.808	9080.03
672.157	9082.52
672.507	9034.16
672.856	8992.12
673.205	9036.41
673.554	9094.94
673.904	9049.52
674.253	9078.45
674.602	9061.95
674.951	8897.66
675.3	8814.73
675.649	9021.73
675.998	9068.73
676.346	9004.78
676.695	8977.89
677.044	8990.09
677.393	8972.24
677.741	9009.52
678.09	8921.62
678.438	8988.28
678.787	8941.95
679.135	8886.14
679.484	8852.92
679.832	8879.58
680.181	8899.24
680.529	8853.37
680.877	8841.39
681.225	8792.35
681.573	8834.16
681.922	8776.76
682.27	8844.1
682.618	8829.64
682.966	8793.26
683.314	8715.75
683.661	8720.49
684.009	8761.62
684.357	8656.09
684.705	8649.31
685.053	8649.76
685.4	8670.1
685.748	8645.01
686.095	8584
686.443	8588.07
686.79	8521.63
687.138	8552.81
687.485	8517.78
687.832	8511.91
688.18	8528.63
688.527	8442.53
688.874	8470.55
689.221	8464.23
689.568	8394.4
689.915	8329.54
690.262	8311.24
690.609	8312.37
690.956	8265.59
691.303	8321.86
691.65	8284.12
691.997	8275.08
692.344	8151.92
692.69	8136.1
693.037	8145.36
693.383	8115.31
693.73	8167.29
694.077	8063.33
694.423	8085.71
694.769	8013.84
695.116	8074.18
695.462	8004.13
695.808	7961.64
696.155	7969.78
696.501	7896.11
696.847	7894.3
697.193	7858.14
697.539	7852.94
697.885	7782.66
698.231	7771.36
698.577	7750.57
698.923	7766.84
699.269	7697.69
699.614	7635.55
699.96	7569.11
700.306	7617.24
700.651	7561.43
700.997	7579.5
701.342	7493.18
701.688	7466.74
702.033	7447.76
702.379	7450.02
702.724	7402.33
703.069	7429.23
703.415	7314.43
703.76	7295.22
704.105	7297.93
704.45	7272.17
704.795	7228.33
705.14	7261.55
705.485	7238.72
705.83	7198.05
706.175	7113.75
706.52	7197.14
706.865	7110.36
707.209	7111.04
707.554	7088.44
707.899	7086.86
708.243	7113.98
708.588	7052.06
708.932	6987.2
709.277	7051.83
709.621	7004.83
709.966	6970.03
710.31	6981.33
710.654	6907.43
710.998	6924.61
711.342	6950.82
711.687	6879.18
712.031	6876.92
712.375	6860.43
712.719	6837.6
713.063	6812.97
713.407	6820.65
713.75	6784.95
714.094	6779.07
714.438	6758.73
714.782	6711.73
715.125	6689.81
715.469	6737.94
715.812	6758.06
716.156	6684.39
716.499	6708.79
716.843	6671.28
717.186	6675.35
717.53	6641.68
717.873	6703.14
718.216	6682.13
718.559	6611.17
718.902	6624.73
719.246	6606.2
719.589	6551.96
719.932	6508.8
720.275	6614.11
720.617	6569.59
720.96	6537.27
721.303	6581.79
721.646	6522.81
721.989	6471.74
722.331	6483.94
722.674	6599.87
723.016	6542.24
723.359	6506.76
723.701	6550.83
724.044	6430.38
724.386	6388.12
724.729	6448.69
725.071	6436.71
725.413	6429.48
725.755	6420.66
726.097	6434
726.439	6379.31
726.782	6405.75
727.124	6440.1
727.465	6396.03
727.807	6379.31
728.149	6405.75
728.491	6399.42
728.833	6430.83
729.175	6366.65
729.516	6349.25
729.858	6408.24
730.199	6387.9
730.541	6316.71
730.882	6365.75
731.224	6383.83
731.565	6308.35
731.906	6429.48
732.248	6426.54
732.589	6362.81
732.93	6335.47
733.271	6396.26
733.612	6378.63
733.953	6391.29
734.294	6404.85
734.635	6314.23
734.976	6378.18
735.317	6386.99
735.658	6390.83
735.999	6433.09
736.339	6450.49
736.68	6410.95
737.021	6403.94
737.361	6417.95
737.702	6387.67
738.042	6398.97
738.383	6393.55
738.723	6464.05
739.063	6388.8
739.404	6409.82
739.744	6473.32
740.084	6425.86
740.424	6489.82
740.764	6446.88
741.104	6472.19
741.444	6508.12
741.784	6507.89
742.124	6530.72
742.464	6497.5
742.804	6579.98
743.143	6521.23
743.483	6612.07
743.823	6517.16
744.162	6597.16
744.502	6659.98
744.841	6649.36
745.181	6701.11
745.52	6707.66
745.86	6849.58
746.199	6793.08
746.538	6770.71
746.877	6872.63
747.216	6884.16
747.556	6887.09
747.895	6961.22
748.234	6975.9
748.573	6978.62
748.911	7042.8
749.25	7072.4
749.589	7186.52
749.928	7244.37
750.267	7287.76
750.605	7343.13
750.944	7430.13
751.283	7452.95
751.621	7595.77
751.96	7612.05
752.298	7698.15
752.636	7798.26
752.975	7883.45
753.313	7917.57
753.651	8120.73
753.989	8139.72
754.327	8234.4
754.666	8287.06
755.004	8416.77
755.342	8576.09
755.679	8702.19
756.017	8801.84
756.355	8927.94
756.693	9067.15
757.031	9136.07
757.368	9276.18
757.706	9435.95
758.044	9593.24
758.381	9736.28
758.719	9840.46
759.056	9997.07
759.394	10145.54
759.731	10304.63
760.068	10388.47
760.405	10517.05
760.743	10749.36
761.08	10936.93
761.417	11080.43
761.754	11211.95
762.091	11432.06
762.428	11520.64
762.765	11611.94
763.102	11803.35
763.438	12011.03
763.775	12160.85
764.112	12426.61
764.449	12482.65
764.785	12748.41
765.122	12763.55
765.458	13011.45
765.795	13121.96
766.131	13370.54
766.467	13431.78
766.804	13589.97
767.14	13737.99
767.476	13899.79
767.812	13999.67
768.148	14257.29
768.485	14368.7
768.821	14468.14
769.157	14593.78
769.492	14661.58
769.828	14815.02
770.164	14844.85
770.5	15016.37
770.836	15178.4
771.171	15298.4
771.507	15334.33
771.842	15459.3
772.178	15552.18
772.513	15666.75
772.849	15722.11
773.184	15898.16
773.519	15886.63
773.855	15982.9
774.19	16081.65
774.525	16141.54
774.86	16335.21
775.195	16349.22
775.53	16381.98
775.865	16419.27
776.2	16393.51
776.535	16469.44
776.87	16499.5
777.205	16554.41
777.539	16693.61
777.874	16755.76
778.209	16698.81
778.543	16744.23
778.878	16790.34
779.212	16861.75
779.547	16825.14
779.881	17009.54
780.215	16988.75
780.55	17101.29
780.884	17030.78
781.218	17019.71
781.552	17113.72
781.886	17081.18
782.22	16995.53
782.554	17177.9
782.888	17029.2
783.222	17058.12
783.556	17041.85
783.889	17113.04
784.223	16928.18
784.557	17016.54
784.89	17095.64
785.224	17019.71
785.557	17069.65
785.891	17007.05
786.224	17029.43
786.558	17066.94
786.891	16900.84
787.224	16903.1
787.557	16890.9
787.891	16909.88
788.224	16984.45
788.557	17016.77
788.89	16920.95
789.223	16900.61
789.556	16895.19
789.888	16872.82
790.221	16858.36
790.554	16724.35
790.887	16818.58
791.219	16748.3
791.552	16713.5
791.884	16666.72
792.217	16665.59
792.549	16678.7
792.882	16660.62
793.214	16577.23
793.546	16632.15
793.879	16590.34
794.211	16438.03
794.543	16546.27
794.875	16513.73
795.207	16581.3
795.539	16494.98
795.871	16579.27
796.203	16379.95
796.535	16205.94
796.867	16237.36
797.198	16233.51
797.53	16271.93
797.862	16265.83
798.193	16229.22
798.525	16097.47
798.856	16259.05
799.188	15934.09
799.519	15932.28
799.85	15865.39
800.182	15904.03
800.513	15997.59
800.844	15873.52
801.175	15923.92
801.506	15891.6
801.837	15743.36
802.168	15764.37
802.499	15708.1
802.83	15652.29
803.161	15674.21
803.491	15600.76
803.822	15634.21
804.153	15584.04
804.483	15490.26
804.814	15431.05
805.145	15357.83
805.475	15505.4
805.805	15268.79
806.136	15325.29
806.466	15374.1
806.796	15291.17
807.126	15287.32
807.457	15190.83
807.787	15209.36
808.117	15180.66
808.447	15181.56
808.777	15151.06
809.107	15076.71
809.436	15111.06
809.766	15043.71
810.096	14956.71
810.426	14856.37
810.755	14970.72
811.085	14870.61
811.414	14888.92
811.744	14767.79
812.073	14851.86
812.403	14810.27
812.732	14765.98
813.061	14715.59
813.39	14638.3
813.719	14562.15
814.049	14688.7
814.378	14586.78
814.707	14552.65
815.036	14508.59
815.365	14507.23
815.693	14421.58
816.022	14537.97
816.351	14353.11
816.68	14188.6
817.008	14311.76
817.337	14244.41
817.665	14224.98
817.994	14301.81
818.322	14259.33
818.651	14149.27
818.979	14218.43
819.307	14194.7
819.636	14231.08
819.964	14031.76
820.292	14166.68
820.62	14182.49
820.948	14135.26
821.276	14174.81
821.604	14086.45
821.932	14066.57
822.259	14096.17
822.587	14103.17
822.915	14136.17
823.243	14108.6
823.57	14034.02
823.898	14142.27
824.225	14041.93
824.553	13996.74
824.88	14097.98
825.207	14101.37
825.535	14026.34
825.862	14125.55
826.189	14054.59
826.516	14147.47
826.843	14144.76
827.17	14111.31
827.497	14158.31
827.824	14146.34
828.151	14133.46
828.478	14130.74
828.805	14202.83
829.131	14141.59
829.458	14099.11
829.785	14052.1
830.111	14087.36
830.438	14155.83
830.764	14075.6
831.09	14157.64
831.417	14042.39
831.743	14176.62
832.069	14044.42
832.395	14055.94
832.722	14093.46
833.048	14031.76
833.374	14046
833.7	14012.78
834.026	13990.86
834.351	14123.29
834.677	14077.86
835.003	14103.85
835.329	14011.43
835.654	13891.65
835.98	13936.4
836.306	13933.24
836.631	13926.46
836.956	14028.37
837.282	13948.6
837.607	13904.99
837.932	13811.2
838.258	13862.05
838.583	13807.59
838.908	13706.57
839.233	13827.7
839.558	13772.79
839.883	13714.94
840.208	13672
840.533	13734.82
840.858	13669.51
841.182	13688.95
841.507	13648.95
841.832	13574.83
842.156	13573.02
842.481	13518.56
842.805	13516.52
843.13	13464.32
843.454	13473.59
843.778	13370.54
844.103	13358.56
844.427	13313.59
844.751	13365.34
845.075	13351.33
845.399	13204.44
845.723	13174.61
846.047	13212.58
846.371	13110.66
846.695	13121.05
847.019	13017.33
847.343	12918.8
847.666	12867.05
847.99	12804.9
848.313	12772.36
848.637	12766.71
848.96	12703.66
849.284	12760.16
849.607	12587.96
849.931	12599.94
850.254	12468.64
850.577	12424.35
850.9	12342.77
851.223	12324.69
851.546	12316.55
851.869	12227.74
852.192	12288.98
852.515	12206.95
852.838	12105.94
853.161	12106.84
853.483	12076.79
853.806	11984.59
854.129	11977.13
854.451	11884.7
854.774	11892.61
855.096	11757.93
855.419	11819.39
855.741	11823.91
856.063	11705.5
856.385	11738.49
856.708	11635.22
857.03	11569.23
857.352	11573.07
857.674	11557.25
857.996	11475.45
858.318	11443.13
858.64	11421.44
858.961	11380.76
859.283	11424.83
859.605	11369.91
859.926	11331.95
860.248	11309.12
860.57	11290.14
860.891	11249.69
861.212	11188
861.534	11226.87
861.855	11150.26
862.176	11156.36
862.498	11115.91
862.819	11188.9
863.14	11034.33
863.461	11121.56
863.782	11069.81
864.103	11078.85
864.424	10974.67
864.745	10994.33
865.065	10872.75
865.386	10908
865.707	10895.35
866.027	10835.24
866.348	10865.97
866.668	10798.4
866.989	10906.42
867.309	10746.88
867.63	10802.7
867.95	10723.83
868.27	10661.91
868.59	10741.91
868.91	10764.96
869.23	10696.26
869.55	10649.48
869.87	10689.25
870.19	10651.97
870.51	10618.29
870.83	10670.72
871.15	10585.75
871.469	10615.81
871.789	10570.61
872.109	10567.45
872.428	10483.16
872.748	10609.03
873.067	10580.56
873.386	10547.11
873.706	10454.23
874.025	10498.98
874.344	10431.63
874.663	10430.28
874.982	10389.83
875.301	10390.28
875.62	10417.62
875.939	10363.16
876.258	10394.8
876.577	10301.47
876.896	10265.31
877.214	10303.05
877.533	10296.27
877.852	10210.4
878.17	10238.19
878.489	10214.24
878.807	10244.97
879.125	10256.27
879.444	10163.62
879.762	10124.97
880.08	10229.38
880.398	10071.42
880.716	10095.37
881.034	10081.81
881.352	10055.15
881.67	10003.85
881.988	10045.2
882.306	9984.64
882.624	9967.69
882.941	9948.26
883.259	9868.71
883.577	9877.75
883.894	9790.75
884.212	9896.28
884.529	9804.76
884.846	9819.67
885.164	9788.94
885.481	9773.57
885.798	9712.1
886.115	9716.4
886.432	9675.72
886.75	9713.01
887.067	9626.68
887.383	9606.12
887.7	9619.9
888.017	9545.78
888.334	9641.82
888.651	9548.04
888.967	9545.55
889.284	9517.98
889.6	9395.95
889.917	9401.15
890.233	9435.95
890.55	9366.12
890.866	9416.52
891.182	9395.5
891.498	9292.23
891.815	9244.55
892.131	9310.76
892.447	9172.23
892.763	9159.12
893.079	9106.47
893.395	9147.6
893.71	9130.65
894.026	9118.22
894.342	9048.84
894.657	8995.51
894.973	8979.24
895.289	8960.26
895.604	8941.28
895.92	8918.9
896.235	8826.02
896.55	8850.21
896.865	8774.73
897.181	8750.32
897.496	8807.95
897.811	8701.28
898.126	8714.16
898.441	8682.98
898.756	8613.38
899.071	8600.27
899.386	8614.73
899.7	8513.26
900.015	8450.89
900.33	8433.49
900.644	8430.1
900.959	8410.67
901.273	8400.95
901.588	8361.4
901.902	8312.82
902.216	8297.68
902.531	8261.52
902.845	8234.63
903.159	8152.6
903.473	8114.86
903.787	8093.84
904.101	8095.42
904.415	8065.59
904.729	7959.83
905.042	7936.56
905.356	7994.18
905.67	7910.57
905.984	7937.91
906.297	7898.14
906.611	7840.51
906.924	7898.37
907.237	7845.71
907.551	7759.39
907.864	7738.14
908.177	7693.4
908.491	7670.8
908.804	7610.92
909.117	7561.65
909.43	7532.95
909.743	7480.98
910.056	7555.1
910.368	7428.77
910.681	7417.93
910.994	7415.67
911.307	7422.67
911.619	7309.45
911.932	7329.34
912.244	7258.61
912.557	7301.55
912.869	7184.94
913.181	7223.58
913.494	7166.41
913.806	7143.13
914.118	7117.14
914.43	7088.9
914.742	7146.75
915.054	6982.01
915.366	7028.11
915.678	6938.39
915.99	6943.81
916.302	6878.96
916.613	6874.21
916.925	6859.3
917.236	6848.9
917.548	6777.49
917.859	6791.05
918.171	6737.27
918.482	6706.31
918.794	6676.48
919.105	6698.62
919.416	6590.83
919.727	6594.45
920.038	6633.31
920.349	6591.96
920.66	6528.01
920.971	6551.06
921.282	6513.54
921.593	6454.11
921.903	6394.45
922.214	6400.1
922.525	6419.31
922.835	6368.91
923.146	6330.27
923.456	6257.96
923.767	6317.62
924.077	6257.73
924.387	6243.49
924.697	6187
925.008	6169.37
925.318	6116.72
925.628	6102.25
925.938	6143.38
926.248	6057.96
926.558	6065.19
926.867	6055.25
927.177	5994.24
927.487	5983.16
927.796	5942.94
928.106	5932.32
928.416	5847.35
928.725	5851.41
929.034	5867.91
929.344	5834.92
929.653	5796.27
929.962	5794.01
930.271	5739.1
930.581	5675.15
930.89	5648.48
931.199	5711.53
931.508	5673.57
931.817	5630.4
932.125	5638.09
932.434	5650.29
932.743	5568.48
933.051	5531.2
933.36	5570.52
933.669	5520.8
933.977	5452.1
934.286	5467.24
934.594	5465.89
934.902	5431.76
935.21	5417.98
935.519	5389.05
935.827	5411.2
936.135	5374.59
936.443	5311.09
936.751	5281.49
937.059	5245.1
937.367	5225.67
937.674	5255.5
937.982	5210.75
938.29	5187.48
938.597	5175.5
938.905	5128.72
939.213	5102.06
939.52	5113.58
939.827	5078.1
940.135	5032.45
940.442	5042.4
940.749	5018.67
941.056	5066.8
941.363	4967.37
941.67	4992.45
941.977	4939.57
942.284	4903.42
942.591	4908.16
942.898	4837.88
943.205	4861.16
943.511	4801.72
943.818	4808.28
944.125	4767.37
944.431	4734.61
944.738	4720.82
945.044	4741.39
945.35	4676.08
945.657	4660.94
945.963	4618.23
946.269	4615.97
946.575	4573.48
946.881	4616.87
947.187	4588.17
947.493	4574.16
947.799	4570.77
948.105	4498.46
948.41	4502.52
948.716	4529.87
949.022	4490.09
949.327	4490.55
949.633	4380.94
949.938	4423.2
950.244	4445.8
950.549	4370.32
950.854	4357.67
951.16	4309.31
951.465	4324.67
951.77	4302.98
952.075	4317.89
952.38	4239.25
952.685	4250.1
952.99	4224.56
953.294	4177.33
953.599	4195.64
953.904	4189.99
954.209	4160.61
954.513	4110.67
954.818	4113.61
955.122	4100.5
955.426	4091.01
955.731	4070.67
956.035	4027.73
956.339	4037.22
956.643	4060.95
956.948	3995.42
957.252	3979.82
957.556	3950.22
957.86	3915.42
958.163	3927.17
958.467	3923.1
958.771	3895.53
959.075	3905.93
959.378	3843.56
959.682	3870.9
959.985	3785.71
960.289	3798.13
960.592	3803.11
960.896	3810.11
961.199	3796.1
961.502	3754.52
961.805	3754.07
962.108	3696.44
962.411	3692.15
962.714	3637.91
963.017	3673.62
963.32	3645.37
963.623	3653.05
963.926	3651.47
964.228	3614.86
964.531	3585.48
964.833	3570.8
965.136	3546.16
965.438	3542.1
965.741	3524.02
966.043	3498.71
966.345	3513.85
966.648	3494.64
966.95	3481.31
967.252	3468.88
967.554	3443.57
967.856	3429.78
968.158	3396.79
968.46	3365.38
968.761	3406.73
969.063	3345.94
969.365	3397.92
969.666	3342.1
969.968	3322.67
970.269	3254.42
970.571	3338.71
970.872	3280.18
971.174	3255.32
971.475	3277.92
971.776	3251.03
972.077	3204.48
972.378	3223.69
972.679	3216.23
972.98	3202.9
973.281	3155.21
973.582	3167.64
973.883	3154.54
974.183	3120.86
974.484	3150.24
974.785	3083.13
975.085	3080.19
975.386	3135.78
975.686	3064.59
975.986	3047.65
976.287	3045.84
976.587	2992.28
976.887	2979.63
977.187	2988.21
977.487	2989.34
977.787	2936.01
978.087	2938.04
978.387	2950.25
978.687	2936.24
978.987	2870.02
979.286	2915.22
979.586	2888.33
979.885	2862.11
980.185	2843.58
980.484	2833.87
980.784	2843.81
981.083	2808.33
981.382	2804.04
981.682	2812.17
981.981	2796.35
982.28	2785.96
982.579	2760.65
982.878	2749.35
983.177	2738.95
983.475	2716.58
983.774	2725.62
984.073	2699.86
984.372	2658.73
984.67	2670.25
984.969	2696.69
985.267	2656.47
985.566	2625.28
985.864	2666.86
986.162	2619.18
986.461	2605.4
986.759	2582.8
987.057	2584.16
987.355	2569.69
987.653	2594.32
987.951	2536.47
988.249	2569.47
988.547	2524.04
988.844	2505.29
989.142	2458.28
989.44	2490.82
989.737	2452.41
990.035	2466.19
990.332	2472.52
990.63	2421.45
990.927	2456.02
991.224	2434.1
991.521	2399.98
991.819	2392.3
992.116	2392.97
992.413	2385.52
992.71	2352.3
993.006	2320.43
993.303	2337.61
993.6	2335.57
993.897	2319.98
994.193	2320.66
994.49	2307.55
994.787	2327.89
995.083	2265.97
995.379	2261.23
995.676	2259.87
995.972	2249.7
996.268	2215.58
996.565	2224.84
996.861	2201.34
997.157	2204.5
997.453	2184.17
997.749	2204.73
998.044	2152.98
998.34	2148.23
998.636	2152.75
998.932	2145.07
999.227	2124.51
999.523	2134
999.818	2103.49
1000.114	2088.12
1000.409	2068.24
1000.704	2060.78
1001	2065.52
1001.295	2041.8
1001.59	2030.72
1001.885	2055.36
1002.18	2003.38
1002.475	1993.66
1002.77	1980.56
1003.065	1965.41
1003.359	1974.23
1003.654	1983.49
1003.949	1961.57
1004.243	1924.74
1004.538	1931.74
1004.832	1897.17
1005.127	1912.76
1005.421	1909.82
1005.715	1908.47
1006.009	1853.33
1006.304	1845.42
1006.598	1863.27
1006.892	1808.58
1007.186	1801.8
1007.48	1847.23
1007.773	1818.53
1008.067	1823.05
1008.361	1798.64
1008.655	1783.05
1008.948	1762.71
1009.242	1760.67
1009.535	1739.21
1009.829	1768.58
1010.122	1706.44
1010.415	1693.33
1010.708	1710.51
1011.001	1682.94
1011.295	1713.67
1011.588	1695.59
1011.881	1661.69
1012.173	1651.98
1012.466	1643.61
1012.759	1636.38
1013.052	1643.39
1013.344	1648.36
1013.637	1610.62
1013.93	1626.44
1014.222	1608.59
1014.514	1597.29
1014.807	1583.05
1015.099	1584.86
1015.391	1578.98
1015.683	1543.96
1015.976	1544.86
1016.268	1523.17
1016.56	1512.77
1016.851	1500.79
1017.143	1512.09
1017.435	1496.95
1017.727	1482.94
1018.018	1452.66
1018.31	1468.48
1018.602	1469.61
1018.893	1497.86
1019.185	1434.13
1019.476	1427.8
1019.767	1418.54
1020.058	1437.29
1020.35	1397.75
1020.641	1372.66
1020.932	1367.46
1021.223	1378.09
1021.514	1370.63
1021.804	1327.69
1022.095	1374.7
1022.386	1336.73
1022.677	1348.93
1022.967	1317.52
1023.258	1301.93
1023.548	1317.75
1023.839	1299.44
1024.129	1290.18
1024.419	1295.15
1024.709	1251.53
1025	1255.38
1025.29	1290.4
1025.58	1274.13
1025.87	1245.43
1026.16	1227.35
1026.449	1252.44
1026.739	1238.65
1027.029	1208.37
1027.319	1208.37
1027.608	1204.3
1027.898	1171.76
1028.187	1174.25
1028.477	1177.64
1028.766	1176.96
1029.055	1165.66
1029.344	1181.25
1029.634	1164.76
1029.923	1126.79
1030.212	1150.29
1030.501	1110.07
1030.79	1100.13
1031.078	1093.8
1031.367	1104.19
1031.656	1095.38
1031.945	1070.75
1032.233	1091.99
1032.522	1054.7
1032.81	1068.94
1033.099	1082.05
1033.387	1062.61
1033.675	1050.64
1033.963	1036.4
1034.251	1031.43
1034.54	1017.64
1034.828	1022.39
1035.116	1013.12
1035.403	1014.7
1035.691	1009.73
1035.979	1002.5
1036.267	979
1036.554	962.05
1036.842	972.22
1037.129	969.51
1037.417	960.02
1037.704	934.26
1037.992	958.44
1038.279	940.58
1038.566	929.74
1038.853	929.74
1039.14	929.74
