Data from hue_190_FLMS001491_00030.txt Node
Date: Tue Feb 07 16:45:04 GMT 2017
User: dcchb
Spectrometer: FLMS00149
Trigger mode: 0
Integration Time (sec): 2.000000E-2
Scans to average: 10
Electric dark correction enabled: true
Nonlinearity correction enabled: false
Boxcar width: 0
XAxis mode: Wavelengths
Number of Pixels in Spectrum: 2048
>>>>>Begin Spectral Data<<<<<
341.393	-21.19
341.776	-21.19
342.16	-21.19
342.543	-46.5
342.927	-51.02
343.31	-62.54
343.693	-71.13
344.077	-48.76
344.46	-62.99
344.843	-47.4
345.226	-38.59
345.61	-33.61
345.993	-20.73
346.376	-3.79
346.759	-8.76
347.142	26.95
347.525	59.72
347.908	58.59
348.291	72.82
348.674	74.63
349.057	105.59
349.44	116.89
349.823	141.3
350.206	168.64
350.588	182.65
350.971	204.12
351.354	228.53
351.737	232.14
352.119	271.24
352.502	255.19
352.884	249.32
353.267	280.28
353.65	281.18
354.032	285.92
354.414	313.04
354.797	291.35
355.179	316.66
355.562	306.49
355.944	305.13
356.326	327.05
356.709	328.18
357.091	335.19
357.473	341.06
357.855	341.29
358.238	337.67
358.62	322.31
359.002	318.24
359.384	347.39
359.766	337.67
360.148	320.5
360.53	335.87
360.912	309.88
361.294	336.09
361.676	308.07
362.057	320.5
362.439	318.92
362.821	328.64
363.203	327.28
363.584	308.07
363.966	302.42
364.348	334.51
364.729	331.57
365.111	316.21
365.493	298.35
365.874	304
366.256	314.4
366.637	315.53
367.019	299.26
367.4	328.86
367.781	292.93
368.163	310.78
368.544	294.96
368.925	304.23
369.306	313.27
369.688	292.93
370.069	317.34
370.45	306.04
370.831	304.91
371.212	319.14
371.593	311.69
371.974	318.92
372.355	308.07
372.736	303.55
373.117	322.08
373.498	300.61
373.879	304.91
374.26	317.56
374.641	295.42
375.021	303.1
375.402	320.5
375.783	302.2
376.163	320.27
376.544	325.47
376.925	330.22
377.305	322.53
377.686	306.49
378.066	320.05
378.447	318.92
378.827	338.35
379.208	320.05
379.588	312.14
379.968	306.49
380.349	328.86
380.729	332.25
381.109	315.75
381.489	334.28
381.87	333.16
382.25	306.26
382.63	335.64
383.01	334.51
383.39	330.22
383.77	324.57
384.15	327.96
384.53	318.47
384.91	331.57
385.29	344.68
385.67	337
386.049	338.8
386.429	344.45
386.809	338.8
387.189	306.94
387.568	354.62
387.948	327.96
388.328	353.49
388.707	339.93
389.087	344.45
389.466	331.35
389.846	334.28
390.225	358.69
390.605	357.34
390.984	357.79
391.363	346.04
391.743	352.82
392.122	329.09
392.501	359.37
392.881	337.9
393.26	377.45
393.639	361.4
394.018	352.82
394.397	372.25
394.776	368.86
395.155	366.83
395.534	378.8
395.913	359.37
396.292	393.49
396.671	386.26
397.05	384.68
397.429	386.49
397.808	351.46
398.186	383.32
398.565	365.24
398.944	379.26
399.323	371.35
399.701	389.42
400.08	378.58
400.458	404.57
400.837	399.59
401.215	388.52
401.594	384.45
401.972	391.01
402.351	412.93
402.729	413.6
403.107	398.69
403.486	409.76
403.864	431.23
404.242	413.83
404.62	408.41
404.999	421.29
405.377	405.7
405.755	410.44
406.133	443.21
406.511	420.61
406.889	453.6
407.267	447.05
407.645	468.29
408.023	466.94
408.401	447.5
408.779	465.58
409.156	474.62
409.534	490.21
409.912	468.74
410.29	514.17
410.667	486.15
411.045	504.45
411.422	507.39
411.8	522.3
412.178	516.88
412.555	528.4
412.933	568.86
413.31	553.49
413.687	556.2
414.065	542.87
414.442	573.6
414.819	577.89
415.197	602.98
415.574	578.12
415.951	623.32
416.328	605.24
416.705	621.28
417.082	632.13
417.46	633.03
417.837	663.99
418.214	652.47
418.591	647.72
418.967	653.82
419.344	687.72
419.721	680.04
420.098	680.94
420.475	716.42
420.852	736.31
421.228	721.17
421.605	736.53
421.982	764.33
422.358	772.47
422.735	783.31
423.111	809.75
423.488	806.14
423.864	830.09
424.241	877.32
424.617	836.42
424.994	844.33
425.37	864.21
425.746	885.91
426.123	899.92
426.499	905.57
426.875	915.74
427.251	931.11
427.627	947.15
428.003	945.57
428.379	967.49
428.756	965
429.132	995.28
429.507	989.63
429.883	1025.11
430.259	1023.98
430.635	1025.11
431.011	1032.35
431.387	1068.05
431.763	1083.87
432.138	1084.32
432.514	1097.43
432.89	1135.62
433.265	1143.08
433.641	1177.65
434.016	1195.05
434.392	1197.09
434.767	1226.24
435.143	1249.06
435.518	1281.6
435.894	1292.9
436.269	1302.85
436.644	1332.45
437.02	1383.52
437.395	1360.7
437.77	1409.51
438.145	1436.18
438.52	1445.89
438.895	1457.65
439.271	1479.57
439.646	1547.13
440.021	1522.05
440.395	1525.67
440.77	1540.13
441.145	1591.88
441.52	1626.45
441.895	1604.08
442.27	1632.56
442.645	1665.1
443.019	1668.26
443.394	1712.1
443.769	1738.99
444.143	1734.25
444.518	1770.63
444.892	1769.05
445.267	1777.64
445.641	1772.89
446.016	1805.66
446.39	1824.19
446.764	1868.93
447.139	1850.86
447.513	1863.28
447.887	1856.5
448.262	1886.11
448.636	1913.9
449.01	1935.37
449.384	1982.83
449.758	1957.29
450.132	1983.28
450.506	2013.34
450.88	2042.94
451.254	2032.77
451.628	2035.94
452.002	2072.77
452.376	2093.79
452.75	2128.81
453.123	2139.66
453.497	2160.23
453.871	2179.21
454.244	2224.86
454.618	2240.68
454.992	2247.23
455.365	2285.42
455.739	2300.11
456.112	2363.38
456.486	2365.42
456.859	2374.46
457.232	2432.99
457.606	2424.17
457.979	2471.63
458.352	2505.98
458.725	2536.94
459.099	2553.66
459.472	2622.81
459.845	2661
460.218	2665.07
460.591	2688.12
460.964	2660.78
461.337	2751.85
461.71	2827.33
462.083	2824.84
462.456	2878.17
462.829	2868.46
463.201	2881.34
463.574	2907.32
463.947	2984.38
464.32	2996.36
464.692	3043.37
465.065	3086.53
465.438	3110.71
465.81	3203.81
466.183	3220.54
466.555	3252.85
466.928	3295.79
467.3	3310.25
467.672	3354.09
468.045	3420.08
468.417	3475.22
468.789	3484.26
469.161	3543.92
469.534	3614.2
469.906	3660.3
470.278	3726.74
470.65	3753.63
471.022	3813.52
471.394	3888.09
471.766	3886.96
472.138	3991.82
472.51	4048.76
472.882	4092.38
473.253	4143
473.625	4199.49
473.997	4302.09
474.369	4338.47
474.74	4423.89
475.112	4499.83
475.484	4531.91
475.855	4639.26
476.227	4669.99
476.598	4780.27
476.97	4852.58
477.341	4925.8
477.713	5015.97
478.084	5059.36
478.455	5234.27
478.827	5288.51
479.198	5411.21
479.569	5393.59
479.94	5527.37
480.311	5557.88
480.682	5734.14
481.053	5885.55
481.424	5894.59
481.795	5975.94
482.166	6067.92
482.537	6134.58
482.908	6311.3
483.279	6333
483.65	6509.94
484.021	6634.01
484.391	6677.85
484.762	6784.51
485.133	6801.46
485.503	6897.73
485.874	7086.42
486.244	7115.35
486.615	7269.47
486.985	7385.85
487.356	7458.84
487.726	7544.72
488.097	7668.56
488.467	7669.01
488.837	7891.37
489.207	7909
489.578	8151.93
489.948	8087.75
490.318	8307.18
490.688	8305.15
491.058	8461.98
491.428	8497.01
491.798	8585.14
492.168	8772.93
492.538	8814.97
492.908	8835.53
493.278	8956.66
493.648	8990.1
494.017	9077.11
494.387	9176.31
494.757	9165.92
495.126	9270.77
495.496	9322.07
495.866	9298.57
496.235	9427.15
496.605	9498.79
496.974	9597.32
497.344	9648.84
497.713	9734.94
498.082	9768.39
498.452	9840.02
498.821	9892.9
499.19	9870.31
499.559	9919.12
499.928	10020.58
500.298	9988.72
500.667	10126.8
501.036	10122.05
501.405	10156.17
501.774	10159.79
502.143	10215.38
502.512	10260.35
502.88	10369.73
503.249	10353.23
503.618	10388.03
503.987	10369.95
504.356	10403.17
504.724	10460.12
505.093	10486.33
505.462	10468.93
505.83	10538.99
506.199	10576.5
506.567	10673
506.936	10598.65
507.304	10722.94
507.672	10774.69
508.041	10802.03
508.409	10784.63
508.777	10844.97
509.145	10892.88
509.514	10731.98
509.882	10920.67
510.25	10811.52
510.618	10925.87
510.986	10910.96
511.354	10937.85
511.722	10989.15
512.09	11040.22
512.458	11066.88
512.826	11089.93
513.193	11108.46
513.561	11106.66
513.929	11170.38
514.297	11146.43
514.664	11137.84
515.032	11152.98
515.4	11194.56
515.767	11196.82
516.135	11214.45
516.502	11134.68
516.869	11228.24
517.237	11252.42
517.604	11153.21
517.972	11210.61
518.339	11212.64
518.706	11144.85
519.073	11211.06
519.44	11140.1
519.808	11210.84
520.175	11182.36
520.542	11290.16
520.909	11297.16
521.276	11249.25
521.643	11336.93
522.009	11277.73
522.376	11296.71
522.743	11323.83
523.11	11293.77
523.477	11319.08
523.843	11356.59
524.21	11432.3
524.577	11404.5
524.943	11329.93
525.31	11364.96
525.676	11351.4
526.043	11444.95
526.409	11379.87
526.776	11472.3
527.142	11372.19
527.508	11358.4
527.874	11448.12
528.241	11289.25
528.607	11313.43
528.973	11276.37
529.339	11317.5
529.705	11344.84
530.071	11253.77
530.437	11301.23
530.803	11293.54
531.169	11256.26
531.535	11134.23
531.901	11109.37
532.267	11093.55
532.632	11074.79
532.998	11053.55
533.364	11053.55
533.73	10966.1
534.095	11026.21
534.461	10997.51
534.826	10913.22
535.192	10874.57
535.557	10880.22
535.923	10743.73
536.288	10662.38
536.653	10686.78
537.019	10603.39
537.384	10561.13
537.749	10544.86
538.114	10525.2
538.479	10441.14
538.845	10435.04
539.21	10359.56
539.575	10289.96
539.94	10273.23
540.305	10244.53
540.67	10123.63
541.034	10106.46
541.399	10060.81
541.764	10002.05
542.129	10010.19
542.494	9950.76
542.858	9964.77
543.223	9857.42
543.587	9795.96
543.952	9725.22
544.316	9677.99
544.681	9658.33
545.045	9566.81
545.41	9491.56
545.774	9520.03
546.138	9431.45
546.503	9347.16
546.867	9287.72
547.231	9316.87
547.595	9301.51
547.959	9221.28
548.324	9161.4
548.688	9080.27
549.052	9107.39
549.416	8991.46
549.779	8993.49
550.143	8941.97
550.507	8947.17
550.871	8929.54
551.235	8849.32
551.599	8765.02
551.962	8726.38
552.326	8622.43
552.689	8753.27
553.053	8529.55
553.417	8596.44
553.78	8540.17
554.143	8403.9
554.507	8457.69
554.87	8403.23
555.234	8389.44
555.597	8310.12
555.96	8254.98
556.323	8256.79
556.686	8196
557.05	8195.32
557.413	8184.02
557.776	8127.98
558.139	8085.95
558.502	8115.32
558.865	8083.01
559.228	8029.45
559.59	7972.05
559.953	8046.85
560.316	8003.24
560.679	7890.7
561.041	7902.22
561.404	7917.14
561.767	7914.88
562.129	7865.84
562.492	7885.27
562.854	7846.86
563.217	7828.78
563.579	7768.44
563.941	7764.6
564.304	7784.71
564.666	7843.01
565.028	7792.62
565.39	7768.21
565.753	7859.74
566.115	7752.85
566.477	7728.44
566.839	7668.1
567.201	7737.93
567.563	7687.31
567.925	7718.95
568.287	7696.35
568.648	7702.23
569.01	7638.95
569.372	7682.11
569.734	7645.51
570.095	7634.21
570.457	7671.27
570.819	7698.84
571.18	7627.65
571.542	7666.75
571.903	7619.52
572.265	7644.6
572.626	7566.64
572.987	7532.29
573.349	7612.06
573.71	7656.13
574.071	7572.06
574.432	7631.27
574.794	7661.1
575.155	7628.1
575.516	7549.91
575.877	7601.66
576.238	7641.66
576.599	7614.09
576.96	7565.28
577.32	7534.32
577.681	7560.54
578.042	7546.07
578.403	7543.13
578.763	7558.05
579.124	7510.82
579.485	7556.24
579.845	7624.26
580.206	7467.43
580.566	7502.23
580.927	7466.3
581.287	7556.24
581.648	7510.14
582.008	7538.62
582.368	7487.77
582.728	7513.31
583.089	7514.21
583.449	7391.27
583.809	7476.47
584.169	7444.61
584.529	7377.26
584.889	7447.54
585.249	7412.29
585.609	7368
585.969	7390.14
586.329	7329.58
586.688	7333.2
587.048	7371.84
587.408	7283.25
587.768	7323.71
588.127	7324.38
588.487	7299.3
588.846	7377.04
589.206	7263.14
589.565	7313.76
589.925	7262.92
590.284	7232.86
590.643	7309.47
591.003	7302.24
591.362	7255.91
591.721	7201.68
592.08	7259.75
592.44	7217.27
592.799	7233.09
593.158	7228.79
593.517	7238.28
593.876	7137.72
594.235	7216.36
594.593	7165.29
594.952	7207.55
595.311	7119.87
595.67	7160.32
596.029	7201.9
596.387	7184.5
596.746	7123.71
597.104	7114.45
597.463	7125.97
597.822	7175.01
598.18	7053.66
598.538	7059.76
598.897	7093.88
599.255	7082.58
599.613	7144.28
599.972	7091.62
600.33	7046.2
600.688	7005.97
601.046	7087.33
601.404	7096.82
601.762	7053.66
602.12	7057.95
602.478	7057.5
602.836	7011.85
603.194	7011.4
603.552	7048.68
603.91	7030.38
604.268	7060.44
604.625	7044.62
604.983	7006.43
605.341	6989.7
605.698	7008.23
606.056	7092.75
606.413	7025.86
606.771	7009.14
607.128	6998.52
607.485	6985.41
607.843	6998.97
608.2	7047.1
608.557	7060.89
608.914	6979.76
609.272	6972.3
609.629	6988.8
609.986	7028.8
610.343	7011.17
610.7	7095.92
611.057	7052.3
611.414	7002.36
611.771	7038.74
612.127	7036.71
612.484	7033.32
612.841	7076.25
613.198	6997.39
613.554	7016.82
613.911	7080.77
614.267	7062.24
614.624	7012.53
614.98	7078.74
615.337	7095.92
615.693	7106.76
616.05	7052.53
616.406	7127.33
616.762	7025.86
617.118	7135.69
617.475	7146.54
617.831	7144.28
618.187	7069.02
618.543	7105.63
618.899	7114.67
619.255	7125.74
619.611	7152.41
619.967	7105.86
620.323	7129.81
620.678	7092.07
621.034	7065.86
621.39	7119.87
621.746	7084.84
622.101	7140.66
622.457	7097.27
622.812	7087.78
623.168	7076.93
623.523	7096.82
623.879	7196.03
624.234	7001.91
624.589	7139.98
624.945	7097.05
625.3	7132.07
625.655	7079.87
626.01	7090.04
626.365	7069.7
626.72	7068.35
627.075	7116.71
627.43	7025.41
627.785	7085.07
628.14	7101.56
628.495	7106.76
628.85	7031.74
629.205	7114.67
629.559	7075.8
629.914	7066.09
630.269	7097.5
630.623	7057.5
630.978	7084.84
631.332	7016.6
631.687	7017.73
632.041	7023.37
632.396	6954.45
632.75	6987.22
633.104	6968.69
633.459	6984.51
633.813	7007.78
634.167	6922.13
634.521	6947.22
634.875	6937.5
635.229	6909.03
635.583	6898.18
635.937	6917.39
636.291	6946.54
636.645	6874.23
636.999	6867.45
637.352	6897.95
637.706	6866.09
638.06	6896.82
638.413	6877.62
638.767	6863.15
639.121	6860.67
639.474	6801.91
639.828	6842.14
640.181	6840.1
640.534	6822.93
640.888	6860.22
641.241	6832.87
641.594	6839.65
641.947	6840.33
642.301	6782.7
642.654	6733.44
643.007	6764.85
643.36	6781.8
643.713	6768.24
644.066	6815.47
644.419	6733.66
644.771	6679.2
645.124	6669.26
645.477	6636.94
645.83	6611.63
646.182	6636.04
646.535	6626.77
646.888	6541.58
647.24	6596.95
647.593	6573.44
647.945	6599.66
648.298	6527.79
648.65	6559.66
649.002	6502.26
649.355	6583.61
649.707	6570.05
650.059	6573.22
650.411	6724.63
650.763	6651.86
651.115	6730.05
651.467	6732.31
651.819	6694.34
652.171	6752.87
652.523	6716.49
652.875	6712.65
653.227	6706.09
653.578	6741.12
653.93	6708.58
654.282	6741.57
654.633	6718.75
654.985	6678.75
655.337	6731.4
655.688	6750.16
656.039	6730.05
656.391	6658.86
656.742	6754.68
657.094	6779.09
657.445	6771.63
657.796	6761.23
658.147	6759.88
658.498	6787.45
658.849	6774.79
659.2	6758.07
659.551	6777.96
659.902	6792.65
660.253	6763.04
660.604	6790.84
660.955	6776.83
661.306	6778.18
661.656	6759.88
662.007	6742.03
662.358	6826.09
662.708	6810.5
663.059	6831.52
663.409	6743.38
663.76	6872.19
664.11	6834.23
664.461	6892.3
664.811	6828.8
665.161	6890.72
665.511	6886.2
665.862	6859.54
666.212	6835.36
666.562	6820.44
666.912	6848.46
667.262	6854.34
667.612	6853.21
667.962	6867.45
668.312	6893.43
668.662	6881.46
669.011	6872.64
669.361	6850.05
669.711	6861.57
670.06	6823.61
670.41	6811.85
670.76	6823.61
671.109	6839.42
671.459	6870.38
671.808	6818.18
672.157	6844.62
672.507	6821.35
672.856	6773.44
673.205	6802.59
673.554	6775.7
673.904	6762.82
674.253	6785.87
674.602	6786.32
674.951	6670.84
675.3	6613.67
675.649	6754
675.998	6660.67
676.346	6767.34
676.695	6746.55
677.044	6654.12
677.393	6706.09
677.741	6663.38
678.09	6749.71
678.438	6683.95
678.787	6642.37
679.135	6686.43
679.484	6636.94
679.832	6615.02
680.181	6643.5
680.529	6654.12
680.877	6598.98
681.225	6558.75
681.573	6679.65
681.922	6600.79
682.27	6604.63
682.618	6557.62
682.966	6581.8
683.314	6530.96
683.661	6564.4
684.009	6480.56
684.357	6457.74
684.705	6489.38
685.053	6448.7
685.4	6416.38
685.748	6406.22
686.095	6423.16
686.443	6340.68
686.79	6396.05
687.138	6374.35
687.485	6359.66
687.832	6379.78
688.18	6371.19
688.527	6277.86
688.874	6303.17
689.221	6243.96
689.568	6247.8
689.915	6274.24
690.262	6235.6
690.609	6195.83
690.956	6234.24
691.303	6156.96
691.65	6138.43
691.997	6156.5
692.344	6133
692.69	6070.41
693.037	6094.81
693.383	6005.1
693.73	5984.08
694.077	5955.15
694.423	5959.67
694.769	5944.98
695.116	5951.31
695.462	5904.31
695.808	5911.54
696.155	5861.37
696.501	5829.96
696.847	5810.53
697.193	5738.21
697.539	5810.75
697.885	5726.46
698.231	5763.29
698.577	5759.45
698.923	5723.07
699.269	5649.4
699.614	5643.52
699.96	5619.57
700.306	5623.41
700.651	5603.07
700.997	5566.69
701.342	5543.64
701.688	5534.15
702.033	5542.51
702.379	5490.08
702.724	5403.76
703.069	5451.66
703.415	5435.17
703.76	5383.19
704.105	5385.68
704.45	5366.24
704.795	5346.81
705.14	5301.16
705.485	5346.58
705.83	5322.85
706.175	5301.16
706.52	5271.78
706.865	5260.26
707.209	5236.98
707.554	5243.08
707.899	5252.35
708.243	5180.03
708.588	5193.37
708.932	5163.76
709.277	5118.57
709.621	5162.86
709.966	5129.41
710.31	5109.07
710.654	5117.44
710.998	5083.76
711.342	5072.47
711.687	5081.73
712.031	5057.55
712.375	5009.64
712.719	5006.7
713.063	5025.46
713.407	5001.28
713.75	4977.78
714.094	4982.52
714.438	4998.34
714.782	4975.52
715.125	4931
715.469	4962.64
715.812	4898.23
716.156	4879.25
716.499	4933.03
716.843	4919.02
717.186	4849.65
717.53	4908.18
717.873	4905.92
718.216	4897.1
718.559	4879.25
718.902	4853.49
719.246	4824.11
719.589	4891.91
719.932	4794.73
720.275	4826.37
720.617	4805.58
720.96	4791.34
721.303	4822.3
721.646	4834.96
721.989	4799.48
722.331	4890.1
722.674	4836.77
723.016	4824.56
723.359	4773.04
723.701	4785.47
724.044	4780.5
724.386	4793.83
724.729	4789.54
725.071	4794.28
725.413	4785.69
725.755	4737.79
726.097	4772.59
726.439	4714.28
726.782	4739.82
727.124	4802.42
727.465	4759.93
727.807	4744.56
728.149	4710.22
728.491	4775.07
728.833	4776.65
729.175	4741.85
729.516	4732.36
729.858	4773.49
730.199	4761.74
730.541	4740.72
730.882	4770.33
731.224	4788.18
731.565	4746.15
731.906	4764.45
732.248	4752.25
732.589	4756.54
732.93	4763.55
733.271	4743.43
733.612	4772.59
733.953	4764
734.294	4766.03
734.635	4778.01
734.976	4781.17
735.317	4767.84
735.658	4763.55
735.999	4783.21
736.339	4821.4
736.68	4797.44
737.021	4814.85
737.361	4817.33
737.702	4876.54
738.042	4796.77
738.383	4800.16
738.723	4856.43
739.063	4841.74
739.404	4832.7
739.744	4873.6
740.084	4867.95
740.424	4907.72
740.764	4962.64
741.104	4951.79
741.444	4942.07
741.784	4988.17
742.124	4983.65
742.464	4950.21
742.804	4990.89
743.143	5017.1
743.483	5065.23
743.823	5075.18
744.162	5090.32
744.502	5116.08
744.841	5155.4
745.181	5239.92
745.52	5225.46
745.86	5284.66
746.199	5312.91
746.538	5354.94
746.877	5414.38
747.216	5427.94
747.556	5459.12
747.895	5548.16
748.234	5535.05
748.573	5592.23
748.911	5647.59
749.25	5701.15
749.589	5758.1
749.928	5841.94
750.267	5935.95
750.605	5953.57
750.944	6014.81
751.283	6085.77
751.621	6234.69
751.96	6245.32
752.298	6404.41
752.636	6430.85
752.975	6586.78
753.313	6645.08
753.651	6803.49
753.989	6811.18
754.327	6978.18
754.666	7075.12
755.004	7154.22
755.342	7361.44
755.679	7480.76
756.017	7579.52
756.355	7694.09
756.693	7809.57
757.031	8037.13
757.368	8136.57
757.706	8265.6
758.044	8428.31
758.381	8659.26
758.719	8778.13
759.056	8976.77
759.394	9079.82
759.731	9267.84
760.068	9369.98
760.405	9482.29
760.743	9705.11
761.08	9985.78
761.417	10086.12
761.754	10219.67
762.091	10405.43
762.428	10615.6
762.765	10809.04
763.102	10985.08
763.438	11142.59
763.775	11308.01
764.112	11512.97
764.449	11673.42
764.785	11844.94
765.122	11991.83
765.458	12163.35
765.795	12325.16
766.131	12481.76
766.467	12654.19
766.804	12806.05
767.14	13000.39
767.476	13161.97
767.812	13288.75
768.148	13492.58
768.485	13569.87
768.821	13646.48
769.157	13874.95
769.492	13937.32
769.828	14083.3
770.164	14195.16
770.5	14363.07
770.836	14417.53
771.171	14564.42
771.507	14685.55
771.842	14691.65
772.178	14877.18
772.513	14986.33
772.849	15074.24
773.184	15162.14
773.519	15261.8
773.855	15374.79
774.19	15400.1
774.525	15558.97
774.86	15741.56
775.195	15729.13
775.53	15748.12
775.865	15851.39
776.2	15760.55
776.535	15795.12
776.87	16031.05
777.205	15969.81
777.539	16058.84
777.874	16117.37
778.209	16110.37
778.543	16158.5
778.878	16135.23
779.212	16169.12
779.547	16233.98
779.881	16337.25
780.215	16311.49
780.55	16463.8
780.884	16415.9
781.218	16371.38
781.552	16520.3
781.886	16475.56
782.22	16391.04
782.554	16439.17
782.888	16330.93
783.222	16369.57
783.556	16389.68
783.889	16376.35
784.223	16316.92
784.557	16450.02
784.89	16476.01
785.224	16284.15
785.557	16396.69
785.891	16334.09
786.224	16414.54
786.558	16404.37
786.891	16316.69
787.224	16225.84
787.557	16217.26
787.891	16334.99
788.224	16382.68
788.557	16293.87
788.89	16323.47
789.223	16435.1
789.556	16158.28
789.888	16280.76
790.221	16186.07
790.554	16200.76
790.887	16258.61
791.219	16134.77
791.552	16135.68
791.884	16043.93
792.217	16130.25
792.549	16058.39
792.882	15905.85
793.214	15995.79
793.546	16058.84
793.879	15935.23
794.211	15886.19
794.543	15912.41
794.875	15869.7
795.207	15929.58
795.539	15880.09
795.871	15885.74
796.203	15748.34
796.535	15692.98
796.867	15608.46
797.198	15599.65
797.53	15791.51
797.862	15585.86
798.193	15596.71
798.525	15474.45
798.856	15532.53
799.188	15420.89
799.519	15464.28
799.85	15328.24
800.182	15232.65
800.513	15311.74
800.844	15221.58
801.175	15283.5
801.506	15308.58
801.837	15179.54
802.168	15238.3
802.499	15128.02
802.83	15060.9
803.161	15020.68
803.491	15134.35
803.822	15038.98
804.153	15039.66
804.483	14915.6
804.814	14846.45
805.145	14849.16
805.475	14858.42
805.805	14812.32
806.136	14880.34
806.466	14700.91
806.796	14737.3
807.126	14695.04
807.457	14622.5
807.787	14591.31
808.117	14639.45
808.447	14485.1
808.777	14462.28
809.107	14577.07
809.436	14451.43
809.766	14492.33
810.096	14340.02
810.426	14386.12
810.755	14338.44
811.085	14341.37
811.414	14267.03
811.744	14204.65
812.073	14192
812.403	14316.97
812.732	14220.7
813.061	14164.66
813.39	14091.66
813.719	14037.65
814.049	14165.79
814.378	13995.39
814.707	13945.45
815.036	13962.85
815.365	13952.01
815.693	13813.25
816.022	13971.67
816.351	13880.14
816.68	13833.82
817.008	13867.26
817.337	13731.22
817.665	13623.65
817.994	13784.55
818.322	13709.3
818.651	13618.68
818.979	13651
819.307	13739.81
819.636	13657.1
819.964	13570.32
820.292	13623.2
820.62	13601.96
820.948	13555.18
821.276	13674.27
821.604	13529.87
821.932	13576.87
822.259	13578.68
822.587	13574.16
822.915	13491.68
823.243	13658
823.57	13453.04
823.898	13611.9
824.225	13603.54
824.553	13529.19
824.88	13540.72
825.207	13644.67
825.535	13542.75
825.862	13609.87
826.189	13591.56
826.516	13614.61
826.843	13582.75
827.17	13658
827.497	13646.03
827.824	13613.03
828.151	13698.23
828.478	13572.35
828.805	13628.17
829.131	13667.27
829.458	13629.53
829.785	13529.42
830.111	13626.36
830.438	13580.26
830.764	13678.57
831.09	13571
831.417	13573.94
831.743	13620.04
832.069	13556.31
832.395	13502.3
832.722	13611.68
833.048	13481.51
833.374	13545.01
833.7	13468.85
834.026	13531.23
834.351	13508.18
834.677	13488.06
835.003	13522.19
835.329	13559.7
835.654	13503.66
835.98	13472.7
836.306	13493.94
836.631	13379.59
836.956	13432.47
837.282	13469.08
837.607	13416.43
837.932	13345.92
838.258	13315.41
838.583	13326.03
838.908	13241.29
839.233	13319.93
839.558	13260.27
839.883	13213.27
840.208	13223.21
840.533	13152.25
840.858	13139.37
841.182	13190.44
841.507	13141.41
841.832	13061.86
842.156	13001.97
842.481	13038.58
842.805	13024.8
843.13	12982.31
843.454	12988.19
843.778	12909.55
844.103	12899.83
844.427	12747.07
844.751	12783
845.075	12817.35
845.399	12766.95
845.723	12724.02
846.047	12684.47
846.371	12596.11
846.695	12585.49
847.019	12566.73
847.343	12474.53
847.666	12451.93
847.99	12355.44
848.313	12323.35
848.637	12338.94
848.96	12277.7
849.284	12249
849.607	12157.02
849.931	12166.29
850.254	12063.92
850.577	11963.58
850.9	11933.08
851.223	11903.92
851.546	11860.08
851.869	11753.19
852.192	11807.2
852.515	11695.34
852.838	11732.63
853.161	11660.99
853.483	11667.32
853.806	11497.61
854.129	11511.17
854.451	11474.33
854.774	11410.83
855.096	11463.26
855.419	11391.4
855.741	11335.13
856.063	11251.06
856.385	11305.97
856.708	11222.81
857.03	11182.14
857.352	11169.93
857.674	11129.93
857.996	11091.06
858.318	11025.98
858.64	11085.64
858.961	11091.52
859.283	11009.71
859.605	10894.23
859.926	10957.06
860.248	10938.53
860.57	10852.43
860.891	10923.84
861.212	10807.46
861.534	10824.4
861.855	10766.55
862.176	10730.85
862.498	10769.49
862.819	10745.54
863.14	10707.12
863.461	10584.41
863.782	10675.03
864.103	10647.46
864.424	10639.1
864.745	10650.62
865.065	10623.51
865.386	10522.72
865.707	10508.93
866.027	10552.77
866.348	10467.8
866.668	10474.36
866.989	10463.06
867.309	10410.63
867.63	10397.98
867.95	10387.58
868.27	10244.53
868.59	10380.57
868.91	10320.46
869.23	10325.66
869.55	10252.89
869.87	10324.3
870.19	10276.4
870.51	10235.27
870.83	10326.34
871.15	10275.27
871.469	10220.58
871.789	10217.87
872.109	10235.04
872.428	10141.26
872.748	10190.97
873.067	10110.98
873.386	10173.8
873.706	10093.8
874.025	10016.52
874.344	10084.76
874.663	10095.84
874.982	10024.88
875.301	10056.74
875.62	9990.75
875.939	9961.83
876.258	9997.08
876.577	9963.64
876.896	9980.81
877.214	9909.17
877.533	9893.36
877.852	9872.79
878.17	9889.51
878.489	9962.28
878.807	9807.48
879.125	9870.76
879.444	9848.84
879.762	9823.08
880.08	9768.84
880.398	9739.24
880.716	9804.32
881.034	9717.09
881.352	9703.53
881.67	9742.17
881.988	9739.01
882.306	9675.51
882.624	9613.36
882.941	9634.61
883.259	9619.92
883.577	9568.84
883.894	9597.32
884.212	9550.54
884.529	9439.36
884.846	9512.8
885.164	9446.14
885.481	9472.8
885.798	9469.19
886.115	9428.06
886.432	9353.26
886.75	9319.13
887.067	9389.19
887.383	9272.13
887.7	9273.48
888.017	9275.74
888.334	9238.46
888.651	9184.45
888.967	9159.59
889.284	9171.11
889.6	9101.06
889.917	9091.57
890.233	9070.33
890.55	9056.54
890.866	9038.46
891.182	8966.6
891.498	9034.85
891.815	8942.42
892.131	8927.05
892.447	8965.47
892.763	8868.07
893.079	8817.23
893.395	8777.23
893.71	8863.78
894.026	8759.83
894.342	8713.5
894.657	8701.07
894.973	8733.61
895.289	8657.91
895.604	8694.74
895.92	8546.95
896.235	8464.69
896.55	8570.68
896.865	8501.98
897.181	8422.66
897.496	8541.3
897.811	8469.44
898.126	8384.02
898.441	8321.87
898.756	8351.93
899.071	8319.84
899.386	8306.73
899.7	8230.35
900.015	8171.82
900.33	8149.9
900.644	8120.52
900.959	8091.82
901.273	8101.76
901.588	8104.93
901.902	8030.35
902.216	7974.76
902.531	7966.63
902.845	7930.92
903.159	7880.08
903.473	7885.5
903.787	7848.44
904.101	7819.74
904.415	7774.54
904.729	7689.12
905.042	7790.13
905.356	7712.85
905.67	7658.39
905.984	7718.95
906.297	7629.23
906.611	7666.52
906.924	7602.57
907.237	7593.76
907.551	7518.28
907.864	7476.7
908.177	7463.36
908.491	7470.14
908.804	7359.64
909.117	7346.08
909.43	7304.05
909.743	7299.53
910.056	7264.5
910.368	7248.23
910.681	7169.13
910.994	7158.74
911.307	7170.94
911.619	7066.54
911.932	7078.29
912.244	7044.39
912.557	7025.18
912.869	6921.91
913.181	6977.73
913.494	6975.01
913.806	6850.95
914.118	6861.8
914.43	6866.09
914.742	6836.03
915.054	6801.69
915.366	6747.45
915.678	6671.29
915.99	6719.88
916.302	6678.75
916.613	6647.79
916.925	6652.08
917.236	6602.37
917.548	6589.26
917.859	6632.88
918.171	6515.82
918.482	6496.83
918.794	6454.35
919.105	6476.5
919.416	6389.04
919.727	6305.2
920.038	6348.82
920.349	6362.6
920.66	6316.05
920.971	6292.77
921.282	6264.07
921.593	6204.87
921.903	6240.57
922.214	6212.77
922.525	6216.84
922.835	6148.37
923.146	6079.22
923.456	6067.92
923.767	6066.11
924.077	6059.78
924.387	5979.56
924.697	5982.27
925.008	5950.63
925.318	6013.01
925.628	5932.33
925.938	5923.29
926.248	5842.16
926.558	5843.29
926.867	5817.76
927.177	5868.38
927.487	5780.02
927.796	5783.63
928.106	5733.92
928.416	5671.09
928.725	5687.14
929.034	5688.04
929.344	5607.14
929.653	5629.96
929.962	5610.3
930.271	5597.2
930.581	5575.73
930.89	5488.95
931.199	5478.78
931.508	5484.21
931.817	5497.31
932.125	5385.9
932.434	5412.8
932.743	5387.94
933.051	5357.88
933.36	5323.53
933.669	5306.13
933.977	5268.84
934.286	5310.88
934.594	5274.04
934.902	5246.92
935.21	5217.77
935.519	5183.2
935.827	5181.39
936.135	5147.94
936.443	5114.5
936.751	5098
937.059	5099.81
937.367	5075.86
937.674	5061.17
937.982	5047.83
938.29	4997.44
938.597	4962.64
938.905	4925.58
939.213	4939.81
939.52	4968.29
939.827	4920.83
940.135	4910.21
940.442	4833.6
940.749	4837.67
941.056	4817.78
941.363	4788.86
941.67	4772.36
941.977	4747.73
942.284	4720.16
942.591	4674.51
942.898	4714.51
943.205	4681.29
943.511	4671.57
943.818	4625.47
944.125	4618.69
944.431	4606.94
944.738	4600.84
945.044	4546.38
945.35	4575.98
945.657	4536.89
945.963	4474.52
946.269	4494.85
946.575	4485.81
946.881	4474.97
947.187	4425.93
947.493	4396.1
947.799	4372.82
948.105	4334.18
948.41	4317.23
948.716	4317.46
949.022	4314.75
949.327	4323.56
949.633	4248.98
949.938	4268.64
950.244	4252.6
950.549	4261.41
950.854	4167.18
951.16	4178.7
951.465	4183.9
951.77	4166.05
952.075	4150.91
952.38	4075.88
952.685	4150.68
952.99	4061.42
953.294	4066.16
953.599	4080.18
953.904	4045.6
954.209	4008.99
954.513	4007.41
954.818	3957.24
955.122	3970.12
955.426	3933.06
955.731	3947.3
956.035	3887.64
956.339	3876.11
956.643	3874.08
956.948	3839.28
957.252	3850.8
957.556	3824.59
957.86	3788.43
958.163	3796.11
958.467	3829.11
958.771	3786.62
959.075	3748.43
959.378	3722.67
959.682	3710.02
959.985	3724.7
960.289	3691.48
960.592	3690.58
960.896	3676.34
961.199	3649.45
961.502	3594.99
961.805	3607.87
962.108	3561.54
962.411	3582.56
962.714	3574.65
963.017	3538.72
963.32	3536.91
963.623	3505.28
963.926	3528.33
964.228	3540.3
964.531	3496.01
964.833	3461.89
965.136	3423.02
965.438	3405.39
965.741	3420.08
966.043	3402
966.345	3404.71
966.648	3368.56
966.95	3351.61
967.252	3327.65
967.554	3319.52
967.856	3321.33
968.158	3286.3
968.46	3303.92
968.761	3271.83
969.063	3221.21
969.365	3265.51
969.666	3259.63
969.968	3207.88
970.269	3162.01
970.571	3178.96
970.872	3184.61
971.174	3165.62
971.475	3119.3
971.776	3138.96
972.077	3117.26
972.378	3107.77
972.679	3120.88
972.98	3072.97
973.281	3078.17
973.582	3049.92
973.883	3035.91
974.183	3020.99
974.484	2962.46
974.785	2981.22
975.085	2969.02
975.386	2958.62
975.686	2927.66
975.986	2957.04
976.287	2913.2
976.587	2937.38
976.887	2881.11
977.187	2908.45
977.487	2896.7
977.787	2883.82
978.087	2839.08
978.387	2844.5
978.687	2863.94
978.987	2826.65
979.286	2792.53
979.586	2801.11
979.885	2789.59
980.185	2769.48
980.484	2775.8
980.784	2754.79
981.083	2726.31
981.382	2707.56
981.682	2741
981.981	2717.73
982.28	2673.43
982.579	2679.31
982.878	2660.78
983.177	2652.19
983.475	2657.39
983.774	2607.9
984.073	2660.55
984.372	2588.69
984.67	2572.64
984.969	2627.78
985.267	2581.01
985.566	2568.58
985.864	2571.06
986.162	2512.31
986.461	2491.97
986.759	2546.2
987.057	2488.8
987.355	2499.65
987.653	2467.34
987.951	2459.43
988.249	2448.35
988.547	2449.48
988.844	2446.09
989.142	2431.63
989.44	2430.05
989.737	2391.18
990.035	2395.93
990.332	2378.53
990.63	2375.59
990.927	2329.26
991.224	2340.11
991.521	2337.62
991.819	2340.56
992.116	2349.15
992.413	2279.32
992.71	2269.15
993.006	2278.87
993.303	2237.96
993.6	2256.95
993.897	2289.04
994.193	2253.56
994.49	2236.61
994.787	2192.54
995.083	2187.12
995.379	2196.61
995.676	2180.11
995.972	2184.63
996.268	2165.42
996.565	2161.58
996.861	2130.4
997.157	2109.83
997.453	2099.44
997.749	2095.59
998.044	2111.87
998.34	2099.21
998.636	2068.93
998.932	2073.9
999.227	2081.58
999.523	2032.55
999.818	2070.51
1000.114	2051.75
1000.409	2028.93
1000.704	2006.33
1001	1985.77
1001.295	1994.58
1001.59	1963.62
1001.885	1968.37
1002.18	1967.01
1002.475	1944.41
1002.77	1926.56
1003.065	1946.9
1003.359	1934.24
1003.654	1902.15
1003.949	1907.8
1004.243	1895.83
1004.538	1872.1
1004.832	1879.78
1005.127	1847.92
1005.421	1833.91
1005.715	1813.57
1006.009	1815.15
1006.304	1820.12
1006.598	1785.09
1006.892	1790.97
1007.186	1773.8
1007.48	1756.62
1007.773	1763.4
1008.067	1746
1008.361	1748.26
1008.655	1741.71
1008.948	1710.29
1009.242	1726.56
1009.535	1753.23
1009.829	1690.41
1010.122	1655.83
1010.415	1666.91
1010.708	1677.98
1011.001	1683.18
1011.295	1645.89
1011.588	1605.21
1011.881	1615.83
1012.173	1614.48
1012.466	1601.82
1012.759	1592.33
1013.052	1598.88
1013.344	1581.48
1013.637	1585.1
1013.93	1564.54
1014.222	1575.83
1014.514	1563.86
1014.807	1528.15
1015.099	1541.03
1015.391	1490.86
1015.683	1505.78
1015.976	1511.88
1016.268	1514.37
1016.56	1485.22
1016.851	1485.89
1017.143	1477.53
1017.435	1456.74
1017.727	1450.87
1018.018	1431.66
1018.31	1419.45
1018.602	1441.83
1018.893	1416.97
1019.185	1386.01
1019.476	1393.47
1019.767	1391.43
1020.058	1358.44
1020.35	1376.07
1020.641	1344.2
1020.932	1363.41
1021.223	1355.05
1021.514	1329.51
1021.804	1323.86
1022.095	1315.73
1022.386	1315.73
1022.677	1301.94
1022.967	1284.09
1023.258	1285.9
1023.548	1284.99
1023.839	1286.12
1024.129	1277.31
1024.419	1237.09
1024.709	1252
1025	1255.84
1025.29	1239.35
1025.58	1190.31
1025.87	1208.84
1026.16	1195.51
1026.449	1198.44
1026.739	1178.78
1027.029	1161.61
1027.319	1165
1027.608	1160.7
1027.898	1151.21
1028.187	1155.28
1028.477	1167.26
1028.766	1135.39
1029.055	1155.73
1029.344	1134.72
1029.634	1082.74
1029.923	1091.55
1030.212	1098.33
1030.501	1102.17
1030.79	1077.32
1031.078	1078.45
1031.367	1080.25
1031.656	1068.28
1031.945	1057.2
1032.233	1049.75
1032.522	1043.87
1032.81	1023.53
1033.099	1012.91
1033.387	1020.82
1033.675	1030.31
1033.963	1009.07
1034.251	1004.55
1034.54	993.48
1034.828	969.97
1035.116	986.02
1035.403	960.71
1035.691	954.38
1035.979	991.67
1036.267	947.6
1036.554	956.42
1036.842	937.21
1037.129	895.4
1037.417	955.74
1037.704	936.98
1037.992	931.33
1038.279	924.55
1038.566	920.71
1038.853	920.71
1039.14	920.71
