Data from hue_120_FLMS001491_00011.txt Node
Date: Tue Feb 07 16:58:59 GMT 2017
User: dcchb
Spectrometer: FLMS00149
Trigger mode: 0
Integration Time (sec): 2.000000E-2
Scans to average: 10
Electric dark correction enabled: true
Nonlinearity correction enabled: false
Boxcar width: 0
XAxis mode: Wavelengths
Number of Pixels in Spectrum: 2048
>>>>>Begin Spectral Data<<<<<
341.393	-13.05
341.776	-13.05
342.16	-13.05
342.543	-67.29
342.927	-50.11
343.31	-55.31
343.693	-69.32
344.077	-75.65
344.46	-63.9
344.843	-39.04
345.226	-48.76
345.61	-16.21
345.993	-23.22
346.376	-5.59
346.759	-4.46
347.142	19.04
347.525	56.33
347.908	63.11
348.291	81.18
348.674	80.96
349.057	100.84
349.44	119.38
349.823	149.66
350.206	162.76
350.588	191.69
350.971	214.29
351.354	225.14
351.737	224.91
352.119	231.24
352.502	271.46
352.884	284.79
353.267	290.67
353.65	293.16
354.032	311.23
354.414	309.65
354.797	324.79
355.179	330.9
355.562	329.77
355.944	336.77
356.326	313.49
356.709	335.64
357.091	343.32
357.473	367.73
357.855	346.94
358.238	349.43
358.62	344.91
359.002	365.7
359.384	344.45
359.766	334.96
360.148	375.41
360.53	328.41
360.912	346.04
361.294	327.51
361.676	331.12
362.057	341.29
362.439	348.75
362.821	326.38
363.203	332.7
363.584	314.85
363.966	350.1
364.348	325.25
364.729	314.85
365.111	320.95
365.493	322.08
365.874	334.06
366.256	321.4
366.637	296.77
367.019	326.6
367.4	319.37
367.781	308.75
368.163	329.99
368.544	334.28
368.925	308.97
369.306	317.11
369.688	329.99
370.069	298.35
370.45	330.22
370.831	303.78
371.212	322.08
371.593	310.1
371.974	320.05
372.355	321.63
372.736	311.69
373.117	335.87
373.498	314.4
373.879	320.5
374.26	320.73
374.641	324.12
375.021	302.87
375.402	360.5
375.783	329.77
376.163	340.61
376.544	315.75
376.925	337.67
377.305	335.19
377.686	340.16
378.066	335.64
378.447	342.42
378.827	324.12
379.208	341.29
379.588	330.67
379.968	334.28
380.349	355.3
380.729	340.84
381.109	358.69
381.489	346.26
381.87	345.81
382.25	352.82
382.63	363.66
383.01	342.42
383.39	343.55
383.77	361.63
384.15	342.87
384.53	347.39
384.91	349.88
385.29	354.62
385.67	361.63
386.049	365.7
386.429	356.43
386.809	389.2
387.189	375.41
387.568	357.79
387.948	359.82
388.328	373.15
388.707	365.7
389.087	363.21
389.466	370.22
389.846	360.72
390.225	377.9
390.605	374.28
390.984	382.19
391.363	364.57
391.743	382.19
392.122	375.41
392.501	397.79
392.881	375.87
393.26	392.36
393.639	401.4
394.018	400.72
394.397	389.2
394.776	414.96
395.155	414.96
395.534	401.63
395.913	393.72
396.292	387.39
396.671	409.09
397.05	411.12
397.429	409.76
397.808	415.19
398.186	407.73
398.565	418.8
398.944	408.63
399.323	415.64
399.701	398.01
400.08	396.66
400.458	416.32
400.837	428.29
401.215	412.7
401.594	446.37
401.972	431.68
402.351	435.75
402.729	444.79
403.107	446.15
403.486	431.46
403.864	442.3
404.242	435.75
404.62	437.11
404.999	442.3
405.377	473.49
405.755	454.51
406.133	436.88
406.511	460.38
406.889	484.11
407.267	476.65
407.645	464
408.023	478.69
408.401	469.87
408.779	493.83
409.156	491.79
409.534	470.78
409.912	469.87
410.29	490.21
410.667	484.11
411.045	490.67
411.422	513.94
411.8	511.91
412.178	514.17
412.555	515.3
412.933	523.21
413.31	505.81
413.687	525.01
414.065	536.77
414.442	509.42
414.819	510.33
415.197	544
415.574	551
415.951	561.4
416.328	570.44
416.705	558.69
417.082	559.59
417.46	565.92
417.837	573.6
418.214	563.21
418.591	534.96
418.967	539.93
419.344	600.72
419.721	574.28
420.098	590.55
420.475	585.35
420.852	584
421.228	580.38
421.605	597.33
421.982	594.17
422.358	605.24
422.735	596.65
423.111	604.11
423.488	620.15
423.864	615.63
424.241	630.1
424.617	647.5
424.994	608.4
425.37	642.75
425.746	646.37
426.123	628.74
426.499	636.88
426.875	651.11
427.251	657.89
427.627	651.79
428.003	651.79
428.379	669.87
428.756	668.06
429.132	680.49
429.507	677.78
429.883	692.69
430.259	716.2
430.635	701.51
431.011	728.4
431.387	735.4
431.763	746.25
432.138	740.38
432.514	754.61
432.89	742.86
433.265	757.1
433.641	742.18
434.016	767.72
434.392	807.27
434.767	776.08
435.143	787.15
435.518	813.82
435.894	820.37
436.269	816.53
436.644	806.14
437.02	833.03
437.395	833.25
437.77	863.99
438.145	852.24
438.52	862.41
438.895	856.76
439.271	861.5
439.646	886.59
440.021	893.59
440.395	893.82
440.77	877.1
441.145	895.63
441.52	904.44
441.895	905.57
442.27	910.32
442.645	907.15
443.019	941.5
443.394	934.27
443.769	969.75
444.143	938.34
444.518	938.79
444.892	948.73
445.267	941.5
445.641	961.84
446.016	1004.32
446.39	970.65
446.764	989.18
447.139	1011.56
447.513	1001.84
447.887	994.15
448.262	1000.48
448.636	997.32
449.01	1013.82
449.384	1028.96
449.758	1036.64
450.132	1079.8
450.506	1042.51
450.88	1056.3
451.254	1064.66
451.628	1095.62
452.002	1096.3
452.376	1091.1
452.75	1101.95
453.123	1108.5
453.497	1155.73
453.871	1137.65
454.244	1156.64
454.618	1187.14
454.992	1188.95
455.365	1180.59
455.739	1190.53
456.112	1212.68
456.486	1249.52
456.859	1277.31
457.232	1259.46
457.606	1295.39
457.979	1296.75
458.352	1323.86
458.725	1336.52
459.099	1354.37
459.472	1342.62
459.845	1343.52
460.218	1406.35
460.591	1407.7
460.964	1420.13
461.337	1471.66
461.71	1445.89
462.083	1479.34
462.456	1462.39
462.829	1512.11
463.201	1525.67
463.574	1531.77
463.947	1567.7
464.32	1588.04
464.692	1601.6
465.065	1613.12
465.438	1673.01
465.81	1657.64
466.183	1690.86
466.555	1758.88
466.928	1756.85
467.3	1757.98
467.672	1781.03
468.045	1815.83
468.417	1842.72
468.789	1855.83
469.161	1900.8
469.534	1936.5
469.906	1972.66
470.278	1993.22
470.65	2013.79
471.022	2085.65
471.394	2121.81
471.766	2184.63
472.138	2185.31
472.51	2209.72
472.882	2305.76
473.253	2340.11
473.625	2370.62
473.997	2438.41
474.369	2414
474.74	2519.76
475.112	2557.96
475.484	2617.16
475.855	2691.06
476.227	2724.73
476.598	2844.05
476.97	2901
477.341	2969.92
477.713	3039.3
478.084	3075.91
478.455	3148.22
478.827	3238.39
479.198	3352.74
479.569	3400.87
479.94	3562.45
480.311	3599.28
480.682	3701.43
481.053	3835.44
481.424	3913.85
481.795	4009.44
482.166	4055.32
482.537	4172.38
482.908	4331.69
483.279	4426.38
483.65	4513.16
484.021	4694.62
484.391	4777.33
484.762	4920.15
485.133	4992.69
485.503	5096.19
485.874	5221.61
486.244	5382.97
486.615	5489.4
486.985	5682.39
487.356	5764.65
487.726	5909.96
488.097	6088.03
488.467	6193.57
488.837	6365.09
489.207	6486.67
489.578	6654.8
489.948	6779.31
490.318	6923.94
490.688	7086.88
491.058	7227.44
491.428	7408.68
491.798	7503.59
492.168	7713.3
492.538	7824.71
492.908	8004.14
493.278	8135.66
493.648	8236
494.017	8454.52
494.387	8566.38
494.757	8704.46
495.126	8872.37
495.496	8932.03
495.866	9059.48
496.235	9264.22
496.605	9395.97
496.974	9502.18
497.344	9579.92
497.713	9763.64
498.082	9893.81
498.452	9987.82
498.821	10106.01
499.19	10184.87
499.559	10370.63
499.928	10426
500.298	10546.22
500.667	10732.66
501.036	10664.41
501.405	10921.58
501.774	10911.86
502.143	11104.17
502.512	11220.1
502.88	11339.65
503.249	11314.79
503.618	11492.64
503.987	11512.3
504.356	11659.86
504.724	11681.78
505.093	11702.12
505.462	11839.07
505.83	11990.02
506.199	12027.08
506.567	12228.66
506.936	12273.41
507.304	12352.27
507.672	12370.35
508.041	12557.92
508.409	12626.39
508.777	12666.39
509.145	12794.07
509.514	12797.69
509.882	12874.97
510.25	12921.75
510.618	13049.88
510.986	13134.85
511.354	13172.59
511.722	13271.12
512.09	13377.78
512.458	13363.55
512.826	13432.25
513.193	13491.23
513.561	13576.87
513.929	13551.34
514.297	13673.82
514.664	13817.55
515.032	13767.83
515.4	13862.97
515.767	13986.36
516.135	14019.35
516.502	13857.09
516.869	14094.6
517.237	14102.06
517.604	14110.42
517.972	14132.79
518.339	14239
518.706	14366.23
519.073	14283.07
519.44	14407.36
519.808	14434.71
520.175	14415.27
520.542	14638.99
520.909	14612.78
521.276	14579.56
521.643	14653.68
522.009	14688.71
522.376	14713.34
522.743	14781.81
523.11	14884.18
523.477	14954.47
523.843	14927.35
524.21	15008.7
524.577	15095.25
524.943	15119.43
525.31	15137.74
525.676	15251.86
526.043	15294.34
526.409	15285.98
526.776	15398.07
527.142	15335.02
527.508	15394.68
527.874	15503.15
528.241	15443.49
528.607	15491.85
528.973	15556.26
529.339	15489.14
529.705	15584.96
530.071	15649.81
530.437	15610.95
530.803	15674.45
531.169	15665.86
531.535	15594.45
531.901	15563.04
532.267	15605.75
532.632	15660.89
532.998	15648.46
533.364	15738.63
533.73	15678.06
534.095	15714.45
534.461	15717.16
534.826	15699.76
535.192	15745.18
535.557	15814.56
535.923	15647.78
536.288	15634
536.653	15785.4
537.019	15465.19
537.384	15586.54
537.749	15670.15
538.114	15575.24
538.479	15527.56
538.845	15560.33
539.21	15474.68
539.575	15439.88
539.94	15452.98
540.305	15407.56
540.67	15374.12
541.034	15402.14
541.399	15482.14
541.764	15352.87
542.129	15426.09
542.494	15314.23
542.858	15370.95
543.223	15269.26
543.587	15397.84
543.952	15248.02
544.316	15187
544.681	15069.72
545.045	15173.89
545.41	15126.89
545.774	15151.3
546.138	15119.43
546.503	15023.62
546.867	15045.08
547.231	14991.98
547.595	15004.86
547.959	15028.59
548.324	14909.72
548.688	14906.56
549.052	14882.15
549.416	14851.64
549.779	14843.06
550.143	14837.18
550.507	14786.33
550.871	14776.62
551.235	14632.89
551.599	14821.81
551.962	14680.35
552.326	14743.17
552.689	14755.83
553.053	14665.89
553.417	14636.96
553.78	14735.71
554.143	14746.56
554.507	14565.78
554.87	14633.8
555.234	14703.85
555.597	14578.88
555.96	14712.66
556.323	14590.41
556.686	14621.82
557.05	14655.04
557.413	14714.02
557.776	14468.15
558.139	14613.68
558.502	14629.05
558.865	14595.83
559.228	14624.76
559.59	14630.41
559.953	14632.44
560.316	14651.42
560.679	14680.8
561.041	14618.88
561.404	14673.12
561.767	14724.42
562.129	14559.45
562.492	14752.89
562.854	14636.73
563.217	14643.97
563.579	14641.48
563.941	14690.07
564.304	14727.8
564.666	14826.79
565.028	14794.47
565.39	14752.89
565.753	14858.42
566.115	14878.08
566.477	14812.32
566.839	14788.59
567.201	14893
567.563	14945.65
567.925	14902.72
568.287	14932.09
568.648	15028.14
569.01	14986.78
569.372	14998.98
569.734	14975.71
570.095	15011.87
570.457	15091.41
570.819	15227.23
571.18	15037.85
571.542	15164.63
571.903	15179.32
572.265	15141.58
572.626	15156.72
572.987	15203.27
573.349	15202.59
573.71	15198.3
574.071	15285.08
574.432	15178.19
574.794	15324.17
575.155	15361.01
575.516	15177.96
575.877	15316.94
576.238	15329.14
576.599	15340.44
576.96	15296.83
577.32	15286.89
577.681	15387.67
578.042	15344.96
578.403	15396.04
578.763	15396.94
579.124	15410.05
579.485	15420.22
579.845	15481.23
580.206	15372.53
580.566	15362.14
580.927	15441.91
581.287	15450.95
581.648	15391.29
582.008	15412.98
582.368	15454.11
582.728	15365.75
583.089	15423.83
583.449	15309.26
583.809	15441.91
584.169	15383.38
584.529	15373.89
584.889	15419.99
585.249	15404.62
585.609	15290.73
585.969	15330.95
586.329	15285.76
586.688	15250.95
587.048	15274.68
587.408	15194.46
587.768	15194.46
588.127	15149.49
588.487	15195.82
588.846	15332.99
589.206	15165.99
589.565	15184.52
589.925	15271.07
590.284	15191.52
590.643	15232.88
591.003	15240.79
591.362	15315.59
591.721	15263.61
592.08	15183.16
592.44	15221.8
592.799	15189.94
593.158	15132.31
593.517	15109.72
593.876	15177.96
594.235	15112.43
594.593	15197.85
594.952	15092.77
595.311	15170.73
595.67	15160.34
596.029	15258.86
596.387	15211.41
596.746	15247.34
597.104	15121.69
597.463	15126.89
597.822	15172.54
598.18	15085.08
598.538	15024.75
598.897	15187.45
599.255	14976.16
599.613	15285.08
599.972	15066.55
600.33	15189.94
600.688	15118.3
601.046	15129.38
601.404	15154.01
601.762	15088.25
602.12	15239.43
602.478	15221.35
602.836	15193.56
603.194	15143.16
603.552	15156.72
603.91	15138.42
604.268	15196.49
604.625	15087.8
604.983	15150.62
605.341	15096.16
605.698	15129.38
606.056	15232.65
606.413	15206.89
606.771	15261.58
607.128	15182.48
607.485	15116.04
607.843	15162.37
608.2	15252.99
608.557	15259.77
608.914	15262.93
609.272	15309.71
609.629	15297.51
609.986	15328.24
610.343	15303.61
610.7	15361.91
611.057	15372.31
611.414	15386.32
611.771	15271.07
612.127	15387.22
612.484	15280.33
612.841	15305.87
613.198	15372.31
613.554	15305.87
613.911	15518.07
614.267	15363.72
614.624	15429.03
614.98	15426.54
615.337	15441.46
615.693	15470.61
616.05	15465.86
616.406	15554.9
616.762	15451.63
617.118	15415.92
617.475	15468.8
617.831	15626.99
618.187	15586.77
618.543	15567.33
618.899	15650.49
619.255	15637.61
619.611	15633.09
619.967	15644.84
620.323	15675.8
620.678	15563.49
621.034	15553.09
621.39	15684.84
621.746	15560.1
622.101	15738.4
622.457	15582.7
622.812	15610.72
623.168	15672.41
623.523	15667.44
623.879	15707.21
624.234	15615.47
624.589	15576.14
624.945	15640.55
625.3	15629.7
625.655	15667.89
626.01	15655.24
626.365	15568.46
626.72	15549.93
627.075	15526.2
627.43	15626.99
627.785	15655.92
628.14	15597.16
628.495	15630.83
628.85	15619.98
629.205	15563.49
629.559	15567.78
629.914	15544.96
630.269	15575.24
630.623	15500.67
630.978	15424.28
631.332	15522.59
631.687	15530.72
632.041	15443.72
632.396	15602.36
632.75	15455.24
633.104	15434
633.459	15273.33
633.813	15420.44
634.167	15310.16
634.521	15432.87
634.875	15373.89
635.229	15344.96
635.583	15229.26
635.937	15222.26
636.291	15390.61
636.645	15312.87
636.999	15225.64
637.352	15190.39
637.706	15170.28
638.06	15164.4
638.413	15210.28
638.767	15156.27
639.121	15127.57
639.474	15044.86
639.828	15053.67
640.181	15095.93
640.534	15111.07
640.888	15020.45
641.241	15045.54
641.594	15032.43
641.947	15082.6
642.301	14936.16
642.654	14916.73
643.007	15026.1
643.36	14975.26
643.713	14890.29
644.066	14992.66
644.419	14870.17
644.771	14860.91
645.124	14691.2
645.477	14653.46
645.83	14591.99
646.182	14513.57
646.535	14522.16
646.888	14484.87
647.24	14432.67
647.593	14457.53
647.945	14484.2
648.298	14338.44
648.65	14368.27
649.002	14362.84
649.355	14368.04
649.707	14377.31
650.059	14448.94
650.411	14585.89
650.763	14582.72
651.115	14809.84
651.467	14694.59
651.819	14721.48
652.171	14747.01
652.523	14730.06
652.875	14713.34
653.227	14599.22
653.578	14749.95
653.93	14759.44
654.282	14656.17
654.633	14611.2
654.985	14741.82
655.337	14794.7
655.688	14713.12
656.039	14761.48
656.391	14720.8
656.742	14669.73
657.094	14664.76
657.445	14759.44
657.796	14723.06
658.147	14773
658.498	14636.73
658.849	14782.27
659.2	14749.27
659.551	14740.01
659.902	14793.34
660.253	14702.72
660.604	14679.9
660.955	14659.56
661.306	14639.67
661.656	14749.95
662.007	14765.32
662.358	14773.91
662.708	14723.29
663.059	14766.45
663.409	14659.78
663.76	14728.93
664.11	14790.85
664.461	14783.85
664.811	14777.97
665.161	14829.72
665.511	14755.83
665.862	14800.8
666.212	14792.21
666.562	14751.31
666.912	14723.96
667.262	14721.25
667.612	14675.6
667.962	14760.35
668.312	14718.77
668.662	14808.25
669.011	14730.29
669.361	14693.91
669.711	14718.77
670.06	14646
670.41	14722.83
670.76	14710.4
671.109	14677.86
671.459	14664.3
671.808	14661.82
672.157	14692.33
672.507	14606
672.856	14661.82
673.205	14642.38
673.554	14700.46
673.904	14618.43
674.253	14703.85
674.602	14599.9
674.951	14386.57
675.3	14281.49
675.649	14648.03
675.998	14485.33
676.346	14482.61
676.695	14478.09
677.044	14420.02
677.393	14511.77
677.741	14473.12
678.09	14461.15
678.438	14389.51
678.787	14399.45
679.135	14446
679.484	14300.02
679.832	14394.71
680.181	14265.9
680.529	14364.88
680.877	14295.95
681.225	14256.4
681.573	14376.63
681.922	14259.12
682.27	14119.69
682.618	14221.15
682.966	14151.32
683.314	14087.14
683.661	14179.34
684.009	14088.73
684.357	14077.88
684.705	13989.07
685.053	14065.45
685.4	13972.12
685.748	13933.25
686.095	13900.93
686.443	13764.21
686.79	13740.49
687.138	13809.86
687.485	13773.03
687.832	13755.85
688.18	13786.59
688.527	13702.52
688.874	13660.26
689.221	13606.93
689.568	13535.75
689.915	13541.62
690.262	13582.98
690.609	13475.63
690.956	13389.99
691.303	13374.39
691.65	13340.95
691.997	13422.3
692.344	13277
692.69	13199.03
693.037	13186.15
693.383	13102.76
693.73	13152.71
694.077	13054.18
694.423	12966.27
694.769	13015.08
695.116	12888.08
695.462	12981.86
695.808	12926.5
696.155	12830.45
696.501	12799.04
696.847	12738.48
697.193	12688.08
697.539	12753.85
697.885	12548.43
698.231	12549.78
698.577	12538.71
698.923	12544.13
699.269	12488.77
699.614	12317.25
699.96	12405.83
700.306	12341.88
700.651	12174.43
700.997	12197.48
701.342	12183.92
701.688	12169.68
702.033	12118.61
702.379	12081.32
702.724	12009.91
703.069	12017.59
703.415	11876.35
703.76	11954.32
704.105	11896.92
704.45	11902.12
704.795	11746.19
705.14	11713.65
705.485	11760.88
705.83	11710.03
706.175	11685.17
706.52	11690.82
706.865	11585.74
707.209	11567.66
707.554	11511.17
707.899	11496.7
708.243	11442.47
708.588	11445.63
708.932	11372.19
709.277	11318.85
709.621	11336.03
709.966	11223.72
710.31	11282.25
710.654	11209.93
710.998	11215.81
711.342	11263.49
711.687	11080.44
712.031	11067.34
712.375	11009.71
712.719	11037.73
713.063	11097.39
713.407	11053.78
713.75	11013.55
714.094	11044.74
714.438	10884.74
714.782	10979.2
715.125	10879.09
715.469	10971.07
715.812	10877.06
716.156	10842.26
716.499	10841.13
716.843	10853.78
717.186	10748.93
717.53	10817.17
717.873	10772.65
718.216	10752.32
718.559	10670.74
718.902	10656.73
719.246	10627.35
719.589	10682.04
719.932	10557.74
720.275	10666.22
720.617	10635.03
720.96	10625.09
721.303	10625.54
721.646	10622.83
721.989	10561.13
722.331	10636.16
722.674	10554.58
723.016	10543.06
723.359	10492.89
723.701	10492.21
724.044	10426.22
724.386	10457.86
724.729	10456.05
725.071	10411.99
725.413	10437.97
725.755	10448.37
726.097	10458.09
726.439	10307.81
726.782	10348.48
727.124	10465.77
727.465	10325.66
727.807	10374.47
728.149	10354.59
728.491	10302.16
728.833	10350.07
729.175	10323.4
729.516	10371.99
729.858	10307.81
730.199	10313.91
730.541	10285.44
730.882	10290.86
731.224	10348.71
731.565	10253.12
731.906	10303.29
732.248	10291.31
732.589	10160.92
732.93	10270.52
733.271	10195.95
733.612	10187.81
733.953	10280.01
734.294	10274.14
734.635	10205.44
734.976	10257.64
735.317	10187.13
735.658	10250.18
735.999	10193.23
736.339	10290.41
736.68	10223.06
737.021	10241.37
737.361	10203.4
737.702	10275.49
738.042	10271.65
738.383	10208.83
738.723	10272.33
739.063	10240.01
739.404	10258.09
739.744	10288.6
740.084	10251.54
740.424	10265.78
740.764	10270.52
741.104	10263.97
741.444	10290.41
741.784	10282.72
742.124	10270.52
742.464	10357.07
742.804	10250.41
743.143	10343.74
743.483	10371.08
743.823	10408.6
744.162	10397.98
744.502	10471.87
744.841	10534.69
745.181	10564.75
745.52	10543.51
745.86	10619.89
746.199	10570.63
746.538	10634.35
746.877	10704.86
747.216	10769.94
747.556	10757.06
747.895	10842.26
748.234	10832.31
748.573	10883.61
748.911	10993.44
749.25	11059.2
749.589	11027.79
749.928	11103.27
750.267	11232.53
750.605	11294.67
750.944	11293.77
751.283	11355.24
751.621	11475.01
751.96	11536.93
752.298	11695.12
752.636	11644.95
752.975	11765.85
753.313	11861.21
753.651	12007.42
753.989	12034.09
754.327	12250.58
754.666	12249.23
755.004	12470.46
755.342	12587.75
755.679	12740.51
756.017	12778.03
756.355	13045.82
756.693	13060.96
757.031	13271.12
757.368	13325.36
757.706	13503.2
758.044	13648.74
758.381	13724.22
758.719	13894.61
759.056	14136.63
759.394	14265.9
759.731	14381.6
760.068	14494.59
760.405	14660.69
760.743	14834.69
761.08	14983.17
761.417	15100.45
761.754	15240.11
762.091	15562.59
762.428	15664.05
762.765	15692.3
763.102	15980.65
763.438	16081.67
763.775	16251.61
764.112	16414.54
764.449	16700.18
764.785	16657.47
765.122	16818.82
765.458	16999.16
765.795	17052.49
766.131	17301.75
766.467	17431.69
766.804	17575.87
767.14	17649.99
767.476	17846.37
767.812	17887.27
768.148	18073.03
768.485	18116.19
768.821	18301.5
769.157	18420.82
769.492	18498.55
769.828	18627.36
770.164	18611.77
770.5	18772.44
770.836	18876.4
771.171	18915.04
771.507	19074.36
771.842	19036.17
772.178	19226.22
772.513	19236.39
772.849	19310.06
773.184	19379.43
773.519	19486.78
773.855	19597.73
774.19	19532.2
774.525	19607
774.86	19736.26
775.195	19803.38
775.53	19811.96
775.865	19835.47
776.2	19732.19
776.535	19800.44
776.87	19820.1
777.205	19903.26
777.539	19946.88
777.874	20010.38
778.209	19938.52
778.543	19998.17
778.878	19938.97
779.212	20006.99
779.547	19886.77
779.881	19964.05
780.215	20001.79
780.55	20035.69
780.884	19991.4
781.218	19950.49
781.552	19969.7
781.886	19971.06
782.22	19962.7
782.554	20024.84
782.888	19856.94
783.222	19830.27
783.556	19856.48
783.889	19836.6
784.223	19714.79
784.557	19834.79
784.89	19891.96
785.224	19775.36
785.557	19798.41
785.891	19701.46
786.224	19740.1
786.558	19799.08
786.891	19511.63
787.224	19576.26
787.557	19606.55
787.891	19486.78
788.224	19635.02
788.557	19491.3
788.89	19596.38
789.223	19538.53
789.556	19377.17
789.888	19353.22
790.221	19321.36
790.554	19270.96
790.887	19242.26
791.219	19234.35
791.552	19216.05
791.884	19053.57
792.217	19084.07
792.549	19053.11
792.882	19026.22
793.214	18959.78
793.546	18910.75
793.879	18871.2
794.211	18724.08
794.543	18891.54
794.875	18797.3
795.207	18887.7
795.539	18732.67
795.871	18837.53
796.203	18620.36
796.535	18579.68
796.867	18555.27
797.198	18516.18
797.53	18556.63
797.862	18400.48
798.193	18396.18
798.525	18365
798.856	18311.21
799.188	18194.15
799.519	18156.19
799.85	18012.01
800.182	18087.04
800.513	18084.55
800.844	17927.72
801.175	18051.56
801.506	18083.42
801.837	17874.61
802.168	17827.61
802.499	17820.15
802.83	17808.18
803.161	17717.1
803.491	17665.81
803.822	17736.31
804.153	17604.79
804.483	17529.31
804.814	17431.01
805.145	17527.51
805.475	17401.86
805.805	17375.42
806.136	17378.36
806.466	17309.88
806.796	17321.18
807.126	17280.05
807.457	17115.09
807.787	17150.57
808.117	17195.31
808.447	17091.81
808.777	17089.1
809.107	17057.46
809.436	16917.35
809.766	16975.66
810.096	16836.22
810.426	16813.85
810.755	16844.13
811.085	16761.65
811.414	16783.57
811.744	16690.24
812.073	16591.03
812.403	16604.37
812.732	16559.17
813.061	16499.06
813.39	16420.87
813.719	16430.58
814.049	16499.06
814.378	16409.34
814.707	16415.9
815.036	16362.79
815.365	16214.09
815.693	16176.58
816.022	16186.3
816.351	16160.99
816.68	16047.54
817.008	16108.56
817.337	16088
817.665	15898.4
817.994	16015.91
818.322	16005.96
818.651	15856.81
818.979	15915.34
819.307	15985.85
819.636	15863.37
819.964	15749.25
820.292	15931.16
820.62	15923.25
820.948	15748.57
821.276	15824.73
821.604	15802.8
821.932	15812.75
822.259	15779.3
822.587	15714.45
822.915	15794.22
823.243	15769.81
823.57	15711.51
823.898	15715.12
824.225	15733.43
824.553	15692.98
824.88	15739.76
825.207	15741.11
825.535	15705.18
825.862	15705.41
826.189	15766.65
826.516	15781.11
826.843	15774.33
827.17	15775.69
827.497	15845.06
827.824	15717.38
828.151	15773.43
828.478	15732.3
828.805	15737.72
829.131	15751.05
829.458	15740.43
829.785	15715.12
830.111	15687.78
830.438	15745.63
830.764	15742.24
831.09	15848.68
831.417	15739.08
831.743	15693.2
832.069	15772.98
832.395	15663.37
832.722	15714.45
833.048	15712.19
833.374	15681.68
833.7	15652.07
834.026	15607.1
834.351	15737.5
834.677	15678.51
835.003	15621.79
835.329	15663.37
835.654	15601.68
835.98	15570.72
836.306	15570.95
836.631	15581.12
836.956	15559.42
837.282	15577.5
837.607	15543.38
837.932	15518.29
838.258	15525.07
838.583	15426.32
838.908	15309.26
839.233	15411.85
839.558	15332.76
839.883	15263.84
840.208	15182.71
840.533	15321.01
840.858	15231.29
841.182	15194.01
841.507	15210.28
841.832	15032.66
842.156	15076.04
842.481	15098.42
842.805	15078.08
843.13	15031.98
843.454	14958.53
843.778	14968.93
844.103	14849.84
844.427	14784.53
844.751	14883.05
845.075	14907.24
845.399	14747.24
845.723	14706.11
846.047	14688.26
846.371	14497.53
846.695	14533.91
847.019	14514.25
847.343	14387.47
847.666	14343.18
847.99	14267.7
848.313	14293.01
848.637	14194.03
848.96	14201.04
849.284	14147.03
849.607	14036.98
849.931	14060.03
850.254	13937.54
850.577	13880.6
850.9	13753.59
851.223	13817.09
851.546	13706.36
851.869	13613.26
852.192	13653.48
852.515	13559.7
852.838	13493.26
853.161	13470.21
853.483	13397.44
853.806	13333.94
854.129	13301.4
854.451	13287.16
854.774	13161.29
855.096	13167.39
855.419	13050.56
855.741	13085.81
856.063	13029.54
856.385	12985.03
856.708	12998.81
857.03	12958.81
857.352	12902.99
857.674	12892.37
857.996	12786.61
858.318	12675.2
858.64	12784.58
858.961	12752.49
859.283	12672.27
859.605	12616
859.926	12639.5
860.248	12653.06
860.57	12574.64
860.891	12520.63
861.212	12530.12
861.534	12375.32
861.855	12442.67
862.176	12398.6
862.498	12388.21
862.819	12348.21
863.14	12315.21
863.461	12256.91
863.782	12260.75
864.103	12329
864.424	12290.13
864.745	12258.49
865.065	12184.59
865.386	12151.15
865.707	12076.8
866.027	12034.32
866.348	12020.31
866.668	12131.26
866.989	11983.92
867.309	11850.82
867.63	12009.46
867.95	11963.13
868.27	11937.37
868.59	11922
868.91	11929.01
869.23	11933.75
869.55	11843.13
869.87	11924.71
870.19	11814.66
870.51	11872.51
870.83	11830.03
871.15	11791.61
871.469	11835.45
871.789	11776.02
872.109	11703.03
872.428	11705.74
872.748	11695.12
873.067	11620.32
873.386	11625.29
873.706	11639.75
874.025	11659.64
874.344	11632.29
874.663	11492.41
874.982	11487.66
875.301	11549.81
875.62	11524.5
875.939	11491.05
876.258	11482.69
876.577	11377.61
876.896	11485.18
877.214	11412.86
877.533	11470.04
877.852	11384.39
878.17	11435.69
878.489	11362.02
878.807	11378.06
879.125	11399.98
879.444	11371.51
879.762	11310.95
880.08	11334.45
880.398	11283.83
880.716	11213.09
881.034	11235.47
881.352	11177.84
881.67	11151.85
881.988	11223.04
882.306	11097.39
882.624	11052.42
882.941	10983.95
883.259	10977.17
883.577	11069.6
883.894	10992.31
884.212	10951.86
884.529	10949.6
884.846	10963.38
885.164	10894.46
885.481	10844.97
885.798	10898.3
886.115	10774.46
886.432	10755.48
886.75	10791.41
887.067	10807.46
887.383	10694.92
887.7	10725.42
888.017	10668.7
888.334	10664.41
888.651	10581.25
888.967	10552.77
889.284	10557.52
889.6	10456.73
889.917	10424.64
890.233	10464.41
890.55	10388.94
890.866	10430.74
891.182	10306.68
891.498	10282.95
891.815	10244.76
892.131	10298.54
892.447	10245.44
892.763	10149.39
893.079	10152.33
893.395	10209.51
893.71	10115.72
894.026	10110.07
894.342	10095.16
894.657	10003.86
894.973	9915.28
895.289	9976.97
895.604	9975.84
895.92	9858.1
896.235	9795.73
896.55	9833.24
896.865	9736.52
897.181	9763.42
897.496	9764.32
897.811	9694.94
898.126	9664.89
898.441	9609.07
898.756	9552.57
899.071	9560.03
899.386	9568.62
899.7	9409.07
900.015	9414.72
900.33	9335.63
900.644	9355.52
900.959	9346.03
901.273	9304.67
901.588	9271.45
901.902	9198.01
902.216	9198.23
902.531	9183.54
902.845	9105.58
903.159	9116.65
903.473	9121.85
903.787	8985.58
904.101	8991.68
904.415	8949.65
904.729	8897
905.042	8837.34
905.356	8869.65
905.67	8841.41
905.984	8843.67
906.297	8748.53
906.611	8758.02
906.924	8697.45
907.237	8715.99
907.551	8672.14
907.864	8655.2
908.177	8597.12
908.491	8579.72
908.804	8487.29
909.117	8465.6
909.43	8411.36
909.743	8402.77
910.056	8366.16
910.368	8343.11
910.681	8339.05
910.994	8313.28
911.307	8191.03
911.619	8170.69
911.932	8233.29
912.244	8131.37
912.557	8137.7
912.869	7968.66
913.181	7975.44
913.494	8027.19
913.806	7940.41
914.118	7920.75
914.43	7885.95
914.742	7864.93
915.054	7810.02
915.366	7814.77
915.678	7752.85
915.99	7713.3
916.302	7651.15
916.613	7602.57
916.925	7633.3
917.236	7528.45
917.548	7586.75
917.859	7542.01
918.171	7498.39
918.482	7414.78
918.794	7435.79
919.105	7459.3
919.416	7343.14
919.727	7347.43
920.038	7334.55
920.349	7299.07
920.66	7209.58
920.971	7254.56
921.282	7174.78
921.593	7166.42
921.903	7148.34
922.214	7087.55
922.525	7066.54
922.835	7038.52
923.146	6969.82
923.456	7041
923.767	6975.24
924.077	6946.99
924.387	6893.43
924.697	6832.87
925.008	6848.92
925.318	6790.16
925.628	6828.8
925.938	6717.39
926.248	6724.63
926.558	6686.66
926.867	6696.38
927.177	6650.96
927.487	6616.83
927.796	6584.74
928.106	6577.51
928.416	6577.74
928.725	6527.79
929.034	6479.43
929.344	6499.77
929.653	6450.96
929.962	6341.81
930.271	6369.38
930.581	6351.53
930.89	6327.35
931.199	6330.06
931.508	6274.24
931.817	6294.58
932.125	6197.63
932.434	6191.08
932.743	6179.78
933.051	6094.81
933.36	6116.28
933.669	6058.88
933.977	6111.99
934.286	6034.47
934.594	6008.49
934.902	5989.73
935.21	5926.91
935.519	5947.47
935.827	5927.58
936.135	5885.33
936.443	5855.27
936.751	5818.43
937.059	5862.73
937.367	5772.56
937.674	5743.18
937.982	5765.33
938.29	5711.09
938.597	5678.33
938.905	5689.4
939.213	5655.05
939.52	5605.78
939.827	5624.54
940.135	5592.9
940.442	5557.2
940.749	5493.7
941.056	5558.78
941.363	5459.12
941.67	5464.55
941.977	5438.56
942.284	5379.8
942.591	5379.58
942.898	5324.21
943.205	5378.45
943.511	5335.74
943.818	5299.8
944.125	5246.92
944.431	5251.22
944.738	5233.59
945.044	5208.51
945.35	5156.76
945.657	5149.3
945.963	5125.8
946.269	5091.22
946.575	5098
946.881	5105.23
947.187	5068.62
947.493	5075.86
947.799	5049.19
948.105	4970.32
948.41	4909.08
948.716	4933.71
949.022	4934.39
949.327	4944.11
949.633	4799.93
949.938	4845.58
950.244	4857.78
950.549	4849.19
950.854	4880.38
951.16	4765.58
951.465	4731.01
951.77	4725.36
952.075	4738.91
952.38	4668.18
952.685	4669.76
952.99	4647.17
953.294	4637
953.599	4623.89
953.904	4609.2
954.209	4632.7
954.513	4544.57
954.818	4542.99
955.122	4509.77
955.426	4487.4
955.731	4468.41
956.035	4457.11
956.339	4441.97
956.643	4455.31
956.948	4414.86
957.252	4343.9
957.556	4351.13
957.86	4394.07
958.163	4338.7
958.467	4280.62
958.771	4290.57
959.075	4280.62
959.378	4196.56
959.682	4294.18
959.985	4207.86
960.289	4172.83
960.592	4155.88
960.896	4156.56
961.199	4111.36
961.502	4131.7
961.805	4066.84
962.108	4059.84
962.411	4099.38
962.714	4054.41
963.017	3997.47
963.32	4023.91
963.623	3989.78
963.926	3957.47
964.228	3977.58
964.531	3994.08
964.833	3921.54
965.136	3960.63
965.438	3893.74
965.741	3895.77
966.043	3853.06
966.345	3828.66
966.648	3822.33
966.95	3824.81
967.252	3766.74
967.554	3791.37
967.856	3812.84
968.158	3721.77
968.46	3711.82
968.761	3717.47
969.063	3690.13
969.365	3665.72
969.666	3655.55
969.968	3624.82
970.269	3624.37
970.571	3572.17
970.872	3604.71
971.174	3580.75
971.475	3558.61
971.776	3560.87
972.077	3553.41
972.378	3526.29
972.679	3508.21
972.98	3514.09
973.281	3486.74
973.582	3480.87
973.883	3467.54
974.183	3439.74
974.484	3420.31
974.785	3387.76
975.085	3406.52
975.386	3395.22
975.686	3347.77
975.986	3360.42
976.287	3372.17
976.587	3325.39
976.887	3294.66
977.187	3298.73
977.487	3299.18
977.787	3234.55
978.087	3185.06
978.387	3210.82
978.687	3225.51
978.987	3201.55
979.286	3178.05
979.586	3205.4
979.885	3149.58
980.185	3153.65
980.484	3095.12
980.784	3120.88
981.083	3095.12
981.382	3045.17
981.682	3079.07
981.981	3069.58
982.28	3070.48
982.579	3046.76
982.878	3039.98
983.177	3003.14
983.475	2996.81
983.774	2996.81
984.073	2938.28
984.372	2925.63
984.67	2954.78
984.969	2921.34
985.267	2922.01
985.566	2919.08
985.864	2882.01
986.162	2899.64
986.461	2848.8
986.759	2853.77
987.057	2822.13
987.355	2769.02
987.653	2813.77
987.951	2808.8
988.249	2761.79
988.547	2785.75
988.844	2764.28
989.142	2714.34
989.44	2706.2
989.737	2696.93
990.035	2684.51
990.332	2690.83
990.63	2668.69
990.927	2651.96
991.224	2684.73
991.521	2672.3
991.819	2679.76
992.116	2614.68
992.413	2615.13
992.71	2587.33
993.006	2582.36
993.303	2578.75
993.6	2573.32
993.897	2551.18
994.193	2517.28
994.49	2506.88
994.787	2490.84
995.083	2479.09
995.379	2468.92
995.676	2465.53
995.972	2432.08
996.268	2429.37
996.565	2393.67
996.861	2404.51
997.157	2428.69
997.453	2404.97
997.749	2396.15
998.044	2376.94
998.34	2329.26
998.636	2367.45
998.932	2326.1
999.227	2332.42
999.523	2332.88
999.818	2318.41
1000.114	2287.91
1000.409	2254.91
1000.704	2244.52
1001	2233.22
1001.295	2253.33
1001.59	2180.56
1001.885	2193.45
1002.18	2209.72
1002.475	2209.26
1002.77	2163.39
1003.065	2173.11
1003.359	2155.03
1003.654	2131.3
1003.949	2137.4
1004.243	2123.62
1004.538	2093.79
1004.832	2075.71
1005.127	2074.8
1005.421	2075.71
1005.715	2075.03
1006.009	2070.74
1006.304	2047.91
1006.598	2052.66
1006.892	1997.07
1007.186	2010.17
1007.48	2006.78
1007.773	1958.2
1008.067	1975.82
1008.361	1945.32
1008.655	1922.94
1008.948	1914.81
1009.242	1932.89
1009.535	1929.05
1009.829	1907.8
1010.122	1868.48
1010.415	1896.05
1010.708	1868.26
1011.001	1883.85
1011.295	1843.85
1011.588	1830.52
1011.881	1823.74
1012.173	1793.23
1012.466	1806.11
1012.759	1767.47
1013.052	1774.7
1013.344	1760.91
1013.637	1787.35
1013.93	1769.28
1014.222	1730.18
1014.514	1729.28
1014.807	1736.51
1015.099	1720.24
1015.391	1730.63
1015.683	1675.27
1015.976	1718.66
1016.268	1685.21
1016.56	1662.61
1016.851	1648.37
1017.143	1648.15
1017.435	1634.36
1017.727	1609.28
1018.018	1644.08
1018.31	1590.52
1018.602	1589.62
1018.893	1593.69
1019.185	1566.34
1019.476	1549.85
1019.767	1563.41
1020.058	1530.41
1020.35	1522.28
1020.641	1526.34
1020.932	1498.55
1021.223	1516.17
1021.514	1478.89
1021.804	1440.02
1022.095	1459.23
1022.386	1471.88
1022.677	1435.72
1022.967	1433.69
1023.258	1408.61
1023.548	1430.53
1023.839	1418.55
1024.129	1405.44
1024.419	1379.91
1024.709	1385.78
1025	1388.72
1025.29	1371.09
1025.58	1356.63
1025.87	1320.25
1026.16	1352.79
1026.449	1349.85
1026.739	1318.89
1027.029	1316.63
1027.319	1287.03
1027.608	1301.94
1027.898	1287.71
1028.187	1267.14
1028.477	1269.63
1028.766	1268.05
1029.055	1236.86
1029.344	1248.16
1029.634	1246.58
1029.923	1229.18
1030.212	1223.75
1030.501	1204.09
1030.79	1224.43
1031.078	1195.73
1031.367	1209.06
1031.656	1185.34
1031.945	1190.31
1032.233	1163.19
1032.522	1165.9
1032.81	1168.39
1033.099	1152.57
1033.387	1148.05
1033.675	1143.08
1033.963	1118.45
1034.251	1130.42
1034.54	1102.85
1034.828	1107.6
1035.116	1084.1
1035.403	1065.79
1035.691	1089.52
1035.979	1047.49
1036.267	1053.14
1036.554	1041.39
1036.842	1051.78
1037.129	1033.02
1037.417	1012.91
1037.704	1032.35
1037.992	1015.4
1038.279	1012.46
1038.566	1011.78
1038.853	1011.78
1039.14	1011.78
