Data from hue_320_FLMS001491_83.txt Node
Date: Mon Feb 06 15:47:49 GMT 2017
User: dcchb
Spectrometer: FLMS00149
Trigger mode: 0
Integration Time (sec): 2.000000E-2
Scans to average: 10
Electric dark correction enabled: true
Nonlinearity correction enabled: false
Boxcar width: 0
XAxis mode: Wavelengths
Number of Pixels in Spectrum: 2048
>>>>>Begin Spectral Data<<<<<
341.393	-12.8
341.776	-12.8
342.16	-12.8
342.543	-58.44
342.927	-61.38
343.31	-57.77
343.693	-75.85
344.077	-85.11
344.46	-56.64
344.843	-44.89
345.226	-46.47
345.61	-38.33
345.993	-3.98
346.376	-17.09
346.759	8.67
347.142	38.73
347.525	27.43
347.908	53.42
348.291	89.8
348.674	87.77
349.057	120.31
349.44	119.86
349.823	115.79
350.206	145.84
350.588	182.68
350.971	227.65
351.354	238.95
351.737	240.76
352.119	254.54
352.502	260.87
352.884	264.94
353.267	267.2
353.65	298.83
354.032	312.39
354.414	312.39
354.797	322.56
355.179	327.08
355.562	311.94
355.944	302.9
356.326	329.34
356.709	310.81
357.091	343.13
357.473	320.75
357.855	325.95
358.238	333.41
358.62	333.18
359.002	343.35
359.384	343.58
359.766	346.97
360.148	341.32
360.53	338.61
360.912	333.64
361.294	330.02
361.676	316.23
362.057	321.66
362.439	313.97
362.821	323.01
363.203	328.21
363.584	314.2
363.966	313.07
364.348	336.8
364.729	346.52
365.111	328.66
365.493	317.14
365.874	287.76
366.256	317.36
366.637	325.95
367.019	318.27
367.4	329.12
367.781	320.98
368.163	316.46
368.544	306.52
368.925	299.51
369.306	311.94
369.688	317.59
370.069	325.05
370.45	298.83
370.831	306.52
371.212	312.17
371.593	301.09
371.974	322.34
372.355	313.97
372.736	304.94
373.117	313.75
373.498	306.52
373.879	319.62
374.26	322.56
374.641	312.62
375.021	312.84
375.402	302
375.783	331.6
376.163	300.87
376.544	334.31
376.925	320.3
377.305	307.87
377.686	316.69
378.066	314.2
378.447	336.8
378.827	323.92
379.208	326.4
379.588	334.54
379.968	314.88
380.349	318.04
380.729	328.89
381.109	334.09
381.489	325.73
381.87	316.46
382.25	329.12
382.63	313.75
383.01	339.51
383.39	332.96
383.77	342.22
384.15	337.48
384.53	326.4
384.91	360.3
385.29	345.61
385.67	351.26
386.049	334.31
386.429	349.91
386.809	358.27
387.189	344.26
387.568	360.53
387.948	356.91
388.328	343.35
388.707	358.95
389.087	373.86
389.466	345.84
389.846	370.92
390.225	382
390.605	329.34
390.984	357.59
391.363	365.05
391.743	382
392.122	378.61
392.501	367.53
392.881	376.12
393.26	393.52
393.639	369.11
394.018	376.8
394.397	354.43
394.776	398.72
395.155	367.98
395.534	382.22
395.913	362.11
396.292	383.13
396.671	384.03
397.05	372.96
397.429	388.78
397.808	387.87
398.186	401.88
398.565	383.58
398.944	388.32
399.323	386.06
399.701	413.63
400.08	388.78
400.458	386.06
400.837	399.17
401.215	412.5
401.594	405.27
401.972	409.57
402.351	421.32
402.729	407.31
403.107	426.74
403.486	405.5
403.864	412.28
404.242	423.35
404.62	408.66
404.999	452.73
405.377	439.62
405.755	433.07
406.133	454.76
406.511	439.62
406.889	463.8
407.267	437.81
407.645	453.63
408.023	464.71
408.401	450.92
408.779	462.22
409.156	470.81
409.534	480.07
409.912	476.46
410.29	494.31
410.667	482.33
411.045	478.26
411.422	513.29
411.8	509.68
412.178	525.04
412.555	525.27
412.933	518.72
413.31	527.08
413.687	528.21
414.065	540.86
414.442	537.02
414.819	542.22
415.197	549
415.574	570.92
415.951	578.83
416.328	573.85
416.705	592.84
417.082	589.22
417.46	584.02
417.837	611.14
418.214	611.59
418.591	605.94
418.967	593.29
419.344	621.31
419.721	642.55
420.098	621.09
420.475	625.15
420.852	645.04
421.228	646.62
421.605	659.05
421.982	657.69
422.358	677.36
422.735	661.54
423.111	708.09
423.488	694.53
423.864	693.17
424.241	722.55
424.617	735.66
424.994	701.54
425.37	737.01
425.746	742.21
426.123	719.61
426.499	738.6
426.875	732.72
427.251	748.09
427.627	765.26
428.003	765.94
428.379	783.79
428.756	792.38
429.132	808.65
429.507	799.61
429.883	810.68
430.259	839.61
430.635	809.33
431.011	842.1
431.387	848.88
431.763	870.8
432.138	876.67
432.514	891.13
432.89	864.02
433.265	926.16
433.641	906.5
434.016	909.89
434.392	921.87
434.767	957.35
435.143	944.92
435.518	935.43
435.894	957.12
436.269	966.39
436.644	989.21
437.02	975.65
437.395	979.49
437.77	1000.51
438.145	1002.09
438.52	1044.13
438.895	1043.22
439.271	1036.89
439.646	1061.75
440.021	1052.49
440.395	1056.78
440.77	1060.4
441.145	1078.7
441.52	1089.77
441.895	1065.14
442.27	1106.04
442.645	1081.19
443.019	1074.41
443.394	1106.04
443.769	1108.08
444.143	1096.1
444.518	1098.81
444.892	1124.8
445.267	1107.17
445.641	1143.33
446.016	1125.7
446.39	1138.13
446.764	1122.09
447.139	1139.49
447.513	1154.63
447.887	1150.11
448.262	1162.09
448.636	1155.08
449.01	1165.48
449.384	1171.81
449.758	1165.03
450.132	1218.13
450.506	1187.85
450.88	1193.05
451.254	1212.71
451.628	1208.41
452.002	1230.79
452.376	1231.01
452.75	1234.18
453.123	1238.7
453.497	1284.57
453.871	1271.92
454.244	1265.81
454.618	1303.1
454.992	1306.04
455.365	1314.85
455.739	1333.38
456.112	1343.1
456.486	1362.08
456.859	1326.83
457.232	1339.94
457.606	1357.34
457.979	1361.18
458.352	1366.83
458.725	1398.92
459.099	1384.68
459.472	1415.87
459.845	1400.27
460.218	1444.11
460.591	1464.45
460.964	1448.41
461.337	1465.81
461.71	1488.86
462.083	1502.87
462.456	1485.02
462.829	1517.11
463.201	1528.18
463.574	1523.66
463.947	1539.71
464.32	1572.25
464.692	1596.43
465.065	1589.65
465.438	1595.75
465.81	1616.31
466.183	1607.95
466.555	1647.05
466.928	1662.19
467.3	1631
467.672	1673.71
468.045	1711
468.417	1724.79
468.789	1726.14
469.161	1752.36
469.534	1757.1
469.906	1775.63
470.278	1782.64
470.65	1815.18
471.022	1851.79
471.394	1860.6
471.766	1901.05
472.138	1875.06
472.51	1920.49
472.882	1905.8
473.253	1925.91
473.625	1993.03
473.997	1991.67
474.369	2004.55
474.74	2019.47
475.112	2029.86
475.484	2081.61
475.855	2131.78
476.227	2109.63
476.598	2164.55
476.97	2159.8
477.341	2207.48
477.713	2265.34
478.084	2244.55
478.455	2302.17
478.827	2280.25
479.198	2334.94
479.569	2371.55
479.94	2378.1
480.311	2395.95
480.682	2453.81
481.053	2507.59
481.424	2537.42
481.795	2559.57
482.166	2583.29
482.537	2577.42
482.908	2630.98
483.279	2646.79
483.65	2690.64
484.021	2715.04
484.391	2741.71
484.762	2759.79
485.133	2793.91
485.503	2810.86
485.874	2856.73
486.244	2887.24
486.615	2932.44
486.985	2951.19
487.356	3028.03
487.726	3029.61
488.097	3120.91
488.467	3055.6
488.837	3100.79
489.207	3176.5
489.578	3197.51
489.948	3214.24
490.318	3248.81
490.688	3259.66
491.058	3297.4
491.428	3341.01
491.798	3368.58
492.168	3401.35
492.538	3395.02
492.908	3432.54
493.278	3472.08
493.648	3488.58
494.017	3523.61
494.387	3551.18
494.757	3543.72
495.126	3568.58
495.496	3634.79
495.866	3629.59
496.235	3640.22
496.605	3682.93
496.974	3717.95
497.344	3710.04
497.713	3734.9
498.082	3701.91
498.452	3811.74
498.821	3785.75
499.19	3817.61
499.559	3850.6
499.928	3869.59
500.298	3889.02
500.667	3902.36
501.036	3920.89
501.405	3924.05
501.774	3933.77
502.143	3942.13
502.512	3987.1
502.88	3993.88
503.249	4011.73
503.618	4056.7
503.987	3997.04
504.356	4040.66
504.724	4084.95
505.093	4094.89
505.462	4127.89
505.83	4118.62
506.199	4158.17
506.567	4197.26
506.936	4152.74
507.304	4226.19
507.672	4235.23
508.041	4280.2
508.409	4284.49
508.777	4319.07
509.145	4306.41
509.514	4283.36
509.882	4334.89
510.25	4361.33
510.618	4291.5
510.986	4369.46
511.354	4446.3
511.722	4404.26
512.09	4454.88
512.458	4435.45
512.826	4465.96
513.193	4459.63
513.561	4509.57
513.929	4476.35
514.297	4517.71
514.664	4532.39
515.032	4555.9
515.4	4566.74
515.767	4609
516.135	4562.9
516.502	4586.86
516.869	4654.88
517.237	4633.86
517.604	4611.94
517.972	4693.97
518.339	4721.77
518.706	4690.81
519.073	4710.02
519.44	4726.06
519.808	4765.16
520.175	4722.45
520.542	4815.55
520.909	4811.26
521.276	4819.85
521.643	4834.08
522.009	4871.14
522.376	4868.66
522.743	4889.9
523.11	4961.08
523.477	4978.03
523.843	4985.72
524.21	4991.59
524.577	5065.26
524.943	5085.6
525.31	5101.19
525.676	5134.86
526.043	5145.26
526.409	5146.16
526.776	5209.44
527.142	5192.72
527.508	5218.48
527.874	5272.71
528.241	5244.24
528.607	5340.74
528.973	5395.88
529.339	5341.87
529.705	5414.86
530.071	5433.16
530.437	5396.33
530.803	5475.2
531.169	5517.91
531.535	5460.96
531.901	5566.72
532.267	5571.01
532.632	5562.2
532.998	5627.28
533.364	5671.8
533.73	5658.47
534.095	5733.04
534.461	5713.38
534.826	5724.91
535.192	5717.22
535.557	5833.38
535.923	5818.01
536.288	5838.8
536.653	5844.45
537.019	5857.56
537.384	5884
537.749	5893.04
538.114	5952.92
538.479	5975.52
538.845	6013.03
539.21	6021.17
539.575	6030.43
539.94	5999.93
540.305	6070.43
540.67	6100.04
541.034	6124.44
541.399	6137.1
541.764	6147.49
542.129	6182.3
542.494	6239.24
542.858	6206.25
543.223	6241.5
543.587	6295.06
543.952	6321.5
544.316	6330.54
544.681	6338.45
545.045	6413.93
545.41	6399.24
545.774	6357.43
546.138	6410.99
546.503	6446.47
546.867	6502.51
547.231	6497.77
547.595	6492.57
547.959	6537.09
548.324	6595.84
548.688	6558.33
549.052	6624.09
549.416	6624.54
549.779	6714.26
550.143	6668.16
550.507	6726.01
550.871	6789.28
551.235	6693.92
551.599	6834.71
551.962	6820.47
552.326	6830.41
552.689	6902.73
553.053	6846.01
553.417	6875.61
553.78	6917.64
554.143	6911.54
554.507	6969.84
554.87	6984.53
555.234	7091.2
555.597	6981.37
555.96	7089.62
556.323	7116.06
556.686	7039.9
557.05	7133
557.413	7136.62
557.776	7188.37
558.139	7192.21
558.502	7205.77
558.865	7241.7
559.228	7234.47
559.59	7270.85
559.953	7335.26
560.316	7403.05
560.679	7331.87
561.041	7373.45
561.404	7403.96
561.767	7470.4
562.129	7472.66
562.492	7492.32
562.854	7508.81
563.217	7534.35
563.579	7575.48
563.941	7575.93
564.304	7635.36
564.666	7609.38
565.028	7684.63
565.39	7719.66
565.753	7741.8
566.115	7732.99
566.477	7772.76
566.839	7772.76
567.201	7869.26
567.563	7788.58
567.925	7957.16
568.287	7879.88
568.648	8007.78
569.01	7927.56
569.372	8020.44
569.734	8050.95
570.095	8063.6
570.457	8142.24
570.819	8177.72
571.18	8188.34
571.542	8186.31
571.903	8220.43
572.265	8260.66
572.626	8254.11
572.987	8329.81
573.349	8400.32
573.71	8510.82
574.071	8520.31
574.432	8528.22
574.794	8690.93
575.155	8677.82
575.516	8703.36
575.877	8782.45
576.238	8843.69
576.599	8882.34
576.96	8880.3
577.32	8993.97
577.681	9054.76
578.042	9219.05
578.403	9242.78
578.763	9250.46
579.124	9344.7
579.485	9538.82
579.845	9569.1
580.206	9694.07
580.566	9820.62
580.927	9899.71
581.287	10047.5
581.648	10144.68
582.008	10324.79
582.368	10387.38
582.728	10577.43
583.089	10713.48
583.449	10793.93
583.809	10895.62
584.169	11087.93
584.529	11289.96
584.889	11557.29
585.249	11607.92
585.609	11739.89
585.969	11998.41
586.329	12171.06
586.688	12408.57
587.048	12581.67
587.408	12719.98
587.768	13025.05
588.127	13136.24
588.487	13378.26
588.846	13719.95
589.206	13778.93
589.565	14058.25
589.925	14433.15
590.284	14528.29
590.643	14881.95
591.003	15194.49
591.362	15361.49
591.721	15627.02
592.08	15936.84
592.44	16221.58
592.799	16546.32
593.158	16653.21
593.517	17016.13
593.876	17426.75
594.235	17561.43
594.593	17912.83
594.952	18130.23
595.311	18392.82
595.67	18736.09
596.029	19149.19
596.387	19441.38
596.746	19689.51
597.104	19971.31
597.463	20135.6
597.822	20582.82
598.18	20727
598.538	21039.53
598.897	21427.32
599.255	21459.86
599.613	22096.23
599.972	22342.1
600.33	22517.68
600.688	22805.59
601.046	23053.26
601.404	23419.36
601.762	23634.94
602.12	24083.52
602.478	24247.36
602.836	24417.97
603.194	24707.68
603.552	24838.3
603.91	25145.64
604.268	25457.27
604.625	25677.6
604.983	25967.99
605.341	26132.05
605.698	26517.35
606.056	26823.11
606.413	26921.18
606.771	27270.78
607.128	27455.63
607.485	27719.36
607.843	27931.78
608.2	28210.87
608.557	28526.79
608.914	28622.16
609.272	29021.47
609.629	29175.14
609.986	29438.41
610.343	29471.63
610.7	29927.43
611.057	30083.14
611.414	30206.75
611.771	30517.02
612.127	30813.74
612.484	30964.47
612.841	31173.5
613.198	31122.2
613.554	31445.81
613.911	31718.8
614.267	31961.05
614.624	31943.88
614.98	32130.77
615.337	32558.1
615.693	32566.91
616.05	32698.66
616.406	32956.51
616.762	33046
617.118	33196.95
617.475	33304.97
617.831	33618.86
618.187	33590.84
618.543	33865.41
618.899	34156.02
619.255	34181.33
619.611	34208
619.967	34500.87
620.323	34697.93
620.678	34539.29
621.034	34732.73
621.39	34854.54
621.746	34866.06
622.101	35378.36
622.457	34947.64
622.812	35277.8
623.168	35527.96
623.523	35492.03
623.879	35805.24
624.234	35498.36
624.589	35694.29
624.945	35891.12
625.3	35936.99
625.655	36101.73
626.01	36091.34
626.365	36221.28
626.72	36280.26
627.075	36328.62
627.43	36327.94
627.785	36392.57
628.14	36515.06
628.495	36715.73
628.85	36552.12
629.205	36596.64
629.559	36781.72
629.914	36667.6
630.269	36844.99
630.623	36685.9
630.978	36694.94
631.332	36968.15
631.687	36982.39
632.041	36841.15
632.396	36980.81
632.75	36868.49
633.104	36936.51
633.459	36891.77
633.813	36927.25
634.167	36918.21
634.521	36895.61
634.875	37099.45
635.229	36937.64
635.583	36973.12
635.937	36989.85
636.291	36932.22
636.645	37004.54
636.999	36810.42
637.352	37138.77
637.706	36932.45
638.06	37207.69
638.413	36953.01
638.767	36930.19
639.121	37109.17
639.474	36802.96
639.828	36962.28
640.181	37019.45
640.534	37123.85
640.888	36891.09
641.241	36691.78
641.594	36849.96
641.947	37013.35
642.301	36822.17
642.654	36923.18
643.007	36798.89
643.36	36968.6
643.713	36880.02
644.066	36948.94
644.419	36744.43
644.771	36632.12
645.124	36252.46
645.477	36238.23
645.83	35966.82
646.182	35832.14
646.535	35869.2
646.888	35777
647.24	35787.84
647.593	35981.29
647.945	35892.02
648.298	35654.97
648.65	35674.17
649.002	35551.01
649.355	35786.04
649.707	35713.04
650.059	35898.8
650.411	36186.48
650.763	36278.45
651.115	36722.06
651.467	36438
651.819	36562.97
652.171	36408.84
652.523	36393.7
652.875	36484.78
653.227	36151.68
653.578	36624.43
653.93	36438.22
654.282	36301.96
654.633	36210.43
654.985	36355.96
655.337	36324.78
655.688	36343.54
656.039	36378.11
656.391	36044.79
656.742	36308.28
657.094	36307.15
657.445	36364.55
657.796	36251.79
658.147	36209.53
658.498	36247.04
658.849	36299.7
659.2	36278.45
659.551	36170.43
659.902	36271.9
660.253	36204.1
660.604	36281.84
660.955	36047.27
661.306	36256.76
661.656	36108.74
662.007	36122.98
662.358	36070.32
662.708	36094.28
663.059	36195.74
663.409	36044.33
663.76	36040.49
664.11	35947.16
664.461	36129.53
664.811	36012.02
665.161	36175.86
665.511	36047.27
665.862	36007.05
666.212	36191.45
666.562	36173.37
666.912	36086.82
667.262	36116.65
667.612	35974.28
667.962	36083.2
668.312	35978.8
668.662	36066.26
669.011	36015.41
669.361	35953.72
669.711	36025.35
670.06	35909.65
670.41	35896.32
670.76	35897.67
671.109	36021.28
671.459	36082.07
671.808	35909.88
672.157	35896.09
672.507	35602.54
672.856	35813.61
673.205	35771.12
673.554	35828.97
673.904	35796.21
674.253	36002.53
674.602	35718.02
674.951	35440.96
675.3	35217.24
675.649	35647.74
675.998	35657.23
676.346	35763.66
676.695	35924.79
677.044	35603.67
677.393	35533.16
677.741	35660.84
678.09	35542.43
678.438	35598.7
678.787	35649.09
679.135	35615.19
679.484	35314.64
679.832	35483.22
680.181	35255.43
680.529	35461.07
680.877	35294.52
681.225	35260.85
681.573	35448.64
681.922	35159.16
682.27	35017.92
682.618	35152.38
682.966	35091.14
683.314	35087.07
683.661	35000.75
684.009	34888.88
684.357	34865.83
684.705	34669.46
685.053	34741.54
685.4	34651.15
685.748	34625.61
686.095	34538.16
686.443	34318.05
686.79	34485.28
687.138	34581.32
687.485	34388.56
687.832	34261.56
688.18	34303.59
688.527	34148.79
688.874	34143.59
689.221	34127.1
689.568	34010.04
689.915	33923.71
690.262	33830.16
690.609	33798.07
690.956	33841.68
691.303	33554
691.65	33513.33
691.997	33635.81
692.344	33311.07
692.69	33269.94
693.037	33403.27
693.383	33057.52
693.73	33272.66
694.077	33017.3
694.423	32969.61
694.769	32979.56
695.116	32758.32
695.462	32708.15
695.808	32672.67
696.155	32709.28
696.501	32463.19
696.847	32494.15
697.193	32346.58
697.539	32333.25
697.885	32126.02
698.231	32068.17
698.577	32143.42
698.923	31893.26
699.269	31754.05
699.614	31738.91
699.96	31660.72
700.306	31544.11
700.651	31523.32
700.997	31459.37
701.342	31384.34
701.688	31492.82
702.033	31198.81
702.379	31203.78
702.724	31034.52
703.069	31182.54
703.415	30752.95
703.76	30950.23
704.105	30941.42
704.45	30825.71
704.795	30621.2
705.14	30510.02
705.485	30585.95
705.83	30462.33
706.175	30482.22
706.52	30383.69
706.865	30281.1
707.209	30249.91
707.554	30251.04
707.899	30293.07
708.243	29926.76
708.588	30020.54
708.932	29677.5
709.277	29715.91
709.621	29763.37
709.966	29434.79
710.31	29576.03
710.654	29313.89
710.998	29441.57
711.342	29413.1
711.687	29262.14
712.031	29184.63
712.375	29029.15
712.719	29134.23
713.063	29029.83
713.407	29166.32
713.75	28961.13
714.094	28963.39
714.438	28795.03
714.782	28856.05
715.125	28627.13
715.469	28791.19
715.812	28579.9
716.156	28433.91
716.499	28547.81
716.843	28486.12
717.186	28324.99
717.53	28434.82
717.873	28410.19
718.216	28340.13
718.559	28176.75
718.902	28056.75
719.246	28164.77
719.589	28142.62
719.932	27913.93
720.275	28052.91
720.617	27870.99
720.96	27880.93
721.303	27798
721.646	27842.74
721.989	27640.94
722.331	27800.03
722.674	27716.19
723.016	27658.11
723.359	27485.69
723.701	27579.47
724.044	27411.34
724.386	27300.61
724.729	27430.1
725.071	27396.65
725.413	27310.78
725.755	27292.93
726.097	27203.21
726.439	27064.91
726.782	27173.38
727.124	27250.89
727.465	26961.86
727.807	26971.58
728.149	26866.95
728.491	27095.64
728.833	26954.18
729.175	26793.05
729.516	26845.71
729.858	26752.83
730.199	26831.7
730.541	26726.84
730.882	26659.72
731.224	26725.26
731.565	26583.11
731.906	26424.25
732.248	26558.93
732.589	26425.6
732.93	26335.21
733.271	26367.3
733.612	26379.73
733.953	26244.14
734.294	26225.84
734.635	26199.62
734.976	26289.34
735.317	26040.98
735.658	26098.83
735.999	26071.04
736.339	25972.74
736.68	26087.53
737.021	26008.67
737.361	25784.27
737.702	26055.44
738.042	25821.55
738.383	25765.96
738.723	25907.2
739.063	25721.22
739.404	25839.18
739.744	25696.36
740.084	25664.49
740.424	25635.34
740.764	25565.29
741.104	25567.77
741.444	25507.21
741.784	25442.81
742.124	25455.23
742.464	25408.91
742.804	25473.09
743.143	25323.49
743.483	25347.89
743.823	25182.02
744.162	25195.58
744.502	25205.07
744.841	25048.69
745.181	25299.53
745.52	25056.83
745.86	25067.45
746.199	25088.01
746.538	24952.87
746.877	24964.17
747.216	24980.67
747.556	24925.08
747.895	25057.73
748.234	24793.33
748.573	24811.86
748.911	24798.53
749.25	24678.08
749.589	24655.03
749.928	24706.33
750.267	24724.63
750.605	24655.71
750.944	24544.75
751.283	24425.88
751.621	24488.25
751.96	24319.67
752.298	24427.24
752.636	24354.92
752.975	24234.7
753.313	24181.6
753.651	24264.53
753.989	24118.09
754.327	24033.35
754.666	23993.58
755.004	24035.16
755.342	24024.09
755.679	23922.17
756.017	23750.42
756.355	23792
756.693	23566.24
757.031	23695.05
757.368	23639.92
757.706	23615.06
758.044	23570.54
758.381	23504.1
758.719	23350.66
759.056	23498.22
759.394	23245.8
759.731	23215.97
760.068	23186.59
760.405	23032.47
760.743	23064.34
761.08	23092.58
761.417	22908.63
761.754	22929.43
762.091	22794.51
762.428	22780.95
762.765	22727.62
763.102	22679.94
763.438	22657.34
763.775	22396.78
764.112	22451.02
764.449	22484.01
764.785	22371.47
765.122	22150.69
765.458	22182.55
765.795	22144.59
766.131	22091.93
766.467	22034.99
766.804	21850.81
767.14	21811.71
767.476	21766.74
767.812	21710.02
768.148	21662.34
768.485	21538.28
768.821	21520.2
769.157	21406.98
769.492	21354.1
769.828	21355
770.164	21166.99
770.5	21263.71
770.836	21089.7
771.171	20952.08
771.507	20938.29
771.842	20803.61
772.178	20798.41
772.513	20699.2
772.849	20705.76
773.184	20525.87
773.519	20538.98
773.855	20405.42
774.19	20337.86
774.525	20276.84
774.86	20342.15
775.195	20178.54
775.53	20142.38
775.865	19995.94
776.2	19852.44
776.535	19724.99
776.87	19819.22
777.205	19722.5
777.539	19558.21
777.874	19614.26
778.209	19465.56
778.543	19374.04
778.878	19285.23
779.212	19400.48
779.547	19198
779.881	19282.06
780.215	19095.18
780.55	19094.95
780.884	18983.09
781.218	18861.96
781.552	19019.02
781.886	18833.26
782.22	18700.84
782.554	18670.78
782.888	18412.71
783.222	18417
783.556	18294.74
783.889	18395.08
784.223	18163.9
784.557	18116.22
784.89	18241.64
785.224	18014.07
785.557	18040.74
785.891	18006.84
786.224	17948.77
786.558	17860.63
786.891	17680.07
787.224	17665.83
787.557	17581.09
787.891	17607.53
788.224	17567.53
788.557	17589.9
788.89	17440.76
789.223	17376.35
789.556	17229.91
789.888	17217.26
790.221	17175.23
790.554	17080.09
790.887	17031.73
791.219	16902.01
791.552	16976.14
791.884	16894.33
792.217	16737.72
792.549	16665.41
792.882	16655.69
793.214	16524.85
793.546	16587.22
793.879	16446.21
794.211	16346.55
794.543	16521.01
794.875	16387.45
795.207	16359.43
795.539	16261.8
795.871	16255.93
796.203	16126.44
796.535	16071.75
796.867	16056.16
797.198	15972.55
797.53	15900.91
797.862	15837.41
798.193	15913.34
798.525	15805.32
798.856	15824.53
799.188	15587.7
799.519	15592.9
799.85	15503.41
800.182	15550.18
800.513	15566.46
800.844	15380.25
801.175	15394.93
801.506	15352
801.837	15298.67
802.168	15289.85
802.499	15180.25
802.83	15141.83
803.161	15133.92
803.491	15068.62
803.822	15059.12
804.153	14973.02
804.483	14841.73
804.814	14828.4
805.145	14866.81
805.475	14741.17
805.805	14796.98
806.136	14780.71
806.466	14765.35
806.796	14617.78
807.126	14513.15
807.457	14539.14
807.787	14510.44
808.117	14479.7
808.447	14397.45
808.777	14354.96
809.107	14325.13
809.436	14356.77
809.766	14336.66
810.096	14231.35
810.426	14153.61
810.755	14167.62
811.085	14152.71
811.414	14072.71
811.744	14041.52
812.073	13992.03
812.403	13979.15
812.732	13927.85
813.061	13914.75
813.39	13797.69
813.719	13787.74
814.049	13846.95
814.378	13717.92
814.707	13693.28
815.036	13719.5
815.365	13636.11
815.693	13546.4
816.022	13482.44
816.351	13511.82
816.68	13371.26
817.008	13467.3
817.337	13350.24
817.665	13294.65
817.994	13384.82
818.322	13275.44
818.651	13230.7
818.979	13163.81
819.307	13234.99
819.636	13190.02
819.964	13096.69
820.292	13129.46
820.62	13144.15
820.948	13068.89
821.276	13083.36
821.604	13123.81
821.932	13162
822.259	13058.95
822.587	13093.75
822.915	13016.01
823.243	13088.55
823.57	13075.22
823.898	13062.34
824.225	12991.83
824.553	12950.25
824.88	12966.98
825.207	13010.36
825.535	12962.46
825.862	13032.06
826.189	12959.97
826.516	13092.17
826.843	13048.56
827.17	13087.2
827.497	13018.05
827.824	13062.34
828.151	13100.76
828.478	13002
828.805	13057.14
829.131	13051.27
829.458	12919.75
829.785	12941.21
830.111	12941.44
830.438	13048.33
830.764	12968.56
831.09	12968.33
831.417	12915.23
831.743	13000.87
832.069	12962.23
832.395	12854.21
832.722	12874.55
833.048	12874.1
833.374	12955.68
833.7	12888.56
834.026	12813.31
834.351	12909.12
834.677	12903.93
835.003	12877.94
835.329	12897.15
835.654	12830.03
835.98	12851.27
836.306	12783.48
836.631	12617.83
836.956	12765.85
837.282	12756.13
837.607	12676.81
837.932	12556.14
838.258	12629.36
838.583	12544.84
838.908	12630.71
839.233	12561.56
839.558	12586.19
839.883	12564.73
840.208	12424.84
840.533	12519.98
840.858	12504.39
841.182	12468.91
841.507	12426.2
841.832	12428.01
842.156	12390.49
842.481	12375.8
842.805	12356.37
843.13	12245.86
843.454	12221.68
843.778	12099.2
844.103	12224.62
844.427	12156.15
844.751	12196.83
845.075	12166.77
845.399	12101.01
845.723	12035.7
846.047	12039.32
846.371	11957.06
846.695	11946.89
847.019	11874.8
847.343	11799.55
847.666	11666.67
847.99	11724.52
848.313	11697.86
848.637	11592.55
848.96	11590.97
849.284	11571.76
849.607	11442.95
849.931	11440.69
850.254	11325.66
850.577	11278.21
850.9	11223.97
851.223	11286.34
851.546	11211.77
851.869	11126.35
852.192	11151.2
852.515	11067.59
852.838	11023.07
853.161	11005.67
853.483	11000.02
853.806	10906.92
854.129	10848.39
854.451	10764.55
854.774	10762.97
855.096	10812.91
855.419	10732.23
855.741	10671.22
856.063	10641.16
856.385	10603.87
856.708	10526.14
857.03	10484.78
857.352	10537.66
857.674	10501.96
857.996	10441.39
858.318	10433.93
858.64	10386.48
858.961	10380.15
859.283	10275.75
859.605	10281.17
859.926	10248.4
860.248	10291.11
860.57	10214.05
860.891	10186.71
861.212	10194.39
861.534	10146.03
861.855	10086.6
862.176	10126.82
862.498	10065.36
862.819	10124.79
863.14	10061.52
863.461	10052.93
863.782	10007.73
864.103	9996.43
864.424	9955.08
864.745	10028.3
865.065	9944.91
865.386	9874.63
865.707	9918.02
866.027	9956.89
866.348	9808.41
866.668	9815.19
866.989	9889.54
867.309	9783.56
867.63	9819.94
867.95	9748.53
868.27	9665.59
868.59	9810.9
868.91	9729.09
869.23	9725.03
869.55	9617.46
869.87	9810
870.19	9680.28
870.51	9718.7
870.83	9692.26
871.15	9620.4
871.469	9614.3
871.789	9595.31
872.109	9589.66
872.428	9578.82
872.748	9579.27
873.067	9548.31
873.386	9551.47
873.706	9558.25
874.025	9484.81
874.344	9386.73
874.663	9456.56
874.982	9433.28
875.301	9458.14
875.62	9419.27
875.939	9411.14
876.258	9368.88
876.577	9353.74
876.896	9383.11
877.214	9339.73
877.533	9320.29
877.852	9280.29
878.17	9269.45
878.489	9311.7
878.807	9241.42
879.125	9233.06
879.444	9229.67
879.762	9212.95
880.08	9183.12
880.398	9177.24
880.716	9107.64
881.034	9090.02
881.352	9141.09
881.67	9119.17
881.988	9083.01
882.306	9078.04
882.624	9078.72
882.941	9007.53
883.259	9019.96
883.577	8996.23
883.894	8917.14
884.212	8884.37
884.529	8903.13
884.846	8942.67
885.164	8887.53
885.481	8860.19
885.798	8877.82
886.115	8770.93
886.432	8859.51
886.75	8779.29
887.067	8838.27
887.383	8674.43
887.7	8748.56
888.017	8659.52
888.334	8734.54
888.651	8654.32
888.967	8635.34
889.284	8549.01
889.6	8557.15
889.917	8511.73
890.233	8572.51
890.55	8487.09
890.866	8478.28
891.182	8424.5
891.498	8441.67
891.815	8393.08
892.131	8391.5
892.447	8368
892.763	8308.57
893.079	8285.29
893.395	8262.01
893.71	8269.02
894.026	8236.48
894.342	8205.52
894.657	8133.43
894.973	8183.37
895.289	8154.22
895.604	8103.83
895.92	8092.53
896.235	8038.74
896.55	8092.75
896.865	7994.9
897.181	7925.53
897.496	7931.4
897.811	7948.12
898.126	7893.66
898.441	7836.71
898.756	7852.99
899.071	7805.3
899.386	7763.72
899.7	7726.66
900.015	7740.67
900.33	7692.99
900.644	7650.96
900.959	7627.23
901.273	7623.61
901.588	7617.74
901.902	7546.1
902.216	7520.34
902.531	7453.9
902.845	7496.16
903.159	7440.79
903.473	7377.97
903.787	7425.2
904.101	7324.19
904.415	7314.92
904.729	7311.98
905.042	7260.91
905.356	7273.11
905.67	7246.45
905.984	7199.44
906.297	7180.46
906.611	7166
906.924	7138.65
907.237	7131.2
907.551	7104.98
907.864	7012.1
908.177	7032.67
908.491	7028.6
908.804	6971.2
909.117	6927.81
909.43	6893.46
909.743	6895.72
910.056	6836.29
910.368	6810.08
910.681	6818.66
910.994	6810.53
911.307	6723.07
911.619	6689.17
911.932	6638.33
912.244	6646.69
912.557	6649.18
912.869	6606.69
913.181	6601.72
913.494	6559.23
913.806	6553.58
914.118	6504.09
914.43	6456.19
914.742	6477.88
915.054	6401.95
915.366	6434.94
915.678	6362.4
915.99	6354.49
916.302	6299.81
916.613	6269.98
916.925	6309.07
917.236	6278.34
917.548	6192.46
917.859	6218
918.171	6143.65
918.482	6187.04
918.794	6139.81
919.105	6053.94
919.416	6049.19
919.727	6073.82
920.038	6054.16
920.349	6002.86
920.66	5991.79
920.971	5946.37
921.282	5898.46
921.593	5869.76
921.903	5847.84
922.214	5815.3
922.525	5822.76
922.835	5818.46
923.146	5768.75
923.456	5764.45
923.767	5748.63
924.077	5709.31
924.387	5709.77
924.697	5710.67
925.008	5627.73
925.318	5666.15
925.628	5587.06
925.938	5542.09
926.248	5515.19
926.558	5505.7
926.867	5484.69
927.177	5446.27
927.487	5420.96
927.796	5407.4
928.106	5364.69
928.416	5381.86
928.725	5395.42
929.034	5333.5
929.344	5279.27
929.653	5309.55
929.962	5254.86
930.271	5193.85
930.581	5243.34
930.89	5183.23
931.199	5151.81
931.508	5118.82
931.817	5157.46
932.125	5107.3
932.434	5083.34
932.743	5033.62
933.051	5043.34
933.36	5008.09
933.669	4971.93
933.977	4917.02
934.286	4904.36
934.594	4938.94
934.902	4869.56
935.21	4886.74
935.519	4880.41
935.827	4910.46
936.135	4836.79
936.443	4740.53
936.751	4761.77
937.059	4756.8
937.367	4708.66
937.674	4723.58
937.982	4690.36
938.29	4700.07
938.597	4670.92
938.905	4605.16
939.213	4577.59
939.52	4569.23
939.827	4604.71
940.135	4590.25
940.442	4565.39
940.749	4543.24
941.056	4534.65
941.363	4495.11
941.67	4482
941.977	4479.29
942.284	4416.69
942.591	4447.43
942.898	4401.78
943.205	4372.4
943.511	4366.3
943.818	4330.59
944.125	4299.63
944.431	4304.15
944.738	4343.7
945.044	4285.4
945.35	4276.58
945.657	4214.21
945.963	4205.85
946.269	4169.69
946.575	4175.57
946.881	4143.03
947.187	4129.69
947.493	4116.36
947.799	4084.72
948.105	4073.65
948.41	4069.13
948.716	4068.23
949.022	4061.45
949.327	4050.6
949.633	3979.19
949.938	4015.12
950.244	4003.6
950.549	3957.04
950.854	3942.35
951.16	3965.63
951.465	3929.25
951.77	3932.18
952.075	3874.56
952.38	3890.6
952.685	3854.67
952.99	3812.87
953.294	3824.16
953.599	3793.66
953.904	3737.84
954.209	3788.69
954.513	3735.35
954.818	3732.19
955.122	3686.77
955.426	3656.03
955.731	3661.68
956.035	3673.43
956.339	3635.02
956.643	3612.19
956.948	3623.27
957.252	3614.23
957.556	3562.25
957.86	3599.31
958.163	3547.56
958.467	3553.89
958.771	3537.17
959.075	3549.82
959.378	3509.6
959.682	3470.28
959.985	3451.07
960.289	3497.17
960.592	3425.31
960.896	3461.69
961.199	3406.77
961.502	3432.76
961.805	3343.73
962.108	3350.05
962.411	3385.08
962.714	3312.99
963.017	3333.78
963.32	3325.2
963.623	3307.34
963.926	3276.16
964.228	3232.54
964.531	3236.84
964.833	3227.12
965.136	3225.31
965.438	3183.73
965.741	3178.98
966.043	3187.57
966.345	3149.61
966.648	3119.1
966.95	3150.28
967.252	3141.7
967.554	3158.87
967.856	3123.39
968.158	3042.26
968.46	3059.67
968.761	3030.97
969.063	3066.67
969.365	3036.16
969.666	3019.44
969.968	2988.93
970.269	2980.8
970.571	2928.82
970.872	2980.57
971.174	2945.77
971.475	2932.44
971.776	2902.38
972.077	2917.52
972.378	2905.32
972.679	2905.77
972.98	2887.24
973.281	2822.61
973.582	2850.18
973.883	2854.25
974.183	2828.71
974.484	2771.99
974.785	2827.81
975.085	2791.88
975.386	2779.67
975.686	2785.32
975.986	2763.63
976.287	2752.1
976.587	2714.36
976.887	2721.37
977.187	2713.69
977.487	2690.64
977.787	2699.22
978.087	2679.11
978.387	2659.68
978.687	2652.22
978.987	2620.35
979.286	2612.45
979.586	2618.55
979.885	2613.12
980.185	2572.9
980.484	2580.13
980.784	2588.49
981.083	2563.86
981.382	2546.01
981.682	2549.62
981.981	2533.58
982.28	2522.73
982.579	2476.86
982.878	2518.66
983.177	2486.57
983.475	2470.53
983.774	2470.3
984.073	2461.49
984.372	2463.97
984.67	2456.97
984.969	2401.38
985.267	2385.33
985.566	2398.89
985.864	2411.32
986.162	2384.2
986.461	2389.4
986.759	2372.9
987.057	2313.92
987.355	2357.54
987.653	2340.59
987.951	2351.21
988.249	2278.67
988.547	2297.2
988.844	2300.59
989.142	2293.58
989.44	2242.96
989.737	2240.25
990.035	2244.32
990.332	2236.18
990.63	2259.91
990.927	2215.62
991.224	2189.86
991.521	2178.78
991.819	2184.21
992.116	2158.67
992.413	2162.51
992.71	2140.14
993.006	2115.06
993.303	2139.46
993.6	2136.53
993.897	2113.93
994.193	2091.33
994.49	2105.34
994.787	2097.2
995.083	2089.3
995.379	2088.39
995.676	2054.95
995.972	2061.27
996.268	2035.29
996.565	2037.77
996.861	2003.87
997.157	1989.64
997.453	2014.95
997.749	1978.34
998.044	1981.05
998.34	1963.87
998.636	1981.28
998.932	1983.08
999.227	1939.02
999.523	1915.51
999.818	1914.38
1000.114	1910.77
1000.409	1898.34
1000.704	1892.92
1001	1889.53
1001.295	1872.8
1001.59	1867.15
1001.885	1852.24
1002.18	1839.13
1002.475	1841.62
1002.77	1808.4
1003.065	1802.3
1003.359	1800.94
1003.654	1767.5
1003.949	1778.57
1004.243	1772.24
1004.538	1765.24
1004.832	1743.09
1005.127	1757.78
1005.421	1729.76
1005.715	1719.59
1006.009	1727.5
1006.304	1726.82
1006.598	1708.51
1006.892	1712.36
1007.186	1704.9
1007.48	1679.36
1007.773	1663.32
1008.067	1672.13
1008.361	1657.89
1008.655	1612.7
1008.948	1662.87
1009.242	1626.48
1009.535	1614.05
1009.829	1586.26
1010.122	1589.2
1010.415	1573.83
1010.708	1584.68
1011.001	1572.7
1011.295	1547.61
1011.588	1554.62
1011.881	1542.64
1012.173	1544.68
1012.466	1547.39
1012.759	1509.65
1013.052	1518.69
1013.344	1509.2
1013.637	1511.46
1013.93	1481.63
1014.222	1469.42
1014.514	1490.22
1014.807	1463.1
1015.099	1447.5
1015.391	1449.54
1015.683	1422.87
1015.976	1419.48
1016.268	1417.9
1016.56	1431.46
1016.851	1417.22
1017.143	1400.73
1017.435	1377.68
1017.727	1377.9
1018.018	1373.16
1018.31	1346.49
1018.602	1364.12
1018.893	1333.16
1019.185	1335.87
1019.476	1323.89
1019.767	1329.32
1020.058	1328.19
1020.35	1325.47
1020.641	1285.7
1020.932	1280.28
1021.223	1282.54
1021.514	1276.44
1021.804	1266.72
1022.095	1269.88
1022.386	1237.79
1022.677	1235.53
1022.967	1235.53
1023.258	1234.63
1023.548	1238.24
1023.839	1215.65
1024.129	1230.56
1024.419	1181.3
1024.709	1187.62
1025	1183.33
1025.29	1185.14
1025.58	1158.02
1025.87	1174.52
1026.16	1138.13
1026.449	1139.72
1026.739	1121.86
1027.029	1149.89
1027.319	1137.91
1027.608	1127.96
1027.898	1119.6
1028.187	1105.82
1028.477	1108.98
1028.766	1068.98
1029.055	1070.11
1029.344	1071.02
1029.634	1072.82
1029.923	1082.32
1030.212	1047.51
1030.501	1051.13
1030.79	1058.36
1031.078	1040.74
1031.367	1010.68
1031.656	1029.21
1031.945	1016.56
1032.233	1020.62
1032.522	1026.72
1032.81	1006.61
1033.099	983.56
1033.387	969.32
1033.675	972.94
1033.963	951.02
1034.251	956.22
1034.54	970.23
1034.828	951.7
1035.116	945.82
1035.403	945.37
1035.691	958.93
1035.979	931.59
1036.267	933.17
1036.554	938.14
1036.842	915.99
1037.129	943.11
1037.417	898.82
1037.704	900.85
1037.992	902.66
1038.279	875.99
1038.566	851.81
1038.853	851.81
1039.14	851.81
