Data from hue_90_FLMS001491_72.txt Node
Date: Mon Feb 06 15:25:37 GMT 2017
User: dcchb
Spectrometer: FLMS00149
Trigger mode: 0
Integration Time (sec): 2.000000E-2
Scans to average: 10
Electric dark correction enabled: true
Nonlinearity correction enabled: false
Boxcar width: 0
XAxis mode: Wavelengths
Number of Pixels in Spectrum: 2048
>>>>>Begin Spectral Data<<<<<
341.393	-2.71
341.776	-2.71
342.16	-2.71
342.543	-59.89
342.927	-48.81
343.31	-69.15
343.693	-97.62
344.077	-62.37
344.46	-56.95
344.843	-61.92
345.226	-38.64
345.61	-25.99
345.993	-5.88
346.376	-10.17
346.759	11.07
347.142	38.19
347.525	35.25
347.908	72.31
348.291	78.42
348.674	86.33
349.057	107.12
349.44	109.6
349.823	140.56
350.206	163.61
350.588	190.5
350.971	198.64
351.354	206.55
351.737	229.82
352.119	237.96
352.502	248.13
352.884	268.92
353.267	289.71
353.65	291.29
354.032	292.2
354.414	297.39
354.797	299.65
355.179	314.57
355.562	312.53
355.944	327.45
356.326	299.88
356.709	322.7
357.091	335.36
357.473	348.47
357.855	328.58
358.238	329.03
358.62	356.15
359.002	340.33
359.384	327.9
359.766	350.73
360.148	338.97
360.53	331.29
360.912	327.22
361.294	341.46
361.676	305.75
362.057	331.97
362.439	312.53
362.821	338.97
363.203	331.97
363.584	336.04
363.966	328.8
364.348	323.83
364.729	315.25
365.111	312.53
365.493	325.19
365.874	301.24
366.256	316.83
366.637	313.66
367.019	308.24
367.4	310.5
367.781	317.96
368.163	300.11
368.544	295.13
368.925	308.01
369.306	331.74
369.688	297.62
370.069	304.85
370.45	296.26
370.831	307.34
371.212	298.52
371.593	299.2
371.974	307.79
372.355	307.11
372.736	306.43
373.117	302.82
373.498	312.31
373.879	315.02
374.26	305.98
374.641	299.43
375.021	304.4
375.402	297.62
375.783	303.72
376.163	335.58
376.544	349.82
376.925	305.53
377.305	309.14
377.686	318.64
378.066	309.82
378.447	326.77
378.827	308.47
379.208	333.78
379.588	322.25
379.968	336.04
380.349	341.23
380.729	320.44
381.109	347.11
381.489	334.91
381.87	331.97
382.25	338.07
382.63	314.12
383.01	333.78
383.39	332.87
383.77	324.29
384.15	343.72
384.53	343.95
384.91	329.71
385.29	316.83
385.67	343.72
386.049	341.69
386.429	340.56
386.809	350.27
387.189	362.7
387.568	335.81
387.948	357.05
388.328	348.92
388.707	361.8
389.087	346.21
389.466	355.02
389.846	357.5
390.225	361.8
390.605	365.19
390.984	338.07
391.363	374.23
391.743	349.14
392.122	377.17
392.501	381.91
392.881	388.46
393.26	381.91
393.639	380.78
394.018	376.71
394.397	383.94
394.776	359.99
395.155	406.99
395.534	391.18
395.913	362.7
396.292	382.36
396.671	365.87
397.05	381.68
397.429	402.25
397.808	390.27
398.186	397.96
398.565	391.63
398.944	390.72
399.323	391.85
399.701	390.27
400.08	384.4
400.458	388.92
400.837	390.05
401.215	421.68
401.594	399.31
401.972	388.46
402.351	380.1
402.729	392.53
403.107	403.15
403.486	390.5
403.864	408.12
404.242	403.61
404.62	438.63
404.999	422.14
405.377	404.06
405.755	409.03
406.133	399.09
406.511	437.5
406.889	433.21
407.267	435.69
407.645	413.77
408.023	419.88
408.401	425.75
408.779	439.08
409.156	444.96
409.534	437.73
409.912	438.86
410.29	439.08
410.667	458.29
411.045	466.88
411.422	453.55
411.8	446.54
412.178	451.74
412.555	477.28
412.933	481.12
413.31	470.5
413.687	469.59
414.065	481.57
414.442	476.37
414.819	489.48
415.197	479.31
415.574	473.66
415.951	492.87
416.328	467.11
416.705	481.34
417.082	498.52
417.46	509.59
417.837	491.51
418.214	517.73
418.591	491.29
418.967	505.98
419.344	494.45
419.721	504.39
420.098	530.16
420.475	513.66
420.852	512.3
421.228	514.11
421.605	522.25
421.982	526.99
422.358	552.3
422.735	531.96
423.111	523.83
423.488	567.67
423.864	531.96
424.241	538.06
424.617	540.55
424.994	564.5
425.37	549.36
425.746	561.34
426.123	575.58
426.499	585.97
426.875	573.32
427.251	573.54
427.627	606.76
428.003	603.37
428.379	598.18
428.756	590.49
429.132	609.93
429.507	595.01
429.883	585.75
430.259	619.42
430.635	615.35
431.011	620.77
431.387	652.64
431.763	634.56
432.138	635.92
432.514	656.03
432.89	652.19
433.265	634.11
433.641	662.13
434.016	665.75
434.392	663.71
434.767	686.99
435.143	676.82
435.518	689.47
435.894	706.87
436.269	693.54
436.644	679.98
437.02	718.17
437.395	710.72
437.77	713.2
438.145	732.41
438.52	704.16
438.895	739.87
439.271	753.2
439.646	784.39
440.021	770.38
440.395	779.87
440.77	751.39
441.145	778.74
441.52	771.96
441.895	759.98
442.27	769.25
442.645	787.55
443.019	796.82
443.394	797.95
443.769	812.18
444.143	823.03
444.518	831.16
444.892	795.46
445.267	830.26
445.641	807.21
446.016	855.8
446.39	811.5
446.764	850.37
447.139	847.44
447.513	871.39
447.887	858.06
448.262	865.74
448.636	870.03
449.01	870.94
449.384	885.17
449.758	890.15
450.132	904.38
450.506	876.81
450.88	912.74
451.254	911.39
451.628	919.52
452.002	915.91
452.376	926.08
452.75	959.75
453.123	955
453.497	941.9
453.871	977.6
454.244	962.01
454.618	978.28
454.992	1004.04
455.365	1020.76
455.739	1029.35
456.112	1029.58
456.486	1048.33
456.859	1045.4
457.232	1058.73
457.606	1062.57
457.979	1061.89
458.352	1093.76
458.725	1126.52
459.099	1121.78
459.472	1119.74
459.845	1152.29
460.218	1173.3
460.591	1168.1
460.964	1160.65
461.337	1171.72
461.71	1220.31
462.083	1227.76
462.456	1223.7
462.829	1259.4
463.201	1270.25
463.574	1254.2
463.947	1294.43
464.32	1309.12
464.692	1333.3
465.065	1326.29
465.438	1382.79
465.81	1394.99
466.183	1397.25
466.555	1425.27
466.928	1460.98
467.3	1462.33
467.672	1464.14
468.045	1512.73
468.417	1531.26
468.789	1554.76
469.161	1580.3
469.534	1595.66
469.906	1641.76
470.278	1660.75
470.65	1664.59
471.022	1714.98
471.394	1782.55
471.766	1787.3
472.138	1780.97
472.51	1836.34
472.882	1890.12
473.253	1895.77
473.625	1930.34
473.997	1979.38
474.369	2013.96
474.74	2050.12
475.112	2097.12
475.484	2140.06
475.855	2203.78
476.227	2213.05
476.598	2336.89
476.97	2363.1
477.341	2400.61
477.713	2470.22
478.084	2498.69
478.455	2586.15
478.827	2625.69
479.198	2734.84
479.569	2772.58
479.94	2871.56
480.311	2930.54
480.682	3015.51
481.053	3107.94
481.424	3166.92
481.795	3254.6
482.166	3326.69
482.537	3427.93
482.908	3537.99
483.279	3555.84
483.65	3665.44
484.021	3827.24
484.391	3907.47
484.762	3955.83
485.133	4053.45
485.503	4159.89
485.874	4286.44
486.244	4402.14
486.615	4500.45
486.985	4587
487.356	4725.98
487.726	4874.67
488.097	4963.49
488.467	5027.66
488.837	5175.23
489.207	5275.34
489.578	5437.15
489.948	5485.05
490.318	5709.68
490.688	5771.83
491.058	5882.33
491.428	6007.07
491.798	6104.92
492.168	6275.54
492.538	6414.29
492.908	6503.56
493.278	6621.52
493.648	6681.18
494.017	6849.76
494.387	6949.2
494.757	7088.4
495.126	7185.8
495.496	7272.8
495.866	7411.78
496.235	7521.61
496.605	7696.75
496.974	7708.72
497.344	7799.12
497.713	7941.49
498.082	8096.28
498.452	8193.23
498.821	8216.06
499.19	8339.67
499.559	8436.84
499.928	8553.45
500.298	8682.71
500.667	8694.91
501.036	8807.45
501.405	9000.22
501.774	8935.13
502.143	9064.62
502.512	9107.11
502.88	9245.41
503.249	9336.03
503.618	9374.22
503.987	9466.64
504.356	9536.02
504.724	9649.92
505.093	9653.98
505.462	9679.29
505.83	9811.95
506.199	9885.16
506.567	10002.45
506.936	10013.52
507.304	10165.83
507.672	10233.86
508.041	10255.78
508.409	10293.06
508.777	10442.21
509.145	10481.98
509.514	10525.15
509.882	10610.12
510.25	10613.51
510.618	10740.28
510.986	10713.16
511.354	10803.56
511.722	10843.56
512.09	10977.56
512.458	10947.28
512.826	11046.49
513.193	11123.55
513.561	11088.07
513.929	11199.93
514.297	11345.92
514.664	11272.47
515.032	11280.61
515.4	11370.1
515.767	11442.86
516.135	11467.27
516.502	11382.98
516.869	11519.25
517.237	11575.51
517.604	11570.54
517.972	11679.01
518.339	11705.91
518.706	11656.19
519.073	11752.91
519.44	11700.26
519.808	11863.42
520.175	11861.38
520.542	11998.33
520.909	11927.82
521.276	11875.39
521.643	12092.11
522.009	12101.6
522.376	12150.64
522.743	12189.96
523.11	12210.07
523.477	12341.14
523.843	12318.77
524.21	12384.31
524.577	12419.33
524.943	12424.53
525.31	12429.28
525.676	12499.11
526.043	12484.87
526.409	12581.14
526.776	12586.11
527.142	12617.3
527.508	12590.63
527.874	12730.29
528.241	12699.33
528.607	12722.6
528.973	12755.6
529.339	12767.12
529.705	12737.97
530.071	12833.33
530.437	12814.13
530.803	12845.99
531.169	12909.94
531.535	12808.93
531.901	12834.01
532.267	12851.41
532.632	12864.75
532.998	12921.24
533.364	12884.41
533.73	12862.71
534.095	12856.39
534.461	12844.86
534.826	12960.79
535.192	12814.13
535.557	12898.19
535.923	12848.93
536.288	12932.32
536.653	12939.32
537.019	12789.27
537.384	12780.68
537.749	12787.01
538.114	12742.72
538.479	12723.28
538.845	12794.69
539.21	12662.04
539.575	12702.72
539.94	12728.03
540.305	12718.08
540.67	12620.46
541.034	12676.28
541.399	12627.92
541.764	12700.46
542.129	12554.92
542.494	12562.16
542.858	12558.77
543.223	12554.92
543.587	12616.17
543.952	12558.54
544.316	12455.94
544.681	12406.45
545.045	12459.79
545.41	12359.22
545.774	12405.55
546.138	12331.43
546.503	12346.79
546.867	12317.87
547.231	12376.4
547.595	12301.37
547.959	12334.36
548.324	12293.91
548.688	12268.6
549.052	12302.28
549.416	12203.29
549.779	12225.22
550.143	12130.98
550.507	12178.89
550.871	12088.95
551.235	12043.98
551.599	12090.76
551.962	12061.38
552.326	12062.96
552.689	12070.19
553.053	12002.62
553.417	11939.12
553.78	12144.77
554.143	11979.35
554.507	12010.76
554.87	11998.78
555.234	12075.84
555.597	11901.38
555.96	11951.55
556.323	12001.72
556.686	11917.2
557.05	11980.7
557.413	12018.44
557.776	11953.58
558.139	11972.57
558.502	11958.1
558.865	11912.68
559.228	11964.66
559.59	11965.34
559.953	11969.85
560.316	11993.81
560.679	11911.78
561.041	11982.06
561.404	12000.14
561.767	11975.73
562.129	11980.02
562.492	12030.19
562.854	11989.29
563.217	12025.22
563.579	12043.07
563.941	11951.55
564.304	12117.65
564.666	12088.27
565.028	12100.7
565.39	12084.2
565.753	12141.83
566.115	12204.42
566.477	12117.87
566.839	12158.55
567.201	12213.24
567.563	12233.35
567.925	12224.09
568.287	12188.83
568.648	12281.94
569.01	12264.99
569.372	12308.83
569.734	12281.48
570.095	12314.48
570.457	12338.43
570.819	12311.99
571.18	12309.28
571.542	12438.32
571.903	12365.55
572.265	12389.05
572.626	12480.58
572.987	12424.53
573.349	12421.82
573.71	12488.03
574.071	12417.07
574.432	12454.14
574.794	12548.37
575.155	12447.36
575.516	12447.36
575.877	12479.22
576.238	12490.07
576.599	12617.75
576.96	12551.31
577.32	12438.32
577.681	12491.87
578.042	12573.91
578.403	12471.31
578.763	12557.64
579.124	12557.64
579.485	12609.84
579.845	12608.71
580.206	12533.23
580.566	12540.01
580.927	12595.15
581.287	12613.68
581.648	12496.17
582.008	12594.7
582.368	12578.88
582.728	12606
583.089	12556.96
583.449	12570.97
583.809	12583.17
584.169	12573.45
584.529	12580.46
584.889	12573.45
585.249	12535.49
585.609	12541.82
585.969	12594.02
586.329	12546.56
586.688	12554.92
587.048	12507.69
587.408	12514.25
587.768	12488.26
588.127	12487.36
588.487	12424.31
588.846	12515.38
589.206	12438.99
589.565	12469.28
589.925	12478.77
590.284	12451.65
590.643	12476.96
591.003	12525.55
591.362	12466.79
591.721	12429.28
592.08	12439.67
592.44	12420.92
592.799	12490.29
593.158	12427.7
593.517	12435.61
593.876	12417.07
594.235	12333.46
594.593	12406.91
594.952	12382.05
595.311	12332.56
595.67	12393.12
596.029	12424.98
596.387	12450.75
596.746	12420.01
597.104	12290.75
597.463	12290.07
597.822	12329.17
598.18	12359.45
598.538	12353.57
598.897	12337.53
599.255	12287.36
599.613	12422.05
599.972	12346.79
600.33	12439.22
600.688	12281.26
601.046	12394.48
601.404	12376.4
601.762	12376.17
602.12	12380.01
602.478	12324.87
602.836	12390.86
603.194	12330.07
603.552	12315.38
603.91	12288.94
604.268	12370.07
604.625	12333.46
604.983	12382.05
605.341	12232.22
605.698	12377.98
606.056	12344.99
606.413	12382.73
606.771	12437.87
607.128	12388.6
607.485	12356.51
607.843	12390.86
608.2	12381.14
608.557	12399.45
608.914	12423.4
609.272	12488.71
609.629	12413.68
609.986	12421.82
610.343	12476.06
610.7	12542.72
611.057	12529.61
611.414	12454.36
611.771	12511.08
612.127	12569.39
612.484	12514.93
612.841	12497.3
613.198	12607.58
613.554	12460.01
613.911	12603.96
614.267	12573.68
614.624	12520.12
614.98	12590.18
615.337	12645.09
615.693	12655.03
616.05	12594.25
616.406	12695.26
616.762	12634.24
617.118	12674.02
617.475	12652.55
617.831	12696.39
618.187	12593.57
618.543	12641.25
618.899	12699.1
619.255	12664.07
619.611	12680.8
619.967	12677.18
620.323	12752.21
620.678	12723.51
621.034	12680.12
621.39	12722.15
621.746	12640.12
622.101	12824.52
622.457	12708.82
622.812	12708.14
623.168	12755.37
623.523	12714.47
623.879	12730.06
624.234	12664.53
624.589	12805.99
624.945	12748.82
625.3	12778.65
625.655	12697.75
626.01	12687.12
626.365	12803.28
626.72	12755.82
627.075	12787.46
627.43	12693.23
627.785	12708.59
628.14	12723.73
628.495	12778.65
628.85	12721.25
629.205	12622.72
629.559	12730.74
629.914	12620.01
630.269	12667.01
630.623	12562.61
630.978	12586.79
631.332	12625.88
631.687	12672.44
632.041	12583.17
632.396	12537.75
632.75	12575.71
633.104	12581.59
633.459	12513.34
633.813	12489.84
634.167	12427.92
634.521	12545.88
634.875	12471.54
635.229	12450.52
635.583	12424.31
635.937	12540.69
636.291	12429.05
636.645	12410.97
636.999	12383.18
637.352	12404.65
637.706	12317.42
638.06	12406.91
638.413	12354.03
638.767	12287.81
639.121	12321.48
639.474	12255.04
639.828	12226.12
640.181	12348.6
640.534	12304.31
640.888	12251.66
641.241	12177.31
641.594	12274.03
641.947	12325.55
642.301	12189.51
642.654	12242.62
643.007	12164.2
643.36	12221.6
643.713	12207.14
644.066	12154.93
644.419	12113.81
644.771	12076.74
645.124	11928.73
645.477	11881.27
645.83	11878.78
646.182	11874.49
646.535	11771.22
646.888	11841.95
647.24	11750.2
647.593	11782.06
647.945	11714.04
648.298	11688.73
648.65	11712.46
649.002	11641.28
649.355	11782.74
649.707	11743.19
650.059	11834.72
650.411	11899.12
650.763	12019.57
651.115	12056.63
651.467	11996.75
651.819	11980.48
652.171	12035.62
652.523	11992.68
652.875	11970.08
653.227	11937.09
653.578	11957.65
653.93	12004.2
654.282	11943.41
654.633	11933.02
654.985	11983.87
655.337	11975.28
655.688	11973.92
656.039	11999.23
656.391	11992.45
656.742	11913.36
657.094	12014.15
657.445	12020.93
657.796	11915.62
658.147	11896.41
658.498	11917.65
658.849	12029.97
659.2	11920.59
659.551	11966.47
659.902	11915.39
660.253	11910.2
660.604	12037.2
660.955	12020.93
661.306	11994.03
661.656	12004.88
662.007	11980.7
662.358	12054.6
662.708	11983.41
663.059	11989.97
663.409	11954.26
663.76	12024.99
664.11	11994.26
664.461	12047.59
664.811	12035.84
665.161	12036.75
665.511	11937.31
665.862	11968.27
666.212	12095.73
666.562	12010.98
666.912	11951.1
667.262	12001.94
667.612	11990.42
667.962	12051.66
668.312	12018.89
668.662	12137.76
669.011	12047.37
669.361	11999.91
669.711	11929.63
670.06	11920.59
670.41	11921.72
670.76	11905.9
671.109	11927.37
671.459	11977.99
671.808	11926.24
672.157	12005.33
672.507	11934.15
672.856	11877.2
673.205	11908.84
673.554	11971.89
673.904	11903.19
674.253	11976.63
674.602	11891.66
674.951	11715.17
675.3	11716.08
675.649	11895.05
675.998	11817.77
676.346	11865
676.695	11755.85
677.044	11809.41
677.393	11835.85
677.741	11787.49
678.09	11798.11
678.438	11813.25
678.787	11785
679.135	11831.78
679.484	11679.24
679.832	11753.59
680.181	11619.13
680.529	11679.01
680.877	11630.2
681.225	11610.32
681.573	11679.92
681.922	11576.19
682.27	11520.38
682.618	11544.56
682.966	11514.05
683.314	11586.36
683.661	11541.84
684.009	11428.63
684.357	11434.28
684.705	11382.07
685.053	11412.81
685.4	11433.82
685.748	11339.81
686.095	11303.66
686.443	11295.3
686.79	11307.5
687.138	11285.35
687.485	11226.6
687.832	11188.18
688.18	11197.22
688.527	11127.39
688.874	11148.41
689.221	11114.74
689.568	11089.65
689.915	11060.5
690.262	11072.03
690.609	10973.04
690.956	10991.35
691.303	10858.02
691.65	10879.71
691.997	10815.31
692.344	10832.03
692.69	10718.36
693.037	10794.74
693.383	10714.52
693.73	10741.64
694.077	10643.11
694.423	10674.75
694.769	10560.4
695.116	10595.43
695.462	10486.5
695.808	10514.07
696.155	10489.44
696.501	10503.68
696.847	10461.87
697.193	10421.19
697.539	10342.1
697.885	10239.96
698.231	10201.77
698.577	10225.27
698.923	10266.17
699.269	10126.51
699.614	9984.14
699.96	10092.16
700.306	10080.64
700.651	10091.26
700.997	9920.64
701.342	9973.3
701.688	9943.47
702.033	9889.01
702.379	9794.54
702.724	9823.24
703.069	9822.79
703.415	9668.22
703.76	9687.2
704.105	9672.97
704.45	9698.5
704.795	9608.33
705.14	9629.35
705.485	9543.25
705.83	9510.03
706.175	9521.78
706.52	9546.42
706.865	9498.73
707.209	9515
707.554	9349.81
707.899	9390.71
708.243	9403.59
708.588	9330.15
708.932	9299.87
709.277	9272.07
709.621	9269.36
709.966	9239.76
710.31	9216.93
710.654	9123.15
710.998	9083.38
711.342	9161.79
711.687	9114.56
712.031	9046.99
712.375	9018.29
712.719	9050.38
713.063	9042.25
713.407	9070.72
713.75	9021.23
714.094	8979.65
714.438	8989.59
714.782	8919.54
715.125	8855.36
715.469	8909.6
715.812	8888.13
716.156	8823.5
716.499	8904.62
716.843	8835.93
717.186	8838.41
717.53	8877.96
717.873	8804.29
718.216	8807.23
718.559	8782.59
718.902	8712.54
719.246	8745.08
719.589	8735.36
719.932	8635.93
720.275	8624.86
720.617	8630.96
720.96	8639.32
721.303	8706.89
721.646	8666.66
721.989	8577.63
722.331	8556.61
722.674	8634.8
723.016	8580.57
723.359	8590.73
723.701	8561.81
724.044	8551.64
724.386	8432.09
724.729	8520.91
725.071	8486.56
725.413	8531.3
725.755	8516.84
726.097	8408.82
726.439	8407.01
726.782	8487.69
727.124	8532.88
727.465	8442.94
727.807	8505.09
728.149	8474.81
728.491	8382.83
728.833	8433
729.175	8372.66
729.516	8369.72
729.858	8393.68
730.199	8460.57
730.541	8402.26
730.882	8474.13
731.224	8424.41
731.565	8384.41
731.906	8386.22
732.248	8486.78
732.589	8359.1
732.93	8397.75
733.271	8333.34
733.612	8433.22
733.953	8445.43
734.294	8367.46
734.635	8383.28
734.976	8395.49
735.317	8359.33
735.658	8448.82
735.999	8410.17
736.339	8354.36
736.68	8309.39
737.021	8351.42
737.361	8330.63
737.702	8395.94
738.042	8407.91
738.383	8365.43
738.723	8431.87
739.063	8350.74
739.404	8415.37
739.744	8381.25
740.084	8397.52
740.424	8357.97
740.764	8394.58
741.104	8408.37
741.444	8411.76
741.784	8394.13
742.124	8465.09
742.464	8500.34
742.804	8441.36
743.143	8482.94
743.483	8483.17
743.823	8480.23
744.162	8561.81
744.502	8508.25
744.841	8532.43
745.181	8645.42
745.52	8574.69
745.86	8619.89
746.199	8662.15
746.538	8676.16
746.877	8738.08
747.216	8813.78
747.556	8812.2
747.895	8866.21
748.234	8887.22
748.573	8872.08
748.911	8985.53
749.25	9046.99
749.589	9027.79
749.928	9146.43
750.267	9185.97
750.605	9209.02
750.944	9254.9
751.283	9317.27
751.621	9382.13
751.96	9481.56
752.298	9506.87
752.636	9692.85
752.975	9628.22
753.313	9816.01
753.651	9875.45
753.989	9933.98
754.327	10016.23
754.666	10089.9
755.004	10263.68
755.342	10321.31
755.679	10328.09
756.017	10482.21
756.355	10616.22
756.693	10695.54
757.031	10873.61
757.368	10892.82
757.706	11015.08
758.044	11124.68
758.381	11262.98
758.719	11434.5
759.056	11518.34
759.394	11698.45
759.731	11780.71
760.068	11897.31
760.405	12026.58
760.743	12147.48
761.08	12335.04
761.417	12378.66
761.754	12598.54
762.091	12680.57
762.428	12809.38
762.765	12916.27
763.102	12989.94
763.438	13196.26
763.775	13228.35
764.112	13429.7
764.449	13624.05
764.785	13687.78
765.122	13767.77
765.458	13840.31
765.795	14028.56
766.131	14123.02
766.467	14158.27
766.804	14336.12
767.14	14342.67
767.476	14485.72
767.812	14609.33
768.148	14770.46
768.485	14786.73
768.821	14926.16
769.157	14949.21
769.492	15122.99
769.828	15103.33
770.164	15202.31
770.5	15204.35
770.836	15398.92
771.171	15499.03
771.507	15449.99
771.842	15520.72
772.178	15605.24
772.513	15698.57
772.849	15825.8
773.184	15807.49
773.519	15887.94
773.855	15948.28
774.19	15918.45
774.525	16103.53
774.86	16057.66
775.195	16120.03
775.53	16068.5
775.865	16130.2
776.2	16141.95
776.535	16144.89
776.87	16225.56
777.205	16177.65
777.539	16155.51
777.874	16248.61
778.209	16115.28
778.543	16198.22
778.878	16195.96
779.212	16316.63
779.547	16218.33
779.881	16331.77
780.215	16271.21
780.55	16360.47
780.884	16280.25
781.218	16341.72
781.552	16329.74
781.886	16318.67
782.22	16339.01
782.554	16296.07
782.888	16224.88
783.222	16075.28
783.556	16086.58
783.889	16160.48
784.223	15990.09
784.557	16089.07
784.89	16201.38
785.224	16044.78
785.557	16052.91
785.891	16115.96
786.224	16047.71
786.558	16067.6
786.891	15973.14
787.224	15910.32
787.557	15929.3
787.891	15943.31
788.224	15853.14
788.557	15914.61
788.89	15924.1
789.223	15929.98
789.556	15785.8
789.888	15811.34
790.221	15735.86
790.554	15614.73
790.887	15679.81
791.219	15654.05
791.552	15647.72
791.884	15632.36
792.217	15536.09
792.549	15470.33
792.882	15397.11
793.214	15462.64
793.546	15397.79
793.879	15398.24
794.211	15313.04
794.543	15318.47
794.875	15296.77
795.207	15341.97
795.539	15221.97
795.871	15348.52
796.203	15132.48
796.535	15048.19
796.867	15045.03
797.198	15006.39
797.53	15003.22
797.862	14902.43
798.193	14981.75
798.525	14858.82
798.856	14929.32
799.188	14752.61
799.519	14772.04
799.85	14625.38
800.182	14729.33
800.513	14700.86
800.844	14616.34
801.175	14700.86
801.506	14636.9
801.837	14538.15
802.168	14628.09
802.499	14499.05
802.83	14366.4
803.161	14286.86
803.491	14430.13
803.822	14367.76
804.153	14272.39
804.483	14142.45
804.814	14176.58
805.145	14200.53
805.475	14126.86
805.805	14182.45
806.136	14179.74
806.466	14140.19
806.796	14071.49
807.126	13921.22
807.457	13923.48
807.787	13976.81
808.117	13879.41
808.447	13800.32
808.777	13875.57
809.107	13793.08
809.436	13849.58
809.766	13761.45
810.096	13816.13
810.426	13656.59
810.755	13782.46
811.085	13660.21
811.414	13681.45
811.744	13568.68
812.073	13494.79
812.403	13496.59
812.732	13471.06
813.061	13415.69
813.39	13370.95
813.719	13429.93
814.049	13355.36
814.378	13321.23
814.707	13250.5
815.036	13306.09
815.365	13201.23
815.693	13111.75
816.022	13135.47
816.351	13132.31
816.68	13135.93
817.008	13065.19
817.337	12902.26
817.665	12980
817.994	13002.82
818.322	13001.69
818.651	12909.94
818.979	12914.91
819.307	12925.76
819.636	12862.03
819.964	12783.39
820.292	12928.02
820.62	12806.89
820.948	12781.13
821.276	12898.42
821.604	12808.25
821.932	12788.82
822.259	12815.48
822.587	12819.78
822.915	12777.07
823.243	12805.76
823.57	12838.31
823.898	12816.16
824.225	12738.87
824.553	12844.41
824.88	12815.48
825.207	12807.35
825.535	12777.52
825.862	12852.09
826.189	12770.51
826.516	12899.1
826.843	12822.26
827.17	12931.19
827.497	12827.69
827.824	12807.8
828.151	12897.74
828.478	12879.89
828.805	12879.66
829.131	12751.76
829.458	12840.11
829.785	12749.72
830.111	12789.27
830.438	12796.73
830.764	12812.32
831.09	12862.71
831.417	12757.18
831.743	12836.5
832.069	12718.54
832.395	12798.99
832.722	12815.93
833.048	12731.42
833.374	12716.73
833.7	12664.98
834.026	12650.06
834.351	12750.17
834.677	12738.65
835.003	12667.69
835.329	12723.73
835.654	12620.91
835.98	12591.31
836.306	12668.14
836.631	12612.1
836.956	12583.85
837.282	12561.48
837.607	12512.67
837.932	12502.95
838.258	12568.03
838.583	12459.56
838.908	12487.13
839.233	12515.83
839.558	12399.45
839.883	12378.21
840.208	12383.63
840.533	12341.37
840.858	12377.08
841.182	12370.75
841.507	12322.84
841.832	12301.15
842.156	12219.34
842.481	12227.7
842.805	12202.84
843.13	12161.94
843.454	12106.8
843.778	12127.36
844.103	12169.85
844.427	12087.37
844.751	12052.11
845.075	12035.39
845.399	12055.5
845.723	11904.09
846.047	11961.27
846.371	11918.1
846.695	11889.86
847.019	11761.05
847.343	11688.05
847.666	11599.92
847.99	11611.22
848.313	11599.47
848.637	11535.52
848.96	11526.93
849.284	11465.46
849.607	11387.95
849.931	11346.37
850.254	11239.48
850.577	11231.57
850.9	11145.92
851.223	11173.72
851.546	11101.18
851.869	10973.5
852.192	11074.29
852.515	10980.73
852.838	10964.01
853.161	10897.34
853.483	10831.35
853.806	10803.56
854.129	10860.28
854.451	10798.81
854.774	10769.21
855.096	10698.25
855.419	10631.13
855.741	10657.57
856.063	10545.94
856.385	10526.05
856.708	10559.5
857.03	10476.33
857.352	10420.52
857.674	10496
857.996	10393.63
858.318	10404.92
858.64	10314.98
858.961	10301.42
859.283	10298.49
859.605	10287.87
859.926	10291.71
860.248	10278.37
860.57	10177.13
860.891	10180.98
861.212	10095.1
861.534	10039.06
861.855	10053.07
862.176	10140.07
862.498	10110.92
862.819	10038.61
863.14	10030.92
863.461	10002.67
863.782	9995.22
864.103	10025.95
864.424	9879.29
864.745	9929
865.065	9822.57
865.386	9881.1
865.707	9846.29
866.027	9887.65
866.348	9883.36
866.668	9813.53
866.989	9842.68
867.309	9748.67
867.63	9771.49
867.95	9825.28
868.27	9710.25
868.59	9725.17
868.91	9700.54
869.23	9670.48
869.55	9623.7
869.87	9634.55
870.19	9640.65
870.51	9690.82
870.83	9609.24
871.15	9580.31
871.469	9531.05
871.789	9552.07
872.109	9555
872.428	9528.34
872.748	9573.08
873.067	9475.01
873.386	9455.57
873.706	9446.76
874.025	9402.01
874.344	9428.45
874.663	9442.01
874.982	9449.47
875.301	9317.72
875.62	9363.6
875.939	9365.18
876.258	9343.94
876.577	9317.5
876.896	9294.67
877.214	9331.73
877.533	9276.37
877.852	9286.08
878.17	9257.38
878.489	9297.16
878.807	9242.92
879.125	9225.97
879.444	9216.48
879.762	9216.25
880.08	9185.3
880.398	9117.05
880.716	9157.05
881.034	9091.51
881.352	9070.5
881.67	9111.4
881.988	9081.34
882.306	9060.55
882.624	9002.48
882.941	8964.51
883.259	8942.59
883.577	8921.35
883.894	8889.71
884.212	8912.31
884.529	8936.26
884.846	8839.09
885.164	8822.59
885.481	8815.59
885.798	8892.2
886.115	8776.49
886.432	8735.82
886.75	8775.36
887.067	8720.22
887.383	8663.28
887.7	8729.71
888.017	8679.77
888.334	8641.13
888.651	8604.97
888.967	8582.15
889.284	8534.92
889.6	8528.59
889.917	8466.44
890.233	8476.61
890.55	8472.32
890.866	8423.06
891.182	8453.56
891.498	8406.56
891.815	8368.14
892.131	8403.62
892.447	8388.48
892.763	8289.73
893.079	8290.4
893.395	8239.11
893.71	8218.77
894.026	8168.6
894.342	8137.87
894.657	8133.12
894.973	8106.23
895.289	8098.77
895.604	8109.62
895.92	7990.3
896.235	7980.36
896.55	7978.55
896.865	8015.61
897.181	7979.45
897.496	7976.97
897.811	7964.99
898.126	7881.37
898.441	7858.1
898.756	7788.95
899.071	7803.41
899.386	7711.89
899.7	7729.74
900.015	7679.12
900.33	7527.26
900.644	7626.92
900.959	7641.61
901.273	7610.2
901.588	7541.27
901.902	7492.23
902.216	7426.47
902.531	7431.67
902.845	7456.75
903.159	7404.1
903.473	7353.93
903.787	7337.66
904.101	7312.8
904.415	7255.18
904.729	7231.9
905.042	7228.74
905.356	7236.42
905.67	7193.26
905.984	7151.68
906.297	7168.4
906.611	7171.79
906.924	7046.59
907.237	7005.24
907.551	7073.94
907.864	6969.76
908.177	7006.14
908.491	6995.75
908.804	6903.1
909.117	6848.41
909.43	6828.52
909.743	6805.92
910.056	6821.29
910.368	6758.69
910.681	6719.15
910.994	6665.59
911.307	6685.7
911.619	6614.52
911.932	6617.23
912.244	6585.36
912.557	6514.86
912.869	6544.69
913.181	6522.54
913.494	6466.95
913.806	6457.01
914.118	6445.93
914.43	6406.84
914.742	6478.47
915.054	6377.23
915.366	6402.09
915.678	6289.78
915.99	6291.81
916.302	6282.77
916.613	6274.64
916.925	6231.25
917.236	6244.13
917.548	6150.35
917.859	6126.62
918.171	6099.05
918.482	6113.51
918.794	6048.65
919.105	6091.59
919.416	5990.58
919.727	6025.38
920.038	5986.74
920.349	5914.87
920.66	5927.98
920.971	5925.04
921.282	5890.92
921.593	5874.42
921.903	5872.39
922.214	5836.46
922.525	5791.71
922.835	5775.22
923.146	5707.87
923.456	5733.41
923.767	5669
924.077	5741.54
924.387	5618.38
924.697	5605.95
925.008	5635.56
925.318	5566.18
925.628	5538.61
925.938	5545.39
926.248	5516.24
926.558	5458.61
926.867	5452.06
927.177	5445.51
927.487	5442.34
927.796	5352.4
928.106	5398.73
928.416	5293.65
928.725	5313.08
929.034	5315.79
929.344	5329.58
929.653	5284.83
929.962	5255.23
930.271	5250.03
930.581	5180.88
930.89	5225.85
931.199	5146.31
931.508	5159.86
931.817	5149.02
932.125	5119.19
932.434	5043.48
932.743	5060.43
933.051	5011.17
933.36	4992.86
933.669	4975.46
933.977	4946.54
934.286	4953.09
934.594	4919.42
934.902	4878.29
935.21	4873.54
935.519	4910.15
935.827	4885.97
936.135	4837.16
936.443	4767.56
936.751	4770.5
937.059	4751.06
937.367	4738.86
937.674	4744.28
937.982	4696.15
938.29	4679.88
938.597	4708.12
938.905	4643.95
939.213	4601.23
939.52	4591.97
939.827	4587
940.135	4510.16
940.442	4554.46
940.749	4543.61
941.056	4572.54
941.363	4499.77
941.67	4450.05
941.977	4472.65
942.284	4436.72
942.591	4428.81
942.898	4451.18
943.205	4393.78
943.511	4361.69
943.818	4351.75
944.125	4309.72
944.431	4366.44
944.738	4258.65
945.044	4321.02
945.35	4260.23
945.657	4249.15
945.963	4262.94
946.269	4194.24
946.575	4217.74
946.881	4153.34
947.187	4210.96
947.493	4164.86
947.799	4155.37
948.105	4105.2
948.41	4110.63
948.716	4063.62
949.022	4041.25
949.327	4048.26
949.633	4046.67
949.938	4033.79
950.244	4008.26
950.549	3981.36
950.854	3931.2
951.16	3998.31
951.465	3900.01
951.77	3946.11
952.075	3867.92
952.38	3843.51
952.685	3856.4
952.99	3786.57
953.294	3854.14
953.599	3826.57
953.904	3772.1
954.209	3753.57
954.513	3770.07
954.818	3741.37
955.122	3735.04
955.426	3695.72
955.731	3698.21
956.035	3674.48
956.339	3639.45
956.643	3655.27
956.948	3601.04
957.252	3565.33
957.556	3600.36
957.86	3563.3
958.163	3584.99
958.467	3548.38
958.771	3563.52
959.075	3554.71
959.378	3490.76
959.682	3490.98
959.985	3468.61
960.289	3461.15
960.592	3442.17
960.896	3451.43
961.199	3430.87
961.502	3401.04
961.805	3405.56
962.108	3347.48
962.411	3353.36
962.714	3316.52
963.017	3351.1
963.32	3298.9
963.623	3286.02
963.926	3297.09
964.228	3243.53
964.531	3262.97
964.833	3265.68
965.136	3217.54
965.438	3207.83
965.741	3153.82
966.043	3201.5
966.345	3152.23
966.648	3157.21
966.95	3171.67
967.252	3142.97
967.554	3109.52
967.856	3091.44
968.158	3080.6
968.46	3067.72
968.761	3051.45
969.063	3049.64
969.365	3073.82
969.666	3046.25
969.968	3007.15
970.269	3036.98
970.571	3021.16
970.872	2997.21
971.174	2965.8
971.475	2932.58
971.776	2935.29
972.077	2955.4
972.378	2927.61
972.679	2942.52
972.98	2893.94
973.281	2899.58
973.582	2849.64
973.883	2878.34
974.183	2844.9
974.484	2846.7
974.785	2821.62
975.085	2829.08
975.386	2833.15
975.686	2803.32
975.986	2780.72
976.287	2769.87
976.587	2731.23
976.887	2756.31
977.187	2726.93
977.487	2705.47
977.787	2674.05
978.087	2719.48
978.387	2658.01
978.687	2694.17
978.987	2681.51
979.286	2617.33
979.586	2653.49
979.885	2627.28
980.185	2628.86
980.484	2603.1
980.784	2587.05
981.083	2559.71
981.382	2576.88
981.682	2564.9
981.981	2553.15
982.28	2532.59
982.579	2545.47
982.878	2520.16
983.177	2470.67
983.475	2504.79
983.774	2447.85
984.073	2483.1
984.372	2459.6
984.67	2467.05
984.969	2432.93
985.267	2400.16
985.566	2412.59
985.864	2401.29
986.162	2388.64
986.461	2384.57
986.759	2348.19
987.057	2354.06
987.355	2331.24
987.653	2339.83
987.951	2326.27
988.249	2331.69
988.547	2305.7
988.844	2320.84
989.142	2258.92
989.44	2288.3
989.737	2257.12
990.035	2230.9
990.332	2250.34
990.63	2248.3
990.927	2242.65
991.224	2232.03
991.521	2198.81
991.819	2210.34
992.116	2210.34
992.413	2168.53
992.71	2196.78
993.006	2150.45
993.303	2122.66
993.6	2143.9
993.897	2103.9
994.193	2148.87
994.49	2121.3
994.787	2098.02
995.083	2070.23
995.379	2061.87
995.676	2064.13
995.972	2058.93
996.268	2044.69
996.565	2049.66
996.861	2044.24
997.157	2026.39
997.453	1999.5
997.749	2002.89
998.044	1954.98
998.34	1974.86
998.636	1963.79
998.932	1978.71
999.227	1957.01
999.523	1921.08
999.818	1915.2
1000.114	1910.46
1000.409	1915.88
1000.704	1872.04
1001	1923.11
1001.295	1883.34
1001.59	1881.53
1001.885	1862.78
1002.18	1858.48
1002.475	1825.49
1002.77	1829.56
1003.065	1811.03
1003.359	1800.86
1003.654	1818.03
1003.949	1764.47
1004.243	1776.9
1004.538	1747.75
1004.832	1761.54
1005.127	1736.23
1005.421	1744.81
1005.715	1709.56
1006.009	1737.13
1006.304	1704.14
1006.598	1693.06
1006.892	1691.03
1007.186	1662.1
1007.48	1683.12
1007.773	1656.45
1008.067	1658.26
1008.361	1650.8
1008.655	1647.41
1008.948	1627.98
1009.242	1606.06
1009.535	1633.4
1009.829	1592.95
1010.122	1608.77
1010.415	1568.77
1010.708	1584.14
1011.001	1590.24
1011.295	1563.12
1011.588	1534.42
1011.881	1540.52
1012.173	1531.26
1012.466	1515.44
1012.759	1543.46
1013.052	1515.67
1013.344	1505.95
1013.637	1514.08
1013.93	1478.38
1014.222	1460.07
1014.514	1475.44
1014.807	1438.83
1015.099	1460.75
1015.391	1431.37
1015.683	1424.6
1015.976	1444.03
1016.268	1404.48
1016.56	1406.97
1016.851	1413.75
1017.143	1383.24
1017.435	1413.75
1017.727	1352.05
1018.018	1365.84
1018.31	1345.95
1018.602	1305.05
1018.893	1349.12
1019.185	1317.71
1019.476	1326.74
1019.767	1323.36
1020.058	1303.92
1020.35	1306.86
1020.641	1311.83
1020.932	1283.81
1021.223	1274.32
1021.514	1234.54
1021.804	1252.17
1022.095	1240.42
1022.386	1243.81
1022.677	1232.28
1022.967	1242.45
1023.258	1206.75
1023.548	1200.87
1023.839	1209.01
1024.129	1218.27
1024.419	1173.53
1024.709	1192.29
1025	1168.33
1025.29	1166.97
1025.58	1138.28
1025.87	1164.72
1026.16	1141.66
1026.449	1155.9
1026.739	1131.72
1027.029	1125.62
1027.319	1126.52
1027.608	1108.22
1027.898	1113.19
1028.187	1079.75
1028.477	1091.5
1028.766	1072.74
1029.055	1081.55
1029.344	1047.88
1029.634	1045.85
1029.923	1033.87
1030.212	1034.55
1030.501	1023.93
1030.79	1035.68
1031.078	1020.54
1031.367	1015.79
1031.656	1005.4
1031.945	1011.72
1032.233	1013.76
1032.522	1000.65
1032.81	989.35
1033.099	990.26
1033.387	965.62
1033.675	996.58
1033.963	973.53
1034.251	958.39
1034.54	943.93
1034.828	952.74
1035.116	954.78
1035.403	949.58
1035.691	961.56
1035.979	925.85
1036.267	924.95
1036.554	915.46
1036.842	910.48
1037.129	910.71
1037.417	892.18
1037.704	887.66
1037.992	889.92
1038.279	872.97
1038.566	883.82
1038.853	883.82
1039.14	883.82
