Data from hue_290_FLMS001491_00050.txt Node
Date: Tue Feb 07 15:52:48 GMT 2017
User: dcchb
Spectrometer: FLMS00149
Trigger mode: 0
Integration Time (sec): 2.000000E-2
Scans to average: 10
Electric dark correction enabled: true
Nonlinearity correction enabled: false
Boxcar width: 0
XAxis mode: Wavelengths
Number of Pixels in Spectrum: 2048
>>>>>Begin Spectral Data<<<<<
341.393	-8.63
341.776	-8.63
342.16	-8.63
342.543	-49.53
342.927	-60.38
343.31	-65.8
343.693	-67.61
344.077	-39.82
344.46	-63.77
344.843	-49.76
345.226	-55.18
345.61	-25.13
345.993	-24.22
346.376	-7.5
346.759	-0.72
347.142	37.47
347.525	43.35
347.908	37.02
348.291	85.83
348.674	97.13
349.057	98.71
349.44	108.88
349.823	147.52
350.206	173.06
350.588	192.27
350.971	202.21
351.354	233.17
351.737	212.83
352.119	254.41
352.502	249.67
352.884	261.42
353.267	279.95
353.65	288.31
354.032	294.87
354.414	289.89
354.797	294.87
355.179	348.42
355.562	321.98
355.944	331.02
356.326	338.71
356.709	332.15
357.091	314.07
357.473	338.71
357.855	340.74
358.238	326.95
358.62	331.93
359.002	325.15
359.384	324.47
359.766	354.3
360.148	335.99
360.53	346.84
360.912	345.03
361.294	305.26
361.676	336.45
362.057	351.81
362.439	325.82
362.821	324.47
363.203	323.34
363.584	336.45
363.966	336.22
364.348	342.1
364.729	317.92
365.111	311.59
365.493	322.89
365.874	307.29
366.256	316.33
366.637	303.9
367.019	324.92
367.4	326.05
367.781	311.14
368.163	329.21
368.544	308.65
368.925	307.52
369.306	303.45
369.688	319.95
370.069	323.11
370.45	317.69
370.831	309.78
371.212	318.82
371.593	328.99
371.974	320.63
372.355	336.67
372.736	322.89
373.117	308.65
373.498	315.2
373.879	289.44
374.26	296.67
374.641	317.46
375.021	316.79
375.402	314.53
375.783	316.56
376.163	327.18
376.544	345.03
376.925	320.63
377.305	316.33
377.686	319.5
378.066	321.76
378.447	323.34
378.827	322.44
379.208	328.76
379.588	354.52
379.968	319.05
380.349	335.77
380.729	336.45
381.109	319.27
381.489	334.19
381.87	329.67
382.25	347.52
382.63	339.16
383.01	353.85
383.39	345.94
383.77	349.1
384.15	347.07
384.53	365.15
384.91	319.72
385.29	335.77
385.67	352.94
386.049	373.96
386.429	342.32
386.809	340.51
387.189	372.6
387.568	350
387.948	359.27
388.328	344.58
388.707	355.88
389.087	382.32
389.466	348.65
389.846	355.43
390.225	370.57
390.605	370.34
390.984	386.39
391.363	386.16
391.743	395.2
392.122	383.22
392.501	390.91
392.881	395.65
393.26	373.73
393.639	398.59
394.018	362.43
394.397	384.13
394.776	394.75
395.155	394.75
395.534	405.37
395.913	408.08
396.292	379.38
396.671	385.94
397.05	420.74
397.429	384.58
397.808	414.41
398.186	386.84
398.565	426.61
398.944	419.38
399.323	417.35
399.701	436.78
400.08	422.55
400.458	423.9
400.837	411.02
401.215	421.19
401.594	426.16
401.972	441.53
402.351	442.21
402.729	445.6
403.107	441.3
403.486	431.81
403.864	455.54
404.242	457.57
404.62	456.44
404.999	452.38
405.377	474.52
405.755	487.4
406.133	464.13
406.511	484.46
406.889	479.49
407.267	483.56
407.645	471.13
408.023	494.18
408.401	498.93
408.779	503.22
409.156	522.88
409.534	520.17
409.912	535.08
410.29	552.94
410.667	537.12
411.045	526.5
411.422	547.51
411.8	535.99
412.178	553.16
412.555	575.76
412.933	571.92
413.31	590.68
413.687	579.15
414.065	586.38
414.442	606.04
414.819	619.15
415.197	610.79
415.574	618.25
415.951	644.69
416.328	629.77
416.705	670.22
417.082	658.02
417.46	671.8
417.837	700.5
418.214	695.31
418.591	734.63
418.967	705.25
419.344	713.16
419.721	718.13
420.098	726.49
420.475	745.25
420.852	753.61
421.228	756.77
421.605	751.58
421.982	754.06
422.358	779.6
422.735	781.86
423.111	768.98
423.488	813.04
423.864	817.56
424.241	823.21
424.617	845.13
424.994	825.25
425.37	862.99
425.746	845.13
426.123	879.03
426.499	878.35
426.875	889.88
427.251	925.81
427.627	943.44
428.003	920.39
428.379	947.73
428.756	955.86
429.132	973.27
429.507	954.06
429.883	987.95
430.259	1000.16
430.635	1006.26
431.011	1009.2
431.387	1028.18
431.763	1031.79
432.138	1036.31
432.514	1073.83
432.89	1068.86
433.265	1123.54
433.641	1135.3
434.016	1145.69
434.392	1118.57
434.767	1168.74
435.143	1165.58
435.518	1203.32
435.894	1183.66
436.269	1209.64
436.644	1237.67
437.02	1248.06
437.395	1252.81
437.77	1293.93
438.145	1286.25
438.52	1299.58
438.895	1303.65
439.271	1312.01
439.646	1329.64
440.021	1356.53
440.395	1340.49
440.77	1325.12
441.145	1354.95
441.52	1374.84
441.895	1397.89
442.27	1411.9
442.645	1395.18
443.019	1411.45
443.394	1407.38
443.769	1451.44
444.143	1436.3
444.518	1487.15
444.892	1453.48
445.267	1472.24
445.641	1484.89
446.016	1450.09
446.39	1526.02
446.764	1506.58
447.139	1484.89
447.513	1510.43
447.887	1518.34
448.262	1519.47
448.636	1528.05
449.01	1559.24
449.384	1545.91
449.758	1583.19
450.132	1582.74
450.506	1585.9
450.88	1566.02
451.254	1576.87
451.628	1610.31
452.002	1644.89
452.376	1624.77
452.75	1610.08
453.123	1651.21
453.497	1648.5
453.871	1672.68
454.244	1700.03
454.618	1687.14
454.992	1687.14
455.365	1718.33
455.739	1767.82
456.112	1786.58
456.486	1761.95
456.859	1777.99
457.232	1826.12
457.606	1806.69
457.979	1811.44
458.352	1861.15
458.725	1855.05
459.099	1862.96
459.472	1944.31
459.845	1899.12
460.218	1916.97
460.591	1942.51
460.964	1933.69
461.337	2017.08
461.71	1981.15
462.083	2040.36
462.456	2020.7
462.829	2045.33
463.201	2050.98
463.574	2080.58
463.947	2115.83
464.32	2135.49
464.692	2139.79
465.065	2135.72
465.438	2152.44
465.81	2233.12
466.183	2215.04
466.555	2252.78
466.928	2248.49
467.3	2263.4
467.672	2300.01
468.045	2319.67
468.417	2295.72
468.789	2355.15
469.161	2393.34
469.534	2380.69
469.906	2420.46
470.278	2434.7
470.65	2451.87
471.022	2517.86
471.394	2539.33
471.766	2510.85
472.138	2589.72
472.51	2629.94
472.882	2647.12
473.253	2663.39
473.625	2709.72
473.997	2724.63
474.369	2751.3
474.74	2756.95
475.112	2777.74
475.484	2808.92
475.855	2872.42
476.227	2852.54
476.598	2935.25
476.97	2974.79
477.341	3033.1
477.713	3047.11
478.084	3084.4
478.455	3113.32
478.827	3173.43
479.198	3229.48
479.569	3240.78
479.94	3280.55
480.311	3302.92
480.682	3344.28
481.053	3455.01
481.424	3443.03
481.795	3486.19
482.166	3501.11
482.537	3534.55
482.908	3608.68
483.279	3651.61
483.65	3641.22
484.021	3744.72
484.391	3752.4
484.762	3858.61
485.133	3798.95
485.503	3817.94
485.874	3931.38
486.244	3961.21
486.615	4039.4
486.985	4052.51
487.356	4087.99
487.726	4120.08
488.097	4159.85
488.467	4178.6
488.837	4259.73
489.207	4282.33
489.578	4302.22
489.948	4409.33
490.318	4417.02
490.688	4476
491.058	4480.74
491.428	4540.4
491.798	4586.96
492.168	4623.56
492.538	4679.16
492.908	4717.57
493.278	4762.77
493.648	4755.09
494.017	4812.03
494.387	4787.63
494.757	4839.15
495.126	4915.99
495.496	4917.57
495.866	4939.71
496.235	4939.71
496.605	4996.21
496.974	4980.62
497.344	5051.12
497.713	5071.24
498.082	5092.25
498.452	5188.97
498.821	5126.38
499.19	5208.41
499.559	5179.48
499.928	5235.75
500.298	5241.85
500.667	5257.67
501.036	5301.51
501.405	5312.81
501.774	5330.89
502.143	5383.77
502.512	5408.63
502.88	5480.49
503.249	5465.58
503.618	5448.18
503.987	5534.05
504.356	5472.58
504.724	5531.11
505.093	5493.82
505.462	5558.46
505.83	5594.84
506.199	5607.49
506.567	5705.57
506.936	5634.61
507.304	5775.62
507.672	5710.09
508.041	5721.39
508.409	5804.55
508.777	5819.47
509.145	5811.56
509.514	5838
509.882	5897.66
510.25	5863.76
510.618	5884.1
510.986	5882.74
511.354	5925.23
511.722	5957.54
512.09	5976.07
512.458	5991.89
512.826	6028.05
513.193	6044.09
513.561	6061.72
513.929	6077.99
514.297	6150.08
514.664	6130.19
515.032	6187.82
515.4	6227.14
515.767	6280.47
516.135	6256.06
516.502	6206.35
516.869	6283.63
517.237	6316.85
517.604	6266.46
517.972	6326.57
518.339	6365.21
518.706	6309.4
519.073	6377.64
519.44	6389.39
519.808	6453.8
520.175	6443.86
520.542	6514.36
520.909	6518.2
521.276	6472.78
521.643	6502.61
522.009	6583.97
522.376	6596.17
522.743	6650.86
523.11	6675.49
523.477	6751.19
523.843	6706.45
524.21	6766.33
524.577	6830.96
524.943	6897.86
525.31	6834.35
525.676	6899.21
526.043	6982.82
526.409	6970.62
526.776	7020.34
527.142	7093.1
527.508	7051.3
527.874	7113.22
528.241	7110.51
528.607	7149.37
528.973	7211.29
529.339	7181.24
529.705	7277.51
530.071	7306.21
530.437	7306.43
530.803	7365.64
531.169	7374
531.535	7382.81
531.901	7442.02
532.267	7425.75
532.632	7420.1
532.998	7563.37
533.364	7557.95
533.73	7561.79
534.095	7641.34
534.461	7682.69
534.826	7677.95
535.192	7638.17
535.557	7760.43
535.923	7708.91
536.288	7765.86
536.653	7802.69
537.019	7817.61
537.384	7777.15
537.749	7813.31
538.114	7852.86
538.479	7870.03
538.845	7973.08
539.21	7893.54
539.575	7964.04
539.94	7942.35
540.305	7974.21
540.67	8032.51
541.034	8014.44
541.399	8109.8
541.764	8097.6
542.129	8091.27
542.494	8088.78
542.858	8147.09
543.223	8179.63
543.587	8224.83
543.952	8219.63
544.316	8215.11
544.681	8252.17
545.045	8249.46
545.41	8307.54
545.774	8324.48
546.138	8339.17
546.503	8362.9
546.867	8385.05
547.231	8410.13
547.595	8459.4
547.959	8437.7
548.324	8394.09
548.688	8451.03
549.052	8533.74
549.416	8594.08
549.779	8558.83
550.143	8497.36
550.507	8592.5
550.871	8653.97
551.235	8632.27
551.599	8656.45
551.962	8635.44
552.326	8660.29
552.689	8745.26
553.053	8723.34
553.417	8758.82
553.78	8806.96
554.143	8786.39
554.507	8823
554.87	8839.5
555.234	8896.45
555.597	8837.01
555.96	8924.24
556.323	8909.33
556.686	8966.73
557.05	8975.77
557.413	8959.5
557.776	8978.93
558.139	9006.95
558.502	8997.91
558.865	9039.49
559.228	9106.38
559.59	9098.25
559.953	9073.17
560.316	9192.03
560.679	9246.49
561.041	9214.4
561.404	9270.67
561.767	9332.82
562.129	9403.33
562.492	9461.86
562.854	9389.99
563.217	9482.42
563.579	9470.44
563.941	9500.05
564.304	9517.67
564.666	9596.54
565.028	9576.2
565.39	9582.08
565.753	9656.65
566.115	9667.05
566.477	9729.42
566.839	9709.08
567.201	9772.81
567.563	9787.27
567.925	9814.16
568.287	9853.94
568.648	9881.73
569.01	9894.61
569.372	9956.76
569.734	9994.27
570.095	10023.2
570.457	10107.26
570.819	10162.63
571.18	10067.04
571.542	10208.05
571.903	10155.4
572.265	10254.15
572.626	10314.26
572.987	10290.53
573.349	10370.08
573.71	10337.76
574.071	10443.52
574.432	10487.82
574.794	10632.9
575.155	10605.78
575.516	10641.03
575.877	10709.96
576.238	10657.98
576.599	10803.29
576.96	10892.78
577.32	10841.03
577.681	10925.32
578.042	11007.8
578.403	11064.53
578.763	11108.59
579.124	11156.27
579.485	11210.06
579.845	11312.2
580.206	11343.39
580.566	11450.05
580.927	11536.38
581.287	11670.84
581.648	11642.14
582.008	11709.25
582.368	11824.05
582.728	11860.44
583.089	11976.59
583.449	12135.68
583.809	12129.58
584.169	12279.63
584.529	12410.03
584.889	12547.2
585.249	12665.84
585.609	12632.39
585.969	12807.53
586.329	12902.44
586.688	13043.91
587.048	13119.39
587.408	13235.77
587.768	13412.71
588.127	13461.75
588.487	13621.29
588.846	13896.54
589.206	13932.47
589.565	14007.27
589.925	14164.33
590.284	14329.98
590.643	14411.33
591.003	14564.77
591.362	14718.44
591.721	14865.78
592.08	14932.22
592.44	15244.3
592.799	15338.31
593.158	15466.44
593.517	15620.79
593.876	15624.41
594.235	15798.19
594.593	15996.15
594.952	16157.72
595.311	16235.24
595.67	16339.87
596.029	16534.89
596.387	16742.57
596.746	16814.2
597.104	16885.62
597.463	17084.71
597.822	17244.02
598.18	17275.66
598.538	17393.4
598.897	17650.57
599.255	17579.83
599.613	17977.11
599.972	17949.77
600.33	18124.45
600.688	18146.6
601.046	18292.81
601.404	18456.42
601.762	18447.38
602.12	18729.41
602.478	18736.87
602.836	18835.17
603.194	18882.62
603.552	19054.6
603.91	19089.4
604.268	19263.41
604.625	19248.94
604.983	19415.04
605.341	19409.62
605.698	19640.57
606.056	19692.55
606.413	19712.89
606.771	19921.92
607.128	20012.54
607.485	20024.97
607.843	20083.5
608.2	20218.64
608.557	20404.84
608.914	20431.06
609.272	20514.45
609.629	20692.97
609.986	20813.87
610.343	20646.87
610.7	20886.19
611.057	20928.67
611.414	20968.9
611.771	21081.21
612.127	21233.52
612.484	21334.54
612.841	21366.4
613.198	21283.24
613.554	21430.58
613.911	21579.5
614.267	21535.66
614.624	21643.91
614.98	21743.11
615.337	21852.26
615.693	21803.45
616.05	21767.07
616.406	22076.44
616.762	22027.4
617.118	22082.31
617.475	22028.08
617.831	22191.01
618.187	22210
618.543	22195.31
618.899	22388.07
619.255	22272.59
619.611	22345.36
619.967	22428.52
620.323	22581.51
620.678	22492.47
621.034	22496.54
621.39	22518.46
621.746	22613.83
622.101	22874.61
622.457	22633.49
622.812	22787.16
623.168	22809.98
623.523	22763.65
623.879	22848.17
624.234	22684.11
624.589	22924.78
624.945	22924.78
625.3	22941.28
625.655	22898.34
626.01	23051.78
626.365	23052.01
626.72	22917.32
627.075	22962.29
627.43	23023.99
627.785	22934.27
628.14	23046.36
628.495	22979.01
628.85	23023.76
629.205	22989.41
629.559	23070.76
629.914	22918.45
630.269	23041.84
630.623	23030.54
630.978	22997.77
631.332	23071.89
631.687	23164.09
632.041	23033.7
632.396	23065.79
632.75	23021.5
633.104	23065.57
633.459	23069.41
633.813	23052.91
634.167	23042.06
634.521	23011.33
634.875	22986.02
635.229	23087.26
635.583	22898.56
635.937	23019.47
636.291	22906.7
636.645	22901.05
636.999	22879.36
637.352	22965.68
637.706	22783.99
638.06	22947.15
638.413	22831.45
638.767	22802.75
639.121	22846.14
639.474	22875.97
639.828	22640.49
640.181	22810.43
640.534	22775.63
640.888	22726.82
641.241	22635.75
641.594	22705.12
641.947	22743.31
642.301	22603.43
642.654	22670.55
643.007	22680.94
643.36	22566.37
643.713	22628.52
644.066	22804.56
644.419	22640.49
644.771	22575.18
645.124	22307.85
645.477	22294.06
645.83	22119.6
646.182	21978.59
646.535	21947.63
646.888	22008.64
647.24	21887.07
647.593	21935.65
647.945	22007.51
648.298	21797.8
648.65	21785.15
649.002	21783.11
649.355	21950.57
649.707	21883.9
650.059	22076.89
650.411	22224.68
650.763	22292.25
651.115	22646.14
651.467	22434.17
651.819	22438.01
652.171	22409.76
652.523	22432.36
652.875	22467.16
653.227	22254.97
653.578	22558.91
653.93	22526.6
654.282	22351.69
654.633	22263.1
654.985	22453.83
655.337	22384.23
655.688	22322.31
656.039	22471.01
656.391	22353.72
656.742	22422.64
657.094	22360.5
657.445	22462.42
657.796	22445.92
658.147	22432.59
658.498	22427.62
658.849	22438.46
659.2	22355.75
659.551	22415.41
659.902	22435.98
660.253	22381.74
660.604	22409.09
660.955	22344.45
661.306	22410.67
661.656	22475.98
662.007	22428.29
662.358	22448.86
662.708	22477.11
663.059	22488.86
663.409	22365.92
663.76	22539.48
664.11	22425.81
664.461	22510.1
664.811	22463.32
665.161	22496.32
665.511	22422.64
665.862	22542.42
666.212	22441.85
666.562	22580.83
666.912	22505.58
667.262	22390.33
667.612	22489.99
667.962	22571.34
668.312	22448.18
668.662	22658.57
669.011	22524.11
669.361	22458.58
669.711	22539.25
670.06	22415.41
670.41	22391.46
670.76	22367.28
671.109	22403.21
671.459	22426.94
671.808	22426.71
672.157	22357.34
672.507	22273.95
672.856	22351.46
673.205	22352.59
673.554	22418.8
673.904	22269.88
674.253	22404.34
674.602	22306.94
674.951	22035.08
675.3	21822.21
675.649	22173.16
675.998	22190.56
676.346	22206.83
676.695	22244.57
677.044	21992.6
677.393	22178.81
677.741	22186.27
678.09	22057
678.438	22046.16
678.787	22158.02
679.135	21983.33
679.484	22006.38
679.832	22039.83
680.181	21864.92
680.529	21969.32
680.877	21775.43
681.225	21842.32
681.573	21943.11
681.922	21819.72
682.27	21741.08
682.618	21762.32
682.966	21650.01
683.314	21725.94
683.661	21712.83
684.009	21456.57
684.357	21444.37
684.705	21377.93
685.053	21604.81
685.4	21475.1
685.748	21388.1
686.095	21296.8
686.443	21354.65
686.79	21164.15
687.138	21230.13
687.485	21248.44
687.832	21048.44
688.18	21055.68
688.527	21034.43
688.874	20935.45
689.221	20983.36
689.568	20837.38
689.915	20805.74
690.262	20796.7
690.609	20724.61
690.956	20673.54
691.303	20680.32
691.65	20503.37
691.997	20384.96
692.344	20357.84
692.69	20315.36
693.037	20279.65
693.383	20210.73
693.73	20256.83
694.077	20175.92
694.423	20094.57
694.769	19911.98
695.116	19953.78
695.462	19788.82
695.808	19834.01
696.155	19832.88
696.501	19674.02
696.847	19721.02
697.193	19576.84
697.539	19780.68
697.885	19470.18
698.231	19429.28
698.577	19325.33
698.923	19329.39
699.269	19165.33
699.614	19145.44
699.96	19130.53
700.306	19046.24
700.651	19103.64
700.997	18872.46
701.342	18829.97
701.688	18838.56
702.033	18718.56
702.379	18696.42
702.724	18607.6
703.069	18688.05
703.415	18465.23
703.76	18485.12
704.105	18509.3
704.45	18368.74
704.795	18322.87
705.14	18352.92
705.485	18197.45
705.83	18166.03
706.175	18106.37
706.52	18059.37
706.865	18042.87
707.209	17993.61
707.554	17856.66
707.899	17999.26
708.243	17809.43
708.588	17879.26
708.932	17670.23
709.277	17681.53
709.621	17716.33
709.966	17389.1
710.31	17541.19
710.654	17401.31
710.998	17337.58
711.342	17413.29
711.687	17323.12
712.031	17241.31
712.375	17257.81
712.719	17218.94
713.063	17194.99
713.407	17136.68
713.75	17129.22
714.094	17097.14
714.438	17002.22
714.782	17084.93
715.125	17018.49
715.469	17078.6
715.812	16890.13
716.156	16881.32
716.499	16899.85
716.843	16936.91
717.186	16789.35
717.53	16892.62
717.873	16905.95
718.216	16754.77
718.559	16696.47
718.902	16595.68
719.246	16556.81
719.589	16591.61
719.932	16555.91
720.275	16567.43
720.617	16443.14
720.96	16446.98
721.303	16449.47
721.646	16475.68
721.989	16386.65
722.331	16453.31
722.674	16431.62
723.016	16339.87
723.359	16334.9
723.701	16429.58
724.044	16156.14
724.386	16268.68
724.729	16285.86
725.071	16247.67
725.413	16185.97
725.755	16151.62
726.097	16171.74
726.439	16065.75
726.782	16068.69
727.124	16174.45
727.465	16078.63
727.807	16028.69
728.149	16016.94
728.491	16000.44
728.833	16132.87
729.175	16023.94
729.516	15988.01
729.858	16079.31
730.199	16016.03
730.541	15924.28
730.882	15889.26
731.224	15957.28
731.565	15959.99
731.906	15957.28
732.248	15882.93
732.589	15885.87
732.93	15806.1
733.271	15896.94
733.612	15836.38
733.953	15887.9
734.294	15841.57
734.635	15802.93
734.976	15830.73
735.317	15752.09
735.658	15818.98
735.999	15803.38
736.339	15779.66
736.68	15799.99
737.021	15866.89
737.361	15784.63
737.702	15834.8
738.042	15810.16
738.383	15847
738.723	15852.65
739.063	15823.27
739.404	15942.36
739.744	15825.3
740.084	15885.64
740.424	15844.29
740.764	15845.87
741.104	15912.99
741.444	15730.62
741.784	15894.91
742.124	15944.85
742.464	15906.66
742.804	15871.18
743.143	15867.79
743.483	15986.66
743.823	15879.77
744.162	15833.21
744.502	15974
744.841	15843.61
745.181	16007.22
745.52	16061.68
745.86	16087.67
746.199	16039.08
746.538	16137.39
746.877	16158.18
747.216	16265.97
747.556	16194.79
747.895	16329.92
748.234	16307.1
748.573	16394.33
748.911	16394.33
749.25	16629.35
749.589	16544.83
749.928	16654.21
750.267	16694.89
750.605	16769.91
750.944	16800.87
751.283	16832.51
751.621	16993.18
751.96	16983.47
752.298	17124.93
752.636	17186.4
752.975	17252.39
753.313	17267.75
753.651	17469.1
753.989	17469.55
754.327	17643.79
754.666	17658.7
755.004	17798.36
755.342	17813.73
755.679	18039.71
756.017	17986.6
756.355	18272.25
756.693	18285.58
757.031	18380.49
757.368	18466.82
757.706	18654.38
758.044	18719.01
758.381	18767.6
758.719	18890.99
759.056	18982.51
759.394	19101.83
759.731	19140.7
760.068	19235.84
760.405	19363.52
760.743	19453.01
761.08	19543.17
761.417	19711.3
761.754	19707.91
762.091	19836.5
762.428	19888.93
762.765	19961.92
763.102	20034.69
763.438	20132.54
763.775	20248.24
764.112	20231.29
764.449	20517.61
764.785	20414.56
765.122	20538.63
765.458	20482.58
765.795	20671.28
766.131	20646.42
766.467	20738.85
766.804	20720.09
767.14	20817.72
767.476	20886.41
767.812	20853.19
768.148	20961.21
768.485	20943.14
768.821	21010.7
769.157	21038.05
769.492	21040.76
769.828	21101.32
770.164	20963.02
770.5	21087.09
770.836	21103.58
771.171	21021.55
771.507	21139.29
771.842	21016.35
772.178	21057.03
772.513	21066.52
772.849	21062.68
773.184	21102.23
773.519	21097.93
773.855	21067.88
774.19	21033.08
774.525	20997.82
774.86	21067.65
775.195	21094.32
775.53	21099.29
775.865	20946.07
776.2	20925.28
776.535	20833.31
776.87	20738.4
777.205	20923.02
777.539	20866.75
777.874	20917.6
778.209	20657.95
778.543	20773.87
778.878	20607.55
779.212	20676.93
779.547	20509.93
779.881	20663.37
780.215	20561.9
780.55	20568.46
780.884	20433.54
781.218	20471.96
781.552	20474.45
781.886	20336.37
782.22	20290.72
782.554	20187.22
782.888	20061.13
783.222	20031.52
783.556	19980.45
783.889	19963.05
784.223	19955.82
784.557	19880.56
784.89	19899.55
785.224	19905.2
785.557	19845.09
785.891	19725.77
786.224	19704.3
786.558	19691.19
786.891	19506.79
787.224	19477.19
787.557	19427.02
787.891	19369.62
788.224	19323.52
788.557	19393.35
788.89	19310.18
789.223	19235.61
789.556	19216.63
789.888	19072.22
790.221	19058.89
790.554	18951.55
790.887	18929.86
791.219	18895.73
791.552	18900.48
791.884	18756.53
792.217	18683.08
792.549	18729.41
792.882	18601.73
793.214	18501.84
793.546	18480.15
793.879	18448.51
794.211	18315.18
794.543	18476.08
794.875	18228.4
795.207	18443.99
795.539	18272.92
795.871	18210.78
796.203	18159.25
796.535	18063.44
796.867	17993.61
797.198	17911.58
797.53	17912.71
797.862	17770.56
798.193	17763.11
798.525	17658.7
798.856	17709.32
799.188	17608.31
799.519	17497.12
799.85	17383.23
800.182	17421.19
800.513	17519.05
800.844	17341.2
801.175	17451.25
801.506	17287.19
801.837	17326.51
802.168	17224.36
802.499	17175.1
802.83	17133.74
803.161	17056.23
803.491	17017.36
803.822	17061.43
804.153	16941.21
804.483	16833.87
804.814	16833.19
805.145	16813.3
805.475	16770.82
805.805	16607.43
806.136	16660.54
806.466	16604.04
806.796	16579.18
807.126	16546.64
807.457	16416.25
807.787	16479.3
808.117	16344.39
808.447	16254.67
808.777	16282.02
809.107	16237.04
809.436	16219.64
809.766	16180.32
810.096	16119.08
810.426	16080.44
810.755	16103.94
811.085	16005.86
811.414	16036.82
811.744	15876.6
812.073	15849.03
812.403	15847.22
812.732	15734.46
813.061	15831.63
813.39	15741.46
813.719	15706.66
814.049	15699.21
814.378	15721.13
814.707	15659.43
815.036	15607.68
815.365	15599.77
815.693	15482.26
816.022	15375.6
816.351	15320.01
816.68	15306
817.008	15395.26
817.337	15223.96
817.665	15207.69
817.994	15170.63
818.322	15193.91
818.651	15065.55
818.979	15070.75
819.307	15125.89
819.636	15044.31
819.964	14953.91
820.292	15034.36
820.62	15003.4
820.948	14964.31
821.276	15048.6
821.604	14919.79
821.932	14937.19
822.259	14974.25
822.587	14965.67
822.915	14810.87
823.243	14908.27
823.57	14889.51
823.898	14933.8
824.225	14788.95
824.553	14840.47
824.88	14823.75
825.207	14935.61
825.535	14909.17
825.862	14904.65
826.189	14884.99
826.516	14965.21
826.843	15011.99
827.17	14887.02
827.497	14960.69
827.824	14862.17
828.151	14978.09
828.478	14892
828.805	14931.09
829.131	14907.14
829.458	14849.51
829.785	14893.8
830.111	14886.57
830.438	14985.78
830.764	14913.69
831.09	14960.92
831.417	14801.38
831.743	14881.6
832.069	14815.61
832.395	14807.03
832.722	14792.34
833.048	14718.21
833.374	14776.07
833.7	14749.4
834.026	14639.35
834.351	14843.18
834.677	14736.29
835.003	14746.01
835.329	14720.25
835.654	14655.39
835.98	14619.01
836.306	14647.26
836.631	14603.87
836.956	14660.14
837.282	14593.25
837.607	14533.59
837.932	14508.05
838.258	14499.69
838.583	14473.25
838.908	14442.06
839.233	14397.55
839.558	14302.63
839.883	14384.89
840.208	14200.49
840.533	14362.29
840.858	14344.44
841.182	14256.98
841.507	14230.32
841.832	14190.77
842.156	14151.45
842.481	14206.14
842.805	14105.8
843.13	14125.69
843.454	14051.34
843.778	14045.24
844.103	13987.39
844.427	13921.63
844.751	13910.78
845.075	13890.44
845.399	13858.12
845.723	13800.95
846.047	13821.97
846.371	13699.94
846.695	13692.48
847.019	13642.31
847.343	13442.77
847.666	13497.91
847.99	13432.15
848.313	13354.18
848.637	13282.32
848.96	13278.7
849.284	13262.21
849.607	13171.36
849.931	13121.87
850.254	13007.53
850.577	13020.41
850.9	12885.95
851.223	12908.09
851.546	12800.53
851.869	12760.53
852.192	12809.79
852.515	12707.65
852.838	12647.76
853.161	12583.81
853.483	12563.7
853.806	12505.84
854.129	12439.18
854.451	12423.13
854.774	12353.76
855.096	12360.76
855.419	12367.09
855.741	12248.22
856.063	12151.28
856.385	12190.6
856.708	12123.71
857.03	12187.21
857.352	12099.75
857.674	11980.66
857.996	12029.47
858.318	11882.58
858.64	12016.59
858.961	11935.24
859.283	11872.87
859.605	11843.04
859.926	11882.36
860.248	11803.94
860.57	11744.51
860.891	11800.78
861.212	11714.45
861.534	11636.26
861.855	11595.36
862.176	11669.48
862.498	11613.66
862.819	11624.74
863.14	11597.62
863.461	11556.94
863.782	11485.98
864.103	11542.93
864.424	11435.14
864.745	11463.39
865.065	11397.17
865.386	11396.04
865.707	11386.1
866.027	11315.14
866.348	11336.83
866.668	11327.12
866.989	11317.17
867.309	11158.76
867.63	11269.27
867.95	11154.69
868.27	11058.2
868.59	11203.96
868.91	11137.52
869.23	11097.29
869.55	11048.71
869.87	11226.33
870.19	11132.32
870.51	11104.98
870.83	11080.8
871.15	10945.66
871.469	11009.61
871.789	11003.96
872.109	10947.24
872.428	10830.63
872.748	10981.36
873.067	10988.37
873.386	10941.59
873.706	10961.25
874.025	10844.19
874.344	10846.23
874.663	10874.7
874.982	10808.04
875.301	10765.55
875.62	10719.45
875.939	10753.12
876.258	10731.2
876.577	10691.88
876.896	10727.59
877.214	10651.65
877.533	10732.1
877.852	10653.24
878.17	10677.19
878.489	10606.68
878.807	10594.03
879.125	10604.2
879.444	10604.42
879.762	10570.53
880.08	10603.07
880.398	10539.12
880.716	10505.22
881.034	10500.02
881.352	10437.2
881.67	10501.15
881.988	10400.59
882.306	10350.19
882.624	10367.37
882.941	10277.88
883.259	10208.5
883.577	10302.06
883.894	10314.04
884.212	10263.19
884.529	10214.38
884.846	10186.13
885.164	10194.72
885.481	10150.88
885.798	10192.23
886.115	10090.77
886.432	10103.19
886.75	10046.25
887.067	10058.68
887.383	9958.79
887.7	10007.6
888.017	9944.55
888.334	9933.93
888.651	9949.98
888.967	9921.05
889.284	9847.16
889.6	9795.41
889.917	9753.6
890.233	9753.6
890.55	9650.55
890.866	9717.22
891.182	9693.26
891.498	9617.33
891.815	9538.69
892.131	9580.95
892.447	9535.3
892.763	9508.63
893.079	9482.65
893.395	9423.21
893.71	9401.74
894.026	9429.31
894.342	9412.82
894.657	9348.64
894.973	9338.7
895.289	9300.05
895.604	9240.62
895.92	9211.01
896.235	9169.43
896.55	9154.52
896.865	9132.15
897.181	9108.87
897.496	9166.5
897.811	9000.17
898.126	9017.35
898.441	8936.9
898.756	9019.38
899.071	8890.8
899.386	8902.55
899.7	8824.81
900.015	8841.08
900.33	8794.75
900.644	8709.56
900.959	8798.82
901.273	8660.07
901.588	8698.26
901.902	8661.65
902.216	8595.66
902.531	8577.81
902.845	8580.3
903.159	8505.04
903.473	8444.26
903.787	8401.77
904.101	8402.9
904.415	8390.47
904.729	8350.02
905.042	8268.44
905.356	8267.31
905.67	8301.43
905.984	8227.99
906.297	8213.98
906.611	8138.27
906.924	8124.94
907.237	8140.08
907.551	8076.13
907.864	8069.12
908.177	8047.2
908.491	8048.11
908.804	7963.82
909.117	7866.19
909.43	7856.7
909.743	7814.44
910.056	7818.28
910.368	7762.24
910.681	7759.3
910.994	7739.87
911.307	7664.39
911.619	7676.82
911.932	7649.25
912.244	7623.94
912.557	7619.42
912.869	7515.92
913.181	7472.3
913.494	7540.55
913.806	7411.74
914.118	7431.4
914.43	7404.28
914.742	7370.39
915.054	7334.23
915.366	7310.05
915.678	7211.97
915.99	7232.08
916.302	7188.7
916.613	7179.66
916.925	7182.14
917.236	7137.85
917.548	7051.07
917.859	7095.14
918.171	6994.8
918.482	6958.64
918.794	7000.68
919.105	6881.81
919.416	6888.82
919.727	6898.76
920.038	6872.77
920.349	6801.36
920.66	6779.21
920.971	6800.46
921.282	6780.12
921.593	6757.07
921.903	6675.94
922.214	6658.54
922.525	6609.73
922.835	6609.05
923.146	6547.36
923.456	6571.31
923.767	6477.3
924.077	6486.79
924.387	6446.12
924.697	6447.02
925.008	6385.55
925.318	6364.31
925.628	6312.11
925.938	6272.79
926.248	6268.95
926.558	6256.29
926.867	6250.19
927.177	6259
927.487	6186.69
927.796	6139.91
928.106	6141.27
928.416	6161.6
928.725	6119.8
929.034	6043.19
929.344	6056.75
929.653	6008.84
929.962	6026.47
930.271	5933.36
930.581	5944.89
930.89	5909.41
931.199	5868.73
931.508	5876.87
931.817	5877.32
932.125	5853.82
932.434	5807.94
932.743	5742.41
933.051	5722.29
933.36	5675.97
933.669	5666.25
933.977	5673.48
934.286	5674.38
934.594	5598.45
934.902	5573.37
935.21	5548.06
935.519	5543.99
935.827	5503.99
936.135	5509.87
936.443	5473.94
936.751	5370.21
937.059	5409.08
937.367	5417.44
937.674	5338.12
937.982	5356.65
938.29	5379.48
938.597	5306.48
938.905	5260.84
939.213	5226.71
939.52	5253.83
939.827	5208.86
940.135	5208.41
940.442	5136.32
940.749	5147.39
941.056	5170.22
941.363	5089.09
941.67	5021.97
941.977	5042.76
942.284	5049.99
942.591	5011.58
942.898	4973.16
943.205	4993.27
943.511	4974.74
943.818	4930.45
944.125	4919.15
944.431	4891.58
944.738	4885.25
945.044	4899.26
945.35	4848.19
945.657	4781.75
945.963	4809.77
946.269	4705.14
946.575	4734.3
946.881	4712.83
947.187	4702.66
947.493	4677.35
947.799	4664.47
948.105	4601.64
948.41	4616.11
948.716	4671.02
949.022	4595.32
949.327	4542.66
949.633	4535.43
949.938	4531.59
950.244	4519.84
950.549	4428.09
950.854	4476.68
951.16	4441.87
951.465	4439.16
951.77	4385.83
952.075	4391.25
952.38	4384.02
952.685	4381.76
952.99	4313.74
953.294	4359.17
953.599	4297.92
953.904	4258.6
954.209	4214.08
954.513	4242.56
954.818	4194.42
955.122	4207.08
955.426	4179.06
955.731	4166.18
956.035	4140.19
956.339	4130.92
956.643	4092.96
956.948	4072.84
957.252	4087.31
957.556	4035.33
957.86	4055.22
958.163	4027.65
958.467	3993.52
958.771	4003.92
959.075	3944.26
959.378	3927.09
959.682	3942.23
959.985	3918.95
960.289	3874.43
960.592	3904.04
960.896	3830.82
961.199	3848.22
961.502	3810.93
961.805	3788.56
962.108	3840.99
962.411	3765.06
962.714	3753.08
963.017	3747.43
963.32	3750.82
963.623	3721.44
963.926	3704.94
964.228	3679.63
964.531	3709.24
964.833	3670.82
965.136	3656.58
965.438	3618.62
965.741	3591.95
966.043	3599.41
966.345	3535.01
966.648	3585.4
966.95	3553.08
967.252	3538.17
967.554	3527.55
967.856	3526.64
968.158	3508.11
968.46	3478.96
968.761	3444.84
969.063	3420.66
969.365	3450.94
969.666	3418.17
969.968	3387.21
970.269	3399.19
970.571	3362.13
970.872	3382.69
971.174	3300.66
971.475	3290.94
971.776	3340.43
972.077	3299.53
972.378	3273.77
972.679	3251.62
972.98	3245.97
973.281	3224.05
973.582	3236.71
973.883	3178.18
974.183	3137.05
974.484	3163.04
974.785	3131.4
975.085	3139.54
975.386	3118.07
975.686	3100.67
975.986	3095.47
976.287	3095.02
976.587	3054.34
976.887	3083.49
977.187	3051.18
977.487	3041.69
977.787	3021.8
978.087	2998.52
978.387	2991.74
978.687	2992.2
978.987	2930.95
979.286	2926.21
979.586	2926.21
979.885	2946.32
980.185	2866.77
980.484	2874.46
980.784	2925.3
981.083	2868.58
981.382	2903.61
981.682	2858.41
981.981	2854.8
982.28	2797.62
982.579	2788.81
982.878	2813.89
983.177	2775.25
983.475	2805.08
983.774	2751.52
984.073	2762.82
984.372	2749.94
984.67	2738.19
984.969	2693.9
985.267	2673.56
985.566	2692.09
985.864	2672.88
986.162	2678.76
986.461	2618.65
986.759	2631.53
987.057	2608.02
987.355	2590.4
987.653	2605.99
987.951	2613.9
988.249	2610.06
988.547	2563.73
988.844	2555.14
989.142	2559.44
989.44	2523.06
989.737	2495.03
990.035	2494.81
990.332	2474.92
990.63	2473.79
990.927	2470.85
991.224	2471.53
991.521	2471.98
991.819	2465.43
992.116	2421.59
992.413	2453.9
992.71	2391.53
993.006	2396.05
993.303	2390.18
993.6	2373.45
993.897	2406.9
994.193	2335.94
994.49	2328.94
994.787	2297.07
995.083	2299.33
995.379	2303.17
995.676	2286.45
995.972	2261.14
996.268	2271.54
996.565	2273.8
996.861	2254.59
997.157	2257.98
997.453	2207.81
997.749	2216.17
998.044	2225.89
998.34	2215.04
998.636	2173.23
998.932	2163.97
999.227	2155.16
999.523	2161.03
999.818	2131.43
1000.114	2171.2
1000.409	2107.92
1000.704	2130.52
1001	2115.83
1001.295	2062.28
1001.59	2076.74
1001.885	2084.87
1002.18	2057.98
1002.475	2043.07
1002.77	2025.67
1003.065	1990.87
1003.359	1996.97
1003.654	2002.62
1003.949	1962.84
1004.243	1955.16
1004.538	1973.69
1004.832	1951.54
1005.127	1949.74
1005.421	1947.93
1005.715	1924.65
1006.009	1932.11
1006.304	1888.72
1006.598	1872.68
1006.892	1847.37
1007.186	1846.69
1007.48	1851.89
1007.773	1821.83
1008.067	1819.57
1008.361	1818.44
1008.655	1817.08
1008.948	1802.62
1009.242	1792
1009.535	1766.92
1009.829	1762.17
1010.122	1762.17
1010.415	1774.83
1010.708	1730.31
1011.001	1726.92
1011.295	1714.71
1011.588	1720.14
1011.881	1685.34
1012.173	1683.76
1012.466	1684.43
1012.759	1684.89
1013.052	1647.37
1013.344	1638.11
1013.637	1637.43
1013.93	1610.31
1014.222	1635.39
1014.514	1612.12
1014.807	1628.84
1015.099	1574.83
1015.391	1618.67
1015.683	1551.78
1015.976	1566.47
1016.268	1579.8
1016.56	1533.02
1016.851	1533.25
1017.143	1509.3
1017.435	1492.35
1017.727	1515.85
1018.018	1468.62
1018.31	1454.38
1018.602	1479.01
1018.893	1462.97
1019.185	1456.19
1019.476	1468.62
1019.767	1430.65
1020.058	1412.8
1020.35	1400.6
1020.641	1428.62
1020.932	1409.19
1021.223	1393.37
1021.514	1389.3
1021.804	1375.51
1022.095	1350.66
1022.386	1354.27
1022.677	1357.66
1022.967	1357.89
1023.258	1339.36
1023.548	1344.56
1023.839	1298.91
1024.129	1322.18
1024.419	1304.78
1024.709	1308.4
1025	1277.89
1025.29	1247.61
1025.58	1260.04
1025.87	1265.46
1026.16	1276.08
1026.449	1241.96
1026.739	1211.9
1027.029	1229.08
1027.319	1205.8
1027.608	1214.84
1027.898	1213.94
1028.187	1213.26
1028.477	1173.03
1028.766	1185.24
1029.055	1148.18
1029.344	1164.22
1029.634	1187.27
1029.923	1167.84
1030.212	1143.66
1030.501	1148.85
1030.79	1119.93
1031.078	1137.1
1031.367	1125.35
1031.656	1115.18
1031.945	1095.07
1032.233	1082.19
1032.522	1101.4
1032.81	1079.7
1033.099	1065.47
1033.387	1074.73
1033.675	1061.17
1033.963	1045.13
1034.251	1038.8
1034.54	1018.46
1034.828	1010.33
1035.116	1026.6
1035.403	1030.89
1035.691	1032.47
1035.979	1008.07
1036.267	1011.68
1036.554	992.7
1036.842	976.2
1037.129	1002.87
1037.417	972.81
1037.704	964
1037.992	966.94
1038.279	945.92
1038.566	940.72
1038.853	940.72
1039.14	940.72
