Data from hue_280_FLMS001491_00060.txt Node
Date: Tue Feb 07 15:55:29 GMT 2017
User: dcchb
Spectrometer: FLMS00149
Trigger mode: 0
Integration Time (sec): 2.000000E-2
Scans to average: 10
Electric dark correction enabled: true
Nonlinearity correction enabled: false
Boxcar width: 0
XAxis mode: Wavelengths
Number of Pixels in Spectrum: 2048
>>>>>Begin Spectral Data<<<<<
341.393	-24.45
341.776	-24.45
342.16	-24.45
342.543	-64.67
342.927	-73.94
343.31	-61.51
343.693	-56.99
344.077	-47.5
344.46	-57.89
344.843	-47.95
345.226	-67.61
345.61	-46.14
345.993	-26.26
346.376	-0.04
346.759	-7.27
347.142	29.79
347.525	51.26
347.908	62.78
348.291	59.39
348.674	94.87
349.057	121.08
349.44	137.13
349.823	119.73
350.206	162.89
350.588	183.68
350.971	201.76
351.354	220.52
351.737	227.3
352.119	234.75
352.502	242.21
352.884	248.31
353.267	279.95
353.65	260.29
354.032	288.99
354.414	296.67
354.797	304.13
355.179	328.31
355.562	310.68
355.944	330.34
356.326	347.75
356.709	308.65
357.091	331.25
357.473	317.46
357.855	336.9
358.238	339.61
358.62	327.18
359.002	341.42
359.384	317.69
359.766	338.93
360.148	340.29
360.53	335.99
360.912	339.61
361.294	330.8
361.676	331.47
362.057	323.79
362.439	314.75
362.821	319.27
363.203	342.32
363.584	318.37
363.966	340.51
364.348	312.94
364.729	310.23
365.111	288.31
365.493	313.85
365.874	310.23
366.256	312.72
366.637	325.82
367.019	312.72
367.4	297.12
367.781	299.16
368.163	326.05
368.544	314.07
368.925	297.8
369.306	307.29
369.688	287.63
370.069	301.19
370.45	302.55
370.831	306.39
371.212	313.85
371.593	309.33
371.974	324.69
372.355	276.79
372.736	318.82
373.117	297.58
373.498	306.84
373.879	308.42
374.26	318.82
374.641	311.59
375.021	303.23
375.402	306.39
375.783	319.05
376.163	319.27
376.544	334.86
376.925	324.47
377.305	330.57
377.686	317.24
378.066	319.95
378.447	294.64
378.827	328.99
379.208	342.1
379.588	335.54
379.968	341.42
380.349	343.45
380.729	336.9
381.109	336.9
381.489	337.35
381.87	324.92
382.25	335.09
382.63	343.68
383.01	343
383.39	352.94
383.77	342.55
384.15	345.71
384.53	353.39
384.91	371.7
385.29	346.39
385.67	352.72
386.049	332.38
386.429	359.04
386.809	362.89
387.189	369.89
387.568	375.31
387.948	367.41
388.328	369.21
388.707	357.24
389.087	385.71
389.466	373.96
389.846	352.04
390.225	390.91
390.605	388.42
390.984	371.7
391.363	360.85
391.743	382.32
392.122	376.44
392.501	360.4
392.881	388.87
393.26	402.21
393.639	384.13
394.018	364.69
394.397	396.11
394.776	395.65
395.155	393.62
395.534	391.13
395.913	420.51
396.292	409.66
396.671	416.22
397.05	395.65
397.429	420.29
397.808	439.72
398.186	405.37
398.565	418.93
398.944	396.56
399.323	423
399.701	425.71
400.08	429.78
400.458	443.34
400.837	417.8
401.215	421.19
401.594	420.06
401.972	411.25
402.351	442.43
402.729	445.14
403.107	452.38
403.486	425.48
403.864	456.22
404.242	435.43
404.62	451.47
404.999	443.34
405.377	466.16
405.755	488.08
406.133	471.58
406.511	468.19
406.889	482.88
407.267	510.68
407.645	502.32
408.023	510.9
408.401	499.38
408.779	496.89
409.156	481.75
409.534	525.82
409.912	517.01
410.29	534.63
410.667	549.32
411.045	528.76
411.422	557.01
411.8	562.65
412.178	581.19
412.555	571.69
412.933	579.83
413.31	581.19
413.687	589.09
414.065	584.58
414.442	613.73
414.819	597.46
415.197	630
415.574	639.49
415.951	631.35
416.328	651.47
416.705	657.79
417.082	676.78
417.46	664.8
417.837	670.22
418.214	681.97
418.591	688.98
418.967	696.21
419.344	708.41
419.721	695.08
420.098	699.15
420.475	719.71
420.852	744.34
421.228	748.19
421.605	759.94
421.982	750.22
422.358	770.11
422.735	787.51
423.111	773.72
423.488	824.34
423.864	784.8
424.241	804.23
424.617	845.13
424.994	800.84
425.37	831.12
425.746	851.01
426.123	866.38
426.499	863.66
426.875	875.41
427.251	912.93
427.627	906.6
428.003	928.29
428.379	949.54
428.756	940.27
429.132	953.83
429.507	964.45
429.883	984.11
430.259	990.44
430.635	996.09
431.011	996.32
431.387	1024.79
431.763	1053.26
432.138	1034.28
432.514	1048.52
432.89	1071.34
433.265	1068.4
433.641	1113.6
434.016	1126.48
434.392	1119.25
434.767	1144.56
435.143	1155.86
435.518	1191.11
435.894	1179.36
436.269	1199.25
436.644	1223.65
437.02	1236.08
437.395	1246.03
437.77	1236.31
438.145	1289.19
438.52	1293.26
438.895	1292.8
439.271	1305.91
439.646	1345.68
440.021	1378
440.395	1356.53
440.77	1358.57
441.145	1356.53
441.52	1396.53
441.895	1385.01
442.27	1422.97
442.645	1435.4
443.019	1469.75
443.394	1439.24
443.769	1425.23
444.143	1446.47
444.518	1489.41
444.892	1469.07
445.267	1475.63
445.641	1490.54
446.016	1501.61
446.39	1502.29
446.764	1532.57
447.139	1520.6
447.513	1543.19
447.887	1541.84
448.262	1539.8
448.636	1563.53
449.01	1596.3
449.384	1570.54
449.758	1620.25
450.132	1627.49
450.506	1621.38
450.88	1628.62
451.254	1625.23
451.628	1631.33
452.002	1666.35
452.376	1667.71
452.75	1662.06
453.123	1701.38
453.497	1700.7
453.871	1745.45
454.244	1737.09
454.618	1751.55
454.992	1794.49
455.365	1785.45
455.739	1779.8
456.112	1801.04
456.486	1816.41
456.859	1863.64
457.232	1897.31
457.606	1907.48
457.979	1896.4
458.352	1895.73
458.725	1934.37
459.099	1925.33
459.472	1969.85
459.845	1998.78
460.218	1996.74
460.591	2034.03
460.964	2014.14
461.337	2060.02
461.71	2052.56
462.083	2111.09
462.456	2119.9
462.829	2120.13
463.201	2183.4
463.574	2179.11
463.947	2182.5
464.32	2245.32
464.692	2232.67
465.065	2249.84
465.438	2255.49
465.81	2320.35
466.183	2316.73
466.555	2365.09
466.928	2357.41
467.3	2344.98
467.672	2392.44
468.045	2448.71
468.417	2432.21
468.789	2462.04
469.161	2489.16
469.534	2492.77
469.906	2570.06
470.278	2592.43
470.65	2561.7
471.022	2623.62
471.394	2644.63
471.766	2689.83
472.138	2678.08
472.51	2746.33
472.882	2780.45
473.253	2804.18
473.625	2829.26
473.997	2881.92
474.369	2873.78
474.74	2963.95
475.112	2973.66
475.484	3041.69
475.855	3073.32
476.227	3063.15
476.598	3120.1
476.97	3160.33
477.341	3195.81
477.713	3234.45
478.084	3254.79
478.455	3349.93
478.827	3354.45
479.198	3443.48
479.569	3430.83
479.94	3472.41
480.311	3544.72
480.682	3583.82
481.053	3658.62
481.424	3733.42
481.795	3738.16
482.166	3768.45
482.537	3812.96
482.908	3844.15
483.279	3906.07
483.65	3948.33
484.021	3955.33
484.391	4047.08
484.762	4060.87
485.133	4069.46
485.503	4138.15
485.874	4198.49
486.244	4251.37
486.615	4265.83
486.985	4356.45
487.356	4439.16
487.726	4448.88
488.097	4498.14
488.467	4466.51
488.837	4596.9
489.207	4668.99
489.578	4705.37
489.948	4717.12
490.318	4724.58
490.688	4768.87
491.058	4830.57
491.428	4890.68
491.798	4930.9
492.168	5041.41
492.538	4985.36
492.908	5133.61
493.278	5111.24
493.648	5136.09
494.017	5228.75
494.387	5172.25
494.757	5250.89
495.126	5320.95
495.496	5294.28
495.866	5328.86
496.235	5399.14
496.605	5407.73
496.974	5484.11
497.344	5461.73
497.713	5495.86
498.082	5521.39
498.452	5584.67
498.821	5554.61
499.19	5577.89
499.559	5626.48
499.928	5650.88
500.298	5699.69
500.667	5747.6
501.036	5707.38
501.405	5814.49
501.774	5768.85
502.143	5817.66
502.512	5845
502.88	5895.17
503.249	5879.35
503.618	5918.67
503.987	5939.69
504.356	6022.17
504.724	5992.79
505.093	5979.91
505.462	6018.33
505.83	6051.55
506.199	6096.97
506.567	6157.31
506.936	6123.86
507.304	6145.56
507.672	6219.91
508.041	6208.83
508.409	6256.06
508.777	6263.97
509.145	6320.47
509.514	6318.21
509.882	6394.59
510.25	6364.31
510.618	6393.91
510.986	6342.39
511.354	6468.04
511.722	6452.44
512.09	6515.04
512.458	6534.25
512.826	6574.93
513.193	6565.43
513.561	6596.39
513.929	6600.69
514.297	6669.39
514.664	6689.05
515.032	6746.67
515.4	6710.29
515.767	6698.09
516.135	6799.55
516.502	6709.39
516.869	6865.31
517.237	6870.06
517.604	6854.47
517.972	6879.55
518.339	6881.36
518.706	6900.12
519.073	6908.25
519.44	6943.5
519.808	6965.2
520.175	6986.21
520.542	7018.08
520.909	7110.51
521.276	7044.74
521.643	7116.15
522.009	7139.88
522.376	7162.48
522.743	7202.71
523.11	7273.66
523.477	7303.72
523.843	7339.2
524.21	7365.41
524.577	7364.51
524.943	7440.89
525.31	7466.65
525.676	7508.69
526.043	7556.82
526.409	7591.85
526.776	7621.23
527.142	7581.23
527.508	7690.15
527.874	7726.53
528.241	7777.83
528.607	7691.28
528.973	7828.9
529.339	7777.83
529.705	7868
530.071	7895.57
530.437	7952.74
530.803	7984.38
531.169	8018.96
531.535	8028.22
531.901	7977.37
532.267	8032.51
532.632	8146.64
532.998	8120.65
533.364	8080.42
533.73	8168.56
534.095	8238.39
534.461	8213.75
534.826	8231.83
535.192	8226.86
535.557	8355.9
535.923	8314.09
536.288	8387.31
536.653	8384.82
537.019	8306.18
537.384	8363.35
537.749	8439.28
538.114	8440.41
538.479	8461.43
538.845	8475.67
539.21	8431.6
539.575	8485.38
539.94	8546.17
540.305	8571.71
540.67	8515.21
541.034	8568.09
541.399	8556.34
541.764	8587.75
542.129	8637.47
542.494	8647.64
542.858	8657.58
543.223	8684.02
543.587	8701.2
543.952	8768.77
544.316	8779.61
544.681	8802.21
545.045	8774.87
545.41	8837.01
545.774	8840.86
546.138	8868.65
546.503	8883.57
546.867	8912.27
547.231	8897.35
547.595	8993.85
547.959	9001.98
548.324	8938.71
548.688	8970.8
549.052	9068.65
549.416	9045.37
549.779	9028.87
550.143	9067.29
550.507	9104.13
550.871	9102.09
551.235	9079.27
551.599	9169.89
551.962	9220.28
552.326	9216.44
552.689	9224.12
553.053	9189.77
553.417	9220.28
553.78	9352.03
554.143	9248.08
554.507	9335.08
554.87	9300.28
555.234	9403.1
555.597	9411.46
555.96	9400.39
556.323	9442.87
556.686	9393.83
557.05	9439.26
557.413	9500.05
557.776	9489.88
558.139	9640.16
558.502	9614.39
558.865	9579.59
559.228	9618.69
559.59	9659.36
559.953	9668.4
560.316	9793.6
560.679	9770.32
561.041	9802.19
561.404	9830.66
561.767	9955.63
562.129	9871.11
562.492	9926.7
562.854	9903.88
563.217	9971.45
563.579	9946.14
563.941	10056.19
564.304	10050.09
564.666	10097.09
565.028	10219.58
565.39	10168.28
565.753	10224.77
566.115	10291.66
566.477	10238.11
566.839	10331.44
567.201	10349.52
567.563	10326.47
567.925	10340.48
568.287	10366.46
568.648	10501.83
569.01	10486.69
569.372	10657.08
569.734	10551.32
570.095	10591.32
570.457	10648.72
570.819	10683.97
571.18	10697.3
571.542	10737.08
571.903	10789.05
572.265	10814.81
572.626	10889.84
572.987	10864.3
573.349	11008.03
573.71	10961.93
574.071	10941.14
574.432	11050.06
574.794	11157.86
575.155	11157.4
575.516	11142.26
575.877	11172.77
576.238	11215.48
576.599	11288.47
576.96	11341.13
577.32	11339.09
577.681	11424.29
578.042	11435.14
578.403	11440.11
578.763	11523.72
579.124	11550.84
579.485	11584.74
579.845	11695.92
580.206	11673.55
580.566	11710.16
580.927	11747.45
581.287	11814.34
581.648	11831.51
582.008	11973.2
582.368	11949.25
582.728	12031.28
583.089	12111.73
583.449	12097.04
583.809	12190.6
584.169	12282.57
584.529	12305.62
584.889	12407.32
585.249	12359.41
585.609	12386.52
585.969	12500.65
586.329	12542.9
586.688	12610.93
587.048	12704.93
587.408	12727.53
587.768	12780.86
588.127	12771.15
588.487	12960.07
588.846	13054.3
589.206	13009.33
589.565	13130.91
589.925	13120.97
590.284	13142.21
590.643	13296.56
591.003	13403
591.362	13486.83
591.721	13487.06
592.08	13575.42
592.44	13718.92
592.799	13679.15
593.158	13682.08
593.517	13855.19
593.876	13915.52
594.235	13975.41
594.593	13975.18
594.952	14001.17
595.311	14034.39
595.67	14146.25
596.029	14230.09
596.387	14242.75
596.746	14379.47
597.104	14399.8
597.463	14410.2
597.822	14475.96
598.18	14481.16
598.538	14543.76
598.897	14666.92
599.255	14638.22
599.613	14918.44
599.972	14859.23
600.33	14892.67
600.688	14858.55
601.046	15013.57
601.404	14999.79
601.762	15118.88
602.12	15197.98
602.478	15126.79
602.836	15235.26
603.194	15245.66
603.552	15295.37
603.91	15329.27
604.268	15340.8
604.625	15365.2
604.983	15416.05
605.341	15403.39
605.698	15524.07
606.056	15576.72
606.413	15555.25
606.771	15609.04
607.128	15682.71
607.485	15596.16
607.843	15630.73
608.2	15752.54
608.557	15912.76
608.914	15808.36
609.272	15892.65
609.629	15894.91
609.986	16024.17
610.343	15965.41
610.7	16136.48
611.057	16094.9
611.414	16162.47
611.771	16086.54
612.127	16215.12
612.484	16111.62
612.841	16323.37
613.198	16239.98
613.554	16258.06
613.911	16390.94
614.267	16373.99
614.624	16398.85
614.98	16447.89
615.337	16472.29
615.693	16502.8
616.05	16453.76
616.406	16561.33
616.762	16529.92
617.118	16572.86
617.475	16482.69
617.831	16640.42
618.187	16646.98
618.543	16621.89
618.899	16790.02
619.255	16715.68
619.611	16646.75
619.967	16672.29
620.323	16843.81
620.678	16722.46
621.034	16767.65
621.39	16764.04
621.746	16786.86
622.101	16960.87
622.457	16806.75
622.812	16872.06
623.168	17014.2
623.523	16838.61
623.879	17080.41
624.234	16965.61
624.589	16926.29
624.945	16965.84
625.3	17016.69
625.655	16949.57
626.01	16908.67
626.365	16977.36
626.72	16941.66
627.075	16920.87
627.43	16929.91
627.785	16893.07
628.14	17000.64
628.495	16987.08
628.85	16888.78
629.205	16841.1
629.559	17020.08
629.914	16907.54
630.269	16958.16
630.623	16911.6
630.978	16859.85
631.332	16920.19
631.687	16980.98
632.041	16862.34
632.396	16902.34
632.75	16912.06
633.104	16971.04
633.459	16813.98
633.813	16876.35
634.167	16809.69
634.521	16844.26
634.875	16756.81
635.229	16784.83
635.583	16675.68
635.937	16703.25
636.291	16710.48
636.645	16778.27
636.999	16705.28
637.352	16743.7
637.706	16568.11
638.06	16649.69
638.413	16549.35
638.767	16626.41
639.121	16576.02
639.474	16452.86
639.828	16517.94
640.181	16583.02
640.534	16376.48
640.888	16480.43
641.241	16500.31
641.594	16448.56
641.947	16493.76
642.301	16455.8
642.654	16445.63
643.007	16560.65
643.36	16427.77
643.713	16395.91
644.066	16424.38
644.419	16336.03
644.771	16335.35
645.124	16062.36
645.477	16163.83
645.83	16020.1
646.182	15997.5
646.535	15933.32
646.888	15997.05
647.24	15848.58
647.593	15894
647.945	15859.88
648.298	15770.62
648.65	15808.13
649.002	15871.86
649.355	15961.57
649.707	15844.51
650.059	15936.71
650.411	16177.16
650.763	16102.36
651.115	16262.35
651.467	16223.03
651.819	16268
652.171	16133.54
652.523	16255.58
652.875	16257.84
653.227	16136.71
653.578	16311.85
653.93	16225.52
654.282	16204.05
654.633	16154.79
654.985	16238.17
655.337	16251.06
655.688	16227.78
656.039	16348.91
656.391	16114.56
656.742	16229.59
657.094	16227.33
657.445	16324.95
657.796	16182.13
658.147	16181.91
658.498	16236.37
658.849	16311.39
659.2	16275.69
659.551	16255.35
659.902	16251.06
660.253	16225.29
660.604	16260.32
660.955	16134.9
661.306	16288.79
661.656	16259.42
662.007	16355.46
662.358	16234.56
662.708	16298.06
663.059	16217.16
663.409	16209.7
663.76	16260.55
664.11	16308
664.461	16250.15
664.811	16320.66
665.161	16357.95
665.511	16210.38
665.862	16298.74
666.212	16351.39
666.562	16298.51
666.912	16375.57
667.262	16389.81
667.612	16224.16
667.962	16357.49
668.312	16335.57
668.662	16402.01
669.011	16329.47
669.361	16322.01
669.711	16358.17
670.06	16223.49
670.41	16207.89
670.76	16145.75
671.109	16271.85
671.459	16224.39
671.808	16216.25
672.157	16218.29
672.507	16199.98
672.856	16143.71
673.205	16155.24
673.554	16146.88
673.904	16264.84
674.253	16244.28
674.602	16195.01
674.951	15921.12
675.3	15879.31
675.649	16097.39
675.998	16080.21
676.346	16077.28
676.695	16207.22
677.044	16035.02
677.393	15972.19
677.741	16070.04
678.09	16018.97
678.438	15957.73
678.787	15995.24
679.135	16072.3
679.484	15829.37
679.832	15949.82
680.181	15779.66
680.529	15807.9
680.877	15785.76
681.225	15784.85
681.573	15859.2
681.922	15710.05
682.27	15671.86
682.618	15648.81
682.966	15605.87
683.314	15757.51
683.661	15569.94
684.009	15568.14
684.357	15511.19
684.705	15465.54
685.053	15487.91
685.4	15458.08
685.748	15452.66
686.095	15399.55
686.443	15359.55
686.79	15376.5
687.138	15378.76
687.485	15283.17
687.832	15186.9
688.18	15271.42
688.527	15129.73
688.874	15077.53
689.221	15083.4
689.568	15001.15
689.915	15029.39
690.262	14911.66
690.609	14819
690.956	14842.96
691.303	14845.22
691.65	14798.66
691.997	14799.34
692.344	14703.98
692.69	14602.96
693.037	14620.14
693.383	14465.57
693.73	14567.26
694.077	14544.89
694.423	14565
694.769	14394.38
695.116	14428.28
695.462	14380.14
695.808	14319.13
696.155	14307.38
696.501	14171.11
696.847	14200.49
697.193	14047.95
697.539	14113.48
697.885	13987.16
698.231	13992.13
698.577	13940.83
698.923	13912.13
699.269	13802.31
699.614	13695.87
699.96	13628.53
700.306	13657.68
700.651	13574.74
700.997	13530
701.342	13416.78
701.688	13407.51
702.033	13422.66
702.379	13421.07
702.724	13313.28
703.069	13402.32
703.415	13117.35
703.76	13109.67
704.105	13174.75
704.45	13199.61
704.795	12922.33
705.14	13010.69
705.485	13050.24
705.83	12898.15
706.175	12925.04
706.52	12906.51
706.865	12860.86
707.209	12805.72
707.554	12762.56
707.899	12763.24
708.243	12671.94
708.588	12604.15
708.932	12590.14
709.277	12601.43
709.621	12650.47
709.966	12496.35
710.31	12499.52
710.654	12381.78
710.998	12407.54
711.342	12393.76
711.687	12315.11
712.031	12304.49
712.375	12354.44
712.719	12295.45
713.063	12363.02
713.407	12298.84
713.75	12204.83
714.094	12197.83
714.438	12165.97
714.782	12191.95
715.125	12147.43
715.469	12161.22
715.812	12067.21
716.156	12076.48
716.499	11944.28
716.843	12025.63
717.186	11932.75
717.53	11990.15
717.873	11950.83
718.216	11902.92
718.559	11811.17
718.902	11900.89
719.246	11850.95
719.589	11787.9
719.932	11778.86
720.275	11778.63
720.617	11800.33
720.96	11760.78
721.303	11706.32
721.646	11683.27
721.989	11678.97
722.331	11687.79
722.674	11621.35
723.016	11690.95
723.359	11656.37
723.701	11624.28
724.044	11580.44
724.386	11460.67
724.729	11545.64
725.071	11651.63
725.413	11562.14
725.755	11528.92
726.097	11540.22
726.439	11466.32
726.782	11489.6
727.124	11428.36
727.465	11477.85
727.807	11484.63
728.149	11432.43
728.491	11458.41
728.833	11489.15
729.175	11405.53
729.516	11435.82
729.858	11371.18
730.199	11465.64
730.541	11357.4
730.882	11412.54
731.224	11442.82
731.565	11382.71
731.906	11445.31
732.248	11410.96
732.589	11317.17
732.93	11384.97
733.271	11336.83
733.612	11321.69
733.953	11372.09
734.294	11353.11
734.635	11281.92
734.976	11419.32
735.317	11345.87
735.658	11359.43
735.999	11380.22
736.339	11346.33
736.68	11388.13
737.021	11438.98
737.361	11316.95
737.702	11389.71
738.042	11347.46
738.383	11426.1
738.723	11402.14
739.063	11426.32
739.404	11450.05
739.744	11412.99
740.084	11368.02
740.424	11424.74
740.764	11401.92
741.104	11418.19
741.444	11455.02
741.784	11415.48
742.124	11442.59
742.464	11375.03
742.804	11460.67
743.143	11436.49
743.483	11521.91
743.823	11597.17
744.162	11501.12
744.502	11590.84
744.841	11630.16
745.181	11676.03
745.52	11736.6
745.86	11679.2
746.199	11772.3
746.538	11829.7
746.877	11898.63
747.216	11852.53
747.556	11882.36
747.895	11948.8
748.234	11955.8
748.573	12025.18
748.911	12125.51
749.25	12156.25
749.589	12168.9
749.928	12296.36
750.267	12393.98
750.605	12434.43
750.944	12501.1
751.283	12445.51
751.621	12678.27
751.96	12654.09
752.298	12756.46
752.636	12933.18
752.975	12948.32
753.313	12998.49
753.651	13210.23
753.989	13241.87
754.327	13335.2
754.666	13398.02
755.004	13677.79
755.342	13720.05
755.679	13850.44
756.017	13871.46
756.355	14122.3
756.693	14167.27
757.031	14325.68
757.368	14360.48
757.706	14571.55
758.044	14728.61
758.381	14809.74
758.719	15019.45
759.056	15078.88
759.394	15243.85
759.731	15370.63
760.068	15520.68
760.405	15612.88
760.743	15735.14
761.08	15872.76
761.417	16015.36
761.754	16144.39
762.091	16355.23
762.428	16435.68
762.765	16474.55
763.102	16732.4
763.438	16838.84
763.775	16941.21
764.112	17058.72
764.449	17255.78
764.785	17349.78
765.122	17365.83
765.458	17573.28
765.795	17677.01
766.131	17856.44
766.467	17931.46
766.804	17919.49
767.14	18035.42
767.476	18263.88
767.812	18290.1
768.148	18436.08
768.485	18436.76
768.821	18488.96
769.157	18622.74
769.492	18702.74
769.828	18879.24
770.164	18730.76
770.5	18894.38
770.836	18955.17
771.171	19016.86
771.507	18955.17
771.842	19041.72
772.178	19180.24
772.513	19261.82
772.849	19233.35
773.184	19242.16
773.519	19415.49
773.855	19354.93
774.19	19375.27
774.525	19452.33
774.86	19462.5
775.195	19609.61
775.53	19543.4
775.865	19512.66
776.2	19470.41
776.535	19474.93
776.87	19537.97
777.205	19537.07
777.539	19492.55
777.874	19559.44
778.209	19469.5
778.543	19584.3
778.878	19386.57
779.212	19567.8
779.547	19551.08
779.881	19621.14
780.215	19567.13
780.55	19648.03
780.884	19526.9
781.218	19611.42
781.552	19552.44
781.886	19453.91
782.22	19384.08
782.554	19398.77
782.888	19322.84
783.222	19247.59
783.556	19289.17
783.889	19150.64
784.223	19151.77
784.557	19096.86
784.89	19242.16
785.224	19192.22
785.557	19152.9
785.891	19076.29
786.224	19086.91
786.558	18992
786.891	18915.17
787.224	18898.67
787.557	18883.53
787.891	18911.1
788.224	18908.39
788.557	18782.51
788.89	18852.34
789.223	18855.06
789.556	18754.94
789.888	18638.79
790.221	18688.96
790.554	18492.8
790.887	18552.69
791.219	18512.24
791.552	18378.91
791.884	18419.81
792.217	18372.36
792.549	18310.89
792.882	18219.37
793.214	18189.54
793.546	18229.31
793.879	18164.68
794.211	17970.56
794.543	18032.48
794.875	18048.52
795.207	18078.35
795.539	17965.59
795.871	17972.82
796.203	17884.46
796.535	17808.08
796.867	17728.53
797.198	17688.08
797.53	17698.02
797.862	17657.12
798.193	17630.68
798.525	17461.87
798.856	17617.8
799.188	17355.66
799.519	17354.53
799.85	17236.57
800.182	17230.69
800.513	17243.8
800.844	17095.1
801.175	17251.71
801.506	17223.91
801.837	17067.53
802.168	17078.15
802.499	17007.87
802.83	16896.91
803.161	16926.52
803.491	16915.9
803.822	16976.23
804.153	16808.1
804.483	16685.62
804.814	16633.64
805.145	16707.09
805.475	16589.13
805.805	16519.75
806.136	16514.55
806.466	16478.62
806.796	16498.51
807.126	16350.26
807.457	16304.16
807.787	16399.75
808.117	16271.85
808.447	16208.35
808.777	16271.85
809.107	16176.93
809.436	16183.26
809.766	16208.12
810.096	16030.27
810.426	15941.23
810.755	16008.12
811.085	15981.91
811.414	15985.3
811.744	15833.21
812.073	15921.12
812.403	15819.65
812.732	15765.42
813.061	15799.09
813.39	15654.46
813.719	15661.92
814.049	15743.95
814.378	15682.26
814.707	15531.98
815.036	15585.99
815.365	15543.5
815.693	15342.15
816.022	15380.57
816.351	15322.72
816.68	15312.55
817.008	15339.44
817.337	15325.66
817.665	15132.67
817.994	15262.83
818.322	15197.07
818.651	15117.3
818.979	15071.43
819.307	15195.94
819.636	15079.34
819.964	15056.51
820.292	15099.9
820.62	15102.39
820.948	14944.42
821.276	15096.28
821.604	14990.3
821.932	15023.29
822.259	14979.45
822.587	14999.56
822.915	14993.24
823.243	15008.83
823.57	14947.81
823.898	14924.31
824.225	14982.84
824.553	14996.63
824.88	15026.23
825.207	15019.68
825.535	15019.68
825.862	14939.9
826.189	14948.27
826.516	14916.18
826.843	14997.3
827.17	15023.97
827.497	14981.26
827.824	15002.73
828.151	15052.9
828.478	14993.69
828.805	15106.23
829.131	14993.46
829.458	14970.41
829.785	14882.73
830.111	14937.42
830.438	15100.8
830.764	14975.84
831.09	14995.72
831.417	14863.3
831.743	15001.37
832.069	14974.48
832.395	14903.07
832.722	14935.38
833.048	14830.53
833.374	14885.67
833.7	14739.23
834.026	14779.91
834.351	14823.52
834.677	14823.75
835.003	14876.63
835.329	14781.26
835.654	14738.55
835.98	14678.67
836.306	14749.85
836.631	14669.4
836.956	14773.35
837.282	14687.71
837.607	14648.61
837.932	14685.9
838.258	14591.89
838.583	14645
838.908	14516.19
839.233	14495.62
839.558	14568.84
839.883	14523.64
840.208	14414.04
840.533	14424.44
840.858	14455.85
841.182	14459.46
841.507	14370.65
841.832	14208.62
842.156	14287.72
842.481	14215.18
842.805	14218.79
843.13	14217.66
843.454	14245.46
843.778	14078.01
844.103	14161.39
844.427	14043.43
844.751	14102.86
845.075	14090.43
845.399	14022.41
845.723	13974.96
846.047	13907.84
846.371	13757.11
846.695	13849.54
847.019	13752.82
847.343	13634.4
847.666	13572.93
847.99	13507.63
848.313	13594.18
848.637	13397.35
848.96	13405.03
849.284	13391.92
849.607	13267.18
849.931	13186.96
850.254	13272.15
850.577	13128.43
850.9	13007.98
851.223	13031.03
851.546	12983.35
851.869	12904.7
852.192	12927.3
852.515	12838.94
852.838	12759.17
853.161	12680.08
853.483	12716.23
853.806	12654.09
854.129	12645.27
854.451	12541.1
854.774	12528.22
855.096	12481.89
855.419	12504.71
855.741	12364.83
856.063	12348.79
856.385	12344.49
856.708	12303.59
857.03	12206.19
857.352	12277.37
857.674	12131.84
857.996	12109.7
858.318	12049.81
858.64	12132.75
858.961	11982.92
859.283	11940.89
859.605	11922.36
859.926	11930.27
860.248	11871.96
860.57	11912.41
860.891	11840.1
861.212	11786.54
861.534	11711.29
861.855	11693.66
862.176	11770.95
862.498	11714.9
862.819	11704.51
863.14	11654.34
863.461	11634.45
863.782	11546.77
864.103	11601.46
864.424	11551.74
864.745	11527.11
865.065	11491.18
865.386	11412.99
865.707	11491.41
866.027	11477.62
866.348	11490.95
866.668	11445.53
866.989	11403.95
867.309	11422.48
867.63	11344.52
867.95	11273.79
868.27	11270.85
868.59	11271.3
868.91	11300.68
869.23	11263.84
869.55	11211.64
869.87	11293.45
870.19	11258.19
870.51	11237.85
870.83	11248.25
871.15	11124.86
871.469	11190.4
871.789	11211.87
872.109	11120.34
872.428	11085.54
872.748	11146.11
873.067	11104.52
873.386	11085.77
873.706	11045.99
874.025	10986.56
874.344	10959.67
874.663	11024.75
874.982	10942.72
875.301	10980.01
875.62	10902.95
875.939	10897.75
876.258	10908.6
876.577	10879.9
876.896	10756.51
877.214	10743.18
877.533	10810.75
877.852	10808.04
878.17	10816.62
878.489	10851.42
878.807	10752.22
879.125	10667.93
879.444	10714.93
879.762	10617.08
880.08	10678.77
880.398	10568.72
880.716	10622.5
881.034	10573.01
881.352	10647.59
881.67	10547.25
881.988	10597.42
882.306	10498.44
882.624	10512.68
882.941	10461.6
883.259	10440.14
883.577	10426.12
883.894	10386.13
884.212	10372.34
884.529	10358.33
884.846	10289.18
885.164	10282.17
885.481	10228.16
885.798	10272.23
886.115	10188.39
886.432	10166.7
886.75	10188.84
887.067	10168.5
887.383	10123.53
887.7	10145.91
888.017	9985.01
888.334	10083.76
888.651	9970.77
888.967	9970.99
889.284	9953.37
889.6	9927.38
889.917	9890.32
890.233	9891.9
890.55	9794.05
890.866	9800.15
891.182	9814.61
891.498	9807.84
891.815	9746.14
892.131	9767.84
892.447	9750.89
892.763	9641.74
893.079	9572.59
893.395	9615.3
893.71	9509.76
894.026	9522.65
894.342	9540.5
894.657	9484.23
894.973	9396.55
895.289	9430.9
895.604	9388.64
895.92	9324.68
896.235	9282.88
896.55	9323.78
896.865	9215.08
897.181	9261.86
897.496	9177.8
897.811	9137.8
898.126	9138.02
898.441	9093.05
898.756	9058.25
899.071	9016.67
899.386	8980.74
899.7	8942.77
900.015	8908.42
900.33	8754.3
900.644	8883.57
900.959	8875.66
901.273	8771.25
901.588	8784.36
901.902	8691.48
902.216	8619.39
902.531	8595.44
902.845	8620.07
903.159	8557.02
903.473	8586.4
903.787	8491.49
904.101	8511.37
904.415	8456.46
904.729	8408.1
905.042	8423.01
905.356	8335.56
905.67	8399.96
905.984	8317.93
906.297	8309.34
906.611	8215.79
906.924	8182.79
907.237	8185.73
907.551	8136.01
907.864	8092.85
908.177	8104.6
908.491	8114.09
908.804	8102.8
909.117	7970.14
909.43	8009.92
909.743	7952.97
910.056	7982.35
910.368	7877.04
910.681	7847.89
910.994	7826.42
911.307	7780.54
911.619	7707.78
911.932	7737.16
912.244	7722.24
912.557	7625.29
912.869	7640.89
913.181	7534
913.494	7502.13
913.806	7440.89
914.118	7460.55
914.43	7437.95
914.742	7483.38
915.054	7371.06
915.366	7309.14
915.678	7322.48
915.99	7304.17
916.302	7227.79
916.613	7215.59
916.925	7179.66
917.236	7174.23
917.548	7163.61
917.859	7157.51
918.171	7106.21
918.482	7040.9
918.794	7025.31
919.105	7072.54
919.416	6951.64
919.727	6971.75
920.038	6932.66
920.349	6834.13
920.66	6819.21
920.971	6830.51
921.282	6809.95
921.593	6766.11
921.903	6729.95
922.214	6693.79
922.525	6692.89
922.835	6646.79
923.146	6640.46
923.456	6643.85
923.767	6558.88
924.077	6594.13
924.387	6502.61
924.697	6504.42
925.008	6505.1
925.318	6451.77
925.628	6440.92
925.938	6388.49
926.248	6325.67
926.558	6362.73
926.867	6334.71
927.177	6290.64
927.487	6302.16
927.796	6170.87
928.106	6216.74
928.416	6154.37
928.725	6235.73
929.034	6159.57
929.344	6113.02
929.653	6124.32
929.962	6072.79
930.271	5996.64
930.581	6070.76
930.89	5965
931.199	5959.57
931.508	5948.73
931.817	5902.4
932.125	5933.36
932.434	5886.36
932.743	5859.01
933.051	5780.82
933.36	5737.43
933.669	5753.25
933.977	5743.99
934.286	5717.1
934.594	5668.51
934.902	5663.54
935.21	5635.74
935.519	5618.79
935.827	5557.33
936.135	5578.12
936.443	5508.97
936.751	5496.99
937.059	5486.37
937.367	5484.11
937.674	5454.73
937.982	5446.37
938.29	5357.78
938.597	5431.23
938.905	5346.94
939.213	5318.91
939.52	5271.46
939.827	5313.72
940.135	5268.07
940.442	5238.46
940.749	5251.8
941.056	5251.12
941.363	5217.45
941.67	5192.82
941.977	5125.47
942.284	5101.52
942.591	5055.42
942.898	5032.14
943.205	5039.15
943.511	5039.83
943.818	5005.25
944.125	4990.79
944.431	4981.07
944.738	4971.13
945.044	4936.78
945.35	4859.26
945.657	4876.89
945.963	4845.25
946.269	4843.22
946.575	4816.1
946.881	4770
947.187	4772.49
947.493	4770.23
947.799	4697.24
948.105	4692.26
948.41	4666.5
948.716	4680.74
949.022	4674.64
949.327	4627.41
949.633	4572.94
949.938	4565.49
950.244	4586.5
950.549	4544.47
950.854	4521.65
951.16	4503.57
951.465	4502.89
951.77	4525.49
952.075	4448.2
952.38	4417.02
952.685	4446.39
952.99	4390.8
953.294	4382.67
953.599	4356
953.904	4310.35
954.209	4289.11
954.513	4255.89
954.818	4223.12
955.122	4243.91
955.426	4243.01
955.731	4225.16
956.035	4233.07
956.339	4167.08
956.643	4196.01
956.948	4133.18
957.252	4158.27
957.556	4138.83
957.86	4069.91
958.163	4021.77
958.467	4055.44
958.771	4006.63
959.075	3987.42
959.378	3984.71
959.682	3996.46
959.985	3950.36
960.289	3911.95
960.592	3923.24
960.896	3925.96
961.199	3950.14
961.502	3908.33
961.805	3877.6
962.108	3830.37
962.411	3817.26
962.714	3799.86
963.017	3762.34
963.32	3802.34
963.623	3794.43
963.926	3759.86
964.228	3810.03
964.531	3742.01
964.833	3714.44
965.136	3671.27
965.438	3633.53
965.741	3682.8
966.043	3664.49
966.345	3600.31
966.648	3637.15
966.95	3571.16
967.252	3564.84
967.554	3586.53
967.856	3554.21
968.158	3506.08
968.46	3502.46
968.761	3507.89
969.063	3482.8
969.365	3489.36
969.666	3452.52
969.968	3415.24
970.269	3412.07
970.571	3373.43
970.872	3437.38
971.174	3399.42
971.475	3342.69
971.776	3373.2
972.077	3317.16
972.378	3328.46
972.679	3326.65
972.98	3307.44
973.281	3279.65
973.582	3304.28
973.883	3277.16
974.183	3266.54
974.484	3228.35
974.785	3246.2
975.085	3209.59
975.386	3200.78
975.686	3165.98
975.986	3144.96
976.287	3163.72
976.587	3121.23
976.887	3117.39
977.187	3138.63
977.487	3090.27
977.787	3045.08
978.087	3060.44
978.387	3026.54
978.687	3010.73
978.987	2993.78
979.286	2969.15
979.586	2999.65
979.885	3003.95
980.185	2974.79
980.484	2957.39
980.784	2946.55
981.083	2947.9
981.382	2895.7
981.682	2881.01
981.981	2883.27
982.28	2831.97
982.579	2842.14
982.878	2863.39
983.177	2832.2
983.475	2834.91
983.774	2798.53
984.073	2773.67
984.372	2768.02
984.67	2794.69
984.969	2757.17
985.267	2741.81
985.566	2724.41
985.864	2690.28
986.162	2698.19
986.461	2718.08
986.759	2671.53
987.057	2646.67
987.355	2629.72
987.653	2648.93
987.951	2588.82
988.249	2647.8
988.547	2598.08
988.844	2562.38
989.142	2538.42
989.44	2572.32
989.737	2551.3
990.035	2511.3
990.332	2509.72
990.63	2515.15
990.927	2498.2
991.224	2533.22
991.521	2466.33
991.819	2470.18
992.116	2470.4
992.413	2479.21
992.71	2450.51
993.006	2424.98
993.303	2411.65
993.6	2400.12
993.897	2445.54
994.193	2384.3
994.49	2367.58
994.787	2347.69
995.083	2352.89
995.379	2340.24
995.676	2342.27
995.972	2322.83
996.268	2294.59
996.565	2300.24
996.861	2295.04
997.157	2266.79
997.453	2247.36
997.749	2246.45
998.044	2236.06
998.34	2195.38
998.636	2195.38
998.932	2182.5
999.227	2193.8
999.523	2160.8
999.818	2180.24
1000.114	2152.22
1000.409	2161.71
1000.704	2110.18
1001	2104.99
1001.295	2130.07
1001.59	2103.41
1001.885	2092.56
1002.18	2081.94
1002.475	2042.84
1002.77	2064.31
1003.065	2050.3
1003.359	2033.35
1003.654	2008.04
1003.949	1993.8
1004.243	2001.26
1004.538	2024.99
1004.832	2008.72
1005.127	1935.5
1005.421	1945.22
1005.715	1932.11
1006.009	1947.48
1006.304	1932.79
1006.598	1900.25
1006.892	1890.76
1007.186	1890.3
1007.48	1895.05
1007.773	1877.65
1008.067	1859.12
1008.361	1853.47
1008.655	1815.05
1008.948	1853.69
1009.242	1803.3
1009.535	1798.1
1009.829	1781.83
1010.122	1772.57
1010.415	1780.93
1010.708	1770.98
1011.001	1737.77
1011.295	1735.73
1011.588	1767.59
1011.881	1714.71
1012.173	1708.39
1012.466	1693.02
1012.759	1682.63
1013.052	1685.34
1013.344	1681.72
1013.637	1675.62
1013.93	1638.33
1014.222	1635.39
1014.514	1639.91
1014.807	1620.48
1015.099	1603.53
1015.391	1615.06
1015.683	1600.14
1015.976	1583.64
1016.268	1568.5
1016.56	1549.97
1016.851	1530.54
1017.143	1556.75
1017.435	1562.63
1017.727	1542.74
1018.018	1522.18
1018.31	1524.21
1018.602	1516.75
1018.893	1486.7
1019.185	1476.3
1019.476	1462.29
1019.767	1462.29
1020.058	1454.83
1020.35	1435.17
1020.641	1436.3
1020.932	1380.94
1021.223	1401.05
1021.514	1414.16
1021.804	1385.01
1022.095	1366.93
1022.386	1417.1
1022.677	1367.83
1022.967	1365.12
1023.258	1361.28
1023.548	1318.12
1023.839	1300.49
1024.129	1347.94
1024.419	1324.22
1024.709	1312.69
1025	1311.56
1025.29	1298.45
1025.58	1297.78
1025.87	1238.34
1026.16	1253.03
1026.449	1233.82
1026.739	1242.64
1027.029	1240.6
1027.319	1223.88
1027.608	1231.11
1027.898	1224.11
1028.187	1225.01
1028.477	1218.91
1028.766	1172.81
1029.055	1178.91
1029.344	1165.35
1029.634	1186.37
1029.923	1154.05
1030.212	1165.8
1030.501	1157.89
1030.79	1145.24
1031.078	1112.47
1031.367	1105.01
1031.656	1148.18
1031.945	1127.84
1032.233	1109.76
1032.522	1089.19
1032.81	1102.3
1033.099	1086.03
1033.387	1077.44
1033.675	1087.61
1033.963	1054.39
1034.251	1067.5
1034.54	1076.99
1034.828	1065.01
1035.116	1046.71
1035.403	1032.92
1035.691	1010.55
1035.979	1031.12
1036.267	988.63
1036.554	993.6
1036.842	1005.81
1037.129	983.89
1037.417	984.11
1037.704	971.01
1037.992	971.23
1038.279	977.33
1038.566	983.43
1038.853	983.43
1039.14	983.43
