Data from hue_100_FLMS001491_00061.txt Node
Date: Tue Feb 07 17:03:29 GMT 2017
User: dcchb
Spectrometer: FLMS00149
Trigger mode: 0
Integration Time (sec): 2.000000E-2
Scans to average: 10
Electric dark correction enabled: true
Nonlinearity correction enabled: false
Boxcar width: 0
XAxis mode: Wavelengths
Number of Pixels in Spectrum: 2048
>>>>>Begin Spectral Data<<<<<
341.393	-21.44
341.776	-21.44
342.16	-21.44
342.543	-55.11
342.927	-72.51
343.31	-57.37
343.693	-76.81
344.077	-66.18
344.46	-69.12
344.843	-63.7
345.226	-43.59
345.61	-27.99
345.993	-20.54
346.376	9.29
346.759	3.42
347.142	22.85
347.525	37.09
347.908	73.25
348.291	75.51
348.674	74.15
349.057	129.74
349.44	149.85
349.823	134.49
350.206	177.42
350.588	199.12
350.971	203.86
351.354	226.91
351.737	253.35
352.119	224.43
352.502	271.43
352.884	270.98
353.267	303.07
353.65	290.42
354.032	322.96
354.414	318.66
354.797	300.36
355.179	356.18
355.562	335.16
355.944	345.33
356.326	341.71
356.709	339
357.091	346.91
357.473	340.13
357.855	362.05
358.238	342.17
358.62	332.22
359.002	332.9
359.384	329.51
359.766	320.92
360.148	342.39
360.53	343.97
360.912	333.13
361.294	324.31
361.676	343.3
362.057	314.82
362.439	336.06
362.821	350.3
363.203	323.86
363.584	322.28
363.966	335.39
364.348	325.44
364.729	322.51
365.111	353.92
365.493	305.56
365.874	356.63
366.256	311.21
366.637	318.66
367.019	309.17
367.4	310.08
367.781	333.8
368.163	326.57
368.544	333.35
368.925	317.99
369.306	330.19
369.688	337.42
370.069	318.21
370.45	331.77
370.831	316.18
371.212	336.74
371.593	317.53
371.974	329.06
372.355	311.21
372.736	324.99
373.117	311.88
373.498	318.89
373.879	329.74
374.26	349.85
374.641	321.83
375.021	327.48
375.402	319.79
375.783	318.21
376.163	326.8
376.544	323.18
376.925	343.97
377.305	327.48
377.686	335.61
378.066	346.91
378.447	336.29
378.827	322.73
379.208	346.91
379.588	331.09
379.968	346.23
380.349	348.49
380.729	339
381.109	344.43
381.489	334.71
381.87	350.08
382.25	365.22
382.63	355.95
383.01	348.95
383.39	355.95
383.77	359.34
384.15	345.1
384.53	357.08
384.91	353.01
385.29	359.11
385.67	362.05
386.049	373.8
386.429	361.15
386.809	344.88
387.189	348.04
387.568	361.37
387.948	370.19
388.328	382.17
388.707	354.37
389.087	376.06
389.466	374.03
389.846	391.88
390.225	376.06
390.605	379
390.984	369.96
391.363	376.52
391.743	390.07
392.122	398.21
392.501	361.6
392.881	390.98
393.26	411.54
393.639	390.75
394.018	387.14
394.397	382.62
394.776	397.31
395.155	398.89
395.534	386.68
395.913	402.73
396.292	409.73
396.671	413.12
397.05	406.8
397.429	399.79
397.808	404.76
398.186	400.7
398.565	393.46
398.944	415.16
399.323	423.07
399.701	434.14
400.08	419
400.458	418.1
400.837	402.05
401.215	427.36
401.594	415.38
401.972	431.66
402.351	406.8
402.729	430.53
403.107	436.63
403.486	441.82
403.864	422.84
404.242	447.25
404.62	438.21
404.999	425.78
405.377	447.7
405.755	425.1
406.133	430.3
406.511	461.49
406.889	444.54
407.267	450.41
407.645	450.19
408.023	426.46
408.401	489.96
408.779	468.94
409.156	442.73
409.534	475.95
409.912	482.5
410.29	484.08
410.667	499.45
411.045	487.25
411.422	510.07
411.8	499
412.178	509.17
412.555	500.35
412.933	510.52
413.31	511.65
413.687	496.06
414.065	533.12
414.442	529.05
414.819	534.7
415.197	529.96
415.574	528.83
415.951	527.25
416.328	548.94
416.705	531.99
417.082	546.45
417.46	553.91
417.837	548.04
418.214	566.12
418.591	560.47
418.967	551.2
419.344	564.99
419.721	552.78
420.098	563.4
420.475	562.73
420.852	577.19
421.228	578.54
421.605	570.86
421.982	577.19
422.358	590.52
422.735	594.81
423.111	601.59
423.488	599.56
423.864	610.63
424.241	611.99
424.617	619.9
424.994	620.8
425.37	639.11
425.746	607.7
426.123	629.16
426.499	630.97
426.875	623.29
427.251	649.28
427.627	658.09
428.003	667.36
428.379	659.67
428.756	667.36
429.132	665.1
429.507	669.84
429.883	688.6
430.259	680.91
430.635	665.32
431.011	720.24
431.387	698.09
431.763	721.59
432.138	747.81
432.514	720.24
432.89	733.34
433.265	738.54
433.641	748.71
434.016	749.16
434.392	764.75
434.767	768.14
435.143	764.3
435.518	779.67
435.894	763.62
436.269	806.79
436.644	798.88
437.02	806.33
437.395	821.93
437.77	821.25
438.145	845.43
438.52	842.72
438.895	843.17
439.271	843.17
439.646	876.62
440.021	850.18
440.395	866.67
440.77	861.7
441.145	875.71
441.52	869.61
441.895	873.9
442.27	893.79
442.645	903.28
443.019	908.25
443.394	886.78
443.769	914.13
444.143	905.09
444.518	929.95
444.892	942.83
445.267	939.21
445.641	966.33
446.016	966.78
446.39	960.91
446.764	951.19
447.139	974.47
447.513	969.72
447.887	961.58
448.262	975.82
448.636	971.08
449.01	988.25
449.384	989.38
449.758	1011.08
450.132	1014.46
450.506	1032.09
450.88	1040.9
451.254	1045.2
451.628	1066.21
452.002	1082.71
452.376	1072.77
452.75	1074.8
453.123	1088.81
453.497	1078.42
453.871	1112.77
454.244	1145.99
454.618	1140.11
454.992	1120.9
455.365	1166.78
455.739	1166.55
456.112	1181.69
456.486	1167.68
456.859	1236.38
457.232	1240
457.606	1219.66
457.979	1277.73
458.352	1255.36
458.725	1281.8
459.099	1297.85
459.472	1301.01
459.845	1361.8
460.218	1355.92
460.591	1364.29
460.964	1360.22
461.337	1397.96
461.71	1420.56
462.083	1424.85
462.456	1441.8
462.829	1460.33
463.201	1496.26
463.574	1480.44
463.947	1502.36
464.32	1532.19
464.692	1545.98
465.065	1568.35
465.438	1626.43
465.81	1630.04
466.183	1655.13
466.555	1698.74
466.928	1686.76
467.3	1698.51
467.672	1723.6
468.045	1788.68
468.417	1800.21
468.789	1804.5
469.161	1861.67
469.534	1891.73
469.906	1966.53
470.278	1943.25
470.65	1975.34
471.022	2014.21
471.394	2083.82
471.766	2095.34
472.138	2130.82
472.51	2172.17
472.882	2238.39
473.253	2299.4
473.625	2321.32
473.997	2374.43
474.369	2426.41
474.74	2466.63
475.112	2524.71
475.484	2564.25
475.855	2647.87
476.227	2711.82
476.598	2794.31
476.97	2854.42
477.341	2915.66
477.713	2998.82
478.084	3071.13
478.455	3191.36
478.827	3262.09
479.198	3350
479.569	3406.27
479.94	3523.1
480.311	3577.11
480.682	3673.15
481.053	3858.01
481.424	3929.19
481.795	3995.63
482.166	4091.9
482.537	4220.71
482.908	4339.35
483.279	4446.92
483.65	4604.88
484.021	4722.84
484.391	4841.26
484.762	4967.36
485.133	5050.97
485.503	5152.21
485.874	5421.35
486.244	5523.95
486.615	5665.64
486.985	5767.11
487.356	5975.24
487.726	6077.61
488.097	6238.96
488.467	6334.32
488.837	6570.7
489.207	6749.91
489.578	6868.77
489.948	7045.72
490.318	7231.48
490.688	7356.9
491.058	7551.47
491.428	7720.96
491.798	7857.22
492.168	8098.8
492.538	8206.37
492.908	8375.63
493.278	8616.07
493.648	8661.72
494.017	8892
494.387	9014.48
494.757	9181.48
495.126	9299.9
495.496	9474.58
495.866	9592.54
496.235	9817.85
496.605	9883.16
496.974	10115.24
497.344	10213.55
497.713	10315.69
498.082	10545.51
498.452	10757.26
498.821	10839.29
499.19	10870.93
499.559	11032.73
499.928	11151.15
500.298	11331.48
500.667	11482.44
501.036	11594.98
501.405	11759.72
501.774	11829.77
502.143	11957.23
502.512	12034.97
502.88	12170.78
503.249	12184.11
503.618	12406.71
503.987	12478.8
504.356	12550.43
504.724	12673.37
505.093	12795.62
505.462	12900.03
505.83	12948.16
506.199	13036.75
506.567	13270.87
506.936	13234.03
507.304	13386.12
507.672	13502.5
508.041	13577.3
508.409	13684.87
508.777	13818.2
509.145	13905.88
509.514	13877.63
509.882	13964.41
510.25	14069.26
510.618	14264.29
510.986	14231.97
511.354	14321.23
511.722	14455.24
512.09	14529.36
512.458	14523.49
512.826	14740.66
513.193	14674.22
513.561	14749.92
513.929	14790.37
514.297	15006.64
514.664	15054.1
515.032	15075.34
515.4	15165.51
515.767	15085.73
516.135	15135
516.502	15149.69
516.869	15360.98
517.237	15341.77
517.604	15314.43
517.972	15496.12
518.339	15580.64
518.706	15621.31
519.073	15580.86
519.44	15595.55
519.808	15764.13
520.175	15717.81
520.542	15841.42
520.909	15867.18
521.276	15818.37
521.643	15942.43
522.009	15979.5
522.376	16044.8
522.743	16154.86
523.11	16157.34
523.477	16252.26
523.843	16350.56
524.21	16403.44
524.577	16516.88
524.943	16506.94
525.31	16479.14
525.676	16560.04
526.043	16652.02
526.409	16636.43
526.776	16746.93
527.142	16793.26
527.508	16731.11
527.874	16863.54
528.241	16840.49
528.607	16823.31
528.973	16950.32
529.339	16822.64
529.705	17030.54
530.071	17010.2
530.437	17069.64
530.803	16967.49
531.169	17132.23
531.535	16925.46
531.901	16947.15
532.267	17067.6
532.632	17037.32
532.998	17046.13
533.364	17068.51
533.73	17074.83
534.095	17102.18
534.461	17023.99
534.826	17109.63
535.192	17021.05
535.557	17095.62
535.923	17050.2
536.288	17016.98
536.653	16984.67
537.019	16888.85
537.384	16916.19
537.749	16908.51
538.114	16883.65
538.479	16838.91
538.845	16791.45
539.21	16700.83
539.575	16772.24
539.94	16775.86
540.305	16776.31
540.67	16621.06
541.034	16710.32
541.399	16638.01
541.764	16599.59
542.129	16541.29
542.494	16553.72
542.858	16593.72
543.223	16496.32
543.587	16504.45
543.952	16413.16
544.316	16385.36
544.681	16269.88
545.045	16361.86
545.41	16367.28
545.774	16320.5
546.138	16217
546.503	16185.14
546.867	16077.57
547.231	16175.42
547.595	16127.51
547.959	16205.25
548.324	16032.38
548.688	15989.21
549.052	16059.94
549.416	15960.51
549.779	15887.07
550.143	15867.86
550.507	15857.24
550.871	15854.75
551.235	15749.67
551.599	15932.49
551.962	15810.23
552.326	15827.41
552.689	15838.93
553.053	15660.63
553.417	15692.05
553.78	15730.01
554.143	15634.42
554.507	15640.07
554.87	15580.64
555.234	15642.78
555.597	15522.78
555.96	15562.1
556.323	15538.15
556.686	15447.53
557.05	15618.15
557.413	15514.87
557.776	15489.56
558.139	15495.89
558.502	15521.88
558.865	15501.99
559.228	15502.9
559.59	15561.65
559.953	15492.5
560.316	15578.6
560.679	15565.04
561.041	15610.69
561.404	15630.8
561.767	15588.54
562.129	15490.92
562.492	15586.74
562.854	15538.6
563.217	15562.1
563.579	15609.11
563.941	15640.07
564.304	15615.89
564.666	15622.22
565.028	15615.21
565.39	15629.9
565.753	15638.71
566.115	15636.68
566.477	15638.49
566.839	15750.12
567.201	15841.42
567.563	15664.48
567.925	15768.88
568.287	15818.37
568.648	15814.75
569.01	15897.92
569.372	15868.54
569.734	15801.87
570.095	15849.33
570.457	15862.21
570.819	15944.92
571.18	15846.39
571.542	15840.97
571.903	15861.31
572.265	15927.52
572.626	15950.57
572.987	15998.48
573.349	15968.65
573.71	16037.12
574.071	16008.19
574.432	16106.05
574.794	16134.29
575.155	16063.56
575.516	16062.88
575.877	16033.5
576.238	16069.89
576.599	16095.88
576.96	16184.01
577.32	16083.45
577.681	16126.16
578.042	16140.62
578.403	16107.4
578.763	16095.88
579.124	16026.27
579.485	16050.45
579.845	16152.15
580.206	16136.1
580.566	16066.95
580.927	16127.97
581.287	16117.34
581.648	16140.62
582.008	16115.31
582.368	16102.43
582.728	16148.08
583.089	16090
583.449	16054.3
583.809	16031.47
584.169	16043.22
584.529	16083.45
584.889	16177
585.249	16039.61
585.609	16031.47
585.969	16136.33
586.329	15967.29
586.688	16062.2
587.048	15947.86
587.408	16011.58
587.768	15962.55
588.127	15887.75
588.487	15835.09
588.846	16043.9
589.206	15944.47
589.565	15871.48
589.925	16036.89
590.284	15915.32
590.643	15932.72
591.003	15925.26
591.362	15942.66
591.721	15993.51
592.08	15907.86
592.44	15891.14
592.799	15891.81
593.158	15858.37
593.517	15908.54
593.876	15826.73
594.235	15883.23
594.593	15889.1
594.952	15758.94
595.311	15711.03
595.67	15813.85
596.029	15843.91
596.387	15857.24
596.746	15875.09
597.104	15824.24
597.463	15776.34
597.822	15811.14
598.18	15786.28
598.538	15698.15
598.897	15861.98
599.255	15608.66
599.613	15907.86
599.972	15714.87
600.33	15759.84
600.688	15694.3
601.046	15738.82
601.404	15789.9
601.762	15724.59
602.12	15825.37
602.478	15859.72
602.836	15845.26
603.194	15791.93
603.552	15715.77
603.91	15676.68
604.268	15794.87
604.625	15710.35
604.983	15809.33
605.341	15706.51
605.698	15741.08
606.056	15846.17
606.413	15781.08
606.771	15868.99
607.128	15824.47
607.485	15754.87
607.843	15805.71
608.2	15854.07
608.557	15843.23
608.914	15921.64
609.272	15866.28
609.629	15910.8
609.986	16033.5
610.343	15859.05
610.7	16060.4
611.057	15960.06
611.414	16056.56
611.771	15993.05
612.127	16038.02
612.484	16012.94
612.841	16063.33
613.198	15891.14
613.554	15956.9
613.911	16113.05
614.267	16091.58
614.624	15966.39
614.98	15963.68
615.337	16143.11
615.693	16058.14
616.05	16056.1
616.406	16117.12
616.762	16062.88
617.118	16012.04
617.475	16147.85
617.831	16170
618.187	16165.7
618.543	16131.81
618.899	16240.96
619.255	16294.52
619.611	16247.06
619.967	16276.21
620.323	16332.71
620.678	16197.12
621.034	16152.6
621.39	16206.83
621.746	16174.29
622.101	16365.25
622.457	16195.53
622.812	16239.6
623.168	16315.31
623.523	16271.92
623.879	16314.18
624.234	16236.44
624.589	16221.07
624.945	16249.54
625.3	16299.03
625.655	16259.26
626.01	16248.41
626.365	16292.48
626.72	16209.55
627.075	16225.82
627.43	16198.25
627.785	16178.81
628.14	16172.26
628.495	16207.51
628.85	16259.04
629.205	16190.34
629.559	16234.63
629.914	16138.81
630.269	16122.77
630.623	16128.42
630.978	16049.32
631.332	16089.77
631.687	16133.16
632.041	16013.62
632.396	16187.63
632.75	16006.61
633.104	16042.54
633.459	16050.23
633.813	15973.85
634.167	15988.76
634.521	15984.47
634.875	15979.5
635.229	16000.96
635.583	15880.51
635.937	15871.25
636.291	15918.25
636.645	15846.39
636.999	15927.97
637.352	15846.17
637.706	15775.66
638.06	15855.88
638.413	15814.98
638.767	15810.01
639.121	15747.64
639.474	15549
639.828	15664.93
640.181	15708.54
640.534	15662.67
640.888	15665.38
641.241	15650.92
641.594	15528.21
641.947	15621.54
642.301	15509.68
642.654	15610.92
643.007	15693.4
643.36	15558.72
643.713	15591.93
644.066	15560.07
644.419	15489.79
644.771	15474.42
645.124	15302.22
645.477	15283.24
645.83	15167.54
646.182	15187.2
646.535	15184.94
646.888	15017.49
647.24	15035.11
647.593	15087.32
647.945	15087.09
648.298	14994.44
648.65	15028.11
649.002	14959.63
649.355	15043.7
649.707	15009.13
650.059	15035.57
650.411	15272.17
650.763	15228.33
651.115	15485.27
651.467	15411.37
651.819	15315.56
652.171	15307.65
652.523	15282.56
652.875	15270.59
653.227	15170.48
653.578	15344.94
653.93	15360.08
654.282	15252.51
654.633	15208.89
654.985	15233.98
655.337	15295.22
655.688	15375.22
656.039	15443.01
656.391	15248.67
656.742	15327.76
657.094	15412.28
657.445	15376.57
657.796	15384.71
658.147	15376.35
658.498	15310.13
658.849	15451.15
659.2	15409.57
659.551	15328.66
659.902	15458.83
660.253	15348.1
660.604	15439.62
660.955	15248.44
661.306	15381.09
661.656	15310.13
662.007	15365.95
662.358	15377.93
662.708	15460.19
663.059	15423.35
663.409	15320.98
663.76	15438.27
664.11	15381.54
664.461	15423.13
664.811	15429.45
665.161	15434.88
665.511	15450.24
665.862	15363.69
666.212	15530.24
666.562	15431.26
666.912	15436.91
667.262	15388.32
667.612	15429
667.962	15548.77
668.312	15490.24
668.662	15451.83
669.011	15399.17
669.361	15413.86
669.711	15413.18
670.06	15352.17
670.41	15339.96
670.76	15296.58
671.109	15430.36
671.459	15396.69
671.808	15339.74
672.157	15338.16
672.507	15211.38
672.856	15277.14
673.205	15311.49
673.554	15331.15
673.904	15227.42
674.253	15336.8
674.602	15311.94
674.951	15048.9
675.3	15013.64
675.649	15182
675.998	15113.76
676.346	15175.67
676.695	15170.48
677.044	15102.68
677.393	15170.25
677.741	15149.69
678.09	15170.25
678.438	15039.86
678.787	15133.87
679.135	15157.14
679.484	14929.35
679.832	15088.67
680.181	14940.88
680.529	15013.87
680.877	14950.82
681.225	14998.28
681.573	15038.95
681.922	14867.21
682.27	14854.78
682.618	14887.09
682.966	14715.8
683.314	14808.68
683.661	14807.32
684.009	14672.64
684.357	14693.88
684.705	14631.96
685.053	14640.32
685.4	14639.42
685.748	14571.4
686.095	14575.46
686.443	14445.98
686.79	14363.27
687.138	14461.12
687.485	14427.9
687.832	14410.5
688.18	14384.51
688.527	14178.86
688.874	14307.22
689.221	14136.15
689.568	14285.98
689.915	14208.02
690.262	14153.1
690.609	14027
690.956	14048.25
691.303	14010.06
691.65	13912.43
691.997	13917.18
692.344	13888.7
692.69	13835.14
693.037	13831.08
693.383	13683.06
693.73	13724.87
694.077	13733.68
694.423	13578.43
694.769	13516.28
695.116	13504.98
695.462	13430.64
695.808	13436.96
696.155	13420.92
696.501	13366
696.847	13305.89
697.193	13218.44
697.539	13179.79
697.885	13112
698.231	13146.58
698.577	13082.62
698.923	13111.1
699.269	13061.83
699.614	12900.25
699.96	12872.91
700.306	12925.56
700.651	12844.44
700.997	12771.9
701.342	12711.33
701.688	12669.98
702.033	12712.91
702.379	12626.14
702.724	12550.88
703.069	12590.21
703.415	12365.35
703.76	12422.53
704.105	12413.49
704.45	12407.61
704.795	12304.56
705.14	12260.27
705.485	12192.93
705.83	12170.33
706.175	12157.67
706.52	12094.4
706.865	12089.2
707.209	12099.6
707.554	11943.89
707.899	11928.75
708.243	11939.15
708.588	11879.04
708.932	11816.44
709.277	11808.31
709.621	11790
709.966	11692.83
710.31	11776.44
710.654	11596.11
710.998	11670
711.342	11708.87
711.687	11581.87
712.031	11591.14
712.375	11544.81
712.719	11497.35
713.063	11566.5
713.407	11541.65
713.75	11500.97
714.094	11425.04
714.438	11397.69
714.782	11464.59
715.125	11334.19
715.469	11343.23
715.812	11252.84
716.156	11200.19
716.499	11272.5
716.843	11206.06
717.186	11139.4
717.53	11278.83
717.873	11242.67
718.216	11222.11
718.559	11070.02
718.902	11102.56
719.246	11191.15
719.589	11029.34
719.932	11014.2
720.275	11033.64
720.617	11049.23
720.96	10983.02
721.303	11036.8
721.646	11065.73
721.989	10943.02
722.331	10987.31
722.674	10959.97
723.016	10943.47
723.359	10897.82
723.701	10991.38
724.044	10815.11
724.386	10857.14
724.729	10877.93
725.071	10943.7
725.413	10889.01
725.755	10899.85
726.097	10815.79
726.439	10790.03
726.782	10739.63
727.124	10835.22
727.465	10749.58
727.807	10786.64
728.149	10763.81
728.491	10746.64
728.833	10862.34
729.175	10743.25
729.516	10761.33
729.858	10706.19
730.199	10753.87
730.541	10730.82
730.882	10711.84
731.224	10749.58
731.565	10677.49
731.906	10689.24
732.248	10738.05
732.589	10644.72
732.93	10633.87
733.271	10693.53
733.612	10729.46
733.953	10759.29
734.294	10665.51
734.635	10665.74
734.976	10712.06
735.317	10702.35
735.658	10704.61
735.999	10745.06
736.339	10668.22
736.68	10751.84
737.021	10725.17
737.361	10727.43
737.702	10751.84
738.042	10699.41
738.383	10696.24
738.723	10728.33
739.063	10749.8
739.404	10839.29
739.744	10754.1
740.084	10759.52
740.424	10786.19
740.764	10813.3
741.104	10878.39
741.444	10824.15
741.784	10880.87
742.124	10881.78
742.464	10883.81
742.804	10887.88
743.143	10947.76
743.483	10998.84
743.823	10937.59
744.162	11003.13
744.502	11073.86
744.841	11062.11
745.181	11109.11
745.52	11147.98
745.86	11187.76
746.199	11213.97
746.538	11285.16
746.877	11420.74
747.216	11410.12
747.556	11470.46
747.895	11542.32
748.234	11582.32
748.573	11710.23
748.911	11650.57
749.25	11766.05
749.589	11827.97
749.928	11973.72
750.267	12013.72
750.605	12117.45
750.944	12145.7
751.283	12209.65
751.621	12389.31
751.96	12443.32
752.298	12533.03
752.636	12710.2
752.975	12718.11
753.313	12840.14
753.651	13029.06
753.989	13066.8
754.327	13220.47
754.666	13240.58
755.004	13494.59
755.342	13642.38
755.679	13708.37
756.017	13906.56
756.355	14146.55
756.693	14184.51
757.031	14479.2
757.368	14558.52
757.706	14671.96
758.044	14925.29
758.381	14972.74
758.719	15233.98
759.056	15461.77
759.394	15652.95
759.731	15812.49
760.068	15967.74
760.405	16117.8
760.743	16311.92
761.08	16549.65
761.417	16733.15
761.754	16841.17
762.091	17062.4
762.428	17317.99
762.765	17479.79
763.102	17665.78
763.438	17774.48
763.775	17891.08
764.112	18171.3
764.449	18410.17
764.785	18608.35
765.122	18748.01
765.458	18768.57
765.795	18959.98
766.131	19217.6
766.467	19309.58
766.804	19556.35
767.14	19656.23
767.476	19861.65
767.812	19903.23
768.148	20134.87
768.485	20098.93
768.821	20234.52
769.157	20419.6
769.492	20589.77
769.828	20733.27
770.164	20755.41
770.5	20794.74
770.836	20988.63
771.171	20939.36
771.507	21083.77
771.842	21128.96
772.178	21288.28
772.513	21398.11
772.849	21490.31
773.184	21493.02
773.519	21679.23
773.855	21543.64
774.19	21669.51
774.525	21688.95
774.86	21799.68
775.195	21799.68
775.53	21978.43
775.865	21919.68
776.2	21882.16
776.535	21783.18
776.87	21949.51
777.205	22018.43
777.539	22029.51
777.874	22068.15
778.209	21946.8
778.543	22154.7
778.878	21934.82
779.212	22124.19
779.547	22034.48
779.881	22142.72
780.215	22074.93
780.55	22224.3
780.884	22071.09
781.218	21988.83
781.552	22229.5
781.886	22073.12
782.22	22126
782.554	22098.66
782.888	21916.29
783.222	21968.72
783.556	21956.51
783.889	21890.3
784.223	21885.78
784.557	21907.25
784.89	22027.7
785.224	21881.94
785.557	21762.62
785.891	21910.64
786.224	21879
786.558	21866.57
786.891	21764.2
787.224	21711.77
787.557	21657.99
787.891	21662.51
788.224	21678.55
788.557	21589.52
788.89	21643.75
789.223	21654.15
789.556	21490.99
789.888	21470.2
790.221	21374.16
790.554	21338.45
790.887	21354.95
791.219	21280.37
791.552	21170.55
791.884	21153.6
792.217	21060.94
792.549	21075.63
792.882	20830.89
793.214	20796.54
793.546	21000.15
793.879	20813.72
794.211	20719.71
794.543	20784.79
794.875	20674.29
795.207	20749.99
795.539	20603.78
795.871	20673.38
796.203	20621.86
796.535	20441.3
796.867	20395.2
797.198	20373.05
797.53	20369.21
797.862	20272.94
798.193	20331.47
798.525	20148.65
798.856	20223.23
799.188	20121.53
799.519	20001.76
799.85	19913.85
800.182	19978.49
800.513	19921.54
800.844	19828.89
801.175	19920.18
801.506	19902.1
801.837	19721.54
802.168	19734.65
802.499	19568.55
802.83	19600.87
803.161	19468.22
803.491	19553.41
803.822	19548.44
804.153	19451.72
804.483	19387.99
804.814	19265.51
805.145	19200.88
805.475	19285.62
805.805	19253.53
806.136	19086.76
806.466	19197.26
806.796	19116.14
807.126	18949.59
807.457	18960.43
807.787	18962.69
808.117	18890.15
808.447	18827.78
808.777	18867.1
809.107	18664.4
809.436	18633.21
809.766	18676.83
810.096	18665.53
810.426	18550.95
810.755	18548.24
811.085	18414.69
811.414	18572.2
811.744	18304.86
812.073	18273.67
812.403	18339.21
812.732	18200.68
813.061	18330.85
813.39	18148.7
813.719	18238.19
814.049	18254.24
814.378	18085.88
814.707	18083.39
815.036	17979.67
815.365	17919.56
815.693	17708.94
816.022	17891.99
816.351	17866.23
816.68	17642.05
817.008	17745.78
817.337	17571.09
817.665	17529.28
817.994	17601.37
818.322	17563.18
818.651	17511.21
818.979	17492.45
819.307	17538.78
819.636	17547.59
819.964	17334.71
820.292	17492.45
820.62	17496.52
820.948	17393.7
821.276	17401.6
821.604	17348.05
821.932	17412
822.259	17368.16
822.587	17377.88
822.915	17371.32
823.243	17470.98
823.57	17346.69
823.898	17318.22
824.225	17328.84
824.553	17291.55
824.88	17427.82
825.207	17357.76
825.535	17245.68
825.862	17372.45
826.189	17286.13
826.516	17423.07
826.843	17432.34
827.17	17442.06
827.497	17336.07
827.824	17346.69
828.151	17422.85
828.478	17301.95
828.805	17467.14
829.131	17418.78
829.458	17395.05
829.785	17252.68
830.111	17274.38
830.438	17383.53
830.764	17432.56
831.09	17459.91
831.417	17278.67
831.743	17357.09
832.069	17329.74
832.395	17308.73
832.722	17294.04
833.048	17247.03
833.374	17301.72
833.7	17142.63
834.026	17180.14
834.351	17203.87
834.677	17148.05
835.003	17271.89
835.329	17210.88
835.654	17097.88
835.98	17096.08
836.306	17131.56
836.631	17080.94
836.956	17149.86
837.282	17075.74
837.607	17082.52
837.932	16985.57
838.258	16931.56
838.583	16920.49
838.908	16900.15
839.233	16847.27
839.558	16841.62
839.883	16759.36
840.208	16652.92
840.533	16753.49
840.858	16724.79
841.182	16698.57
841.507	16737.22
841.832	16713.04
842.156	16508.75
842.481	16617.9
842.805	16561.17
843.13	16492.93
843.454	16494.96
843.778	16428.52
844.103	16358.69
844.427	16379.71
844.751	16335.42
845.075	16337.68
845.399	16223.1
845.723	16192.6
846.047	16229.88
846.371	16035.76
846.695	16000.06
847.019	15941.3
847.343	15830.35
847.666	15800.06
847.99	15772.72
848.313	15761.2
848.637	15559.62
848.96	15594.87
849.284	15484.14
849.607	15447.98
849.931	15419.06
850.254	15302.9
850.577	15207.09
850.9	15078.05
851.223	15052.97
851.546	14997.37
851.869	14984.72
852.192	15017.49
852.515	14833.08
852.838	14738.4
853.161	14813.65
853.483	14755.35
853.806	14597.38
854.129	14661.79
854.451	14638.74
854.774	14472.42
855.096	14426.54
855.419	14358.75
855.741	14375.92
856.063	14278.07
856.385	14202.37
856.708	14271.52
857.03	14182.93
857.352	14180.22
857.674	14155.36
857.996	14182.71
858.318	14007.57
858.64	13976.38
858.961	13946.33
859.283	13907.91
859.605	13803.96
859.926	13895.03
860.248	13798.31
860.57	13701.14
860.891	13768.93
861.212	13770.29
861.534	13678.09
861.855	13517.41
862.176	13617.75
862.498	13559.9
862.819	13646.22
863.14	13567.13
863.461	13561.48
863.782	13432.22
864.103	13539.11
864.424	13414.59
864.745	13499.11
865.065	13311.32
865.386	13256.4
865.707	13384.31
866.027	13309.73
866.348	13220.92
866.668	13294.14
866.989	13220.92
867.309	13198.33
867.63	13169.4
867.95	13193.13
868.27	13010.53
868.59	13110.42
868.91	13023.41
869.23	13042.85
869.55	12975.05
869.87	13054.83
870.19	13018.22
870.51	12971.44
870.83	13010.76
871.15	12965.79
871.469	12951.33
871.789	12953.13
872.109	12920.59
872.428	12794.95
872.748	12912.01
873.067	12847.6
873.386	12809.18
873.706	12822.29
874.025	12737.32
874.344	12702.75
874.663	12754.72
874.982	12630.66
875.301	12593.6
875.62	12606.25
875.939	12674.5
876.258	12608.06
876.577	12565.57
876.896	12587.27
877.214	12624.78
877.533	12582.52
877.852	12503.2
878.17	12499.81
878.489	12427.72
878.807	12473.82
879.125	12440.61
879.444	12357.9
879.762	12313.6
880.08	12310.67
880.398	12284
880.716	12321.06
881.034	12271.57
881.352	12323.32
881.67	12274.96
881.988	12217.79
882.306	12196.32
882.624	12185.47
882.941	12164.45
883.259	12079.03
883.577	12121.97
883.894	12111.12
884.212	12050.11
884.529	12091.91
884.846	11980.96
885.164	11967.62
885.481	11876.33
885.798	11896.44
886.115	11803.79
886.432	11800.4
886.75	11763.33
887.067	11827.97
887.383	11690.12
887.7	11686.5
888.017	11659.38
888.334	11703.45
888.651	11559.72
888.967	11683.11
889.284	11530.8
889.6	11483.79
889.917	11515.88
890.233	11503
890.55	11455.09
890.866	11391.59
891.182	11359.5
891.498	11326.28
891.815	11272.27
892.131	11194.76
892.447	11215.78
892.763	11181.43
893.079	11165.38
893.395	11099.17
893.71	11072.73
894.026	11064.14
894.342	11023.24
894.657	10947.31
894.973	10975.78
895.289	10912.74
895.604	10870.25
895.92	10790.25
896.235	10756.13
896.55	10752.51
896.865	10710.93
897.181	10634.78
897.496	10710.26
897.811	10611.5
898.126	10609.92
898.441	10576.7
898.756	10497.15
899.071	10513.2
899.386	10494.67
899.7	10315.46
900.015	10364.73
900.33	10277.5
900.644	10170.61
900.959	10225.97
901.273	10166.77
901.588	10101.01
901.902	10113.21
902.216	10016.94
902.531	10077.96
902.845	9984.4
903.159	9912.08
903.473	9969.48
903.787	9919.32
904.101	9803.61
904.415	9903.5
904.729	9748.7
905.042	9728.36
905.356	9703.73
905.67	9658.31
905.984	9663.73
906.297	9561.81
906.611	9567.91
906.924	9575.37
907.237	9508.03
907.551	9486.78
907.864	9435.94
908.177	9360.46
908.491	9395.71
908.804	9331.31
909.117	9256.73
909.43	9142.61
909.743	9194.59
910.056	9157.98
910.368	9077.08
910.681	9065.33
910.994	9033.24
911.307	9057.64
911.619	8917.31
911.932	8971.54
912.244	8872.79
912.557	8846.58
912.869	8823.07
913.181	8770.65
913.494	8774.26
913.806	8634.38
914.118	8675.73
914.43	8607.26
914.742	8614.49
915.054	8548.5
915.366	8586.92
915.678	8483.42
915.99	8491.1
916.302	8415.85
916.613	8373.14
916.925	8368.17
917.236	8339.92
917.548	8315.97
917.859	8248.62
918.171	8159.59
918.482	8178.34
918.794	8209.98
919.105	8157.78
919.416	8067.61
919.727	8160.27
920.038	8040.27
920.349	8011.79
920.66	7924.79
920.971	7933.6
921.282	7869.2
921.593	7826.49
921.903	7797.79
922.214	7846.38
922.525	7765.93
922.835	7714.85
923.146	7645.02
923.456	7603.22
923.767	7568.87
924.077	7581.98
924.387	7507.63
924.697	7481.87
925.008	7438.7
925.318	7462.43
925.628	7405.94
925.938	7371.81
926.248	7384.01
926.558	7360.06
926.867	7261.98
927.177	7295.66
927.487	7205.49
927.796	7218.14
928.106	7224.25
928.416	7166.39
928.725	7131.59
929.034	7109.45
929.344	7092.95
929.653	7092.27
929.962	6940.41
930.271	6925.72
930.581	6899.51
930.89	6927.3
931.199	6902.9
931.508	6843.69
931.817	6894.54
932.125	6815.89
932.434	6819.51
932.743	6751.26
933.051	6685.5
933.36	6673.75
933.669	6690.7
933.977	6657.93
934.286	6584.04
934.594	6644.6
934.902	6601.66
935.21	6490.71
935.519	6439.18
935.827	6496.81
936.135	6396.24
936.443	6408.67
936.751	6383.36
937.059	6366.64
937.367	6343.36
937.674	6354.89
937.982	6318.96
938.29	6241.22
938.597	6266.98
938.905	6201.9
939.213	6181.56
939.52	6127.1
939.827	6166.65
940.135	6068.12
940.442	6087.78
940.749	6072.86
941.056	6064.95
941.363	5953.54
941.67	5991.28
941.977	5943.37
942.284	5863.38
942.591	5875.35
942.898	5818.86
943.205	5868.8
943.511	5818.86
943.818	5795.58
944.125	5705.19
944.431	5745.19
944.738	5721.46
945.044	5656.6
945.35	5647.79
945.657	5585.64
945.963	5561.69
946.269	5575.02
946.575	5569.37
946.881	5542.26
947.187	5528.7
947.493	5481.47
947.799	5432.43
948.105	5418.42
948.41	5437.17
948.716	5408.93
949.022	5362.6
949.327	5329.61
949.633	5352.66
949.938	5284.18
950.244	5318.53
950.549	5252.32
950.854	5243.96
951.16	5224.98
951.465	5182.94
951.77	5134.81
952.075	5128.03
952.38	5113.57
952.685	5110.63
952.99	5039.67
953.294	5050.97
953.599	5007.13
953.904	4977.98
954.209	4972.1
954.513	4986.79
954.818	4944.76
955.122	4947.02
955.426	4899.56
955.731	4845.1
956.035	4885.55
956.339	4863.63
956.643	4806.68
956.948	4822.05
957.252	4744.54
957.556	4751.32
957.86	4723.75
958.163	4709.51
958.467	4714.03
958.771	4680.13
959.075	4640.36
959.378	4613.24
959.682	4636.29
959.985	4619.57
960.289	4543.86
960.592	4576.63
960.896	4530.08
961.199	4486.46
961.502	4518.78
961.805	4474.03
962.108	4463.41
962.411	4434.71
962.714	4369.4
963.017	4401.27
963.32	4372.12
963.623	4352.91
963.926	4307.71
964.228	4283.31
964.531	4273.81
964.833	4330.76
965.136	4276.98
965.438	4231.78
965.741	4236.08
966.043	4189.97
966.345	4182.29
966.648	4178.68
966.95	4160.82
967.252	4123.99
967.554	4108.17
967.856	4114.5
968.158	4063.88
968.46	4020.94
968.761	4049.41
969.063	4011
969.365	4013.93
969.666	4001.73
969.968	3980.49
970.269	3940.72
970.571	3926.93
970.872	3924.44
971.174	3862.3
971.475	3893.03
971.776	3877.21
972.077	3840.15
972.378	3843.54
972.679	3830.89
972.98	3819.59
973.281	3771.91
973.582	3745.92
973.883	3738.46
974.183	3718.57
974.484	3733.72
974.785	3707.73
975.085	3687.84
975.386	3663.43
975.686	3657.56
975.986	3661.85
976.287	3628.86
976.587	3608.07
976.887	3597
977.187	3552.93
977.487	3556.32
977.787	3521.29
978.087	3488.98
978.387	3511.35
978.687	3492.59
978.987	3458.02
979.286	3445.36
979.586	3440.84
979.885	3446.72
980.185	3400.84
980.484	3371.24
980.784	3399.03
981.083	3352.93
981.382	3348.87
981.682	3319.94
981.981	3312.48
982.28	3274.29
982.579	3253.73
982.878	3296.21
983.177	3275.42
983.475	3273.16
983.774	3207.85
984.073	3224.35
984.372	3164.24
984.67	3190.9
984.969	3193.62
985.267	3167.85
985.566	3133.51
985.864	3161.75
986.162	3069.78
986.461	3113.39
986.759	3062.55
987.057	3082.66
987.355	3038.59
987.653	3021.19
987.951	2997.92
988.249	2991.81
988.547	3001.53
988.844	2943.45
989.142	3005.6
989.44	2929.44
989.737	2954.98
990.035	2916.34
990.332	2884.02
990.63	2896.45
990.927	2890.57
991.224	2851.48
991.521	2887.86
991.819	2822.78
992.116	2866.62
992.413	2830.24
992.71	2800.18
993.006	2791.37
993.303	2785.49
993.6	2761.99
993.897	2742.56
994.193	2731.71
994.49	2752.95
994.787	2672.05
995.083	2688.77
995.379	2699.17
995.676	2671.6
995.972	2672.95
996.268	2645.83
996.565	2652.16
996.861	2597.93
997.157	2611.94
997.453	2539.85
997.749	2582.33
998.044	2585.95
998.34	2564.25
998.636	2578.49
998.932	2514.76
999.227	2484.71
999.523	2520.19
999.818	2481.09
1000.114	2468.21
1000.409	2460.75
1000.704	2486.52
1001	2409.23
1001.295	2414.2
1001.59	2387.99
1001.885	2403.81
1002.18	2387.08
1002.475	2386.18
1002.77	2365.39
1003.065	2338.72
1003.359	2324.26
1003.654	2336.92
1003.949	2313.19
1004.243	2271.61
1004.538	2279.74
1004.832	2288.1
1005.127	2225.51
1005.421	2218.73
1005.715	2216.24
1006.009	2192.74
1006.304	2211.95
1006.598	2182.57
1006.892	2159.97
1007.186	2128.11
1007.48	2153.19
1007.773	2134.89
1008.067	2128.11
1008.361	2101.89
1008.655	2095.57
1008.948	2086.98
1009.242	2085.17
1009.535	2068
1009.829	2075.23
1010.122	2059.86
1010.415	2038.39
1010.708	2016.25
1011.001	1990.03
1011.295	1979.19
1011.588	1995.23
1011.881	1971.73
1012.173	1936.47
1012.466	1959.75
1012.759	1908
1013.052	1926.76
1013.344	1897.38
1013.637	1912.75
1013.93	1894.44
1014.222	1880.66
1014.514	1888.11
1014.807	1870.26
1015.099	1815.8
1015.391	1826.19
1015.683	1825.74
1015.976	1818.51
1016.268	1803.14
1016.56	1786.87
1016.851	1766.31
1017.143	1779.42
1017.435	1737.84
1017.727	1742.13
1018.018	1742.81
1018.31	1702.13
1018.602	1727.89
1018.893	1714.33
1019.185	1670.27
1019.476	1687.22
1019.767	1617.84
1020.058	1662.36
1020.35	1606.31
1020.641	1617.39
1020.932	1638.86
1021.223	1600.89
1021.514	1609.93
1021.804	1583.04
1022.095	1563.83
1022.386	1545.07
1022.677	1546.88
1022.967	1547.33
1023.258	1543.49
1023.548	1519.99
1023.839	1528.12
1024.129	1524.06
1024.419	1488.12
1024.709	1487.67
1025	1476.6
1025.29	1451.52
1025.58	1454.91
1025.87	1461.46
1026.16	1453.1
1026.449	1432.31
1026.739	1435.24
1027.029	1404.51
1027.319	1390.05
1027.608	1388.69
1027.898	1378.98
1028.187	1361.8
1028.477	1345.3
1028.766	1322.48
1029.055	1332.2
1029.344	1367.22
1029.634	1329.26
1029.923	1294.91
1030.212	1290.84
1030.501	1309.15
1030.79	1282.25
1031.078	1260.11
1031.367	1288.36
1031.656	1235.93
1031.945	1251.52
1032.233	1239.32
1032.522	1248.36
1032.81	1247.23
1033.099	1227.79
1033.387	1231.63
1033.675	1220.79
1033.963	1223.72
1034.251	1199.09
1034.54	1174.23
1034.828	1166.78
1035.116	1166.33
1035.403	1165.2
1035.691	1158.87
1035.979	1143.28
1036.267	1159.77
1036.554	1121.13
1036.842	1125.42
1037.129	1128.81
1037.417	1102.15
1037.704	1102.15
1037.992	1096.5
1038.279	1075.93
1038.566	1099.21
1038.853	1099.21
1039.14	1099.21
