Data from hue_140_FLMS001491_00097.txt Node
Date: Tue Feb 07 16:56:41 GMT 2017
User: dcchb
Spectrometer: FLMS00149
Trigger mode: 0
Integration Time (sec): 2.000000E-2
Scans to average: 10
Electric dark correction enabled: true
Nonlinearity correction enabled: false
Boxcar width: 0
XAxis mode: Wavelengths
Number of Pixels in Spectrum: 2048
>>>>>Begin Spectral Data<<<<<
341.393	-14.32
341.776	-14.32
342.16	-14.32
342.543	-59.07
342.927	-44.83
343.31	-96.35
343.693	-58.39
344.077	-77.37
344.46	-54.77
344.843	-57.03
345.226	-31.95
345.61	-34.66
345.993	-10.03
346.376	-15.23
346.759	16.64
347.142	23.42
347.525	66.58
347.908	45.11
348.291	73.13
348.674	95.96
349.057	114.94
349.44	142.06
349.823	150.87
350.206	164.88
350.588	189.06
350.971	204.43
351.354	224.09
351.737	252.79
352.119	262.06
352.502	260.93
352.884	296.18
353.267	288.95
353.65	302.28
354.032	300.02
354.414	302.51
354.797	316.97
355.179	309.51
355.562	311.55
355.944	325.1
356.326	329.17
356.709	339.12
357.091	344.99
357.473	351.54
357.855	342.51
358.238	351.54
358.62	354.71
359.002	326.46
359.384	333.47
359.766	356.29
360.148	349.51
360.53	340.25
360.912	348.38
361.294	333.69
361.676	338.89
362.057	323.52
362.439	329.85
362.821	336.4
363.203	333.01
363.584	336.4
363.966	336.86
364.348	329.17
364.729	340.25
365.111	335.05
365.493	327.82
365.874	332.56
366.256	312.68
366.637	307.25
367.019	326.01
367.4	348.83
367.781	318.78
368.163	313.58
368.544	322.39
368.925	289.4
369.306	348.83
369.688	320.13
370.069	310.19
370.45	307.03
370.831	319.45
371.212	324.88
371.593	315.16
371.974	316.74
372.355	316.07
372.736	325.78
373.117	324.88
373.498	312.9
373.879	316.52
374.26	298.89
374.641	321.71
375.021	314.94
375.402	333.92
375.783	313.35
376.163	333.92
376.544	330.3
376.925	305.9
377.305	330.98
377.686	326.91
378.066	357.19
378.447	334.14
378.827	364.65
379.208	316.29
379.588	322.17
379.968	335.05
380.349	340.47
380.729	344.76
381.109	339.79
381.489	329.62
381.87	328.27
382.25	348.83
382.63	355.16
383.01	365.1
383.39	345.22
383.77	365.56
384.15	351.09
384.53	358.1
384.91	349.06
385.29	348.83
385.67	367.36
386.049	359.68
386.429	358.78
386.809	351.77
387.189	353.8
387.568	352
387.948	361.04
388.328	338.44
388.707	362.84
389.087	371.2
389.466	387.7
389.846	372.11
390.225	368.27
390.605	382.5
390.984	367.82
391.363	354.71
391.743	385.67
392.122	378.89
392.501	379.79
392.881	372.79
393.26	375.05
393.639	378.44
394.018	398.1
394.397	384.54
394.776	406.91
395.155	401.26
395.534	381.6
395.913	383.86
396.292	391.32
396.671	382.96
397.05	406.46
397.429	383.63
397.808	408.27
398.186	385.89
398.565	403.97
398.944	377.76
399.323	399.45
399.701	392.45
400.08	406.01
400.458	407.14
400.837	412.11
401.215	404.42
401.594	413.46
401.972	419.11
402.351	409.17
402.729	411.88
403.107	415.95
403.486	423.18
403.864	419.79
404.242	432.67
404.62	447.59
404.999	430.41
405.377	448.04
405.755	412.33
406.133	429.06
406.511	446.91
406.889	441.26
407.267	452.78
407.645	444.88
408.023	441.94
408.401	442.84
408.779	446.23
409.156	470.41
409.534	459.56
409.912	465.21
410.29	458.21
410.667	466.8
411.045	457.76
411.422	461.6
411.8	494.59
412.178	478.09
412.555	497.3
412.933	473.8
413.31	523.74
413.687	484.2
414.065	500.02
414.442	510.86
414.819	507.92
415.197	502.27
415.574	511.54
415.951	511.09
416.328	507.02
416.705	509.96
417.082	515.83
417.46	516.74
417.837	515.38
418.214	487.81
418.591	523.52
418.967	542.95
419.344	537.75
419.721	525.1
420.098	549.05
420.475	537.98
420.852	536.17
421.228	533.01
421.605	548.83
421.982	560.13
422.358	559.22
422.735	547.7
423.111	568.49
423.488	573.69
423.864	570.3
424.241	569.62
424.617	569.84
424.994	612.78
425.37	586.57
425.746	578.88
426.123	576.85
426.499	605.78
426.875	608.94
427.251	615.72
427.627	611.42
428.003	611.42
428.379	622.27
428.756	626.79
429.132	632.67
429.507	642.16
429.883	627.47
430.259	658.65
430.635	646.45
431.011	645.77
431.387	665.66
431.763	639.67
432.138	663.63
432.514	671.54
432.89	668.37
433.265	690.74
433.641	716.73
434.016	697.07
434.392	701.37
434.767	713.12
435.143	705.89
435.518	718.31
435.894	730.74
436.269	739.33
436.644	744.75
437.02	703.85
437.395	764.87
437.77	756.73
438.145	770.52
438.52	782.72
438.895	761.93
439.271	765.09
439.646	770.52
440.021	784.75
440.395	801.7
440.77	792.44
441.145	799.89
441.52	805.09
441.895	830.85
442.27	825.66
442.645	830.18
443.019	804.19
443.394	841.02
443.769	847.8
444.143	809.61
444.518	833.11
444.892	855.03
445.267	849.61
445.641	843.73
446.016	851.87
446.39	856.84
446.764	875.82
447.139	865.88
447.513	871.53
447.887	880.57
448.262	887.58
448.636	899.1
449.01	931.87
449.384	913.34
449.758	896.61
450.132	935.26
450.506	945.2
450.88	945.43
451.254	931.64
451.628	928.48
452.002	964.18
452.376	957.4
452.75	969.83
453.123	985.43
453.497	1005.09
453.871	981.58
454.244	1016.16
454.618	1025.65
454.992	1038.76
455.365	1034.24
455.739	1069.27
456.112	1058.42
456.486	1088.02
456.859	1055.48
457.232	1072.88
457.606	1118.76
457.979	1106.78
458.352	1132.54
458.725	1151.52
459.099	1164.4
459.472	1188.81
459.845	1196.04
460.218	1196.72
460.591	1239.43
460.964	1207.57
461.337	1254.35
461.71	1267.68
462.083	1294.57
462.456	1262.93
462.829	1324.17
463.201	1305.19
463.574	1332.99
463.947	1355.81
464.32	1363.5
464.692	1389.03
465.065	1407.34
465.438	1409.82
465.81	1439.2
466.183	1466.09
466.555	1502.47
466.928	1505.41
467.3	1515.81
467.672	1543.38
468.045	1578.18
468.417	1598.97
468.789	1592.42
469.161	1618.86
469.534	1644.62
469.906	1697.05
470.278	1744.5
470.65	1735.69
471.022	1799.87
471.394	1836.25
471.766	1837.38
472.138	1885.74
472.51	1936.81
472.882	1956.25
473.253	2034.44
473.625	2048.22
473.997	2087.32
474.369	2118.05
474.74	2145.17
475.112	2209.57
475.484	2256.81
475.855	2332.96
476.227	2329.57
476.598	2448.44
476.97	2469
477.341	2550.13
477.713	2585.38
478.084	2678.71
478.455	2737.7
478.827	2793.97
479.198	2903.79
479.569	2974.98
479.94	3048.65
480.311	3072.6
480.682	3174.52
481.053	3301.3
481.424	3372.71
481.795	3483.67
482.166	3513.72
482.537	3599.59
482.908	3725.02
483.279	3844.79
483.65	3931.79
484.021	4097.89
484.391	4138.56
484.762	4224.66
485.133	4333.13
485.503	4415.84
485.874	4590.3
486.244	4687.02
486.615	4779.68
486.985	4917.3
487.356	5073.45
487.726	5168.37
488.097	5291.98
488.467	5360.23
488.837	5575.36
489.207	5660.11
489.578	5778.52
489.948	5946.65
490.318	6108
490.688	6191.62
491.058	6324.49
491.428	6485.17
491.798	6602
492.168	6748.89
492.538	6820.3
492.908	6936.91
493.278	7101.2
493.648	7207.86
494.017	7359.5
494.387	7520.85
494.757	7604.01
495.126	7751.58
495.496	7826.83
495.866	7952.47
496.235	8140.49
496.605	8188.17
496.974	8348.17
497.344	8437.21
497.713	8575.51
498.082	8716.97
498.452	8795.84
498.821	8940.02
499.19	8973.92
499.559	9150.86
499.928	9216.17
500.298	9289.84
500.667	9413.91
501.036	9443.06
501.405	9644.41
501.774	9681.92
502.143	9805.53
502.512	9892.54
502.88	9962.59
503.249	10036.26
503.618	10140.89
503.987	10151.29
504.356	10288.46
504.724	10382.47
505.093	10483.26
505.462	10452.52
505.83	10563.48
506.199	10669.24
506.567	10845.28
506.936	10863.81
507.304	10987.2
507.672	11045.05
508.041	11061.55
508.409	11180.86
508.777	11189.9
509.145	11313.29
509.514	11311.26
509.882	11383.8
510.25	11371.59
510.618	11447.07
510.986	11466.96
511.354	11642.55
511.722	11749.21
512.09	11849.55
512.458	11797.8
512.826	11829.66
513.193	11903.78
513.561	11958.24
513.929	12064.23
514.297	12115.75
514.664	12101.97
515.032	12106.26
515.4	12248.63
515.767	12304.45
516.135	12272.59
516.502	12239.59
516.869	12500.83
517.237	12407.5
517.604	12392.36
517.972	12499.25
518.339	12577.44
518.706	12543.31
519.073	12549.87
519.44	12647.27
519.808	12740.37
520.175	12652.24
520.542	12822.18
520.909	12732.01
521.276	12820.6
521.643	12835.06
522.009	12889.29
522.376	12883.42
522.743	13029.4
523.11	13064.66
523.477	13080.93
523.843	13152.79
524.21	13235.5
524.577	13248.15
524.943	13208.61
525.31	13289.51
525.676	13387.36
526.043	13421.48
526.409	13273.46
526.776	13453.35
527.142	13455.15
527.508	13357.3
527.874	13507.58
528.241	13589.61
528.607	13455.61
528.973	13547.58
529.339	13467.13
529.705	13560.69
530.071	13587.58
530.437	13621.48
530.803	13558.2
531.169	13560.01
531.535	13550.07
531.901	13527.47
532.267	13547.81
532.632	13541.93
532.998	13549.84
533.364	13562.95
533.73	13579.45
534.095	13654.47
534.461	13561.59
534.826	13546
535.192	13559.78
535.557	13570.63
535.923	13464.65
536.288	13485.21
536.653	13512.78
537.019	13440.47
537.384	13463.29
537.749	13460.8
538.114	13366.8
538.479	13392.11
538.845	13370.86
539.21	13296.51
539.575	13297.87
539.94	13188.5
540.305	13291.09
540.67	13249.96
541.034	13163.41
541.399	13171.55
541.764	13070.08
542.129	13195.05
542.494	13107.14
542.858	13102.17
543.223	12979.01
543.587	13067.82
543.952	12957.09
544.316	13020.82
544.681	12907.82
545.045	12849.75
545.41	12895.4
545.774	12760.03
546.138	12851.33
546.503	12762.52
546.867	12729.3
547.231	12758
547.595	12705.57
547.959	12727.72
548.324	12627.15
548.688	12537.21
549.052	12635.97
549.416	12606.59
549.779	12545.8
550.143	12473.94
550.507	12560.49
550.871	12517.33
551.235	12484.78
551.599	12429.64
551.962	12438.23
552.326	12359.82
552.689	12390.32
553.053	12313.72
553.417	12296.99
553.78	12465.8
554.143	12335.86
554.507	12295.41
554.87	12281.4
555.234	12359.82
555.597	12172.02
555.96	12184.91
556.323	12152.82
556.686	12100.39
557.05	12190.56
557.413	12221.51
557.776	12139.94
558.139	12180.84
558.502	12163.89
558.865	12027.4
559.228	12156.21
559.59	12141.97
559.953	12097.9
560.316	12158.24
560.679	12103.78
561.041	12196.2
561.404	12129.99
561.767	12275.52
562.129	12107.39
562.492	12237.79
562.854	12111.91
563.217	12142.19
563.579	12176.54
563.941	12133.83
564.304	12267.84
564.666	12206.6
565.028	12217.9
565.39	12276.88
565.753	12328.18
566.115	12293.83
566.477	12278.91
566.839	12230.33
567.201	12310.55
567.563	12346.26
567.925	12384
568.287	12411.79
568.648	12359.82
569.01	12322.3
569.372	12404.11
569.734	12381.28
570.095	12431.23
570.457	12438.01
570.819	12374.96
571.18	12374.96
571.542	12431.23
571.903	12388.74
572.265	12502.41
572.626	12413.6
572.987	12478.01
573.349	12490.21
573.71	12502.86
574.071	12521.39
574.432	12508.06
574.794	12636.87
575.155	12623.54
575.516	12575.18
575.877	12562.07
576.238	12609.98
576.599	12570.21
576.96	12581.28
577.32	12625.8
577.681	12586.25
578.042	12647.49
578.403	12607.27
578.763	12608.17
579.124	12536.99
579.485	12625.35
579.845	12604.33
580.206	12576.08
580.566	12638.45
580.927	12605.69
581.287	12649.3
581.648	12542.86
582.008	12630.32
582.368	12580.83
582.728	12599.36
583.089	12594.16
583.449	12497.21
583.809	12538.79
584.169	12567.04
584.529	12539.47
584.889	12562.3
585.249	12602.75
585.609	12468.29
585.969	12579.47
586.329	12459.93
586.688	12529.3
587.048	12499.93
587.408	12445.46
587.768	12465.58
588.127	12431.68
588.487	12486.59
588.846	12575.63
589.206	12439.14
589.565	12401.85
589.925	12447.95
590.284	12437.55
590.643	12443.66
591.003	12462.64
591.362	12506.48
591.721	12433.71
592.08	12408.85
592.44	12431.68
592.799	12465.35
593.158	12387.16
593.517	12397.33
593.876	12409.76
594.235	12323.43
594.593	12305.81
594.952	12374.51
595.311	12309.87
595.67	12295.86
596.029	12341.51
596.387	12355.97
596.746	12443.88
597.104	12365.69
597.463	12345.81
597.822	12431.23
598.18	12340.83
598.538	12278.01
598.897	12390.55
599.255	12287.95
599.613	12418.8
599.972	12412.02
600.33	12380.15
600.688	12308.52
601.046	12263.77
601.404	12402.53
601.762	12335.64
602.12	12392.13
602.478	12427.61
602.836	12381.74
603.194	12313.94
603.552	12288.63
603.91	12252.47
604.268	12337.44
604.625	12277.11
604.983	12301.06
605.341	12280.72
605.698	12309.42
606.056	12404.79
606.413	12332.47
606.771	12379.48
607.128	12402.98
607.485	12299.25
607.843	12375.64
608.2	12364.56
608.557	12428.74
608.914	12371.79
609.272	12418.57
609.629	12459.02
609.986	12447.27
610.343	12400.95
610.7	12451.79
611.057	12500.6
611.414	12349.87
611.771	12431.45
612.127	12560.26
612.484	12548.29
612.841	12578.57
613.198	12506.25
613.554	12460.15
613.911	12498.57
614.267	12562.75
614.624	12487.04
614.98	12596.87
615.337	12606.59
615.693	12608.4
616.05	12572.92
616.406	12639.13
616.762	12512.13
617.118	12524.78
617.475	12580.6
617.831	12656.98
618.187	12646.14
618.543	12670.09
618.899	12696.76
619.255	12629.41
619.611	12686.36
619.967	12730.2
620.323	12708.06
620.678	12642.75
621.034	12617.89
621.39	12681.84
621.746	12713.48
622.101	12775.4
622.457	12683.42
622.812	12775.17
623.168	12741.95
623.523	12759.35
623.879	12741.05
624.234	12718
624.589	12645.23
624.945	12700.15
625.3	12715.97
625.655	12638.68
626.01	12671.22
626.365	12712.58
626.72	12772.23
627.075	12739.24
627.43	12608.62
627.785	12628.51
628.14	12722.07
628.495	12631.45
628.85	12630.54
629.205	12642.97
629.559	12658.57
629.914	12566.36
630.269	12609.3
630.623	12592.13
630.978	12604.1
631.332	12641.16
631.687	12599.81
632.041	12569.75
632.396	12596.19
632.75	12517.1
633.104	12545.57
633.459	12529.3
633.813	12560.71
634.167	12502.64
634.521	12454.73
634.875	12475.07
635.229	12463.54
635.583	12401.62
635.937	12375.41
636.291	12374.73
636.645	12319.59
636.999	12360.95
637.352	12347.84
637.706	12350.55
638.06	12342.64
638.413	12318.91
638.767	12254.06
639.121	12343.09
639.474	12159.82
639.828	12205.47
640.181	12287.5
640.534	12275.52
640.888	12201.18
641.241	12130.44
641.594	12108.98
641.947	12205.92
642.301	12165.7
642.654	12211.12
643.007	12251.34
643.36	12183.1
643.713	12165.47
644.066	12249.99
644.419	12117.56
644.771	12035.53
645.124	11977.91
645.477	11929.09
645.83	11848.64
646.182	11821.75
646.535	11745.14
646.888	11748.08
647.24	11733.62
647.593	11818.81
647.945	11784.69
648.298	11715.09
648.65	11723.45
649.002	11656.11
649.355	11675.54
649.707	11733.84
650.059	11734.52
650.411	11941.07
650.763	11847.74
651.115	12014.06
651.467	11920.73
651.819	11945.14
652.171	11957.79
652.523	11914.18
652.875	11984.46
653.227	11867.4
653.578	12005.93
653.93	12000.05
654.282	11907.17
654.633	11853.61
654.985	11941.07
655.337	11980.84
655.688	11931.13
656.039	11974.06
656.391	11872.82
656.742	11934.97
657.094	11951.69
657.445	11973.16
657.796	11947.62
658.147	11990.11
658.498	11959.15
658.849	11982.88
659.2	11989.43
659.551	11957.11
659.902	11968.41
660.253	11941.3
660.604	12047.28
660.955	11970.9
661.306	12068.98
661.656	11955.76
662.007	12019.71
662.358	11967.74
662.708	11972.93
663.059	12004.35
663.409	11930.9
663.76	12012.03
664.11	12007.96
664.461	11957.11
664.811	12044.34
665.161	12042.76
665.511	11998.02
665.862	12009.77
666.212	12030.56
666.562	12023.33
666.912	12050.67
667.262	12049.32
667.612	12033.72
667.962	12007.28
668.312	11966.61
668.662	12104.91
669.011	12069.65
669.361	11977
669.711	11948.75
670.06	11955.08
670.41	11952.37
670.76	12049.54
671.109	12019.03
671.459	11945.82
671.808	11910.34
672.157	12050.9
672.507	11920.05
672.856	11871.92
673.205	11898.81
673.554	11925.93
673.904	11831.69
674.253	11972.26
674.602	11956.21
674.951	11803.9
675.3	11698.36
675.649	11918.02
675.998	11829.89
676.346	11841.86
676.695	11890.9
677.044	11725.48
677.393	11807.06
677.741	11781.75
678.09	11831.47
678.438	11798.7
678.787	11759.15
679.135	11808.87
679.484	11751.7
679.832	11731.58
680.181	11649.1
680.529	11700.62
680.877	11613.62
681.225	11605.26
681.573	11731.36
681.922	11649.78
682.27	11623.34
682.618	11533.17
682.966	11536.11
683.314	11526.84
683.661	11449.56
684.009	11368.66
684.357	11400.97
684.705	11430.8
685.053	11386.51
685.4	11421.99
685.748	11305.38
686.095	11241.2
686.443	11239.17
686.79	11249.56
687.138	11294.31
687.485	11218.38
687.832	11160.75
688.18	11240.07
688.527	11194.88
688.874	11135.67
689.221	11151.49
689.568	10994.65
689.915	11077.36
690.262	11069
690.609	10965.5
690.956	10953.75
691.303	10916.01
691.65	10929.35
691.997	10906.75
692.344	10797.37
692.69	10741.78
693.037	10796.92
693.383	10663.14
693.73	10714.66
694.077	10602.12
694.423	10610.26
694.769	10560.54
695.116	10524.16
695.462	10593.99
695.808	10489.81
696.155	10510.6
696.501	10375.24
696.847	10407.1
697.193	10255.69
697.539	10394.9
697.885	10271.74
698.231	10163.26
698.577	10252.75
698.923	10171.85
699.269	10183.83
699.614	10088.92
699.96	10077.39
700.306	10082.14
700.651	9935.7
700.997	9984.51
701.342	9937.96
701.688	9941.57
702.033	9865.64
702.379	9843.5
702.724	9827
703.069	9868.36
703.415	9643.5
703.76	9688.93
704.105	9689.38
704.45	9708.81
704.795	9652.32
705.14	9585.65
705.485	9568.03
705.83	9532.77
706.175	9593.34
706.52	9543.39
706.865	9462.27
707.209	9447.8
707.554	9456.62
707.899	9471.98
708.243	9352.21
708.588	9387.69
708.932	9306.11
709.277	9278.99
709.621	9226.57
709.966	9240.58
710.31	9191.99
710.654	9106.79
710.998	9176.62
711.342	9171.2
711.687	9171.43
712.031	9101.14
712.375	9035.38
712.719	9055.04
713.063	9002.62
713.407	9045.1
713.75	8980.7
714.094	8992.22
714.438	8984.76
714.782	8907.48
715.125	8904.77
715.469	8917.19
715.812	8834.94
716.156	8808.27
716.499	8804.43
716.843	8897.53
717.186	8749.06
717.53	8805.33
717.873	8846.24
718.216	8760.59
718.559	8730.08
718.902	8672
719.246	8728.05
719.589	8651.21
719.932	8679.01
720.275	8638.33
720.617	8638.11
720.96	8683.98
721.303	8566.47
721.646	8626.81
721.989	8604.43
722.331	8627.26
722.674	8568.28
723.016	8591.78
723.359	8543.42
723.701	8660.48
724.044	8571.44
724.386	8516.3
724.729	8581.61
725.071	8509.75
725.413	8574.61
725.755	8565.11
726.097	8512.69
726.439	8450.31
726.782	8432.46
727.124	8585
727.465	8497.77
727.807	8462.97
728.149	8488.51
728.491	8424.78
728.833	8503.42
729.175	8407.15
729.516	8413.48
729.858	8417.32
730.199	8451.22
730.541	8441.05
730.882	8399.69
731.224	8388.62
731.565	8398.11
731.906	8457.77
732.248	8458.45
732.589	8363.99
732.93	8341.62
733.271	8385.23
733.612	8331.45
733.953	8396.3
734.294	8374.38
734.635	8396.76
734.976	8381.84
735.317	8305.69
735.658	8316.08
735.999	8367.15
736.339	8391.56
736.68	8407.6
737.021	8400.82
737.361	8401.5
737.702	8434.5
738.042	8395.85
738.383	8404.89
738.723	8446.25
739.063	8399.92
739.404	8417.32
739.744	8424.55
740.084	8429.98
740.424	8490.31
740.764	8452.35
741.104	8496.64
741.444	8447.38
741.784	8492.12
742.124	8526.24
742.464	8533.25
742.804	8512.91
743.143	8549.75
743.483	8559.69
743.823	8549.97
744.162	8592.68
744.502	8659.57
744.841	8655.73
745.181	8731.89
745.52	8662.06
745.86	8763.98
746.199	8769.18
746.538	8820.7
746.877	8894.14
747.216	8895.27
747.556	8944.76
747.895	9013.01
748.234	9031.54
748.573	9096.63
748.911	9197.19
749.25	9186.34
749.589	9209.62
749.928	9321.03
750.267	9396.05
750.605	9415.49
750.944	9511.53
751.283	9585.43
751.621	9635.59
751.96	9715.59
752.298	9789.71
752.636	9860.67
752.975	9973.89
753.313	10031.74
753.651	10231.06
753.989	10271.51
754.327	10393.09
754.666	10426.08
755.004	10615.68
755.342	10727.09
755.679	10821.78
756.017	10907.88
756.355	11172.95
756.693	11169.34
757.031	11336.34
757.368	11291.14
757.706	11511.7
758.044	11671.92
758.381	11822.88
758.719	11973.61
759.056	12252.47
759.394	12372.47
759.731	12432.81
760.068	12670.09
760.405	12686.59
760.743	12829.41
761.08	13094.26
761.417	13238.89
761.754	13394.37
762.091	13480.69
762.428	13730.63
762.765	13742.15
763.102	14037.96
763.438	14036.16
763.775	14221.01
764.112	14467.11
764.449	14651.06
764.785	14684.73
765.122	14836.59
765.458	14964.95
765.795	15149.8
766.131	15288.78
766.467	15553.4
766.804	15568.09
767.14	15684.7
767.476	15889.89
767.812	15901.64
768.148	16081.75
768.485	16207.85
768.821	16261.41
769.157	16440.84
769.492	16551.57
769.828	16712.92
770.164	16728.06
770.5	16684.9
770.836	16912.24
771.171	16903.43
771.507	17020.03
771.842	17107.71
772.178	17065.91
772.513	17283.98
772.849	17348.16
773.184	17463.18
773.519	17521.26
773.855	17596.51
774.19	17528.04
774.525	17617.31
774.86	17798.77
775.195	17864.53
775.53	17834.47
775.865	17782.95
776.2	17860.91
776.535	17797.87
776.87	17922.61
777.205	18017.29
777.539	18012.55
777.874	18165.09
778.209	18062.94
778.543	18134.35
778.878	18049.61
779.212	18166.67
779.547	18131.87
779.881	18251.86
780.215	18162.83
780.55	18199.44
780.884	18174.58
781.218	18284.63
781.552	18366.44
781.886	18156.73
782.22	18277.85
782.554	18202.83
782.888	18088.03
783.222	18180.91
783.556	18118.53
783.889	18146.56
784.223	18088.25
784.557	18123.96
784.89	18089.61
785.224	18036.96
785.557	18043.06
785.891	18052.77
786.224	18031.53
786.558	18072.66
786.891	17890.52
787.224	17914.92
787.557	17832.21
787.891	17924.87
788.224	17952.66
788.557	17976.39
788.89	17916.28
789.223	17860.69
789.556	17765.1
789.888	17760.58
790.221	17700.92
790.554	17644.2
790.887	17637.87
791.219	17570.07
791.552	17514.26
791.884	17543.63
792.217	17438.33
792.549	17411.89
792.882	17312.23
793.214	17409.18
793.546	17405.33
793.879	17235.17
794.211	17184.32
794.543	17333.02
794.875	17244.89
795.207	17388.61
795.539	17207.6
795.871	17235.85
796.203	17035.63
796.535	17081.05
796.867	16948.17
797.198	16925.12
797.53	16944.1
797.862	16832.92
798.193	16876.76
798.525	16832.02
798.856	16857.78
799.188	16659.82
799.519	16593.38
799.85	16592.02
800.182	16672.7
800.513	16588.41
800.844	16434.29
801.175	16649.42
801.506	16576.2
801.837	16466.15
802.168	16462.76
802.499	16377.56
802.83	16366.94
803.161	16248.3
803.491	16292.59
803.822	16213.5
804.153	16168.53
804.483	16107.97
804.814	16078.81
805.145	16009.66
805.475	15997.01
805.805	15946.84
806.136	15884.02
806.466	15958.14
806.796	15901.19
807.126	15812.61
807.457	15853.06
807.787	15784.13
808.117	15729.45
808.447	15699.39
808.777	15716.79
809.107	15547.98
809.436	15628.2
809.766	15512.73
810.096	15580.07
810.426	15430.92
810.755	15548.21
811.085	15388.44
811.414	15381.21
811.744	15324.26
812.073	15291.49
812.403	15292.17
812.732	15218.05
813.061	15191.15
813.39	15107.09
813.719	15109.8
814.049	15209.68
814.378	15103.47
814.707	15070.25
815.036	15031.16
815.365	14940.77
815.693	14883.37
816.022	14955.68
816.351	14844.27
816.68	14798.62
817.008	14902.12
817.337	14730.6
817.665	14700.09
817.994	14730.83
818.322	14648.34
818.651	14689.92
818.979	14563.15
819.307	14634.11
819.636	14699.42
819.964	14435.02
820.292	14559.31
820.62	14678.85
820.948	14493.55
821.276	14561.11
821.604	14573.32
821.932	14546.43
822.259	14492.42
822.587	14550.27
822.915	14454.68
823.243	14543.49
823.57	14561.34
823.898	14417.62
824.225	14348.01
824.553	14447.44
824.88	14468.46
825.207	14549.36
825.535	14422.36
825.862	14594.79
826.189	14429.14
826.516	14559.08
826.843	14611.73
827.17	14537.84
827.497	14608.34
827.824	14575.35
828.151	14577.61
828.478	14529.02
828.805	14569.02
829.131	14586.42
829.458	14510.49
829.785	14448.12
830.111	14453.55
830.438	14460.33
830.764	14581.68
831.09	14557.5
831.417	14472.3
831.743	14595.01
832.069	14432.98
832.395	14450.61
832.722	14482.25
833.048	14407.22
833.374	14459.42
833.7	14399.99
834.026	14451.06
834.351	14398.18
834.677	14420.55
835.003	14438.41
835.329	14384.85
835.654	14340.78
835.98	14333.78
836.306	14319.99
836.631	14319.76
836.956	14372.42
837.282	14370.38
837.607	14263.27
837.932	14236.38
838.258	14227.56
838.583	14289.26
838.908	14190.73
839.233	14147.79
839.558	14157.51
839.883	14070.51
840.208	14098.3
840.533	14044.29
840.858	13995.25
841.182	13988.47
841.507	14000.9
841.832	14011.3
842.156	13935.14
842.481	13961.13
842.805	13921.81
843.13	13849.04
843.454	13806.56
843.778	13798.87
844.103	13788.93
844.427	13736.5
844.751	13693.79
845.075	13719.1
845.399	13611.08
845.723	13461.71
846.047	13582.61
846.371	13366.8
846.695	13399.79
847.019	13329.51
847.343	13296.74
847.666	13201.83
847.99	13166.12
848.313	13189.85
848.637	13140.13
848.96	13068.5
849.284	13000.48
849.607	12926.81
849.931	12913.7
850.254	12798.67
850.577	12795.29
850.9	12694.95
851.223	12698.11
851.546	12613.59
851.869	12575.4
852.192	12515.74
852.515	12519.81
852.838	12418.12
853.161	12391.68
853.483	12274.85
853.806	12319.82
854.129	12253.38
854.451	12214.51
854.774	12234.85
855.096	12239.59
855.419	12118.01
855.741	12027.17
856.063	11995.76
856.385	12039.15
856.708	11938.81
857.03	11907.85
857.352	11875.76
857.674	11824.92
857.996	11788.31
858.318	11765.03
858.64	11749.89
858.961	11770
859.283	11608.2
859.605	11606.84
859.926	11674.41
860.248	11624.47
860.57	11541.98
860.891	11590.12
861.212	11465.15
861.534	11461.31
861.855	11415.43
862.176	11403.01
862.498	11391.25
862.819	11405.72
863.14	11357.81
863.461	11394.42
863.782	11367.3
864.103	11312.61
864.424	11315.78
864.745	11284.82
865.065	11198.26
865.386	11204.37
865.707	11225.61
866.027	11222.67
866.348	11196.23
866.668	11158.94
866.989	11167.53
867.309	11113.07
867.63	11135.44
867.95	11108.32
868.27	11005.28
868.59	10979.06
868.91	11047.31
869.23	11041.88
869.55	10920.53
869.87	11006.18
870.19	10932.28
870.51	10961.21
870.83	10963.47
871.15	10922.34
871.469	10845.51
871.789	10892.74
872.109	10830.14
872.428	10734.55
872.748	10945.39
873.067	10778.61
873.386	10845.96
873.706	10809.12
874.025	10685.06
874.344	10720.31
874.663	10734.32
874.982	10734.77
875.301	10681.22
875.62	10639.86
875.939	10635.34
876.258	10578.39
876.577	10613.42
876.896	10581.56
877.214	10547.43
877.533	10544.95
877.852	10532.52
878.17	10550.37
878.489	10522.8
878.807	10506.76
879.125	10478.51
879.444	10498.17
879.762	10412.3
880.08	10413.43
880.398	10372.07
880.716	10418.17
881.034	10346.99
881.352	10329.36
881.67	10274.9
881.988	10285.52
882.306	10265.86
882.624	10246.65
882.941	10200.55
883.259	10184.51
883.577	10114
883.894	10119.65
884.212	10096.82
884.529	10110.84
884.846	10117.62
885.164	10094.57
885.481	9993.1
885.798	9999.43
886.115	9910.84
886.432	9949.03
886.75	9928.47
887.067	9904.06
887.383	9837.62
887.7	9876.94
888.017	9830.84
888.334	9835.14
888.651	9765.31
888.967	9759.88
889.284	9710.39
889.6	9759.66
889.917	9613.45
890.233	9618.42
890.55	9582.49
890.866	9542.49
891.182	9598.08
891.498	9567.35
891.815	9502.49
892.131	9484.19
892.447	9457.29
892.763	9459.55
893.079	9375.04
893.395	9303.17
893.71	9338.65
894.026	9260.91
894.342	9243.51
894.657	9248.26
894.973	9192.22
895.289	9180.24
895.604	9157.87
895.92	9098.66
896.235	9092.33
896.55	9083.97
896.865	9023.63
897.181	9016.18
897.496	8971.66
897.811	8982.05
898.126	8857.76
898.441	8851.66
898.756	8884.2
899.071	8832.45
899.386	8812.34
899.7	8752.91
900.015	8747.71
900.33	8650.31
900.644	8662.29
900.959	8655.05
901.273	8606.92
901.588	8499.35
901.902	8523.31
902.216	8499.8
902.531	8438.79
902.845	8438.34
903.159	8405.12
903.473	8366.7
903.787	8338.91
904.101	8279.47
904.415	8208.96
904.729	8228.63
905.042	8192.69
905.356	8140.27
905.67	8178.68
905.984	8114.28
906.297	8079.48
906.611	8040.38
906.924	8048.97
907.237	8030.44
907.551	8015.98
907.864	7945.7
908.177	7900.05
908.491	7932.81
908.804	7799.03
909.117	7795.64
909.43	7798.35
909.743	7681.3
910.056	7710.9
910.368	7729.88
910.681	7713.84
910.994	7646.04
911.307	7597.23
911.619	7550.68
911.932	7532.15
912.244	7485.59
912.557	7453.28
912.869	7399.95
913.181	7381.87
913.494	7328.76
913.806	7381.87
914.118	7329.44
914.43	7233.4
914.742	7256.22
915.054	7191.59
915.366	7185.49
915.678	7148.65
915.99	7161.08
916.302	7086.73
916.613	7132.84
916.925	7023.91
917.236	7035.66
917.548	6937.36
917.859	7009
918.171	6950.69
918.482	6834.31
918.794	6831.15
919.105	6825.72
919.416	6837.7
919.727	6782.11
920.038	6781.21
920.349	6677.71
920.66	6717.25
920.971	6739.85
921.282	6677.93
921.593	6583.92
921.903	6599.29
922.214	6526.52
922.525	6530.59
922.835	6521.33
923.146	6443.59
923.456	6443.36
923.767	6402.01
924.077	6384.61
924.387	6400.2
924.697	6306.42
925.008	6339.86
925.318	6301.44
925.628	6248.34
925.938	6243.82
926.248	6233.42
926.558	6232.52
926.867	6204.95
927.177	6182.58
927.487	6109.13
927.796	6088.79
928.106	6041.79
928.416	5976.48
928.725	6019.42
929.034	5976.93
929.344	6023.49
929.653	5931.06
929.962	5908.91
930.271	5897.84
930.581	5880.66
930.89	5799.99
931.199	5833.43
931.508	5818.97
931.817	5798.86
932.125	5776.94
932.434	5742.59
932.743	5724.96
933.051	5695.13
933.36	5633.89
933.669	5683.16
933.977	5671.63
934.286	5584.18
934.594	5595.02
934.902	5588.47
935.21	5486.32
935.519	5487.23
935.827	5479.55
936.135	5482.48
936.443	5420.79
936.751	5398.19
937.059	5383.5
937.367	5353.9
937.674	5367.68
937.982	5295.6
938.29	5304.63
938.597	5326.33
938.905	5261.02
939.213	5269.16
939.52	5176.28
939.827	5213.56
940.135	5172.21
940.442	5140.57
940.749	5151.19
941.056	5148.48
941.363	5034.13
941.67	5101.48
941.977	5047.92
942.284	4991.42
942.591	4994.81
942.898	4997.3
943.205	4996.17
943.511	4921.59
943.818	4930.63
944.125	4889.5
944.431	4850.86
944.738	4828.71
945.044	4816.29
945.35	4819.68
945.657	4771.32
945.963	4767.25
946.269	4765.21
946.575	4725.89
946.881	4733.8
947.187	4723.18
947.493	4664.43
947.799	4635.73
948.105	4667.82
948.41	4586.69
948.716	4629.4
949.022	4539.46
949.327	4608.83
949.633	4540.59
949.938	4514.15
950.244	4498.1
950.549	4461.72
950.854	4420.82
951.16	4430.99
951.465	4435.05
951.77	4383.3
952.075	4342.17
952.38	4334.94
952.685	4359.12
952.99	4266.02
953.294	4283.64
953.599	4262.63
953.904	4304.66
954.209	4212.01
954.513	4228.73
954.818	4215.4
955.122	4188.96
955.426	4155.51
955.731	4131.11
956.035	4108.06
956.339	4127.26
956.643	4112.58
956.948	4107.6
957.252	4087.04
957.556	4059.02
957.86	4048.62
958.163	4037.1
958.467	4003.2
958.771	3975.86
959.075	3962.75
959.378	3926.59
959.682	3968.17
959.985	3889.08
960.289	3922.52
960.592	3883.2
960.896	3886.37
961.199	3841.85
961.502	3867.38
961.805	3826.93
962.108	3779.48
962.411	3771.12
962.714	3762.3
963.017	3736.77
963.32	3756.88
963.623	3744.22
963.926	3735.64
964.228	3703.77
964.531	3668.07
964.833	3680.27
965.136	3600.72
965.438	3613.61
965.741	3603.44
966.043	3601.18
966.345	3568.41
966.648	3581.97
966.95	3575.19
967.252	3543.55
967.554	3496.55
967.856	3488.64
968.158	3462.2
968.46	3454.74
968.761	3467.17
969.063	3442.31
969.365	3433.27
969.666	3400.96
969.968	3432.14
970.269	3368.19
970.571	3372.48
970.872	3364.8
971.174	3328.19
971.475	3307.85
971.776	3281.41
972.077	3312.82
972.378	3283.22
972.679	3271.47
972.98	3270.11
973.281	3239.15
973.582	3198.48
973.883	3201.86
974.183	3181.98
974.484	3167.29
974.785	3144.47
975.085	3158.25
975.386	3122.09
975.686	3109.66
975.986	3111.25
976.287	3108.53
976.587	3127.97
976.887	3052.72
977.187	3052.26
977.487	3035.54
977.787	3034.86
978.087	2986.73
978.387	2996.9
978.687	2996.67
978.987	2996.45
979.286	2967.75
979.586	2970.23
979.885	2883.46
980.185	2917.35
980.484	2904.02
980.784	2890.69
981.083	2855.66
981.382	2903.12
981.682	2862.66
981.981	2844.36
982.28	2857.02
982.579	2822.67
982.878	2790.58
983.177	2785.38
983.475	2752.84
983.774	2739.28
984.073	2772.72
984.372	2737.02
984.67	2732.72
984.969	2738.83
985.267	2704.02
985.566	2697.7
985.864	2727.53
986.162	2690.92
986.461	2671.26
986.759	2660.18
987.057	2625.83
987.355	2602.11
987.653	2616.8
987.951	2593.07
988.249	2597.14
988.547	2593.97
988.844	2559.17
989.142	2530.92
989.44	2538.83
989.737	2523.24
990.035	2507.42
990.332	2510.58
990.63	2513.52
990.927	2501.32
991.224	2470.36
991.521	2481.43
991.819	2443.92
992.116	2434.2
992.413	2457.93
992.71	2418.16
993.006	2422.45
993.303	2393.3
993.6	2404.15
993.897	2387.42
994.193	2398.27
994.49	2345.62
994.787	2342.23
995.083	2312.17
995.379	2309.69
995.676	2327.54
995.972	2321.89
996.268	2255.68
996.565	2281.21
996.861	2270.14
997.157	2259.74
997.453	2231.72
997.749	2233.75
998.044	2233.75
998.34	2208.9
998.636	2200.76
998.932	2163.25
999.227	2160.08
999.523	2151.05
999.818	2168.67
1000.114	2165.96
1000.409	2133.64
1000.704	2104.04
1001	2122.8
1001.295	2087.32
1001.59	2089.8
1001.885	2086.19
1002.18	2073.08
1002.475	2054.1
1002.77	2061.33
1003.065	2008
1003.359	1991.73
1003.654	1972.07
1003.949	1999.41
1004.243	1960.54
1004.538	1986.3
1004.832	1967.77
1005.127	1942.69
1005.421	1927.77
1005.715	1922.8
1006.009	1933.2
1006.304	1882.58
1006.598	1875.8
1006.892	1870.15
1007.186	1881.22
1007.48	1858.85
1007.773	1854.33
1008.067	1857.49
1008.361	1833.31
1008.655	1805.52
1008.948	1797.61
1009.242	1783.6
1009.535	1806.65
1009.829	1777.27
1010.122	1770.72
1010.415	1760.55
1010.708	1714.45
1011.001	1730.04
1011.295	1729.81
1011.588	1735.91
1011.881	1709.25
1012.173	1699.31
1012.466	1697.72
1012.759	1666.09
1013.052	1664.28
1013.344	1649.14
1013.637	1663.37
1013.93	1655.01
1014.222	1621.79
1014.514	1623.83
1014.807	1623.38
1015.099	1625.41
1015.391	1594.9
1015.683	1599.65
1015.976	1593.09
1016.268	1560.78
1016.56	1581.79
1016.851	1560.33
1017.143	1560.33
1017.435	1547.22
1017.727	1498.41
1018.018	1523.49
1018.31	1510.16
1018.602	1471.06
1018.893	1514.45
1019.185	1476.94
1019.476	1476.94
1019.767	1445.75
1020.058	1429.26
1020.35	1436.71
1020.641	1428.58
1020.932	1405.98
1021.223	1400.78
1021.514	1379.54
1021.804	1379.99
1022.095	1375.7
1022.386	1379.31
1022.677	1386.55
1022.967	1339.09
1023.258	1371.63
1023.548	1316.26
1023.839	1331.86
1024.129	1307.23
1024.419	1315.59
1024.709	1309.49
1025	1278.98
1025.29	1289.15
1025.58	1284.4
1025.87	1254.35
1026.16	1237.17
1026.449	1249.6
1026.739	1257.51
1027.029	1251.18
1027.319	1258.19
1027.608	1224.29
1027.898	1231.97
1028.187	1213.44
1028.477	1218.41
1028.766	1171.86
1029.055	1186.78
1029.344	1177.51
1029.634	1191.07
1029.923	1172.31
1030.212	1175.7
1030.501	1160.11
1030.79	1151.52
1031.078	1122.6
1031.367	1120.79
1031.656	1109.49
1031.945	1105.42
1032.233	1106.33
1032.522	1099.77
1032.81	1118.76
1033.099	1089.38
1033.387	1103.39
1033.675	1059.55
1033.963	1074.24
1034.251	1058.42
1034.54	1041.92
1034.828	1048.25
1035.116	1043.73
1035.403	1050.51
1035.691	1029.04
1035.979	1020.45
1036.267	996.73
1036.554	1007.12
1036.842	1008.25
1037.129	980.45
1037.417	964.86
1037.704	978.19
1037.992	974.58
1038.279	978.19
1038.566	961.92
1038.853	961.92
1039.14	961.92
