Data from hue_30_FLMS001491_71.txt Node
Date: Mon Feb 06 15:05:55 GMT 2017
User: dcchb
Spectrometer: FLMS00149
Trigger mode: 0
Integration Time (sec): 2.000000E-2
Scans to average: 10
Electric dark correction enabled: true
Nonlinearity correction enabled: false
Boxcar width: 0
XAxis mode: Wavelengths
Number of Pixels in Spectrum: 2048
>>>>>Begin Spectral Data<<<<<
341.393	-0.96
341.776	-0.96
342.16	-0.96
342.543	-76.89
342.927	-70.56
343.31	-47.96
343.693	-78.25
344.077	-53.39
344.46	-55.65
344.843	-51.35
345.226	-40.96
345.61	-39.38
345.993	-27.17
346.376	-17.01
346.759	23.22
347.142	15.54
347.525	44.24
347.908	68.87
348.291	70.9
348.674	91.24
349.057	97.12
349.44	131.69
349.823	141.63
350.206	170.11
350.588	206.49
350.971	195.42
351.354	228.41
351.737	235.87
352.119	243.78
352.502	263.21
352.884	234.74
353.267	285.13
353.65	279.26
354.032	275.87
354.414	313.16
354.797	298.01
355.179	329.88
355.562	328.52
355.944	342.08
356.326	331.01
356.709	303.21
357.091	326.94
357.473	343.44
357.855	339.37
358.238	336.21
358.62	340.27
359.002	351.12
359.384	341.4
359.766	334.62
360.148	345.47
360.53	340.05
360.912	339.14
361.294	324
361.676	339.37
362.057	349.31
362.439	337.79
362.821	327.84
363.203	317.22
363.584	340.73
363.966	328.75
364.348	336.21
364.729	315.42
365.111	303.44
365.493	304.12
365.874	317.68
366.256	312.03
366.637	314.96
367.019	307.05
367.4	305.7
367.781	319.03
368.163	309.99
368.544	302.76
368.925	308.41
369.306	329.65
369.688	302.31
370.069	318.13
370.45	317.68
370.831	311.8
371.212	328.07
371.593	312.93
371.974	311.8
372.355	312.48
372.736	331.91
373.117	299.37
373.498	315.19
373.879	313.38
374.26	297.56
374.641	332.36
375.021	315.19
375.402	324.45
375.783	323.32
376.163	321.52
376.544	312.25
376.925	305.02
377.305	322.19
377.686	319.48
378.066	343.21
378.447	308.64
378.827	316.32
379.208	320.16
379.588	316.09
379.968	336.21
380.349	327.39
380.729	333.95
381.109	330.56
381.489	323.55
381.87	346.83
382.25	352.7
382.63	318.35
383.01	321.97
383.39	344.57
383.77	348.41
384.15	335.53
384.53	345.02
384.91	331.01
385.29	351.57
385.67	351.57
386.049	355.41
386.429	325.36
386.809	340.05
387.189	339.14
387.568	328.75
387.948	355.64
388.328	337.79
388.707	365.36
389.087	361.97
389.466	346.6
389.846	356.54
390.225	370.1
390.605	371.23
390.984	361.97
391.363	351.35
391.743	366.26
392.122	376.88
392.501	371.69
392.881	381.18
393.26	373.27
393.639	388.18
394.018	393.61
394.397	387.05
394.776	364.45
395.155	386.83
395.534	378.01
395.913	379.14
396.292	388.63
396.671	389.31
397.05	378.46
397.429	382.98
397.808	382.31
398.186	384.57
398.565	401.97
398.944	410.78
399.323	394.74
399.701	399.48
400.08	393.38
400.458	396.09
400.837	392.93
401.215	414.17
401.594	392.93
401.972	388.18
402.351	421.63
402.729	403.1
403.107	410.78
403.486	406.94
403.864	422.76
404.242	415.75
404.62	427.28
404.999	417.33
405.377	404.9
405.755	425.7
406.133	431.57
406.511	413.94
406.889	444.45
407.267	445.36
407.645	420.27
408.023	422.98
408.401	433.38
408.779	455.75
409.156	446.94
409.534	441.29
409.912	421.85
410.29	447.84
410.667	457.78
411.045	454.62
411.422	453.94
411.8	442.42
412.178	451.01
412.555	470.21
412.933	458.01
413.31	483.77
413.687	448.07
414.065	484.9
414.442	488.52
414.819	486.03
415.197	481.74
415.574	472.7
415.951	510.89
416.328	504.79
416.705	484.45
417.082	498.01
417.46	503.66
417.837	506.6
418.214	526.26
418.591	516.77
418.967	524.22
419.344	524.22
419.721	514.28
420.098	512.25
420.475	519.48
420.852	549.31
421.228	542.75
421.605	536.88
421.982	552.47
422.358	541.4
422.735	529.65
423.111	545.24
423.488	543.43
423.864	538.91
424.241	566.93
424.617	565.58
424.994	566.48
425.37	554.51
425.746	576.2
426.123	589.08
426.499	573.94
426.875	567.39
427.251	578.23
427.627	613.26
428.003	609.19
428.379	583.88
428.756	617.78
429.132	619.14
429.507	618.68
429.883	597.89
430.259	619.81
430.635	632.92
431.011	637.44
431.387	646.93
431.763	624.11
432.138	641.73
432.514	682.64
432.89	660.94
433.265	665.01
433.641	675.63
434.016	690.09
434.392	685.35
434.767	684.45
435.143	691.9
435.518	691.68
435.894	720.15
436.269	686.48
436.644	722.18
437.02	715.18
437.395	719.25
437.77	730.09
438.145	737.33
438.52	727.16
438.895	765.57
439.271	756.08
439.646	764.9
440.021	759.25
440.395	777.32
440.77	762.18
441.145	770.54
441.52	808.96
441.895	789.53
442.27	801.73
442.645	800.6
443.019	799.47
443.394	817.32
443.769	815.97
444.143	814.16
444.518	812.35
444.892	803.54
445.267	835.4
445.641	828.4
446.016	835.18
446.39	851.67
446.764	834.72
447.139	850.99
447.513	839.24
447.887	865.01
448.262	851.67
448.636	882.41
449.01	867.49
449.384	867.49
449.758	852.12
450.132	886.7
450.506	895.97
450.88	910.65
451.254	880.15
451.628	907.49
452.002	902.74
452.376	928.28
452.75	925.79
453.123	929.18
453.497	935.29
453.871	938.68
454.244	950.65
454.618	961.5
454.992	985.91
455.365	991.33
455.739	988.39
456.112	1003.98
456.486	1025.45
456.859	1027.26
457.232	1025.45
457.606	1013.93
457.979	1053.7
458.352	1092.8
458.725	1074.94
459.099	1093.7
459.472	1081.5
459.845	1139.35
460.218	1114.04
460.591	1114.94
460.964	1133.47
461.337	1129.41
461.71	1148.84
462.083	1169.63
462.456	1170.53
462.829	1177.99
463.201	1218.44
463.574	1231.78
463.947	1245.56
464.32	1264.32
464.692	1268.61
465.065	1274.26
465.438	1298.89
465.81	1283.98
466.183	1343.19
466.555	1369.17
466.928	1350.19
467.3	1355.84
467.672	1375.5
468.045	1364.43
468.417	1476.74
468.789	1446.01
469.161	1433.35
469.534	1489.85
469.906	1502.95
470.278	1520.58
470.65	1541.37
471.022	1544.31
471.394	1591.99
471.766	1597.19
472.138	1632.44
472.51	1659.11
472.882	1669.96
473.253	1718.77
473.625	1740.46
473.997	1760.58
474.369	1795.6
474.74	1834.92
475.112	1862.49
475.484	1894.81
475.855	1929.16
476.227	1950.63
476.598	1990.85
476.97	2019.1
477.341	2076.27
477.713	2125.31
478.084	2123.5
478.455	2199.89
478.827	2236.49
479.198	2281.92
479.569	2294.8
479.94	2383.16
480.311	2389.26
480.682	2485.75
481.053	2502.25
481.424	2583.6
481.795	2610.72
482.166	2665.64
482.537	2743.15
482.908	2802.81
483.279	2846.87
483.65	2875.35
484.021	2959.41
484.391	3026.08
484.762	3039.86
485.133	3119.64
485.503	3118.28
485.874	3246.86
486.244	3315.79
486.615	3354.43
486.985	3425.62
487.356	3514.43
487.726	3532.28
488.097	3669.45
488.467	3659.96
488.837	3751.71
489.207	3789.67
489.578	3840.07
489.948	3944.25
490.318	4024.7
490.688	4035.77
491.058	4177.69
491.428	4202.09
491.798	4266.05
492.168	4370
492.538	4453.61
492.908	4460.62
493.278	4527.28
493.648	4567.28
494.017	4633.27
494.387	4731.8
494.757	4761.4
495.126	4854.96
495.496	4877.56
495.866	4955.29
496.235	4974.28
496.605	5003.43
496.974	5099.47
497.344	5117.78
497.713	5175.4
498.082	5207.72
498.452	5325.68
498.821	5360.03
499.19	5402.74
499.559	5442.06
499.928	5480.03
500.298	5529.29
500.667	5564.99
501.036	5602.06
501.405	5656.97
501.774	5703.3
502.143	5734.26
502.512	5759.34
502.88	5844.31
503.249	5840.24
503.618	5889.05
503.987	5904.65
504.356	5976.96
504.724	6060.8
505.093	6080.91
505.462	6033.68
505.83	6120.01
506.199	6183.74
506.567	6266.22
506.936	6284.07
507.304	6370.85
507.672	6364.07
508.041	6388.48
508.409	6489.04
508.777	6469.6
509.145	6508.02
509.514	6524.07
509.882	6569.04
510.25	6629.83
510.618	6679.99
510.986	6675.25
511.354	6729.71
511.722	6757.05
512.09	6851.29
512.458	6858.52
512.826	6888.58
513.193	6930.16
513.561	6920.44
513.929	6949.59
514.297	7078.18
514.664	7143.26
515.032	7087.44
515.4	7169.7
515.767	7159.98
516.135	7209.92
516.502	7174.44
516.869	7278.4
517.237	7259.87
517.604	7282.92
517.972	7364.5
518.339	7383.7
518.706	7435.45
519.073	7411.5
519.44	7469.8
519.808	7566.3
520.175	7570.82
520.542	7582.79
520.909	7672.74
521.276	7670.7
521.643	7696.24
522.009	7707.99
522.376	7776.46
522.743	7830.92
523.11	7883.8
523.477	7916.12
523.843	7945.72
524.21	8150.46
524.577	8138.94
524.943	8157.24
525.31	8185.94
525.676	8273.85
526.043	8331.02
526.409	8279.73
526.776	8373.06
527.142	8439.72
527.508	8394.3
527.874	8498.7
528.241	8542.54
528.607	8550
528.973	8664.12
529.339	8660.73
529.705	8784.57
530.071	8790.9
530.437	8832.93
530.803	8903.44
531.169	8965.36
531.535	8926.04
531.901	8954.96
532.267	9008.29
532.632	9017.33
532.998	9100.95
533.364	9132.36
533.73	9135.52
534.095	9279.25
534.461	9251.68
534.826	9295.07
535.192	9353.82
535.557	9387.27
535.923	9391.56
536.288	9461.84
536.653	9568.05
537.019	9539.81
537.384	9505.68
537.749	9623.42
538.114	9667.49
538.479	9745
538.845	9787.48
539.21	9704.77
539.575	9797.88
539.94	9816.41
540.305	9912.23
540.67	9815.05
541.034	9920.81
541.399	9971.66
541.764	9988.83
542.129	10068.38
542.494	10041.94
542.858	10143.18
543.223	10108.83
543.587	10160.81
543.952	10148.83
544.316	10314.02
544.681	10272.44
545.045	10316.73
545.41	10459.1
545.774	10452.55
546.138	10410.07
546.503	10511.76
546.867	10488.48
547.231	10636.95
547.595	10592.89
547.959	10713.11
548.324	10643.05
548.688	10711.75
549.052	10787.23
549.416	10753.11
549.779	10794.69
550.143	10820
550.507	10853.44
550.871	10975.47
551.235	10987.68
551.599	11069.71
551.962	11017.05
552.326	11093.21
552.689	11157.84
553.053	11105.19
553.417	11141.57
553.78	11305.41
554.143	11262.02
554.507	11312.19
554.87	11356.93
555.234	11457.04
555.597	11320.32
555.96	11448
556.323	11491.17
556.686	11547.89
557.05	11584.05
557.413	11549.92
557.776	11642.12
558.139	11668.79
558.502	11694.78
558.865	11769.35
559.228	11812.29
559.59	11751.95
559.953	11978.16
560.316	11974.77
560.679	11991.72
561.041	11991.72
561.404	12056.35
561.767	12215.67
562.129	12047.76
562.492	12249.56
562.854	12158.49
563.217	12226.97
563.579	12266.51
563.941	12317.36
564.304	12391.48
564.666	12473.29
565.028	12506.96
565.39	12447.3
565.753	12548.77
566.115	12648.65
566.477	12689.78
566.839	12733.17
567.201	12798.7
567.563	12810.45
567.925	12927.29
568.287	12927.97
568.648	12883.22
569.01	13004.12
569.372	13100.62
569.734	13007.96
570.095	13164.12
570.457	13191.46
570.819	13208.64
571.18	13261.97
571.542	13356.88
571.903	13359.14
572.265	13512.58
572.626	13492.02
572.987	13569.3
573.349	13600.49
573.71	13698.34
574.071	13795.29
574.432	13809.3
574.794	14065.34
575.155	14029.63
575.516	14007.94
575.877	14095.39
576.238	14208.16
576.599	14355.5
576.96	14430.52
577.32	14528.15
577.681	14642.5
578.042	14703.06
578.403	14856.28
578.763	14921.36
579.124	15077.06
579.485	15281.58
579.845	15357.51
580.206	15491.51
580.566	15560.89
580.927	15750.26
581.287	15884.27
581.648	15925.4
582.008	16349.12
582.368	16325.16
582.728	16566.51
583.089	16717.24
583.449	16922.44
583.809	17107.74
584.169	17356.55
584.529	17564
584.889	17799.7
585.249	18058
585.609	18112.24
585.969	18457.09
586.329	18540.25
586.688	19001.7
587.048	19104.07
587.408	19260.23
587.768	19575.25
588.127	19779.99
588.487	20029.47
588.846	20328.22
589.206	20400.09
589.565	20697.7
589.925	21125.49
590.284	21289.78
590.643	21582.2
591.003	21917.56
591.362	22251.56
591.721	22529.97
592.08	22764.99
592.44	23062.84
592.799	23336.05
593.158	23506.9
593.517	23963.83
593.876	24132.19
594.235	24413.09
594.593	24790.48
594.952	25085.84
595.311	25364.02
595.67	25556.11
596.029	26057.56
596.387	26303.66
596.746	26498.46
597.104	26826.13
597.463	27043.3
597.822	27389.28
598.18	27482.61
598.538	27947.46
598.897	28336.83
599.255	28253.44
599.613	28996.47
599.972	28921.44
600.33	29514.42
600.688	29561.65
601.046	29955.77
601.404	30305.59
601.762	30457.9
602.12	30900.15
602.478	31235.51
602.836	31345.79
603.194	31361.15
603.552	31703.74
603.91	31899.44
604.268	32261.02
604.625	32285.42
604.983	32740.33
605.341	32782.36
605.698	33210.14
606.056	33420.08
606.413	33533.53
606.771	33872.95
607.128	34074.98
607.485	34174.64
607.843	34398.14
608.2	34784.34
608.557	35081.51
608.914	35057.55
609.272	35585.9
609.629	35678.78
609.986	35799.23
610.343	35955.61
610.7	36425.2
611.057	36422.26
611.414	36653.22
611.771	36845.75
612.127	37053.66
612.484	37045.52
612.841	37386.98
613.198	37442.57
613.554	37632.63
613.911	37867.2
614.267	38056.57
614.624	38060.86
614.98	38367.52
615.337	38484.36
615.693	38615.2
616.05	38645.71
616.406	39109.42
616.762	38932.93
617.118	39214.28
617.475	39225.13
617.831	39460.37
618.187	39632.57
618.543	39796.41
618.899	40123.63
619.255	40036.4
619.611	40104.2
619.967	40249.51
620.323	40548.71
620.678	40444.08
621.034	40455.38
621.39	40541.93
621.746	40555.26
622.101	41150.05
622.457	40913.22
622.812	41012.88
623.168	41187.11
623.523	41116.15
623.879	41385.97
624.234	41082.48
624.589	41324.28
624.945	41441.34
625.3	41465.29
625.655	41442.7
626.01	41672.07
626.365	41693.99
626.72	41710.94
627.075	41654.89
627.43	41773.99
627.785	41608.79
628.14	41983.02
628.495	41974.66
628.85	41880.88
629.205	41935.34
629.559	42242.22
629.914	42068.22
630.269	42090.59
630.623	42132.62
630.978	41968.78
631.332	42152.73
631.687	42181.89
632.041	42269.11
632.396	42344.59
632.75	42034.54
633.104	42310.02
633.459	42066.86
633.813	42186.4
634.167	42124.26
634.521	42136.69
634.875	42195.67
635.229	42124.71
635.583	42011.72
635.937	42059.18
636.291	42084.49
636.645	42069.12
636.999	42027.76
637.352	42106.63
637.706	41929.69
638.06	42058.5
638.413	42050.36
638.767	42099.4
639.121	41926.07
639.474	41806.53
639.828	41973.53
640.181	41927.43
640.534	41954.77
640.888	41889.46
641.241	41800.43
641.594	41827.77
641.947	41995.9
642.301	41804.49
642.654	41894.89
643.007	41883.36
643.36	41809.92
643.713	41796.58
644.066	41941.21
644.419	41595.91
644.771	41292.87
645.124	41091.52
645.477	41014.01
645.83	40882.26
646.182	40635.71
646.535	40463.51
646.888	40704.64
647.24	40337.41
647.593	40671.87
647.945	40548.71
648.298	40351.65
648.65	40379.67
649.002	40267.59
649.355	40465.09
649.707	40389.39
650.059	40588.93
650.411	41185.3
650.763	41011.07
651.115	41400.21
651.467	41411.74
651.819	41216.26
652.171	41259.88
652.523	41100.33
652.875	41229.37
653.227	40996.38
653.578	41130.61
653.93	41159.54
654.282	40988.47
654.633	40920.68
654.985	40967.23
655.337	40918.87
655.688	40966.32
656.039	41182.14
656.391	40869.83
656.742	40775.59
657.094	40973.56
657.445	41089.94
657.796	40894.91
658.147	40927.68
658.498	40755.48
658.849	40895.82
659.2	40824.41
659.551	40770.17
659.902	40982.37
660.253	40836.16
660.604	40854.24
660.955	40652.66
661.306	40744.41
661.656	40776.27
662.007	40771.75
662.358	40731.53
662.708	40760.45
663.059	40706.44
663.409	40531.99
663.76	40849.04
664.11	40802.49
664.461	40784.18
664.811	40748.25
665.161	40693.34
665.511	40654.47
665.862	40745.09
666.212	40735.37
666.562	40717.74
666.912	40499.22
667.262	40565.2
667.612	40646.56
667.962	40613.34
668.312	40612.43
668.662	40728.36
669.011	40595.71
669.361	40611.76
669.711	40559.33
670.06	40508.26
670.41	40513.91
670.76	40398.43
671.109	40615.82
671.459	40512.55
671.808	40400.24
672.157	40647.24
672.507	40267.59
672.856	40289.51
673.205	40178.1
673.554	40251.77
673.904	40236.4
674.253	40345.78
674.602	40396.85
674.951	39821.72
675.3	39671.67
675.649	40246.12
675.998	40224.42
676.346	40354.81
676.695	40304.19
677.044	39946.01
677.393	40172.22
677.741	40208.6
678.09	40153.92
678.438	39879.8
678.787	40067.36
679.135	40049.29
679.484	39834.6
679.832	39997.08
680.181	39751.89
680.529	39899.23
680.877	39856.3
681.225	39723.42
681.573	39927.93
681.922	39631.67
682.27	39431
682.618	39459.24
682.966	39382.86
683.314	39527.94
683.661	39420.15
684.009	39231.91
684.357	39120.72
684.705	39028.3
685.053	39188.29
685.4	38952.14
685.748	38927.96
686.095	38913.04
686.443	38713.05
686.79	38730.68
687.138	38787.85
687.485	38771.81
687.832	38527.07
688.18	38604.35
688.527	38446.84
688.874	38485.94
689.221	38439.16
689.568	38261.76
689.915	38147.42
690.262	38174.53
690.609	37961.88
690.956	37896.8
691.303	37825.84
691.65	37680.99
691.997	37748.33
692.344	37611.84
692.69	37515.34
693.037	37506.53
693.383	37233.09
693.73	37324.39
694.077	37190.6
694.423	37070.16
694.769	36994
695.116	37002.13
695.462	36935.02
695.808	36757.17
696.155	36851.63
696.501	36546.1
696.847	36660.67
697.193	36346.56
697.539	36473.33
697.885	36110.63
698.231	36018.88
698.577	36026.57
698.923	35992.22
699.269	35736.4
699.614	35649.18
699.96	35594.04
700.306	35638.78
700.651	35414.38
700.997	35266.13
701.342	35330.09
701.688	35299.13
702.033	35082.41
702.379	35043.32
702.724	35078.57
703.069	35088.51
703.415	34615.3
703.76	34750.89
704.105	34801.29
704.45	34674.74
704.795	34253.96
705.14	34401.52
705.485	34382.99
705.83	34176.45
706.175	34251.7
706.52	34132.61
706.865	34130.8
707.209	34016.9
707.554	33821.65
707.899	33821.2
708.243	33800.18
708.588	33696.68
708.932	33485.84
709.277	33410.82
709.621	33606.74
709.966	33186.42
710.31	33365.17
710.654	33086.53
710.998	33199.3
711.342	33118.85
711.687	33026.87
712.031	32832.53
712.375	32707.78
712.719	32835.69
713.063	32743.94
713.407	32717.73
713.75	32546.43
714.094	32561.57
714.438	32463.5
714.782	32451.52
715.125	32239.77
715.469	32292.65
715.812	32212.43
716.156	31974.24
716.499	32047.69
716.843	32028.03
717.186	31828.03
717.53	31971.98
717.873	31931.08
718.216	31875.94
718.559	31718.43
718.902	31602.05
719.246	31600.24
719.589	31619
719.932	31378.55
720.275	31461.04
720.617	31349.85
720.96	31259.91
721.303	31318.67
721.646	31181.95
721.989	31167.94
722.331	31167.71
722.674	31038
723.016	31154.6
723.359	31113.48
723.701	31008.39
724.044	30794.84
724.386	30671
724.729	30770.21
725.071	30584
725.413	30749.42
725.755	30672.81
726.097	30525.02
726.439	30360.95
726.782	30365.02
727.124	30667.84
727.465	30367.05
727.807	30349.65
728.149	30243.67
728.491	30261.29
728.833	30326.6
729.175	30081.41
729.516	30143.78
729.858	30036.44
730.199	30075.99
730.541	30043
730.882	29979.49
731.224	29972.49
731.565	29785.6
731.906	29762.1
732.248	29789.22
732.589	29655.66
732.93	29540.41
733.271	29658.37
733.612	29625.83
733.953	29566.62
734.294	29458.83
734.635	29344.93
734.976	29545.83
735.317	29292.51
735.658	29379.06
735.999	29326.86
736.339	29342.22
736.68	29362.56
737.021	29262.22
737.361	29024.04
737.702	29190.81
738.042	29155.11
738.383	29051.16
738.723	29015.45
739.063	28862.01
739.404	28954.89
739.744	28833.54
740.084	28847.55
740.424	28924.38
740.764	28630.15
741.104	28767.32
741.444	28536.37
741.784	28598.06
742.124	28611.17
742.464	28425.18
742.804	28451.85
743.143	28372.53
743.483	28476.93
743.823	28332.08
744.162	28313.78
744.502	28329.37
744.841	28114.23
745.181	28274.68
745.52	28131.86
745.86	28283.72
746.199	28154.46
746.538	28046.21
746.877	28106.55
747.216	27978.42
747.556	28026.55
747.895	27969.38
748.234	27802.83
748.573	27783.17
748.911	27836.05
749.25	27728.25
749.589	27720.8
749.928	27721.47
750.267	27680.57
750.605	27608.03
750.944	27577.98
751.283	27438.54
751.621	27451.65
751.96	27355.16
752.298	27353.12
752.636	27340.69
752.975	27156.52
753.313	27184.54
753.651	27238.32
753.989	27093.02
754.327	27081.04
754.666	26920.37
755.004	26905.9
755.342	26931.21
755.679	26870.65
756.017	26697.55
756.355	26838.33
756.693	26688.73
757.031	26818.9
757.368	26571.9
757.706	26542.97
758.044	26468.4
758.381	26490.55
758.719	26354.5
759.056	26283.32
759.394	26243.1
759.731	26088.98
760.068	26165.13
760.405	25958.58
760.743	26039.26
761.08	25941.86
761.417	25722.66
761.754	25746.84
762.091	25718.14
762.428	25660.51
762.765	25427.52
763.102	25618.48
763.438	25379.84
763.775	25340.75
764.112	25237.7
764.449	25303.68
764.785	25162.67
765.122	24935.33
765.458	24865.28
765.795	24859.18
766.131	24680.65
766.467	24784.38
766.804	24573.31
767.14	24457.15
767.476	24555.23
767.812	24399.75
768.148	24470.03
768.485	24207.44
768.821	24118.86
769.157	24058.29
769.492	24032.98
769.828	23939.2
770.164	23836.6
770.5	23754.35
770.836	23710.73
771.171	23700.34
771.507	23512.09
771.842	23489.95
772.178	23453.11
772.513	23376.28
772.849	23350.97
773.184	23155.49
773.519	23100.81
773.855	23065.78
774.19	23003.63
774.525	22814.71
774.86	22888.61
775.195	22808.61
775.53	22661.04
775.865	22516.87
776.2	22395.74
776.535	22363.88
776.87	22357.1
777.205	22167.04
777.539	22072.13
777.874	22055.86
778.209	21871.01
778.543	21873.27
778.878	21744.68
779.212	21720.05
779.547	21630.34
779.881	21652.71
780.215	21480.96
780.55	21532.94
780.884	21362.09
781.218	21340.63
781.552	21265.6
781.886	21118.71
782.22	21082.55
782.554	21022.22
782.888	20817.25
783.222	20777.7
783.556	20703.58
783.889	20611.83
784.223	20465.39
784.557	20478.73
784.89	20522.79
785.224	20292.74
785.557	20250.94
785.891	20229.69
786.224	20140.88
786.558	20038.06
786.891	19963.71
787.224	19844.85
787.557	19792.64
787.891	19757.62
788.224	19704.51
788.557	19631.07
788.89	19667.67
789.223	19590.84
789.556	19457.74
789.888	19419.09
790.221	19324.86
790.554	19199.44
790.887	19164.41
791.219	19132.1
791.552	19030.63
791.884	18925.1
792.217	18956.06
792.549	18856.62
792.882	18689.4
793.214	18680.58
793.546	18655.5
793.879	18618.89
794.211	18460.02
794.543	18438.55
794.875	18433.58
795.207	18467.48
795.539	18273.36
795.871	18395.84
796.203	18233.36
796.535	18071.78
796.867	18084.89
797.198	18078.79
797.53	18060.94
797.862	17866.14
798.193	17962.86
798.525	17745.47
798.856	17831.79
799.188	17596.32
799.519	17561.52
799.85	17488.07
800.182	17415.08
800.513	17495.98
800.844	17372.37
801.175	17417.56
801.506	17330.79
801.837	17268.42
802.168	17195.2
802.499	17136.22
802.83	17064.35
803.161	16978.03
803.491	17022.09
803.822	16934.87
804.153	16883.34
804.483	16678.15
804.814	16643.8
805.145	16641.99
805.475	16738.49
805.805	16557.02
806.136	16542.11
806.466	16486.52
806.796	16571.49
807.126	16300.53
807.457	16270.02
807.787	16348.21
808.117	16336.46
808.447	16231.38
808.777	16216.01
809.107	16148.9
809.436	16146.19
809.766	16095.79
810.096	16020.31
810.426	15984.16
810.755	15960.65
811.085	15937.15
811.414	15899.64
811.744	15747.55
812.073	15675.24
812.403	15674.79
812.732	15646.99
813.061	15637.27
813.39	15553.66
813.719	15477.5
814.049	15543.72
814.378	15512.3
814.707	15413.1
815.036	15463.72
815.365	15269.15
815.693	15220.33
816.022	15242.48
816.351	15162.71
816.68	15008.81
817.008	15059.66
817.337	14961.36
817.665	14948.7
817.994	15074.58
818.322	15087.23
818.651	14952.09
818.979	14880
819.307	14983.05
819.636	14884.52
819.964	14745.77
820.292	14818.31
820.62	14800.23
820.948	14797.52
821.276	14796.16
821.604	14722.72
821.932	14745.77
822.259	14716.62
822.587	14728.82
822.915	14678.43
823.243	14677.07
823.57	14681.59
823.898	14668.71
824.225	14623.74
824.553	14675.72
824.88	14623.06
825.207	14716.17
825.535	14591.2
825.862	14601.59
826.189	14622.38
826.516	14684.76
826.843	14680.24
827.17	14637.52
827.497	14697.41
827.824	14551.43
828.151	14682.04
828.478	14645.21
828.805	14695.6
829.131	14559.56
829.458	14596.85
829.785	14558.66
830.111	14525.89
830.438	14671.65
830.764	14588.49
831.09	14588.94
831.417	14546.68
831.743	14700.8
832.069	14629.39
832.395	14517.98
832.722	14557.07
833.048	14452.9
833.374	14508.49
833.7	14470.75
834.026	14506
834.351	14492.22
834.677	14473.91
835.003	14460.81
835.329	14495.38
835.654	14449.28
835.98	14313.01
836.306	14346.91
836.631	14354.59
836.956	14410.64
837.282	14306.46
837.607	14309.62
837.932	14249.29
838.258	14230.53
838.583	14211.1
838.908	14155.96
839.233	14136.52
839.558	14213.36
839.883	14163.86
840.208	14014.49
840.533	13939.69
840.858	14101.95
841.182	14045.68
841.507	14058.1
841.832	13943.31
842.156	13888.17
842.481	13843.87
842.805	13909.18
843.13	13777.89
843.454	13786.25
843.778	13768.17
844.103	13693.82
844.427	13683.2
844.751	13759.13
845.075	13585.8
845.399	13541.06
845.723	13518.01
846.047	13572.02
846.371	13485.46
846.695	13480.49
847.019	13317.56
847.343	13228.75
847.666	13169.31
847.99	13122.99
848.313	13146.04
848.637	13075.53
848.96	13036.21
849.284	12974.07
849.607	12820.62
849.931	12822.21
850.254	12780.4
850.577	12753.05
850.9	12604.58
851.223	12639.39
851.546	12504.25
851.869	12500.63
852.192	12494.3
852.515	12336.79
852.838	12388.77
853.161	12279.85
853.483	12308.09
853.806	12224.03
854.129	12225.38
854.451	12081.66
854.774	12115.78
855.096	12005.05
855.419	11991.27
855.741	11983.36
856.063	11953.75
856.385	11862.23
856.708	11880.08
857.03	11855.9
857.352	11871.72
857.674	11827.88
857.996	11671.95
858.318	11733.19
858.64	11695.46
858.961	11684.83
859.283	11635.57
859.605	11503.82
859.926	11536.82
860.248	11488.91
860.57	11547.66
860.891	11549.02
861.212	11468.12
861.534	11375.24
861.855	11327.56
862.176	11380.44
862.498	11431.73
862.819	11373.43
863.14	11297.73
863.461	11242.13
863.782	11188.35
864.103	11291.4
864.424	11197.62
864.745	11274.68
865.065	11212.08
865.386	11101.12
865.707	11085.08
866.027	10996.72
866.348	10992.87
866.668	11115.36
866.989	10965.08
867.309	10951.97
867.63	11009.6
867.95	11019.99
868.27	10944.06
868.59	10967.34
868.91	10915.14
869.23	10877.17
869.55	10822.94
869.87	10831.3
870.19	10858.19
870.51	10814.57
870.83	10872.43
871.15	10778.19
871.469	10758.53
871.789	10837.85
872.109	10783.39
872.428	10747.23
872.748	10726.89
873.067	10722.37
873.386	10695.71
873.706	10727.57
874.025	10630.4
874.344	10550.63
874.663	10633.11
874.982	10531.19
875.301	10606.22
875.62	10606.22
875.939	10497.07
876.258	10529.61
876.577	10479.67
876.896	10454.36
877.214	10391.76
877.533	10456.62
877.852	10398.99
878.17	10349.28
878.489	10385.89
878.807	10443.06
879.125	10358.99
879.444	10340.69
879.762	10252.78
880.08	10252.1
880.398	10206.91
880.716	10323.29
881.034	10192.22
881.352	10236.28
881.67	10151.77
881.988	10223.4
882.306	10120.58
882.624	10138.43
882.941	10124.42
883.259	10077.42
883.577	10046.01
883.894	10013.69
884.212	9975.5
884.529	10026.57
884.846	9951.77
885.164	9919
885.481	9937.76
885.798	9876.75
886.115	9869.51
886.432	9899.57
886.75	9806.92
887.067	9775.05
887.383	9717.88
887.7	9736.86
888.017	9742.06
888.334	9746.35
888.651	9667.49
888.967	9641.5
889.284	9653.25
889.6	9581.61
889.917	9563.31
890.233	9563.99
890.55	9506.59
890.866	9500.94
891.182	9416.19
891.498	9404.67
891.815	9417.77
892.131	9448.96
892.447	9363.77
892.763	9346.82
893.079	9301.39
893.395	9329.87
893.71	9196.54
894.026	9240.15
894.342	9154.73
894.657	9081.06
894.973	9124.45
895.289	9083.32
895.604	9084.9
895.92	9029.31
896.235	8995.64
896.55	8927.39
896.865	8976.66
897.181	8901.4
897.496	8920.16
897.811	8950.89
898.126	8803.55
898.441	8756.32
898.756	8811.69
899.071	8778.92
899.386	8743.22
899.7	8605.59
900.015	8680.85
900.33	8607.4
900.644	8605.82
900.959	8602.2
901.273	8523.11
901.588	8522.21
901.902	8455.09
902.216	8476.78
902.531	8437.24
902.845	8345.94
903.159	8324.02
903.473	8334.64
903.787	8300.74
904.101	8251.93
904.415	8201.54
904.729	8158.15
905.042	8157.02
905.356	8156.11
905.67	8080.41
905.984	8043.12
906.297	8008.09
906.611	7969.23
906.924	8051.94
907.237	8003.8
907.551	7968.55
907.864	7881.09
908.177	7860.08
908.491	7868.89
908.804	7764.26
909.117	7804.03
909.43	7773.07
909.743	7671.61
910.056	7668.22
910.368	7623.92
910.681	7629.35
910.994	7596.58
911.307	7563.59
911.619	7521.1
911.932	7527.66
912.244	7482.68
912.557	7451.27
912.869	7421.44
913.181	7345.29
913.494	7340.99
913.806	7290.15
914.118	7254.89
914.43	7222.35
914.742	7213.99
915.054	7211.28
915.366	7093.09
915.678	7093.99
915.99	7066.65
916.302	7044.5
916.613	7044.5
916.925	6992.3
917.236	6990.27
917.548	6920.44
917.859	6938.07
918.171	6898.75
918.482	6835.02
918.794	6828.69
919.105	6904.85
919.416	6697.62
919.727	6779.65
920.038	6726.32
920.349	6689.26
920.66	6638.41
920.971	6633.67
921.282	6623.5
921.593	6520.9
921.903	6599.09
922.214	6522.03
922.525	6521.81
922.835	6443.84
923.146	6421.92
923.456	6463.05
923.767	6356.84
924.077	6351.19
924.387	6382.6
924.697	6290.17
925.008	6291.3
925.318	6243.17
925.628	6228.71
925.938	6166.11
926.248	6193.9
926.558	6110.97
926.867	6094.92
927.177	6138.09
927.487	6054.02
927.796	6018.09
928.106	6065.77
928.416	5990.52
928.725	5995.27
929.034	5988.94
929.344	5958.88
929.653	5921.6
929.962	5861.48
930.271	5821.49
930.581	5766.57
930.89	5843.41
931.199	5784.88
931.508	5753.46
931.817	5752.11
932.125	5715.5
932.434	5685.44
932.743	5655.16
933.051	5609.97
933.36	5635.95
933.669	5551.89
933.977	5527.93
934.286	5551.21
934.594	5514.6
934.902	5483.87
935.21	5432.12
935.519	5428.95
935.827	5408.39
936.135	5449.52
936.443	5324.78
936.751	5303.53
937.059	5338.33
937.367	5283.19
937.674	5278.22
937.982	5276.87
938.29	5203.2
938.597	5200.03
938.905	5143.31
939.213	5167.27
939.52	5153.25
939.827	5150.99
940.135	5047.04
940.442	5076.42
940.749	5040.71
941.056	5030.77
941.363	5006.82
941.67	4979.7
941.977	4952.13
942.284	4966.59
942.591	4933.83
942.898	4887.5
943.205	4868.97
943.511	4840.27
943.818	4821.74
944.125	4770.67
944.431	4813.6
944.738	4788.74
945.044	4716.88
945.35	4706.03
945.657	4674.62
945.963	4679.59
946.269	4717.11
946.575	4697.9
946.881	4628.3
947.187	4630.1
947.493	4576.77
947.799	4575.87
948.105	4602.99
948.41	4546.94
948.716	4579.48
949.022	4495.42
949.327	4495.64
949.633	4424.91
949.938	4488.19
950.244	4393.27
950.549	4402.09
950.854	4355.99
951.16	4374.74
951.465	4327.29
951.77	4311.92
952.075	4262.66
952.38	4320.28
952.685	4284.58
952.99	4221.3
953.294	4228.08
953.599	4232.15
953.904	4214.52
954.209	4149.66
954.513	4167.74
954.818	4163.68
955.122	4141.98
955.426	4096.78
955.731	4074.64
956.035	4057.69
956.339	4026.28
956.643	4026.73
956.948	3972.27
957.252	3991.7
957.556	3970.01
957.86	3943.57
958.163	3978.14
958.467	3961.42
958.771	3952.61
959.075	3873.29
959.378	3891.82
959.682	3880.07
959.985	3856.34
960.289	3851.37
960.592	3802.56
960.896	3792.84
961.199	3809.56
961.502	3720.52
961.805	3746.96
962.108	3719.85
962.411	3647.08
962.714	3674.42
963.017	3668.32
963.32	3675.55
963.623	3647.08
963.926	3645.95
964.228	3565.95
964.531	3606.18
964.833	3591.94
965.136	3588.78
965.438	3520.98
965.741	3562.56
966.043	3518.27
966.345	3527.53
966.648	3512.17
966.95	3480.53
967.252	3480.98
967.554	3476.01
967.856	3421.77
968.158	3424.03
968.46	3388.78
968.761	3386.07
969.063	3346.75
969.365	3382.45
969.666	3345.62
969.968	3313.53
970.269	3325.05
970.571	3312.85
970.872	3289.8
971.174	3278.05
971.475	3284.38
971.776	3265.85
972.077	3197.6
972.378	3233.98
972.679	3209.12
972.98	3198.96
973.281	3174.55
973.582	3165.96
973.883	3160.31
974.183	3122.35
974.484	3074.44
974.785	3081.67
975.085	3065.4
975.386	3100.65
975.686	3107.88
975.986	3054.55
976.287	3057.94
976.587	3005.51
976.887	2972.29
977.187	3013.2
977.487	2966.65
977.787	2967.32
978.087	2972.75
978.387	2919.41
978.687	2930.26
978.987	2937.72
979.286	2886.65
979.586	2867.44
979.885	2871.73
980.185	2871.28
980.484	2827.89
980.784	2841.9
981.083	2799.42
981.382	2838.06
981.682	2806.42
981.981	2822.69
982.28	2771.62
982.579	2765.75
982.878	2765.07
983.177	2719.42
983.475	2724.17
983.774	2718.29
984.073	2711.06
984.372	2671.29
984.67	2695.01
984.969	2641.23
985.267	2659.08
985.566	2674.22
985.864	2645.3
986.162	2614.79
986.461	2604.39
986.759	2588.58
987.057	2556.71
987.355	2570.05
987.653	2545.19
987.951	2556.71
988.249	2562.59
988.547	2565.3
988.844	2500.44
989.142	2512.19
989.44	2493.89
989.737	2478.07
990.035	2471.97
990.332	2459.99
990.63	2457.73
990.927	2456.6
991.224	2422.48
991.521	2398.98
991.819	2413.67
992.116	2414.57
992.413	2388.81
992.71	2370.73
993.006	2350.16
993.303	2334.35
993.6	2324.4
993.897	2352.65
994.193	2310.62
994.49	2303.39
994.787	2312.65
995.083	2303.16
995.379	2267
995.676	2278.75
995.972	2248.7
996.268	2262.93
996.565	2239.21
996.861	2219.77
997.157	2210.28
997.453	2170.96
997.749	2153.79
998.044	2181.36
998.34	2182.26
998.636	2161.24
998.932	2125.09
999.227	2117.18
999.523	2118.31
999.818	2131.41
1000.114	2097.06
1000.409	2071.3
1000.704	2071.75
1001	2071.3
1001.295	2048.25
1001.59	2020.68
1001.885	2009.38
1002.18	2018.65
1002.475	1981.36
1002.77	1994.69
1003.065	1984.98
1003.359	1980.23
1003.654	1959.67
1003.949	1982.94
1004.243	1960.34
1004.538	1920.12
1004.832	1930.51
1005.127	1924.86
1005.421	1875.6
1005.715	1911.08
1006.009	1852.32
1006.304	1871.31
1006.598	1867.47
1006.892	1843.74
1007.186	1850.97
1007.48	1854.58
1007.773	1825.21
1008.067	1812.1
1008.361	1824.75
1008.655	1779.78
1008.948	1791.31
1009.242	1770.29
1009.535	1768.03
1009.829	1736.4
1010.122	1744.53
1010.415	1735.49
1010.708	1715.38
1011.001	1710.63
1011.295	1687.81
1011.588	1700.69
1011.881	1688.49
1012.173	1684.64
1012.466	1691.65
1012.759	1654.14
1013.052	1664.53
1013.344	1647.58
1013.637	1624.53
1013.93	1615.27
1014.222	1610.97
1014.514	1603.29
1014.807	1576.63
1015.099	1568.26
1015.391	1580.69
1015.683	1535.72
1015.976	1556.29
1016.268	1562.84
1016.56	1509.73
1016.851	1521.94
1017.143	1530.3
1017.435	1527.36
1017.727	1501.82
1018.018	1486.46
1018.31	1506.12
1018.602	1464.99
1018.893	1457.31
1019.185	1431.54
1019.476	1463.41
1019.767	1468.38
1020.058	1406.91
1020.35	1416.63
1020.641	1397.19
1020.932	1375.05
1021.223	1378.44
1021.514	1388.38
1021.804	1347.03
1022.095	1363.07
1022.386	1339.57
1022.677	1358.1
1022.967	1324.2
1023.258	1300.47
1023.548	1320.36
1023.839	1304.99
1024.129	1285.33
1024.419	1300.02
1024.709	1310.87
1025	1277.2
1025.29	1267.25
1025.58	1251.21
1025.87	1246.01
1026.16	1246.46
1026.449	1199.46
1026.739	1241.04
1027.029	1227.48
1027.319	1205.79
1027.608	1196.3
1027.898	1213.02
1028.187	1190.19
1028.477	1195.62
1028.766	1156.75
1029.055	1154.72
1029.344	1156.3
1029.634	1152
1029.923	1131.67
1030.212	1119.91
1030.501	1139.35
1030.79	1129.63
1031.078	1119.24
1031.367	1107.49
1031.656	1100.93
1031.945	1097.99
1032.233	1084.89
1032.522	1073.59
1032.81	1080.14
1033.099	1077.66
1033.387	1052.35
1033.675	1047.37
1033.963	1065.45
1034.251	1044.66
1034.54	1054.38
1034.828	1017.32
1035.116	1001.05
1035.403	1012.35
1035.691	987.71
1035.979	995.17
1036.267	1028.84
1036.554	960.37
1036.842	970.54
1037.129	970.31
1037.417	973.03
1037.704	958.56
1037.992	924.66
1038.279	968.28
1038.566	935.74
1038.853	935.74
1039.14	935.74
