Data from hue_24_FLMS001491_00050.txt Node
Date: Tue Feb 07 17:12:20 GMT 2017
User: dcchb
Spectrometer: FLMS00149
Trigger mode: 0
Integration Time (sec): 2.000000E-2
Scans to average: 10
Electric dark correction enabled: true
Nonlinearity correction enabled: false
Boxcar width: 0
XAxis mode: Wavelengths
Number of Pixels in Spectrum: 2048
>>>>>Begin Spectral Data<<<<<
341.393	-6.38
341.776	-6.38
342.16	-6.38
342.543	-66.5
342.927	-52.03
343.31	-78.47
343.693	-59.49
344.077	-70.56
344.46	-68.08
344.843	-54.29
345.226	-43.45
345.61	-32.37
345.993	-13.84
346.376	12.15
346.759	1.98
347.142	10.79
347.525	46.27
347.908	77.91
348.291	73.39
348.674	96.21
349.057	101.86
349.44	124.01
349.823	130.34
350.206	164.68
350.588	192.48
350.971	216.89
351.354	220.73
351.737	242.42
352.119	260.05
352.502	243.1
352.884	280.16
353.267	287.17
353.65	305.02
354.032	285.59
354.414	300.73
354.797	309.99
355.179	325.36
355.562	317.9
355.944	337.79
356.326	324.91
356.709	340.5
357.091	326.04
357.473	330.78
357.855	349.31
358.238	349.09
358.62	334.85
359.002	327.84
359.384	335.53
359.766	355.64
360.148	368.52
360.53	335.08
360.912	369.88
361.294	320.61
361.676	343.89
362.057	331.69
362.439	333.95
362.821	332.59
363.203	331.23
363.584	329.43
363.966	318.58
364.348	336.43
364.729	324
365.111	322.65
365.493	335.75
365.874	334.4
366.256	321.97
366.637	323.55
367.019	330.33
367.4	328.75
367.781	314.51
368.163	302.76
368.544	310.9
368.925	328.97
369.306	336.43
369.688	311.8
370.069	340.5
370.45	325.13
370.831	326.94
371.212	326.26
371.593	321.74
371.974	324.45
372.355	321.74
372.736	317.45
373.117	290.11
373.498	315.42
373.879	337.79
374.26	298.24
374.641	332.36
375.021	302.76
375.402	315.87
375.783	317.22
376.163	339.82
376.544	337.11
376.925	323.78
377.305	334.4
377.686	353.15
378.066	343.89
378.447	328.3
378.827	330.78
379.208	325.58
379.588	328.75
379.968	350.89
380.349	345.47
380.729	332.14
381.109	335.98
381.489	362.87
381.87	338.92
382.25	355.64
382.63	333.49
383.01	332.36
383.39	338.24
383.77	342.53
384.15	354.96
384.53	371.01
384.91	351.57
385.29	349.99
385.67	348.41
386.049	353.15
386.429	363.1
386.809	357.22
387.189	340.95
387.568	382.08
387.948	368.3
388.328	367.62
388.707	351.57
389.087	372.14
389.466	369.2
389.846	374.85
390.225	356.09
390.605	378.01
390.984	365.13
391.363	377.56
391.743	372.14
392.122	379.14
392.501	366.49
392.881	391.12
393.26	375.98
393.639	399.93
394.018	378.24
394.397	378.01
394.776	374.17
395.155	395.64
395.534	392.7
395.913	373.27
396.292	399.26
396.671	407.16
397.05	404.23
397.429	380.27
397.808	391.57
398.186	379.37
398.565	392.48
398.944	417.79
399.323	403.32
399.701	416.43
400.08	417.56
400.458	407.62
400.837	426.37
401.215	413.04
401.594	396.32
401.972	413.94
402.351	423.66
402.729	414.62
403.107	407.16
403.486	419.59
403.864	423.21
404.242	424.34
404.62	420.72
404.999	432.93
405.377	443.55
405.755	427.95
406.133	425.92
406.511	450.55
406.889	412.14
407.267	441.97
407.645	427.95
408.023	448.75
408.401	450.33
408.779	434.06
409.156	464.56
409.534	464.56
409.912	461.4
410.29	456.65
410.667	467.5
411.045	468.41
411.422	469.99
411.8	481.74
412.178	480.38
412.555	481.29
412.933	459.82
413.31	487.84
413.687	485.58
414.065	478.57
414.442	471.57
414.819	509.08
415.197	502.98
415.574	491.91
415.951	511.57
416.328	493.94
416.705	507.73
417.082	504.56
417.46	506.6
417.837	515.86
418.214	524
418.591	520.38
418.967	528.52
419.344	528.07
419.721	532.13
420.098	534.39
420.475	528.52
420.852	529.65
421.228	544.79
421.605	547.5
421.982	540.72
422.358	549.76
422.735	582.53
423.111	586.14
423.488	568.06
423.864	559.48
424.241	567.84
424.617	602.41
424.994	589.76
425.37	580.04
425.746	568.06
426.123	587.05
426.499	582.53
426.875	590.44
427.251	611
427.627	606.93
428.003	621.85
428.379	602.41
428.756	596.09
429.132	639.7
429.507	622.75
429.883	640.38
430.259	638.34
430.635	624.56
431.011	641.51
431.387	644.22
431.763	663.65
432.138	661.17
432.514	653.71
432.89	688.29
433.265	688.74
433.641	712.69
434.016	690.09
434.392	704.56
434.767	707.95
435.143	709.3
435.518	709.98
435.894	707.27
436.269	725.57
436.644	733.94
437.02	733.03
437.395	746.36
437.77	750.66
438.145	760.15
438.52	740.71
438.895	757.44
439.271	763.09
439.646	752.01
440.021	802.41
440.395	784.78
440.77	768.28
441.145	807.38
441.52	786.36
441.895	810.09
442.27	802.63
442.645	803.09
443.019	817.78
443.394	804.67
443.769	805.8
444.143	804.67
444.518	847.83
444.892	835.63
445.267	847.38
445.641	838.34
446.016	821.16
446.39	838.79
446.764	876.08
447.139	868.62
447.513	860.71
447.887	846.93
448.262	881.95
448.636	850.09
449.01	866.36
449.384	907.04
449.758	900.94
450.132	901.39
450.506	910.88
450.88	912.91
451.254	923.31
451.628	928.05
452.002	940.03
452.376	943.65
452.75	964.21
453.123	942.29
453.497	942.07
453.871	949.52
454.244	956.75
454.618	988.39
454.992	1000.82
455.365	987.49
455.739	1008.96
456.112	1033.81
456.486	1057.32
456.859	1061.84
457.232	1070.2
457.606	1029.75
457.979	1060.93
458.352	1078.11
458.725	1107.94
459.099	1087.15
459.472	1106.58
459.845	1114.04
460.218	1129.86
460.591	1145.22
460.964	1133.02
461.337	1162.85
461.71	1202.85
462.083	1186.13
462.456	1195.39
462.829	1213.24
463.201	1234.04
463.574	1222.96
463.947	1237.2
464.32	1262.74
464.692	1271.55
465.065	1290.76
465.438	1300.93
465.81	1310.19
466.183	1340.02
466.555	1358.33
466.928	1353.13
467.3	1349.06
467.672	1386.57
468.045	1436.52
468.417	1428.83
468.789	1436.52
469.161	1462.96
469.534	1487.36
469.906	1523.29
470.278	1530.98
470.65	1530.3
471.022	1580.47
471.394	1629.73
471.766	1648.26
472.138	1657.75
472.51	1665.66
472.882	1656.62
473.253	1700.92
473.625	1732.55
473.997	1784.53
474.369	1806
474.74	1766.22
475.112	1846.22
475.484	1852.55
475.855	1889.39
476.227	1899.78
476.598	1977.97
476.97	2000.57
477.341	2057.97
477.713	2078.31
478.084	2108.81
478.455	2150.62
478.827	2138.64
479.198	2226.55
479.569	2244.63
479.94	2309.94
480.311	2324.85
480.682	2409.15
481.053	2456.6
481.424	2530.27
481.795	2516.04
482.166	2522.82
482.537	2586.77
482.908	2700.21
483.279	2703.38
483.65	2750.15
484.021	2795.12
484.391	2844.84
484.762	2899.53
485.133	2944.5
485.503	2953.99
485.874	3061.11
486.244	3084.38
486.615	3123.93
486.985	3187.43
487.356	3226.3
487.726	3296.58
488.097	3312.85
488.467	3351.04
488.837	3430.81
489.207	3491.6
489.578	3557.14
489.948	3593.3
490.318	3641.2
490.688	3705.16
491.058	3753.74
491.428	3809.79
491.798	3826.96
492.168	3913.96
492.538	3944.7
492.908	3990.12
493.278	4036.67
493.648	4070.12
494.017	4124.81
494.387	4176.33
494.757	4210.91
495.126	4270.79
495.496	4277.35
495.866	4313.5
496.235	4326.38
496.605	4441.86
496.974	4499.26
497.344	4477.79
497.713	4558.47
498.082	4610.22
498.452	4610.44
498.821	4624.68
499.19	4658.8
499.559	4701.74
499.928	4757.11
500.298	4769.76
500.667	4869.65
501.036	4844.11
501.405	4811.79
501.774	4865.13
502.143	4934.5
502.512	4947.16
502.88	4994.39
503.249	4995.97
503.618	4998.46
503.987	5047.49
504.356	5101.28
504.724	5176.3
505.093	5158.68
505.462	5176.76
505.83	5199.35
506.199	5220.82
506.567	5256.08
506.936	5293.14
507.304	5359.12
507.672	5402.74
508.041	5421.27
508.409	5412.91
508.777	5466.24
509.145	5482.06
509.514	5539.23
509.882	5547.82
510.25	5568.16
510.618	5595.05
510.986	5630.08
511.354	5684.31
511.722	5665.56
512.09	5731.09
512.458	5753.01
512.826	5720.25
513.193	5803.18
513.561	5841.15
513.929	5838.89
514.297	5887.47
514.664	5886.12
515.032	5976.51
515.4	5970.41
515.767	5949.84
516.135	5978.77
516.502	6044.98
516.869	6108.03
517.237	6137.41
517.604	6024.87
517.972	6146
518.339	6170.4
518.706	6141.48
519.073	6177.86
519.44	6220.8
519.808	6251.08
520.175	6205.66
520.542	6338.31
520.909	6366.33
521.276	6378.31
521.643	6416.95
522.009	6385.99
522.376	6408.59
522.743	6514.35
523.11	6564.97
523.477	6558.64
523.843	6622.14
524.21	6712.08
524.577	6732.87
524.943	6729.71
525.31	6766.77
525.676	6862.81
526.043	6867.56
526.409	6901.91
526.776	6952.53
527.142	6934.22
527.508	6998.86
527.874	7103.26
528.241	7098.29
528.607	7041.57
528.973	7192.07
529.339	7159.98
529.705	7202.47
530.071	7296.7
530.437	7335.8
530.803	7318.4
531.169	7350.26
531.535	7366.08
531.901	7435.91
532.267	7442.69
532.632	7513.19
532.998	7546.86
533.364	7606.52
533.73	7601.78
534.095	7651.72
534.461	7597.03
534.826	7758.61
535.192	7685.39
535.557	7837.25
535.923	7765.84
536.288	7859.62
536.653	7930.81
537.019	7881.54
537.384	7950.69
537.749	7974.42
538.114	7915.89
538.479	7958.15
538.845	8006.74
539.21	8046.06
539.575	8068.43
539.94	8059.84
540.305	8160.86
540.67	8165.83
541.034	8238.6
541.399	8186.62
541.764	8256.45
542.129	8265.94
542.494	8270.01
542.858	8409.21
543.223	8405.82
543.587	8408.54
543.952	8476.1
544.316	8532.37
544.681	8484.24
545.045	8514.97
545.41	8596.55
545.774	8601.98
546.138	8636.55
546.503	8646.27
546.867	8661.18
547.231	8767.62
547.595	8812.37
547.959	8814.85
548.324	8770.79
548.688	8859.6
549.052	8909.31
549.416	8959.26
549.779	8918.81
550.143	8999.71
550.507	8987.05
550.871	9059.59
551.235	9052.13
551.599	9119.03
551.962	9085.81
552.326	9154.51
552.689	9194.05
553.053	9199.25
553.417	9159.02
553.78	9340.04
554.143	9320.38
554.507	9297.78
554.87	9296.87
555.234	9418
555.597	9387.95
555.96	9451.9
556.323	9506.13
556.686	9514.04
557.05	9511.56
557.413	9584.78
557.776	9597.43
558.139	9687.37
558.502	9718.33
558.865	9736.41
559.228	9752.46
559.59	9792.68
559.953	9789.52
560.316	9932.56
560.679	9868.16
561.041	9927.37
561.404	9999.23
561.767	10099.11
562.129	9998.78
562.492	10170.98
562.854	10086.68
563.217	10142.95
563.579	10118.32
563.941	10216.17
564.304	10249.62
564.666	10281.26
565.028	10308.37
565.39	10342.27
565.753	10447.35
566.115	10409.61
566.477	10502.94
566.839	10550.4
567.201	10514.02
567.563	10582.04
567.925	10681.47
568.287	10664.75
568.648	10687.12
569.01	10761.24
569.372	10848.7
569.734	10735.93
570.095	10842.6
570.457	11003.95
570.819	10947.23
571.18	11038.75
571.542	11021.35
571.903	11053.89
572.265	11114.23
572.626	11191.29
572.987	11238.07
573.349	11237.61
573.71	11373.43
574.071	11406.65
574.432	11415.91
574.794	11565.74
575.155	11545.85
575.516	11539.08
575.877	11685.96
576.238	11789.24
576.599	11838.05
576.96	11900.42
577.32	11987.88
577.681	12080.08
578.042	12165.95
578.403	12275.55
578.763	12366.4
579.124	12392.39
579.485	12570.69
579.845	12669.44
580.206	12748.53
580.566	12867.4
580.927	12995.99
581.287	13171.12
581.648	13163.44
582.008	13364.11
582.368	13585.35
582.728	13693.37
583.089	13799.35
583.449	13997.54
583.809	14212.45
584.169	14320.24
584.529	14503.74
584.889	14766.33
585.249	14840.01
585.609	14987.35
585.969	15355.25
586.329	15379.65
586.688	15666.65
587.048	15917.27
587.408	16009.01
587.768	16267.31
588.127	16547.76
588.487	16718.83
588.846	17083.56
589.206	17235.65
589.565	17465.7
589.925	17887.61
590.284	17977.55
590.643	18301.16
591.003	18665.67
591.362	18930.52
591.721	19243.51
592.08	19479.43
592.44	19841.23
592.799	20107.21
593.158	20254.78
593.517	20596.01
593.876	20887.08
594.235	21172.72
594.593	21488.64
594.952	21906.03
595.311	22123.88
595.67	22514.61
596.029	22736.07
596.387	23137.64
596.746	23450.17
597.104	23602.94
597.463	23879.32
597.822	24344.61
598.18	24448.79
598.538	24907.99
598.897	25281.31
599.255	25375.77
599.613	25995.19
599.972	26126.94
600.33	26525.8
600.688	26614.84
601.046	27128.04
601.404	27412.56
601.762	27728.25
602.12	28002.37
602.478	28306.09
602.836	28613.2
603.194	28760.09
603.552	29101.55
603.91	29194.88
604.268	29620.86
604.625	29803.91
604.983	30188.98
605.341	30312.37
605.698	30673.04
606.056	30912.35
606.413	31251.1
606.771	31671.2
607.128	31911.87
607.485	31860.57
607.843	32208.36
608.2	32631.63
608.557	32864.62
608.914	33084.27
609.272	33378.05
609.629	33577.14
609.986	33955.89
610.343	34025.26
610.7	34484.46
611.057	34525.36
611.414	34747.5
611.771	35043.54
612.127	35200.6
612.484	35351.33
612.841	35662.06
613.198	35740.92
613.554	36034.7
613.911	36288.93
614.267	36453.67
614.624	36511.3
614.98	36615.25
615.337	37078.06
615.693	37193.32
616.05	37356.93
616.406	37634.89
616.762	37722.79
617.118	37845.95
617.475	38005.95
617.831	38222.89
618.187	38519.61
618.543	38518.03
618.899	38912.82
619.255	38985.13
619.611	39000.05
619.967	39311.45
620.323	39370.21
620.678	39363.65
621.034	39465.35
621.39	39397.78
621.746	39695.62
622.101	40227.59
622.457	39893.36
622.812	40082.96
623.168	40415.83
623.523	40378.09
623.879	40636.62
624.234	40383.51
624.589	40597.97
624.945	40718.42
625.3	40903.27
625.655	40855.59
626.01	41154.34
626.365	41070.5
626.72	41136.71
627.075	41147.79
627.43	41240.22
627.785	41159.09
628.14	41248.58
628.495	41469.36
628.85	41527.67
629.205	41366.99
629.559	41661.9
629.914	41513.2
630.269	41619.41
630.623	41654.89
630.978	41659.19
631.332	41773.08
631.687	41909.8
632.041	41759.07
632.396	41777.15
632.75	41720.43
633.104	41908.9
633.459	41710.03
633.813	41828.22
634.167	41904.83
634.521	41947.77
634.875	41893.31
635.229	42009.91
635.583	41867.09
635.937	41875.9
636.291	41990.7
636.645	41909.58
636.999	41816.25
637.352	41958.16
637.706	41834.32
638.06	42085.39
638.413	42027.99
638.767	41882.23
639.121	42164.71
639.474	41659.87
639.828	41756.59
640.181	41787.77
640.534	41936.92
640.888	41762.24
641.241	41602.24
641.594	41804.72
641.947	42005.62
642.301	41909.35
642.654	41738.51
643.007	41878.84
643.36	41836.81
643.713	41820.09
644.066	41916.36
644.419	41700.09
644.771	41512.52
645.124	41159.54
645.477	41054.46
645.83	40790.51
646.182	40697.86
646.535	40735.14
646.888	40785.99
647.24	40561.81
647.593	40847.68
647.945	40684.98
648.298	40636.16
648.65	40396.4
649.002	40326.34
649.355	40630.06
649.707	40614.24
650.059	40821.7
650.411	41167
650.763	41264.17
651.115	41630.71
651.467	41441.79
651.819	41513.88
652.171	41406.99
652.523	41375.8
652.875	41313.89
653.227	41246.99
653.578	41369.93
653.93	41368.57
654.282	41257.39
654.633	41062.37
654.985	41338.97
655.337	41245.86
655.688	41279.99
656.039	41463.94
656.391	41166.09
656.742	41180.56
657.094	41174.23
657.445	41305.52
657.796	41265.75
658.147	41151.86
658.498	41068.24
658.849	41160.9
659.2	41254.9
659.551	40902.6
659.902	41191.63
660.253	41183.95
660.604	41171.06
660.955	40973.33
661.306	41223.27
661.656	41082.25
662.007	41217.39
662.358	41111.86
662.708	41218.52
663.059	41055.36
663.409	40917.51
663.76	41088.81
664.11	41250.61
664.461	41133.78
664.811	41036.6
665.161	41084.29
665.511	40991.63
665.862	41055.81
666.212	41071.41
666.562	41187.11
666.912	40982.82
667.262	40904.86
667.612	41052.42
667.962	40967.91
668.312	41003.16
668.662	41000
669.011	40875.25
669.361	40757.97
669.711	40771.75
670.06	40754.8
670.41	40850.17
670.76	40785.09
671.109	40923.16
671.459	40761.36
671.808	40848.59
672.157	40891.3
672.507	40629.61
672.856	40690.4
673.205	40811.75
673.554	40888.13
673.904	40715.94
674.253	40913.44
674.602	40779.66
674.951	40368.37
675.3	40086.57
675.649	40771.3
675.998	40691.53
676.346	40689.5
676.695	40851.3
677.044	40438.88
677.393	40593.68
677.741	40534.7
678.09	40457.18
678.438	40439.33
678.787	40578.99
679.135	40548.26
679.484	40313.23
679.832	40395.49
680.181	40228.26
680.529	40265.1
680.877	40208.6
681.225	40060.36
681.573	40374.7
681.922	40012
682.27	39870.53
682.618	39825.79
682.966	39843.19
683.314	39942.62
683.661	39832.57
684.009	39528.4
684.357	39615.63
684.705	39579.47
685.053	39594.83
685.4	39536.31
685.748	39381.28
686.095	39417.89
686.443	39207.5
686.79	39263.32
687.138	39357.1
687.485	39375.63
687.832	39258.12
688.18	39238.46
688.527	38932.93
688.874	38947.85
689.221	39036.88
689.568	38836.89
689.915	38697.23
690.262	38706.5
690.609	38659.04
690.956	38483.23
691.303	38363.23
691.65	38200.75
691.997	38344.47
692.344	38039.62
692.69	38081.65
693.037	38014.09
693.383	37685.51
693.73	37908.33
694.077	37694.55
694.423	37632.85
694.769	37565.28
695.116	37412.29
695.462	37455.91
695.808	37299.53
696.155	37621.33
696.501	36996.71
696.847	37122.58
697.193	36801.91
697.539	36966.43
697.885	36776.83
698.231	36759.43
698.577	36772.54
698.923	36677.62
699.269	36551.3
699.614	36217.3
699.96	36195.15
700.306	36227.01
700.651	36044.65
700.997	35884.88
701.342	35892.11
701.688	35869.73
702.033	35821.6
702.379	35703.86
702.724	35709.06
703.069	35719.91
703.415	35338.68
703.76	35313.14
704.105	35351.33
704.45	35271.56
704.795	35000.61
705.14	34868.18
705.485	34983.88
705.83	34784.57
706.175	34860.95
706.52	34689.43
706.865	34605.36
707.209	34624.34
707.554	34364.01
707.899	34587.73
708.243	34461.86
708.588	34422.32
708.932	33980.52
709.277	33997.69
709.621	34096.67
709.966	33934.19
710.31	33981.2
710.654	33648.32
710.998	33786.63
711.342	33760.41
711.687	33558.16
712.031	33484.49
712.375	33351.61
712.719	33438.16
713.063	33389.57
713.407	33410.59
713.75	33236.58
714.094	33264.83
714.438	33108.45
714.782	33092.63
715.125	32953.65
715.469	32897.61
715.812	32786.2
716.156	32756.6
716.499	32686.32
716.843	32698.29
717.186	32535.81
717.53	32690.38
717.873	32562.93
718.216	32569.03
718.559	32347.34
718.902	32279.09
719.246	32306.66
719.589	32214.46
719.932	32109.61
720.275	32165.65
720.617	32036.16
720.96	32175.14
721.303	32019.89
721.646	32012.21
721.989	31755.72
722.331	31931.99
722.674	31716.4
723.016	31735.38
723.359	31647.47
723.701	31771.76
724.044	31376.07
724.386	31309.63
724.729	31564.09
725.071	31334.26
725.413	31395.5
725.755	31353.92
726.097	31229.86
726.439	31020.6
726.782	31167.71
727.124	31134.04
727.465	30983.08
727.807	30982.63
728.149	31011.33
728.491	30837.55
728.833	30763.2
729.175	30775.18
729.516	30603.43
729.858	30746.48
730.199	30817.89
730.541	30609.31
730.882	30617.67
731.224	30745.12
731.565	30342.2
731.906	30534.51
732.248	30420.16
732.589	30311.69
732.93	30230.56
733.271	30282.09
733.612	30223.78
733.953	30269.66
734.294	30144.24
734.635	30067.85
734.976	30045.26
735.317	30029.66
735.658	29885.49
735.999	30004.13
736.339	29923.45
736.68	29953.73
737.021	29820.63
737.361	29665.6
737.702	29896.78
738.042	29788.09
738.383	29743.34
738.723	29751.48
739.063	29616.34
739.404	29647.07
739.744	29550.8
740.084	29470.13
740.424	29572.27
740.764	29315.56
741.104	29459.73
741.444	29402.79
741.784	29214.99
742.124	29350.13
742.464	29349.45
742.804	29311.49
743.143	29231.04
743.483	29158.5
743.823	29126.86
744.162	29132.74
744.502	29183.81
744.841	28960.31
745.181	29046.86
745.52	28909.47
745.86	29010.71
746.199	28842.8
746.538	28867.43
746.877	28956.02
747.216	28958.28
747.556	28759.64
747.895	28810.71
748.234	28560.32
748.573	28576.37
748.911	28549.25
749.25	28668.34
749.589	28476.71
749.928	28475.58
750.267	28634.44
750.605	28421.57
750.944	28413.89
751.283	28170.28
751.621	28346.99
751.96	28110.39
752.298	28236.72
752.636	28123.05
752.975	28086.89
753.313	28036.04
753.651	28017.06
753.989	27914.69
754.327	27857.74
754.666	27824.97
755.004	27947.01
755.342	27774.81
755.679	27733.23
756.017	27661.36
756.355	27661.82
756.693	27570.74
757.031	27549.28
757.368	27383.63
757.706	27392.67
758.044	27356.06
758.381	27285.78
758.719	27212.34
759.056	27389.05
759.394	27143.41
759.731	26831.78
760.068	27075.16
760.405	26985
760.743	26811.89
761.08	26862.74
761.417	26638.34
761.754	26585.69
762.091	26562.86
762.428	26460.04
762.765	26402.19
763.102	26427.72
763.438	26226.6
763.775	26206.71
764.112	26126.04
764.449	26159.71
764.785	26004.46
765.122	25944.57
765.458	25753.62
765.795	25670.45
766.131	25737.57
766.467	25652.6
766.804	25555.88
767.14	25451.93
767.476	25338.26
767.812	25298.49
768.148	25376.45
768.485	25199.28
768.821	25004.48
769.157	24938.72
769.492	24922.45
769.828	24905.73
770.164	24679.52
770.5	24662.8
770.836	24721.78
771.171	24464.61
771.507	24550.94
771.842	24201.79
772.178	24205.18
772.513	24192.08
772.849	24120.67
773.184	23977.62
773.519	23992.98
773.855	23908.69
774.19	23695.82
774.525	23693.78
774.86	23674.12
775.195	23595.03
775.53	23437.52
775.865	23391.19
776.2	23222.61
776.535	23083.86
776.87	23068.04
777.205	23003.86
777.539	22945.55
777.874	23057.19
778.209	22646.58
778.543	22699.23
778.878	22571.33
779.212	22475.51
779.547	22464.44
779.881	22409.75
780.215	22323.2
780.55	22339.02
780.884	22071.91
781.218	22028.74
781.552	22107.16
781.886	22017.9
782.22	21846.6
782.554	21803.66
782.888	21696.55
783.222	21560.96
783.556	21433.96
783.889	21439.15
784.223	21278.48
784.557	21268.99
784.89	21344.47
785.224	21097.24
785.557	20965.95
785.891	21092.72
786.224	20738.38
786.558	20865.16
786.891	20686.63
787.224	20604.83
787.557	20492.51
787.891	20475.11
788.224	20495.9
788.557	20429.91
788.89	20418.84
789.223	20340.43
789.556	20190.15
789.888	20196.7
790.221	20076.7
790.554	19980.89
790.887	19884.62
791.219	19756.03
791.552	19790.61
791.884	19687.11
792.217	19686.88
792.549	19537.06
792.882	19474.91
793.214	19355.37
793.546	19491.41
793.879	19248.7
794.211	19196.05
794.543	19190.17
794.875	19123.73
795.207	19095.94
795.539	19126.22
795.871	19097.07
796.203	18773.46
796.535	18811.65
796.867	18799.68
797.198	18756.74
797.53	18808.26
797.862	18580.7
798.193	18647.81
798.525	18383.41
798.856	18514.71
799.188	18267.94
799.519	18295.96
799.85	18010.32
800.182	18050.77
800.513	18174.61
800.844	17967.38
801.175	18094.16
801.506	17999.24
801.837	17921.51
802.168	17841.51
802.499	17759.7
802.83	17616.88
803.161	17653.72
803.491	17765.13
803.822	17797.44
804.153	17546.6
804.483	17427.73
804.814	17366.04
805.145	17283.78
805.475	17294.4
805.805	17275.87
806.136	17257.79
806.466	17186.61
806.796	17178.93
807.126	17087.4
807.457	17026.61
807.787	17036.56
808.117	16940.06
808.447	16832.5
808.777	16886.28
809.107	16770.35
809.436	16654.42
809.766	16711.37
810.096	16642.22
810.426	16612.16
810.755	16536.46
811.085	16499.62
811.414	16502.11
811.744	16366.74
812.073	16368.1
812.403	16396.57
812.732	16268.89
813.061	16267.76
813.39	16115.45
813.719	16190.93
814.049	16149.35
814.378	16029.8
814.707	16036.58
815.036	16061.44
815.365	15998.17
815.693	15823.03
816.022	15816.7
816.351	15790.94
816.68	15758.63
817.008	15732.41
817.337	15596.6
817.665	15525.64
817.994	15704.84
818.322	15625.52
818.651	15539.2
818.979	15498.52
819.307	15541.68
819.636	15475.92
819.964	15351.18
820.292	15428.24
820.62	15416.94
820.948	15375.58
821.276	15368.13
821.604	15412.19
821.932	15311.86
822.259	15280.22
822.587	15345.08
822.915	15292.42
823.243	15253.1
823.57	15286.1
823.898	15214.68
824.225	15168.13
824.553	15244.74
824.88	15192.99
825.207	15239.77
825.535	15222.14
825.862	15278.19
826.189	15202.03
826.516	15288.81
826.843	15276.83
827.17	15291.29
827.497	15279.09
827.824	15363.83
828.151	15226.66
828.478	15225.31
828.805	15278.86
829.131	15157.51
829.458	15129.26
829.785	15127.91
830.111	15122.71
830.438	15188.24
830.764	15136.95
831.09	15168.81
831.417	15156.61
831.743	15185.31
832.069	15155.7
832.395	15142.82
832.722	15175.59
833.048	15064.18
833.374	15129.72
833.7	15019.89
834.026	15008.36
834.351	15093.56
834.677	14943.51
835.003	15030.73
835.329	15107.34
835.654	14975.37
835.98	14969.49
836.306	14901.25
836.631	14921.81
836.956	14909.83
837.282	14952.77
837.607	14872.55
837.932	14781.48
838.258	14872.77
838.583	14747.58
838.908	14692.89
839.233	14834.36
839.558	14676.85
839.883	14602.72
840.208	14565.66
840.533	14701.93
840.858	14601.82
841.182	14613.57
841.507	14547.81
841.832	14529.28
842.156	14463.07
842.481	14402.95
842.805	14459.9
843.13	14435.95
843.454	14335.84
843.778	14355.5
844.103	14213.81
844.427	14183.07
844.751	14217.87
845.075	14220.13
845.399	14114.37
845.723	14085.22
846.047	14122.51
846.371	13963.42
846.695	14038.67
847.019	13787.38
847.343	13825.79
847.666	13717.32
847.99	13714.84
848.313	13661.05
848.637	13529.53
848.96	13630.09
849.284	13568.85
849.607	13349.42
849.931	13384.22
850.254	13319.37
850.577	13170.9
850.9	13208.64
851.223	13146.94
851.546	13111.01
851.869	12998.25
852.192	13038.24
852.515	12983.56
852.838	12910.56
853.161	12938.36
853.483	12747.18
853.806	12734.98
854.129	12794.86
854.451	12720.74
854.774	12615.66
855.096	12573.85
855.419	12563
855.741	12534.08
856.063	12528.65
856.385	12440.75
856.708	12352.39
857.03	12373.86
857.352	12410.01
857.674	12273.97
857.996	12284.14
858.318	12182.9
858.64	12265.61
858.961	12164.37
859.283	12088.44
859.605	12078.27
859.926	12066.52
860.248	12036.69
860.57	11955.34
860.891	12044.6
861.212	11889.57
861.534	11833.53
861.855	11804.38
862.176	11841.44
862.498	11864.49
862.819	11777.49
863.14	11706.3
863.461	11750.82
863.782	11765.96
864.103	11730.03
864.424	11667.89
864.745	11708.34
865.065	11618.85
865.386	11605.29
865.707	11529.81
866.027	11513.77
866.348	11525.97
866.668	11576.36
866.989	11517.15
867.309	11457.04
867.63	11413.88
867.95	11428.12
868.27	11376.59
868.59	11324.62
868.91	11332.75
869.23	11345.41
869.55	11260.89
869.87	11365.29
870.19	11305.86
870.51	11260.89
870.83	11323.71
871.15	11207.11
871.469	11248.69
871.789	11330.95
872.109	11201.46
872.428	11091.4
872.748	11136.37
873.067	11104.51
873.386	11146.54
873.706	11107.45
874.025	11057.05
874.344	10961.69
874.663	11001.46
874.982	11068.58
875.301	10928.92
875.62	10980.22
875.939	10897.28
876.258	10943.38
876.577	10870.62
876.896	10874.23
877.214	10897.51
877.533	10881.47
877.852	10800.11
878.17	10872.65
878.489	10820.9
878.807	10756.72
879.125	10808.02
879.444	10735.93
879.762	10730.28
880.08	10751.07
880.398	10623.39
880.716	10744.52
881.034	10693
881.352	10684.86
881.67	10592.43
881.988	10615.94
882.306	10556.28
882.624	10497.29
882.941	10516.28
883.259	10487.8
883.577	10450.52
883.894	10500.91
884.212	10458.2
884.529	10409.16
884.846	10377.52
885.164	10412.33
885.481	10354.93
885.798	10336.39
886.115	10284.42
886.432	10255.04
886.75	10232.22
887.067	10229.28
887.383	10193.12
887.7	10224.53
888.017	10107.02
888.334	10162.84
888.651	10119.68
888.967	10060.92
889.284	10037.42
889.6	9997.19
889.917	9977.31
890.233	9961.49
890.55	9917.65
890.866	9938.67
891.182	9909.51
891.498	9848.95
891.815	9802.62
892.131	9785.22
892.447	9764.21
892.763	9743.42
893.079	9729.41
893.395	9662.51
893.71	9627.49
894.026	9667.03
894.342	9558.56
894.657	9532.8
894.973	9563.31
895.289	9538.68
895.604	9454.61
895.92	9374.16
896.235	9374.39
896.55	9387.72
896.865	9399.47
897.181	9277.44
897.496	9279.25
897.811	9294.39
898.126	9270.21
898.441	9184.33
898.756	9251.23
899.071	9128.29
899.386	9129.87
899.7	9080.83
900.015	9020.5
900.33	8959.71
900.644	8963.55
900.959	8939.82
901.273	8928.07
901.588	8865.93
901.902	8765.59
902.216	8811.46
902.531	8768.53
902.845	8789.09
903.159	8707.29
903.473	8619.83
903.787	8628.87
904.101	8576.22
904.415	8568.76
904.729	8517.91
905.042	8525.37
905.356	8546.61
905.67	8453.28
905.984	8445.37
906.297	8402.66
906.611	8354.98
906.924	8356.56
907.237	8263
907.551	8317.69
907.864	8263.91
908.177	8231.14
908.491	8254.19
908.804	8246.28
909.117	8110.92
909.43	8049.22
909.743	8069.79
910.056	8034.76
910.368	7992.95
910.681	7929
910.994	7912.05
911.307	7928.32
911.619	7854.43
911.932	7821.43
912.244	7735.79
912.557	7787.31
912.869	7723.58
913.181	7700.76
913.494	7651.04
913.806	7631.16
914.118	7627.77
914.43	7585.96
914.742	7561.78
915.054	7442.69
915.366	7496.47
915.678	7415.79
915.99	7322.24
916.302	7372.63
916.613	7254.67
916.925	7347.77
917.236	7320.2
917.548	7224.39
917.859	7232.52
918.171	7207.44
918.482	7115.24
918.794	7102.36
919.105	7091.28
919.416	7058.97
919.727	7094.67
920.038	7051.74
920.349	6985.3
920.66	6962.25
920.971	6915.69
921.282	6849.48
921.593	6874.11
921.903	6799.09
922.214	6854
922.525	6767.68
922.835	6763.83
923.146	6694
923.456	6691.07
923.767	6637.28
924.077	6670.95
924.387	6614.01
924.697	6567
925.008	6573.1
925.318	6545.08
925.628	6502.37
925.938	6458.53
926.248	6456.5
926.558	6397.06
926.867	6391.41
927.177	6331.53
927.487	6276.84
927.796	6293.11
928.106	6247.69
928.416	6225.32
928.725	6231.64
929.034	6185.09
929.344	6233.68
929.653	6137.18
929.962	6144.41
930.271	6040.69
930.581	6015.6
930.89	6056.73
931.199	5944.42
931.508	5951.2
931.817	5962.05
932.125	5919.11
932.434	5901.26
932.743	5892.9
933.051	5858.77
933.36	5845.67
933.669	5824.2
933.977	5763.18
934.286	5763.86
934.594	5790.75
934.902	5730.64
935.21	5651.32
935.519	5689.29
935.827	5671.43
936.135	5624.88
936.443	5561.83
936.751	5569.51
937.059	5613.81
937.367	5485.9
937.674	5461.04
937.982	5446.13
938.29	5458.56
938.597	5433.25
938.905	5432.57
939.213	5391.21
939.52	5335.4
939.827	5367.71
940.135	5313.7
940.442	5284.78
940.749	5241.16
941.056	5270.31
941.363	5206.13
941.67	5137.44
941.977	5207.04
942.284	5178.34
942.591	5137.44
942.898	5119.13
943.205	5115.74
943.511	5065.8
943.818	5083.43
944.125	4959.36
944.431	5040.26
944.738	4963.88
945.044	4958.68
945.35	4938.34
945.657	4893.37
945.963	4894.73
946.269	4837.1
946.575	4865.58
946.881	4776.54
947.187	4852.7
947.493	4790.78
947.799	4793.49
948.105	4778.57
948.41	4691.12
948.716	4702.64
949.022	4709.65
949.327	4657.45
949.633	4636.43
949.938	4616.55
950.244	4635.53
950.549	4601.4
950.854	4532.71
951.16	4567.28
951.465	4535.19
951.77	4546.04
952.075	4478.24
952.38	4452.26
952.685	4455.19
952.99	4407.51
953.294	4414.06
953.599	4433.95
953.904	4320.96
954.209	4369.77
954.513	4357.57
954.818	4277.35
955.122	4272.6
955.426	4265.14
955.731	4287.97
956.035	4268.53
956.339	4224.69
956.643	4187.4
956.948	4184.01
957.252	4183.56
957.556	4134.3
957.86	4083
958.163	4113.51
958.467	4043.9
958.771	4090.68
959.075	4062.89
959.378	4043.68
959.682	4033.06
959.985	4012.27
960.289	3983.12
960.592	3938.15
960.896	3963.23
961.199	3952.38
961.502	3908.32
961.805	3858.37
962.108	3853.18
962.411	3847.75
962.714	3832.61
963.017	3844.14
963.32	3810.69
963.623	3813.18
963.926	3802.78
964.228	3765.95
964.531	3738.38
964.833	3744.48
965.136	3728.66
965.438	3719.62
965.741	3737.25
966.043	3680.98
966.345	3646.18
966.648	3640.53
966.95	3593.07
967.252	3626.97
967.554	3571.15
967.856	3572.73
968.158	3553.3
968.46	3584.03
968.761	3581.54
969.063	3534.31
969.365	3491.83
969.666	3505.84
969.968	3482.79
970.269	3456.58
970.571	3444.6
970.872	3428.55
971.174	3422
971.475	3419.51
971.776	3384.49
972.077	3342
972.378	3369.35
972.679	3320.76
972.98	3345.17
973.281	3310.59
973.582	3286.86
973.883	3284.15
974.183	3234.89
974.484	3226.98
974.785	3218.39
975.085	3224.49
975.386	3209.12
975.686	3207.99
975.986	3192.63
976.287	3183.81
976.587	3180.88
976.887	3145.62
977.187	3186.98
977.487	3114.44
977.787	3106.08
978.087	3071.28
978.387	3049.58
978.687	3035.34
978.987	3066.08
979.286	3031.73
979.586	3014.1
979.885	2967.1
980.185	2974.78
980.484	2945.4
980.784	2981.79
981.083	2993.09
981.382	2940.66
981.682	2973.42
981.981	2903.6
982.28	2907.44
982.579	2894.56
982.878	2888.91
983.177	2871.73
983.475	2874.9
983.774	2839.19
984.073	2818.4
984.372	2844.39
984.67	2806.2
984.969	2768.01
985.267	2756.71
985.566	2782.92
985.864	2758.97
986.162	2731.17
986.461	2677.39
986.759	2670.61
987.057	2714
987.355	2649.59
987.653	2642.81
987.951	2686.65
988.249	2681.68
988.547	2651.17
988.844	2618.41
989.142	2608.91
989.44	2558.29
989.737	2607.78
990.035	2579.08
990.332	2553.55
990.63	2576.6
990.927	2506.32
991.224	2530.05
991.521	2531.63
991.819	2512.42
992.116	2509.93
992.413	2461.35
992.71	2443.95
993.006	2472.42
993.303	2440.78
993.6	2432.87
993.897	2433.1
994.193	2411.86
994.49	2406.89
994.787	2432.42
995.083	2375.25
995.379	2340.22
995.676	2370.05
995.972	2323.27
996.268	2329.6
996.565	2320.33
996.861	2308.81
997.157	2314.91
997.453	2274.69
997.749	2230.85
998.044	2231.52
998.34	2244.18
998.636	2225.2
998.932	2216.16
999.227	2250.96
999.523	2217.29
999.818	2236.49
1000.114	2212.99
1000.409	2209.6
1000.704	2149.49
1001	2154.69
1001.295	2143.39
1001.59	2121.47
1001.885	2128.48
1002.18	2116.95
1002.475	2078.98
1002.77	2064.75
1003.065	2074.01
1003.359	2087.57
1003.654	2077.85
1003.949	2013.9
1004.243	2040.79
1004.538	2013.22
1004.832	2020.91
1005.127	2001.47
1005.421	2002.6
1005.715	1932.1
1006.009	1960.34
1006.304	1982.72
1006.598	1911.76
1006.892	1910.4
1007.186	1892.55
1007.48	1914.92
1007.773	1900.68
1008.067	1878.31
1008.361	1886.45
1008.655	1885.77
1008.948	1855.26
1009.242	1874.7
1009.535	1829.95
1009.829	1830.4
1010.122	1836.73
1010.415	1786.11
1010.708	1808.48
1011.001	1771.2
1011.295	1763.29
1011.588	1787.47
1011.881	1751.99
1012.173	1710.41
1012.466	1721.03
1012.759	1719.22
1013.052	1689.84
1013.344	1694.14
1013.637	1684.64
1013.93	1679.45
1014.222	1671.09
1014.514	1668.83
1014.807	1661.82
1015.099	1664.53
1015.391	1616.62
1015.683	1642.39
1015.976	1618.21
1016.268	1601.26
1016.56	1578.21
1016.851	1552.9
1017.143	1552.67
1017.435	1585.44
1017.727	1559.45
1018.018	1527.81
1018.31	1532.33
1018.602	1546.12
1018.893	1535.72
1019.185	1513.8
1019.476	1495.27
1019.767	1529.17
1020.058	1478.55
1020.35	1478.32
1020.641	1469.74
1020.932	1440.81
1021.223	1484.2
1021.514	1431.54
1021.804	1435.16
1022.095	1412.79
1022.386	1416.18
1022.677	1413.24
1022.967	1403.3
1023.258	1391.32
1023.548	1380.47
1023.839	1374.37
1024.129	1339.34
1024.419	1350.42
1024.709	1317.65
1025	1336.63
1025.29	1321.26
1025.58	1250.08
1025.87	1307.71
1026.16	1311.32
1026.449	1283.53
1026.739	1272.45
1027.029	1256.63
1027.319	1258.44
1027.608	1248.27
1027.898	1240.36
1028.187	1235.39
1028.477	1225.67
1028.766	1225.22
1029.055	1196.97
1029.344	1212.12
1029.634	1182.74
1029.923	1165.34
1030.212	1168.73
1030.501	1177.77
1030.79	1157.65
1031.078	1172.12
1031.367	1142.06
1031.656	1135.05
1031.945	1145.9
1032.233	1112.68
1032.522	1125.79
1032.81	1114.49
1033.099	1071.1
1033.387	1098.22
1033.675	1070.42
1033.963	1075.4
1034.251	1074.27
1034.54	1095.06
1034.828	1057.09
1035.116	1058.67
1035.403	1041.27
1035.691	1025.45
1035.979	1045.79
1036.267	1041.27
1036.554	1034.94
1036.842	1001.05
1037.129	1006.47
1037.417	988.62
1037.704	1000.6
1037.992	987.94
1038.279	989.3
1038.566	964.44
1038.853	964.44
1039.14	964.44
