Data from hue_190_FLMS001491_00048.txt Node
Date: Tue Feb 07 16:45:21 GMT 2017
User: dcchb
Spectrometer: FLMS00149
Trigger mode: 0
Integration Time (sec): 2.000000E-2
Scans to average: 10
Electric dark correction enabled: true
Nonlinearity correction enabled: false
Boxcar width: 0
XAxis mode: Wavelengths
Number of Pixels in Spectrum: 2048
>>>>>Begin Spectral Data<<<<<
341.393	-15.41
341.776	-15.41
342.16	-15.41
342.543	-56.31
342.927	-57.67
343.31	-71.9
343.693	-67.16
344.077	-67.84
344.46	-58.35
344.843	-45.92
345.226	-45.69
345.61	-14.05
345.993	-4.79
346.376	-15.64
346.759	1.77
347.142	27.3
347.525	40.41
347.908	61.65
348.291	70.24
348.674	75.66
349.057	114.3
349.44	140.74
349.823	137.58
350.206	171.93
350.588	198.37
350.971	196.11
351.354	223.68
351.737	229.1
352.119	232.95
352.502	288.76
352.884	262.32
353.267	277.69
353.65	292.61
354.032	290.35
354.414	309.78
354.797	290.57
355.179	304.81
355.562	306.62
355.944	324.24
356.326	314.98
356.709	343.68
357.091	323.79
357.473	340.74
357.855	329.67
358.238	337.35
358.62	329.44
359.002	337.58
359.384	323.11
359.766	341.19
360.148	337.35
360.53	317.24
360.912	310.68
361.294	333.06
361.676	320.18
362.057	328.08
362.439	320.63
362.821	327.41
363.203	317.69
363.584	324.24
363.966	306.62
364.348	312.72
364.729	331.25
365.111	307.52
365.493	314.3
365.874	300.29
366.256	312.94
366.637	313.85
367.019	322.44
367.4	301.42
367.781	317.24
368.163	301.19
368.544	296.9
368.925	317.92
369.306	310.46
369.688	297.8
370.069	303.23
370.45	290.57
370.831	286.96
371.212	285.37
371.593	299.38
371.974	330.12
372.355	304.81
372.736	312.94
373.117	304.13
373.498	320.18
373.879	312.72
374.26	310.01
374.641	296.67
375.021	317.92
375.402	300.74
375.783	290.57
376.163	309.1
376.544	313.85
376.925	328.76
377.305	313.62
377.686	308.65
378.066	331.47
378.447	323.56
378.827	312.94
379.208	329.67
379.588	333.96
379.968	330.34
380.349	332.6
380.729	324.24
381.109	323.79
381.489	329.89
381.87	328.76
382.25	321.31
382.63	352.26
383.01	351.81
383.39	302.77
383.77	322.66
384.15	314.98
384.53	312.27
384.91	331.93
385.29	329.89
385.67	345.03
386.049	343.45
386.429	324.69
386.809	341.42
387.189	330.34
387.568	331.02
387.948	335.54
388.328	341.19
388.707	346.62
389.087	341.64
389.466	338.48
389.846	344.13
390.225	351.36
390.605	359.27
390.984	353.85
391.363	358.59
391.743	334.64
392.122	346.16
392.501	360.63
392.881	363.11
393.26	375.09
393.639	360.4
394.018	371.47
394.397	367.41
394.776	361.53
395.155	378.48
395.534	375.31
395.913	351.36
396.292	380.29
396.671	391.13
397.05	397.24
397.429	371.47
397.808	391.13
398.186	379.61
398.565	402.21
398.944	381.64
399.323	395.43
399.701	391.59
400.08	395.88
400.458	401.08
400.837	408.53
401.215	371.25
401.594	397.01
401.972	397.69
402.351	400.85
402.729	392.49
403.107	425.26
403.486	418.48
403.864	407.63
404.242	428.42
404.62	429.1
404.999	424.13
405.377	417.57
405.755	446.5
406.133	447.18
406.511	458.02
406.889	429.55
407.267	447.63
407.645	438.59
408.023	457.35
408.401	465.93
408.779	468.19
409.156	479.95
409.534	483.56
409.912	473.84
410.29	489.66
410.667	494.41
411.045	486.95
411.422	510.9
411.8	531.24
412.178	535.99
412.555	537.57
412.933	540.51
413.31	558.14
413.687	573.28
414.065	555.88
414.442	590.45
414.819	586.61
415.197	580.73
415.574	597.23
415.951	620.73
416.328	612.82
416.705	631.81
417.082	632.26
417.46	633.39
417.837	640.62
418.214	645.82
418.591	627.74
418.967	665.93
419.344	655.08
419.721	686.72
420.098	696.44
420.475	709.09
420.852	707.96
421.228	694.18
421.605	735.08
421.982	732.37
422.358	726.94
422.735	762.42
423.111	781.86
423.488	785.25
423.864	807.85
424.241	823.44
424.617	834.06
424.994	834.74
425.37	839.71
425.746	871.8
426.123	857.34
426.499	886.04
426.875	894.85
427.251	907.28
427.627	943.21
428.003	924.23
428.379	943.66
428.756	955.86
429.132	973.27
429.507	986.82
429.883	959.48
430.259	990.44
430.635	985.24
431.011	1010.1
431.387	1033.15
431.763	1059.59
432.138	1085.58
432.514	1094.39
432.89	1093.94
433.265	1119.48
433.641	1142.75
434.016	1142.98
434.392	1189.76
434.767	1213.49
435.143	1218.68
435.518	1201.73
435.894	1266.37
436.269	1286.48
436.644	1313.82
437.02	1335.74
437.395	1351.79
437.77	1354.95
438.145	1382.75
438.52	1394.5
438.895	1418.68
439.271	1446.02
439.646	1467.94
440.021	1484.66
440.395	1516.08
440.77	1511.78
441.145	1502.97
441.52	1579.35
441.895	1586.58
442.27	1590.42
442.645	1593.59
443.019	1626.13
443.394	1652.34
443.769	1660.03
444.143	1673.36
444.518	1709.07
444.892	1702.29
445.267	1732.34
445.641	1724.21
446.016	1752
446.39	1776.86
446.764	1782.51
447.139	1798.55
447.513	1828.38
447.887	1818.67
448.262	1827.03
448.636	1864.99
449.01	1906.57
449.384	1877.42
449.758	1902.51
450.132	1932.56
450.506	1931.66
450.88	1933.01
451.254	1971.88
451.628	1983.41
452.002	2043.52
452.376	2024.76
452.75	2064.99
453.123	2108.38
453.497	2111.54
453.871	2121.48
454.244	2161.03
454.618	2160.8
454.992	2204.42
455.365	2226.11
455.739	2249.16
456.112	2286.23
456.486	2315.6
456.859	2318.31
457.232	2341.14
457.606	2362.83
457.979	2412.78
458.352	2449.16
458.725	2510.85
459.099	2474.92
459.472	2521.25
459.845	2577.07
460.218	2563.51
460.591	2602.6
460.964	2590.62
461.337	2685.54
461.71	2700.23
462.083	2761.24
462.456	2780
462.829	2774.35
463.201	2810.73
463.574	2867.45
463.947	2863.16
464.32	2947
464.692	2991.74
465.065	2984.51
465.438	3033.55
465.81	3164.17
466.183	3131.4
466.555	3198.29
466.928	3213.88
467.3	3246.88
467.672	3272.64
468.045	3370.26
468.417	3407.1
468.789	3428.79
469.161	3421.56
469.534	3539.98
469.906	3596.02
470.278	3631.5
470.65	3614.55
471.022	3718.96
471.394	3791.5
471.766	3807.77
472.138	3866.52
472.51	3959.18
472.882	4026.29
473.253	4059.96
473.625	4096.57
473.997	4231.71
474.369	4239.17
474.74	4319.39
475.112	4369.79
475.484	4422.44
475.855	4499.73
476.227	4555.54
476.598	4705.37
476.97	4747.4
477.341	4805.26
477.713	4898.59
478.084	4905.82
478.455	5077.34
478.827	5137.68
479.198	5242.98
479.569	5242.53
479.94	5425.35
480.311	5452.02
480.682	5618.57
481.053	5698.34
481.424	5781.27
481.795	5849.52
482.166	5932.46
482.537	6008.39
482.908	6150.98
483.279	6204.99
483.65	6353.24
484.021	6499.45
484.391	6519.79
484.762	6571.31
485.133	6668.48
485.503	6708.48
485.874	6865.31
486.244	6953
486.615	7096.04
486.985	7205.42
487.356	7317.05
487.726	7371.52
488.097	7546.43
488.467	7526.09
488.837	7642.47
489.207	7754.1
489.578	7831.62
489.948	7950.26
490.318	8094.89
490.688	8102.8
491.058	8150.48
491.428	8211.95
491.798	8302.79
492.168	8559.51
492.538	8531.26
492.908	8650.58
493.278	8766.51
493.648	8734.19
494.017	8924.47
494.387	8890.57
494.757	9020.29
495.126	9101.19
495.496	9131.92
495.866	9195.2
496.235	9288.3
496.605	9339.83
496.974	9381.41
497.344	9452.36
497.713	9437.68
498.082	9576.88
498.452	9595.86
498.821	9665.92
499.19	9659.14
499.559	9713.37
499.928	9718.12
500.298	9880.6
500.667	9859.59
501.036	9866.36
501.405	9910.43
501.774	10007.6
502.143	10065.91
502.512	10097.77
502.88	10153.14
503.249	10076.75
503.618	10125.12
503.987	10180.71
504.356	10210.99
504.724	10347.93
505.093	10231.78
505.462	10253.02
505.83	10377.54
506.199	10392.45
506.567	10500.47
506.936	10409.85
507.304	10461.83
507.672	10489.85
508.041	10573.69
508.409	10577.08
508.777	10599.45
509.145	10739.79
509.514	10647.14
509.882	10716.06
510.25	10677.64
510.618	10679
510.986	10642.62
511.354	10752.9
511.722	10810.52
512.09	10859.11
512.458	10774.59
512.826	10954.02
513.193	10902.04
513.561	10846.9
513.929	10975.94
514.297	10969.16
514.664	10957.86
515.032	10984.08
515.4	10998.99
515.767	11059.1
516.135	11109.27
516.502	10975.26
516.869	11107.46
517.237	11035.15
517.604	11026.79
517.972	11081.47
518.339	11047.8
518.706	11112.89
519.073	11014.36
519.44	11090.29
519.808	11064.3
520.175	11040.8
520.542	11234.69
520.909	11205.54
521.276	11109.95
521.643	11220.68
522.009	11209.61
522.376	11207.8
522.743	11238.08
523.11	11248.7
523.477	11315.59
523.843	11237.4
524.21	11347.68
524.577	11358.76
524.943	11277.63
525.31	11290.28
525.676	11326.44
526.043	11402.14
526.409	11359.43
526.776	11349.72
527.142	11424.29
527.508	11322.82
527.874	11320.79
528.241	11323.5
528.607	11252.09
528.973	11418.87
529.339	11286.21
529.705	11327.8
530.071	11316.5
530.437	11266.55
530.803	11242.15
531.169	11154.01
531.535	11106.56
531.901	11204.18
532.267	11150.17
532.632	11100.23
532.998	11047.58
533.364	11106.78
533.73	11045.09
534.095	11074.02
534.461	11022.72
534.826	11030.18
535.192	10992.89
535.557	10960.8
535.923	10880.35
536.288	10900.69
536.653	10829.5
537.019	10762.39
537.384	10782.5
537.749	10764.42
538.114	10631.09
538.479	10706.57
538.845	10595.39
539.21	10517.2
539.575	10548.15
539.94	10446.91
540.305	10439.01
540.67	10390.87
541.034	10346.35
541.399	10311.32
541.764	10247.6
542.129	10247.37
542.494	10142.29
542.858	10161.27
543.223	10075.17
543.587	9985.46
543.952	9968.51
544.316	9949.3
544.681	9787.72
545.045	9899.58
545.41	9863.65
545.774	9768.97
546.138	9667.95
546.503	9698.46
546.867	9652.36
547.231	9616.2
547.595	9534.62
547.959	9516.09
548.324	9501.4
548.688	9415.08
549.052	9434.74
549.416	9383.67
549.779	9230.22
550.143	9245.59
550.507	9229.32
550.871	9218.92
551.235	9159.26
551.599	9123.11
551.962	9098.48
552.326	8983.22
552.689	9054.18
553.053	8891.02
553.417	8911.36
553.78	8894.64
554.143	8839.05
554.507	8845.83
554.87	8776.9
555.234	8880.18
555.597	8689.45
555.96	8674.98
556.323	8658.94
556.686	8635.21
557.05	8659.84
557.413	8599.05
557.776	8568.55
558.139	8546.63
558.502	8542.56
558.865	8487.64
559.228	8508.43
559.59	8483.12
559.953	8434.54
560.316	8463.46
560.679	8387.99
561.041	8477.25
561.404	8435.22
561.767	8387.31
562.129	8339.85
562.492	8459.17
562.854	8357.7
563.217	8311.38
563.579	8339.85
563.941	8341.89
564.304	8292.17
564.666	8343.02
565.028	8357.7
565.39	8363.13
565.753	8344.6
566.115	8304.82
566.477	8274.32
566.839	8303.69
567.201	8360.87
567.563	8293.52
567.925	8213.08
568.287	8293.52
568.648	8260.08
569.01	8341.43
569.372	8336.91
569.734	8284.49
570.095	8307.31
570.457	8260.76
570.819	8273.64
571.18	8273.41
571.542	8274.32
571.903	8267.54
572.265	8279.97
572.626	8248.1
572.987	8241.77
573.349	8257.59
573.71	8300.76
574.071	8253.53
574.432	8270.47
574.794	8297.59
575.155	8270.7
575.516	8230.25
575.877	8317.93
576.238	8275.22
576.599	8263.47
576.96	8255.79
577.32	8255.33
577.681	8307.76
578.042	8305.73
578.403	8205.39
578.763	8288.33
579.124	8296.46
579.485	8253.53
579.845	8247.42
580.206	8190.48
580.566	8269.8
580.927	8260.31
581.287	8200.42
581.648	8135.79
582.008	8254.88
582.368	8243.81
582.728	8177.14
583.089	8183.92
583.449	8201.55
583.809	8235.9
584.169	8182.57
584.529	8178.73
584.889	8243.36
585.249	8107.09
585.609	8134.66
585.969	8199.52
586.329	8109.57
586.688	8139.63
587.048	8112.29
587.408	8091.5
587.768	8067.09
588.127	8057.15
588.487	8024.38
588.846	8147.54
589.206	8042.91
589.565	8022.8
589.925	8035.68
590.284	8009.92
590.643	8078.84
591.003	7991.39
591.362	8039.07
591.721	8004.49
592.08	7966.08
592.44	7995.68
592.799	7914.33
593.158	7910.48
593.517	7931.5
593.876	7952.06
594.235	7922.01
594.593	7925.85
594.952	7953.42
595.311	7941.22
595.67	7889.92
596.029	7975.12
596.387	7890.82
596.746	7916.36
597.104	7883.14
597.463	7875.46
597.822	7872.74
598.18	7839.07
598.538	7806.53
598.897	7863.48
599.255	7798.17
599.613	7931.5
599.972	7863.93
600.33	7822.35
600.688	7835.68
601.046	7799.75
601.404	7879.75
601.762	7876.81
602.12	7888.56
602.478	7797.27
602.836	7844.05
603.194	7830.26
603.552	7837.49
603.91	7746.42
604.268	7845.18
604.625	7802.69
604.983	7828.9
605.341	7761.79
605.698	7804.95
606.056	7787.32
606.413	7859.64
606.771	7856.47
607.128	7823.93
607.485	7756.14
607.843	7833.65
608.2	7851.95
608.557	7844.5
608.914	7769.47
609.272	7832.75
609.629	7838.62
609.986	7839.75
610.343	7846.53
610.7	7906.64
611.057	7837.27
611.414	7860.32
611.771	7816.48
612.127	7837.72
612.484	7877.04
612.841	7854.21
613.198	7834.33
613.554	7868
613.911	7910.03
614.267	7868.68
614.624	7872.52
614.98	7919.98
615.337	7914.1
615.693	7951.84
616.05	7871.16
616.406	7882.69
616.762	7929.01
617.118	7842.92
617.475	7906.42
617.831	7893.54
618.187	7894.44
618.543	7897.15
618.899	7964.95
619.255	7927.88
619.611	8007.43
619.967	7964.27
620.323	7997.71
620.678	7922.01
621.034	7927.43
621.39	7943.93
621.746	7955.45
622.101	8025.28
622.457	7924.04
622.812	7946.19
623.168	7969.01
623.523	7972.63
623.879	7990.48
624.234	7858.73
624.589	7961.33
624.945	7878.17
625.3	7921.11
625.655	7950.03
626.01	7868
626.365	7927.88
626.72	7901.44
627.075	7920.88
627.43	7926.75
627.785	7904.38
628.14	7953.65
628.495	7957.49
628.85	7852.86
629.205	7864.84
629.559	7939.41
629.914	7862.8
630.269	7818.74
630.623	7824.38
630.978	7799.07
631.332	7899.41
631.687	7891.05
632.041	7844.05
632.396	7834.1
632.75	7816.7
633.104	7807.44
633.459	7799.3
633.813	7777.38
634.167	7785.29
634.521	7772.41
634.875	7753.65
635.229	7699.19
635.583	7712.3
635.937	7792.75
636.291	7701.68
636.645	7741.9
636.999	7658.51
637.352	7763.6
637.706	7679.98
638.06	7676.82
638.413	7697.38
638.767	7614.9
639.121	7592.53
639.474	7630.04
639.828	7605.63
640.181	7620.1
640.534	7589.36
640.888	7594.11
641.241	7587.33
641.594	7578.74
641.947	7584.16
642.301	7597.5
642.654	7568.57
643.007	7586.65
643.36	7578.29
643.713	7565.41
644.066	7642.69
644.419	7526.54
644.771	7464.85
645.124	7407.9
645.477	7361.35
645.83	7358.86
646.182	7324.51
646.535	7294
646.888	7327.67
647.24	7319.77
647.593	7317.28
647.945	7308.47
648.298	7323.38
648.65	7309.6
649.002	7303.27
649.355	7372.87
649.707	7297.17
650.059	7319.54
650.411	7485.86
650.763	7416.26
651.115	7456.48
651.467	7496.94
651.819	7474.79
652.171	7468.24
652.523	7494
652.875	7476.37
653.227	7508.01
653.578	7522.92
653.93	7532.87
654.282	7432.76
654.633	7408.35
654.985	7465.07
655.337	7504.39
655.688	7494
656.039	7553.43
656.391	7450.84
656.742	7430.27
657.094	7512.98
657.445	7445.64
657.796	7498.29
658.147	7497.84
658.498	7512.98
658.849	7473.43
659.2	7512.98
659.551	7460.1
659.902	7530.83
660.253	7475.02
660.604	7534.22
660.955	7472.08
661.306	7556.14
661.656	7505.52
662.007	7577.61
662.358	7569.48
662.708	7552.08
663.059	7557.27
663.409	7496.71
663.76	7554.56
664.11	7571.74
664.461	7558.85
664.811	7602.92
665.161	7534.67
665.511	7594.79
665.862	7519.76
666.212	7531.74
666.562	7550.72
666.912	7588.46
667.262	7494.22
667.612	7525.86
667.962	7576.93
668.312	7567.89
668.662	7581.91
669.011	7556.37
669.361	7584.84
669.711	7578.52
670.06	7514.34
670.41	7475.24
670.76	7554.79
671.109	7538.52
671.459	7550.95
671.808	7487.44
672.157	7541.91
672.507	7458.52
672.856	7450.84
673.205	7473.21
673.554	7553.43
673.904	7519.76
674.253	7533.77
674.602	7488.8
674.951	7420.1
675.3	7356.83
675.649	7471.4
675.998	7476.6
676.346	7464.39
676.695	7517.05
677.044	7423.04
677.393	7392.76
677.741	7435.47
678.09	7373.32
678.438	7390.05
678.787	7406.32
679.135	7421.68
679.484	7347.79
679.832	7351.18
680.181	7347.56
680.529	7364.06
680.877	7257.39
681.225	7287.22
681.573	7341.69
681.922	7285.42
682.27	7240.67
682.618	7246.77
682.966	7261.24
683.314	7212.88
683.661	7261.91
684.009	7205.42
684.357	7198.19
684.705	7157.74
685.053	7152.76
685.4	7103.05
685.748	7131.3
686.095	7092.88
686.443	7063.27
686.79	7024.63
687.138	7068.7
687.485	7054.46
687.832	7005.2
688.18	7024.18
688.527	6941.24
688.874	6959.77
689.221	6954.8
689.568	6868.25
689.915	6890.85
690.262	6883.62
690.609	6883.84
690.956	6900.57
691.303	6851.3
691.65	6815.15
691.997	6803.39
692.344	6762.27
692.69	6724.3
693.037	6721.59
693.383	6680.46
693.73	6648.37
694.077	6644.53
694.423	6639.11
694.769	6605.89
695.116	6576.96
695.462	6559.56
695.808	6471.65
696.155	6546.23
696.501	6449.51
696.847	6469.84
697.193	6413.8
697.539	6408.83
697.885	6379.45
698.231	6349.17
698.577	6355.04
698.923	6291.77
699.269	6316.85
699.614	6274.82
699.96	6266.69
700.306	6268.04
700.651	6167.71
700.997	6211.09
701.342	6192.56
701.688	6123.19
702.033	6131.77
702.379	6126.58
702.724	6098.78
703.069	6042.06
703.415	5982.4
703.76	6055.17
704.105	6016.97
704.45	6021.27
704.795	5951.21
705.14	5913.25
705.485	5924.55
705.83	5859.46
706.175	5844.1
706.52	5852.23
706.865	5848.84
707.209	5843.87
707.554	5833.48
707.899	5798.45
708.243	5774.04
708.588	5767.26
708.932	5739.24
709.277	5721.84
709.621	5710.09
709.966	5675.51
710.31	5665.12
710.654	5653.14
710.998	5682.75
711.342	5703.31
711.687	5620.6
712.031	5574.73
712.375	5571.11
712.719	5622.86
713.063	5589.64
713.407	5611.34
713.75	5578.34
714.094	5656.98
714.438	5558.23
714.782	5551
715.125	5505.35
715.469	5494.5
715.812	5494.05
716.156	5488.17
716.499	5483.88
716.843	5501.28
717.186	5477.78
717.53	5440.94
717.873	5475.07
718.216	5450.44
718.559	5433.26
718.902	5380.16
719.246	5405.69
719.589	5405.24
719.932	5367.05
720.275	5371.34
720.617	5388.97
720.96	5371.79
721.303	5376.54
721.646	5352.81
721.989	5343.55
722.331	5315.98
722.674	5320.04
723.016	5347.84
723.359	5324.34
723.701	5322.08
724.044	5311.91
724.386	5314.85
724.729	5341.51
725.071	5296.32
725.413	5329.76
725.755	5348.97
726.097	5265.13
726.439	5268.75
726.782	5230.78
727.124	5295.41
727.465	5285.02
727.807	5271.01
728.149	5262.87
728.491	5267.16
728.833	5312.36
729.175	5266.49
729.516	5324.11
729.858	5255.64
730.199	5253.15
730.541	5265.81
730.882	5244.11
731.224	5249.54
731.565	5255.41
731.906	5272.81
732.248	5304.45
732.589	5272.14
732.93	5269.2
733.271	5245.02
733.612	5282.3
733.953	5242.08
734.294	5279.82
734.635	5267.84
734.976	5286.37
735.317	5226.71
735.658	5268.29
735.999	5266.71
736.339	5291.57
736.68	5299.48
737.021	5334.73
737.361	5292.93
737.702	5365.24
738.042	5376.31
738.383	5328.63
738.723	5326.15
739.063	5344.22
739.404	5405.92
739.744	5406.37
740.084	5387.61
740.424	5432.36
740.764	5442.53
741.104	5416.31
741.444	5435.97
741.784	5451.79
742.124	5470.77
742.464	5455.86
742.804	5469.64
743.143	5500.6
743.483	5486.82
743.823	5489.08
744.162	5557.1
744.502	5547.83
744.841	5584.22
745.181	5659.92
745.52	5600.94
745.86	5659.24
746.199	5740.82
746.538	5721.16
746.877	5769.52
747.216	5837.09
747.556	5860.37
747.895	5878.67
748.234	5943.98
748.573	5990.31
748.911	6057.43
749.25	6044.09
749.589	6116.86
749.928	6186.24
750.267	6244.77
750.605	6290.64
750.944	6348.72
751.283	6489.05
751.621	6563.17
751.96	6595.26
752.298	6706.67
752.636	6768.14
752.975	6853.56
753.313	6942.37
753.651	7091.97
753.989	7131.3
754.327	7215.81
754.666	7340.1
755.004	7466.2
755.342	7623.71
755.679	7727.66
756.017	7801.33
756.355	7957.26
756.693	8111.38
757.031	8234.09
757.368	8306.86
757.706	8510.24
758.044	8601.77
758.381	8824.13
758.719	8922.66
759.056	9093.28
759.394	9251.24
759.731	9369.65
760.068	9594.28
760.405	9652.13
760.743	9810.77
761.08	9977.1
761.417	10129.41
761.754	10312.68
762.091	10512
762.428	10667.93
762.765	10820.01
763.102	11099.78
763.438	11137.29
763.775	11252.77
764.112	11552.42
764.449	11685.98
764.785	11822.92
765.122	11995.12
765.458	12082.35
765.795	12311.05
766.131	12410.48
766.467	12552.85
766.804	12732.05
767.14	12861.77
767.476	13124.58
767.812	13155.54
768.148	13315.54
768.485	13438.02
768.821	13525.7
769.157	13699.94
769.492	13901.51
769.828	14079.14
770.164	14023.09
770.5	14216.08
770.836	14339.02
771.171	14340.37
771.507	14526.13
771.842	14600.48
772.178	14664.88
772.513	14739.46
772.849	14928.15
773.184	14967.47
773.519	15086.79
773.855	15116.17
774.19	15230.74
774.525	15267.8
774.86	15433.45
775.195	15501.24
775.53	15504.41
775.865	15576.5
776.2	15551.41
776.535	15694.01
776.87	15785.31
777.205	15699.88
777.539	15785.53
777.874	15952.31
778.209	15838.86
778.543	15947.33
778.878	15979.42
779.212	15992.31
779.547	16020.55
779.881	16101.46
780.215	16105.52
780.55	16158.18
780.884	16173.54
781.218	16131.28
781.552	16304.61
781.886	16174
782.22	16286.76
782.554	16300.09
782.888	16178.97
783.222	16135.58
783.556	16190.04
783.889	16257.61
784.223	16150.27
784.557	16167.67
784.89	16217.38
785.224	16113.88
785.557	16243.15
785.891	16158.85
786.224	16238.85
786.558	16178.52
786.891	16143.04
787.224	16143.94
787.557	16073.21
787.891	16152.75
788.224	16108.46
788.557	16206.76
788.89	16260.55
789.223	16123.6
789.556	16096.03
789.888	16085.64
790.221	16117.27
790.554	15956.15
790.887	16004.96
791.219	16006.09
791.552	15877.51
791.884	15846.32
792.217	15917.51
792.549	15913.21
792.882	15771.52
793.214	15866.66
793.546	15815.59
793.879	15771.97
794.211	15680.22
794.543	15789.15
794.875	15745.31
795.207	15729.71
795.539	15663.73
795.871	15698.08
796.203	15603.16
796.535	15562.49
796.867	15553.67
797.198	15510.74
797.53	15439.33
797.862	15432.77
798.193	15466.22
798.525	15369.72
798.856	15288.37
799.188	15249.05
799.519	15232.33
799.85	15164.53
800.182	15195.94
800.513	15232.55
800.844	15044.76
801.175	15185.32
801.506	15184.64
801.837	15034.14
802.168	15056.96
802.499	15013.35
802.83	14932.9
803.161	14905.33
803.491	14875.72
803.822	14873.46
804.153	14885.44
804.483	14740.36
804.814	14685.67
805.145	14739.91
805.475	14790.53
805.805	14626.24
806.136	14659.46
806.466	14625.56
806.796	14663.3
807.126	14576.98
807.457	14506.69
807.787	14508.95
808.117	14393.93
808.447	14399.13
808.777	14486.13
809.107	14427.6
809.436	14271.9
809.766	14294.5
810.096	14285.46
810.426	14268.51
810.755	14357.09
811.085	14280.71
811.414	14167.95
811.744	14077.78
812.073	14078.68
812.403	14130.43
812.732	13971.34
813.061	14070.55
813.39	13944.22
813.719	13955.07
814.049	14010.21
814.378	13953.04
814.707	13931.57
815.036	13873.49
815.365	13860.16
815.693	13753.95
816.022	13732.93
816.351	13790.78
816.68	13689.99
817.008	13673.04
817.337	13553.05
817.665	13557.57
817.994	13616.77
818.322	13597.79
818.651	13474.86
818.979	13513.05
819.307	13551.47
819.636	13545.14
819.964	13473.05
820.292	13517.12
820.62	13470.11
820.948	13478.7
821.276	13484.8
821.604	13386.72
821.932	13374.3
822.259	13469.89
822.587	13370
822.915	13498.59
823.243	13440.73
823.57	13431.02
823.898	13494.29
824.225	13382.2
824.553	13353.05
824.88	13499.49
825.207	13459.49
825.535	13443.9
825.862	13473.28
826.189	13419.72
826.516	13534.07
826.843	13511.01
827.17	13527.29
827.497	13552.37
827.824	13480.06
828.151	13451.36
828.478	13558.02
828.805	13581.52
829.131	13518.92
829.458	13389.66
829.785	13452.49
830.111	13531.13
830.438	13553.95
830.764	13541.07
831.09	13483.9
831.417	13470.79
831.743	13442.77
832.069	13407.97
832.395	13491.81
832.722	13453.39
833.048	13367.52
833.374	13433.5
833.7	13369.55
834.026	13422.88
834.351	13397.35
834.677	13391.24
835.003	13393.5
835.329	13310.12
835.654	13368.65
835.98	13291.81
836.306	13365.93
836.631	13259.72
836.956	13365.48
837.282	13275.31
837.607	13257.46
837.932	13164.13
838.258	13260.63
838.583	13260.4
838.908	13073.51
839.233	13135.21
839.558	13157.58
839.883	13137.69
840.208	13048.65
840.533	13037.13
840.858	13045.94
841.182	13091.14
841.507	13024.93
841.832	12951.26
842.156	12919.17
842.481	12949
842.805	12979.28
843.13	12884.36
843.454	12861.09
843.778	12784.03
844.103	12817.93
844.427	12760.3
844.751	12796.23
845.075	12708.78
845.399	12717.82
845.723	12631.94
846.047	12673.97
846.371	12519.4
846.695	12529.35
847.019	12407.54
847.343	12350.37
847.666	12202.57
847.99	12216.36
848.313	12295.45
848.637	12179.75
848.96	12197.6
849.284	12161.45
849.607	11957.84
849.931	12024.27
850.254	11945.18
850.577	11843.71
850.9	11787.9
851.223	11862.02
851.546	11772.98
851.869	11670.84
852.192	11731.17
852.515	11593.1
852.838	11561.24
853.161	11561.91
853.483	11517.62
853.806	11524.4
854.129	11446.89
854.451	11425.42
854.774	11320.11
855.096	11279.44
855.419	11254.8
855.741	11199.21
856.063	11189.27
856.385	11124.64
856.708	11108.14
857.03	11044.64
857.352	11045.99
857.674	11016.17
857.996	11007.35
858.318	10908.82
858.64	10868.82
858.961	10947.69
859.283	10919.9
859.605	10819.33
859.926	10827.24
860.248	10804.65
860.57	10744.31
860.891	10815.04
861.212	10716.51
861.534	10693.24
861.855	10661.15
862.176	10663.18
862.498	10582.73
862.819	10639.23
863.14	10579.11
863.461	10504.31
863.782	10488.27
864.103	10561.26
864.424	10493.47
864.745	10462.51
865.065	10387.03
865.386	10448.5
865.707	10345.22
866.027	10434.26
866.348	10388.84
866.668	10366.24
866.989	10393.81
867.309	10301.38
867.63	10346.58
867.95	10379.12
868.27	10277.43
868.59	10254.38
868.91	10239.24
869.23	10195.17
869.55	10214.83
869.87	10221.61
870.19	10151.33
870.51	10187.26
870.83	10235.85
871.15	10093.7
871.469	10141.84
871.789	10184.77
872.109	10125.34
872.428	10069.3
872.748	10090.54
873.067	10039.92
873.386	10066.36
873.706	9989.75
874.025	10034.95
874.344	9936.42
874.663	9946.81
874.982	9952.24
875.301	10047.38
875.62	9953.82
875.939	9949.53
876.258	9889.19
876.577	9902.07
876.896	9820.94
877.214	9814.61
877.533	9921.73
877.852	9818.91
878.17	9820.26
878.489	9850.55
878.807	9737.78
879.125	9827.72
879.444	9752.47
879.762	9742.07
880.08	9736.88
880.398	9714.05
880.716	9681.28
881.034	9622.53
881.352	9639.48
881.67	9626.15
881.988	9610.78
882.306	9468.64
882.624	9570.78
882.941	9478.35
883.259	9445.36
883.577	9465.47
883.894	9498.46
884.212	9497.34
884.529	9436.09
884.846	9419.37
885.164	9488.07
885.481	9330.33
885.798	9357.9
886.115	9267.96
886.432	9344.12
886.75	9273.84
887.067	9273.61
887.383	9200.39
887.7	9170.34
888.017	9166.5
888.334	9227.96
888.651	9187.74
888.967	9206.27
889.284	9107.29
889.6	9070
889.917	8998.37
890.233	9059.61
890.55	8999.27
890.866	9022.09
891.182	8899.84
891.498	8937.8
891.815	8841.99
892.131	8831.36
892.447	8837.01
892.763	8803.12
893.079	8804.47
893.395	8733.29
893.71	8723.57
894.026	8709.79
894.342	8704.59
894.657	8589.34
894.973	8574.42
895.289	8625.95
895.604	8561.99
895.92	8493.97
896.235	8522.9
896.55	8399.28
896.865	8467.31
897.181	8410.13
897.496	8408.78
897.811	8335.11
898.126	8281.32
898.441	8336.69
898.756	8306.18
899.071	8225.28
899.386	8191.61
899.7	8123.81
900.015	8124.49
900.33	8102.34
900.644	8107.09
900.959	8121.33
901.273	8014.21
901.588	7940.31
901.902	7875
902.216	7904.16
902.531	7899.41
902.845	7896.47
903.159	7797.94
903.473	7789.36
903.787	7763.6
904.101	7679.3
904.415	7740.09
904.729	7703.26
905.042	7628.01
905.356	7640.43
905.67	7598.18
905.984	7673.2
906.297	7491.96
906.611	7507.56
906.924	7530.38
907.237	7476.82
907.551	7430.04
907.864	7412.42
908.177	7385.75
908.491	7314.34
908.804	7267.79
909.117	7282.48
909.43	7249.48
909.743	7197.51
910.056	7222.59
910.368	7149.6
910.681	7144.85
910.994	7103.95
911.307	7053.11
911.619	7009.49
911.932	7045.65
912.244	6979.21
912.557	6992.77
912.869	6874.58
913.181	6849.5
913.494	6878.42
913.806	6788.25
914.118	6839.1
914.43	6738.31
914.742	6802.72
915.054	6710.29
915.366	6704.19
915.678	6606.56
915.99	6669.61
916.302	6669.16
916.613	6559.79
916.925	6539.9
917.236	6536.96
917.548	6548.49
917.859	6553.46
918.171	6503.74
918.482	6424.65
918.794	6409.05
919.105	6429.62
919.416	6317.76
919.727	6396.17
920.038	6333.58
920.349	6284.76
920.66	6294.71
920.971	6258.1
921.282	6183.98
921.593	6207.48
921.903	6115.73
922.214	6177.87
922.525	6134.71
922.835	6144.65
923.146	6038.22
923.456	6046.35
923.767	5962.96
924.077	5978.56
924.387	5964.77
924.697	5891.55
925.008	5895.85
925.318	5852.23
925.628	5914.38
925.938	5896.53
926.248	5795.06
926.558	5790.99
926.867	5773.37
927.177	5781.73
927.487	5727.26
927.796	5633.03
928.106	5674.61
928.416	5676.87
928.725	5623.54
929.034	5625.57
929.344	5624.89
929.653	5637.1
929.962	5578.79
930.271	5564.11
930.581	5500.6
930.89	5489.76
931.199	5457.89
931.508	5431.45
931.817	5379.48
932.125	5446.37
932.434	5421.74
932.743	5403.66
933.051	5295.64
933.36	5272.81
933.669	5253.15
933.977	5261.74
934.286	5281.4
934.594	5223.78
934.902	5174.28
935.21	5180.84
935.519	5189.65
935.827	5128.86
936.135	5115.08
936.443	5086.6
936.751	5092.25
937.059	5086.38
937.367	5049.09
937.674	5006.61
937.982	5037.34
938.29	4987.17
938.597	4960.96
938.905	4918.25
939.213	4880.73
939.52	4866.72
939.827	4871.24
940.135	4859.04
940.442	4826.27
940.749	4814.97
941.056	4785.59
941.363	4744.01
941.67	4730.23
941.977	4718.93
942.284	4690.91
942.591	4697.69
942.898	4610.01
943.205	4668.08
943.511	4578.59
943.818	4607.75
944.125	4525.26
944.431	4552.15
944.738	4565.26
945.044	4490.91
945.35	4494.53
945.657	4444.13
945.963	4516.45
946.269	4464.02
946.575	4468.31
946.881	4432.61
947.187	4407.53
947.493	4431.48
947.799	4332.5
948.105	4297.02
948.41	4326.62
948.716	4293.18
949.022	4277.81
949.327	4275.33
949.633	4211.6
949.938	4246.17
950.244	4169.79
950.549	4189.45
950.854	4178.15
951.16	4122.34
951.465	4157.36
951.77	4102.67
952.075	4095.22
952.38	4105.84
952.685	4099.74
952.99	4043.24
953.294	4022.45
953.599	4022.45
953.904	4008.67
954.209	4013.86
954.513	3969.57
954.818	3948.78
955.122	3919.18
955.426	3889.35
955.731	3925.28
956.035	3919.4
956.339	3877.82
956.643	3893.87
956.948	3845.73
957.252	3784.49
957.556	3798.28
957.86	3795.34
958.163	3769.12
958.467	3764.15
958.771	3731.16
959.075	3740.65
959.378	3708.33
959.682	3702.69
959.985	3708.79
960.289	3638.51
960.592	3643.25
960.896	3610.03
961.199	3660.65
961.502	3579.52
961.805	3603.03
962.108	3553.31
962.411	3566.19
962.714	3572.29
963.017	3519.41
963.32	3542.46
963.623	3519.64
963.926	3504.5
964.228	3458.4
964.531	3429.47
964.833	3455.91
965.136	3381.56
965.438	3375.91
965.741	3413.43
966.043	3391.05
966.345	3361.9
966.648	3343.15
966.95	3344.05
967.252	3332.3
967.554	3321
967.856	3306.76
968.158	3282.81
968.46	3256.37
968.761	3259.98
969.063	3253.21
969.365	3213.66
969.666	3175.69
969.968	3196.26
970.269	3182.25
970.571	3136.82
970.872	3148.58
971.174	3127.56
971.475	3110.38
971.776	3117.39
972.077	3138.86
972.378	3106.09
972.679	3085.75
972.98	3057.73
973.281	3000.56
973.582	3016.15
973.883	3019.99
974.183	2959.2
974.484	3031.29
974.785	2968.92
975.085	2935.25
975.386	3000.56
975.686	2910.62
975.986	2911.52
976.287	2934.12
976.587	2893.21
976.887	2888.47
977.187	2852.09
977.487	2871.75
977.787	2855.25
978.087	2838.3
978.387	2793.33
978.687	2825.42
978.987	2793.56
979.286	2754.46
979.586	2785.42
979.885	2756.04
980.185	2739.55
980.484	2743.39
980.784	2694.12
981.083	2705.42
981.382	2704.75
981.682	2664.97
981.981	2666.78
982.28	2648.7
982.579	2667.01
982.878	2652.32
983.177	2626.33
983.475	2643.28
983.774	2606.44
984.073	2555.37
984.372	2591.08
984.67	2583.84
984.969	2551.75
985.267	2609.38
985.566	2534.81
985.864	2509.5
986.162	2532.32
986.461	2503.17
986.759	2477.41
987.057	2467.01
987.355	2474.69
987.653	2468.59
987.951	2444.64
988.249	2432.89
988.547	2422.94
988.844	2363.06
989.142	2401.7
989.44	2380.69
989.737	2339.33
990.035	2387.69
990.332	2334.36
990.63	2351.31
990.927	2324.42
991.224	2343.62
991.521	2307.92
991.819	2303.17
992.116	2274.25
992.413	2307.24
992.71	2265.21
993.006	2248.71
993.303	2275.38
993.6	2204.19
993.897	2233.35
994.193	2209.62
994.49	2193.8
994.787	2195.61
995.083	2171.43
995.379	2169.39
995.676	2161.93
995.972	2165.78
996.268	2169.39
996.565	2148.83
996.861	2126
997.157	2095.27
997.453	2091.88
997.749	2102.5
998.044	2082.84
998.34	2086.91
998.636	2086.68
998.932	2065.89
999.227	2016.85
999.523	2040.58
999.818	2011.2
1000.114	1992.45
1000.409	1991.54
1000.704	1985.44
1001	1976.18
1001.295	1961.94
1001.59	1973.69
1001.885	1977.53
1002.18	1933.47
1002.475	1914.03
1002.77	1944.09
1003.065	1905.67
1003.359	1874.48
1003.654	1915.16
1003.949	1879.91
1004.243	1865.45
1004.538	1862.96
1004.832	1843.75
1005.127	1854.6
1005.421	1828.16
1005.715	1825.67
1006.009	1819.8
1006.304	1811.66
1006.598	1765.56
1006.892	1787.03
1007.186	1750.19
1007.48	1752.91
1007.773	1746.8
1008.067	1737.99
1008.361	1712.23
1008.655	1723.53
1008.948	1693.25
1009.242	1699.57
1009.535	1699.35
1009.829	1688.5
1010.122	1653.47
1010.415	1665.68
1010.708	1632.23
1011.001	1629.29
1011.295	1627.26
1011.588	1606.92
1011.881	1601.5
1012.173	1604.66
1012.466	1607.82
1012.759	1606.7
1013.052	1604.66
1013.344	1547.94
1013.637	1551.33
1013.93	1577.54
1014.222	1547.71
1014.514	1542.74
1014.807	1526.02
1015.099	1515.85
1015.391	1543.65
1015.683	1508.84
1015.976	1515.85
1016.268	1481.95
1016.56	1451.9
1016.851	1454.83
1017.143	1447.6
1017.435	1443.54
1017.727	1452.35
1018.018	1424.33
1018.31	1416.87
1018.602	1419.81
1018.893	1398.11
1019.185	1392.46
1019.476	1381.84
1019.767	1371.22
1020.058	1363.54
1020.35	1363.31
1020.641	1350.88
1020.932	1369.19
1021.223	1337.1
1021.514	1315.18
1021.804	1319.47
1022.095	1317.21
1022.386	1297.32
1022.677	1306.14
1022.967	1289.19
1023.258	1245.8
1023.548	1268.4
1023.839	1271.34
1024.129	1239.7
1024.419	1256.87
1024.709	1233.6
1025	1208.29
1025.29	1229.53
1025.58	1218.68
1025.87	1213.26
1026.16	1180.94
1026.449	1191.56
1026.739	1178.91
1027.029	1167.61
1027.319	1161.51
1027.608	1143.66
1027.898	1149.53
1028.187	1145.92
1028.477	1146.37
1028.766	1134.39
1029.055	1128.52
1029.344	1131.45
1029.634	1089.87
1029.923	1121.28
1030.212	1093.26
1030.501	1093.71
1030.79	1101.4
1031.078	1085.58
1031.367	1080.16
1031.656	1038.12
1031.945	1030.21
1032.233	1037.44
1032.522	1034.96
1032.81	1043.32
1033.099	1009.87
1033.387	1018.24
1033.675	1015.98
1033.963	976.43
1034.251	987.73
1034.54	974.85
1034.828	972.36
1035.116	967.62
1035.403	969.88
1035.691	968.75
1035.979	947.73
1036.267	955.64
1036.554	956.77
1036.842	954.51
1037.129	923.55
1037.417	926.71
1037.704	927.16
1037.992	891.01
1038.279	930.55
1038.566	897.56
1038.853	897.56
1039.14	897.56
