Data from hue_350_FLMS001491_22.txt Node
Date: Mon Feb 06 15:37:47 GMT 2017
User: dcchb
Spectrometer: FLMS00149
Trigger mode: 0
Integration Time (sec): 2.000000E-2
Scans to average: 10
Electric dark correction enabled: true
Nonlinearity correction enabled: false
Boxcar width: 0
XAxis mode: Wavelengths
Number of Pixels in Spectrum: 2048
>>>>>Begin Spectral Data<<<<<
341.393	-7.08
341.776	-7.08
342.16	-7.08
342.543	-83.68
342.927	-77.13
343.31	-66.96
343.693	-61.09
344.077	-70.8
344.46	-62.22
344.843	-52.5
345.226	-30.58
345.61	-27.19
345.993	-30.58
346.376	-34.65
346.759	-8.43
347.142	18.23
347.525	36.76
347.908	58.01
348.291	86.25
348.674	113.82
349.057	131.9
349.44	129.87
349.823	131.9
350.206	163.54
350.588	179.59
350.971	180.94
351.354	198.34
351.737	222.52
352.119	240.38
352.502	262.52
352.884	251.45
353.267	282.41
353.65	291.9
354.032	290.32
354.414	300.26
354.797	306.81
355.179	303.88
355.562	307.72
355.944	347.04
356.326	324.44
356.709	314.72
357.091	321.5
357.473	342.75
357.855	336.42
358.238	334.38
358.62	331.22
359.002	349.75
359.384	332.35
359.766	332.12
360.148	325.34
360.53	357.21
360.912	315.4
361.294	328.51
361.676	314.05
362.057	350.2
362.439	319.02
362.821	326.02
363.203	323.54
363.584	314.5
363.966	306.59
364.348	331.22
364.729	315.63
365.111	327.83
365.493	328.28
365.874	310.66
366.256	316.76
366.637	329.19
367.019	287.61
367.4	314.72
367.781	295.29
368.163	293.26
368.544	317.21
368.925	292.8
369.306	325.8
369.688	305.01
370.069	306.14
370.45	295.06
370.831	309.53
371.212	316.98
371.593	309.98
371.974	323.99
372.355	310.88
372.736	322.63
373.117	313.82
373.498	311.79
373.879	313.37
374.26	314.95
374.641	314.72
375.021	301.84
375.402	305.46
375.783	328.73
376.163	301.39
376.544	325.57
376.925	312.46
377.305	324.21
377.686	312.24
378.066	304.1
378.447	288.51
378.827	324.89
379.208	326.25
379.588	317.21
379.968	334.38
380.349	311.79
380.729	307.04
381.109	320.82
381.489	326.93
381.87	335.29
382.25	321.5
382.63	320.15
383.01	342.29
383.39	318.34
383.77	337.1
384.15	314.95
384.53	324.89
384.91	345.01
385.29	353.82
385.67	340.49
386.049	335.97
386.429	358.56
386.809	326.7
387.189	352.46
387.568	329.41
387.948	351.78
388.328	349.3
388.707	343.88
389.087	320.15
389.466	351.56
389.846	346.81
390.225	344.1
390.605	363.54
390.984	346.13
391.363	351.33
391.743	350.2
392.122	354.5
392.501	352.69
392.881	355.85
393.26	358.11
393.639	372.35
394.018	381.61
394.397	371.45
394.776	356.76
395.155	378.9
395.534	380.26
395.913	372.57
396.292	386.59
396.671	371.45
397.05	369.19
397.429	368.73
397.808	371.9
398.186	363.99
398.565	383.2
398.944	376.64
399.323	378.45
399.701	366.47
400.08	377.09
400.458	379.35
400.837	392.69
401.215	397.43
401.594	408.05
401.972	395.63
402.351	429.75
402.729	390.2
403.107	373.93
403.486	403.53
403.864	396.53
404.242	403.08
404.62	403.53
404.999	413.25
405.377	384.78
405.755	406.02
406.133	422.07
406.511	421.39
406.889	420.26
407.267	420.03
407.645	419.35
408.023	424.33
408.401	410.31
408.779	411.22
409.156	413.48
409.534	423.42
409.912	428.17
410.29	436.75
410.667	447.15
411.045	443.53
411.422	441.5
411.8	439.69
412.178	460.93
412.555	462.52
412.933	446.92
413.31	445.57
413.687	459.35
414.065	460.71
414.442	471.1
414.819	480.37
415.197	478.79
415.574	481.95
415.951	492.8
416.328	498.45
416.705	485.11
417.082	476.3
417.46	495.28
417.837	498
418.214	496.41
418.591	520.37
418.967	504.55
419.344	513.81
419.721	496.87
420.098	525.34
420.475	515.4
420.852	513.59
421.228	536.86
421.605	516.53
421.982	538.67
422.358	524.89
422.735	545.68
423.111	532.57
423.488	568.05
423.864	572.57
424.241	551.55
424.617	552.01
424.994	564.43
425.37	566.02
425.746	558.11
426.123	575.51
426.499	574.6
426.875	580.93
427.251	579.12
427.627	601.72
428.003	615.51
428.379	595.17
428.756	609.4
429.132	598.33
429.507	607.6
429.883	610.31
430.259	625.68
430.635	632.46
431.011	642.85
431.387	659.57
431.763	635.62
432.138	633.81
432.514	654.38
432.89	661.38
433.265	673.36
433.641	666.58
434.016	679.91
434.392	664.54
434.767	682.4
435.143	688.05
435.518	698.22
435.894	719.01
436.269	686.69
436.644	717.88
437.02	720.36
437.395	714.03
437.77	745.45
438.145	717.65
438.52	747.71
438.895	745.67
439.271	741.15
439.646	764.2
440.021	746.12
440.395	744.77
440.77	728.27
441.145	784.54
441.52	784.32
441.895	771.89
442.27	795.84
442.645	778.44
443.019	777.76
443.394	759.23
443.769	794.71
444.143	796.74
444.518	813.92
444.892	797.42
445.267	814.37
445.641	810.08
446.016	813.47
446.39	825.67
446.764	813.24
447.139	839
447.513	845.1
447.887	844.43
448.262	853.69
448.636	830.64
449.01	855.27
449.384	868.61
449.758	881.94
450.132	900.47
450.506	862.73
450.88	876.74
451.254	879.45
451.628	897.98
452.002	878.1
452.376	896.18
452.75	871.77
453.123	894.82
453.497	912.45
453.871	950.64
454.244	923.52
454.618	943.63
454.992	930.07
455.365	926.68
455.739	955.84
456.112	991.99
456.486	1000.81
456.859	982.95
457.232	1006
457.606	993.35
457.979	1018.89
458.352	1018.66
458.725	1017.3
459.099	1030.18
459.472	1046.46
459.845	1043.97
460.218	1081.93
460.591	1064.31
460.964	1063.4
461.337	1070.18
461.71	1104.08
462.083	1130.07
462.456	1119.67
462.829	1112.22
463.201	1132.78
463.574	1122.16
463.947	1171.42
464.32	1182.27
464.692	1199.9
465.065	1203.97
465.438	1207.13
465.81	1227.69
466.183	1232.67
466.555	1255.49
466.928	1260.46
467.3	1269.5
467.672	1289.61
468.045	1316.96
468.417	1319.89
468.789	1309.5
469.161	1326.45
469.534	1366.67
469.906	1351.31
470.278	1377.29
470.65	1387.24
471.022	1449.83
471.394	1455.71
471.766	1455.94
472.138	1487.35
472.51	1499.32
472.882	1499.55
473.253	1536.61
473.625	1564.18
473.997	1573
474.369	1579.77
474.74	1614.8
475.112	1644.41
475.484	1693.67
475.855	1712.65
476.227	1719.66
476.598	1745.65
476.97	1742.71
477.341	1815.47
477.713	1819.77
478.084	1826.55
478.455	1876.26
478.827	1921.46
479.198	1949.26
479.569	1965.75
479.94	2037.39
480.311	2040.1
480.682	2078.74
481.053	2111.74
481.424	2147.22
481.795	2195.8
482.166	2214.79
482.537	2255.92
482.908	2300.89
483.279	2324.84
483.65	2337.95
484.021	2393.31
484.391	2414.56
484.762	2470.37
485.133	2482.8
485.503	2514.67
485.874	2581.56
486.244	2561.44
486.615	2637.37
486.985	2692.29
487.356	2764.38
487.726	2755.56
488.097	2787.88
488.467	2806.64
488.837	2899.29
489.207	2951.94
489.578	2963.02
489.948	2974.31
490.318	3047.98
490.688	3022
491.058	3073.52
491.428	3130.47
491.798	3134.54
492.168	3210.47
492.538	3235.78
492.908	3251.82
493.278	3312.84
493.648	3337.92
494.017	3409.11
494.387	3422.66
494.757	3430.12
495.126	3483.23
495.496	3460.63
495.866	3550.8
496.235	3557.12
496.605	3600.06
496.974	3580.4
497.344	3614.75
497.713	3650.91
498.082	3693.39
498.452	3734.29
498.821	3728.87
499.19	3781.75
499.559	3782.65
499.928	3762.54
500.298	3828.08
500.667	3872.82
501.036	3863.56
501.405	3891.58
501.774	3904.46
502.143	3920.28
502.512	3987.62
502.88	3960.5
503.249	3983.1
503.618	4027.39
503.987	4038.24
504.356	4046.6
504.724	4040.73
505.093	4103.55
505.462	4117.11
505.83	4120.27
506.199	4169.31
506.567	4204.79
506.936	4226.03
507.304	4269.87
507.672	4225.81
508.041	4254.05
508.409	4293.38
508.777	4339.02
509.145	4359.36
509.514	4348.06
509.882	4358.68
510.25	4357.1
510.618	4395.52
510.986	4438.23
511.354	4429.19
511.722	4446.82
512.09	4491.56
512.458	4487.27
512.826	4555.52
513.193	4529.75
513.561	4536.31
513.929	4553.48
514.297	4622.86
514.664	4619.02
515.032	4643.42
515.4	4664.44
515.767	4674.38
516.135	4652.91
516.502	4647.94
516.869	4764.78
517.237	4776.75
517.604	4734.72
517.972	4752.12
518.339	4798.45
518.706	4808.84
519.073	4786.24
519.44	4815.4
519.808	4862.85
520.175	4872.57
520.542	4872.8
520.909	4911.21
521.276	4936.07
521.643	4943.3
522.009	4960.93
522.376	4983.75
522.743	5042.51
523.11	5051.55
523.477	5106.24
523.843	5127.25
524.21	5117.53
524.577	5193.69
524.943	5171.32
525.31	5179.91
525.676	5293.35
526.043	5276.17
526.409	5269.85
526.776	5341.26
527.142	5322.05
527.508	5379
527.874	5439.11
528.241	5410.41
528.607	5451.09
528.973	5555.94
529.339	5515.94
529.705	5533.34
530.071	5564.98
530.437	5568.82
530.803	5656.05
531.169	5645.66
531.535	5621.02
531.901	5701.25
532.267	5743.96
532.632	5739.21
532.998	5783.51
533.364	5784.18
533.73	5804.75
534.095	5852.88
534.461	5871.87
534.826	5902.6
535.192	5905.08
535.557	5970.17
535.923	5950.28
536.288	5901.47
536.653	6039.77
537.019	5985.53
537.384	6074.57
537.749	6060.34
538.114	6117.73
538.479	6072.99
538.845	6106.21
539.21	6094.01
539.575	6142.82
539.94	6203.61
540.305	6211.97
540.67	6254.91
541.034	6290.84
541.399	6276.37
541.764	6305.75
542.129	6384.62
542.494	6388.91
542.858	6414.9
543.223	6419.42
543.587	6450.61
543.952	6444.73
544.316	6474.79
544.681	6531.74
545.045	6546.2
545.41	6585.07
545.774	6615.57
546.138	6589.81
546.503	6620.55
546.867	6663.48
547.231	6739.87
547.595	6765.18
547.959	6759.75
548.324	6796.13
548.688	6741.45
549.052	6821.9
549.416	6814.89
549.779	6799.98
550.143	6829.35
550.507	6923.59
550.871	6952.74
551.235	6880.65
551.599	6981.21
551.962	6976.02
552.326	7030.48
552.689	7023.7
553.053	7049.91
553.417	7058.27
553.78	7147.54
554.143	7105.05
554.507	7189.57
554.87	7178.95
555.234	7200.19
555.597	7180.76
555.96	7216.91
556.323	7242.45
556.686	7283.58
557.05	7293.52
557.413	7317.48
557.776	7378.04
558.139	7398.38
558.502	7419.62
558.865	7430.24
559.228	7470.69
559.59	7515.89
559.953	7531.71
560.316	7525.38
560.679	7547.75
561.041	7550.24
561.404	7628.88
561.767	7649.9
562.129	7644.02
562.492	7726.51
562.854	7729.67
563.217	7686.28
563.579	7708.88
563.941	7768.76
564.304	7812.83
564.666	7864.36
565.028	7882.89
565.39	7911.59
565.753	7959.49
566.115	7955.43
566.477	7991.13
566.839	8026.61
567.201	8050.34
567.563	8059.38
567.925	8207.4
568.287	8108.19
568.648	8129.21
569.01	8227.96
569.372	8242.42
569.734	8232.03
570.095	8321.29
570.457	8332.82
570.819	8347.51
571.18	8363.33
571.542	8456.2
571.903	8471.8
572.265	8533.49
572.626	8554.28
572.987	8519.71
573.349	8693.26
573.71	8692.81
574.071	8768.29
574.432	8804.67
574.794	8890.32
575.155	8912.69
575.516	8841.28
575.877	8966.47
576.238	9033.36
576.599	9122.18
576.96	9182.74
577.32	9255.28
577.681	9318.33
578.042	9445.33
578.403	9455.5
578.763	9486.46
579.124	9554.48
579.485	9725.78
579.845	9833.34
580.206	9914.47
580.566	9947.24
580.927	10141.58
581.287	10212.32
581.648	10289.15
582.008	10460.67
582.368	10648.91
582.728	10729.59
583.089	10845.07
583.449	10991.28
583.809	11218.84
584.169	11290.03
584.529	11476.01
584.889	11718.27
585.249	11798.49
585.609	11937.24
585.969	12159.61
586.329	12348.08
586.688	12570.9
587.048	12744.68
587.408	12996.65
587.768	13113.93
588.127	13344.44
588.487	13540.36
588.846	13768.61
589.206	13973.35
589.565	14256.05
589.925	14598.42
590.284	14801.35
590.643	14958.41
591.003	15208.8
591.362	15491.27
591.721	15669.35
592.08	16068.89
592.44	16357.69
592.799	16595.65
593.158	16806.72
593.517	17049.65
593.876	17438.79
594.235	17573.7
594.593	17843.98
594.952	18214.82
595.311	18478.99
595.67	18825.88
596.029	19137.05
596.387	19484.16
596.746	19750.6
597.104	19883.93
597.463	20158.72
597.822	20472.16
598.18	20772.26
598.538	21071.47
598.897	21327.96
599.255	21559.36
599.613	22039.58
599.972	22126.35
600.33	22453.12
600.688	22683.85
601.046	23099.21
601.404	23420.33
601.762	23581.46
602.12	23906.65
602.478	24236.35
602.836	24407.42
603.194	24617.14
603.552	24890.35
603.91	25098.7
604.268	25355.65
604.625	25592.02
604.983	25800.15
605.341	26100.71
605.698	26424.32
606.056	26754.25
606.413	26853.69
606.771	27181.36
607.128	27522.14
607.485	27529.6
607.843	27901.34
608.2	28178.4
608.557	28431.5
608.914	28512.4
609.272	28835.78
609.629	29008.43
609.986	29351.25
610.343	29381.98
610.7	29842.99
611.057	29870.33
611.414	30103.54
611.771	30237.55
612.127	30576.3
612.484	30793.02
612.841	30939.68
613.198	30964.76
613.554	31172.22
613.911	31510.51
614.267	31678.19
614.624	31834.57
614.98	31923.61
615.337	32266.43
615.693	32329.47
616.05	32332.64
616.406	32731.95
616.762	32707.32
617.118	32866.64
617.475	32943.92
617.831	33336.45
618.187	33557.69
618.543	33551.82
618.899	33986.15
619.255	33911.13
619.611	33836.78
619.967	33995.42
620.323	34434.05
620.678	34392.47
621.034	34302.08
621.39	34444.22
621.746	34601.96
622.101	35122.4
622.457	34724.67
622.812	34966.69
623.168	35136.86
623.523	35274.93
623.879	35351.77
624.234	35363.97
624.589	35503.63
624.945	35628.15
625.3	35769.38
625.655	35637.86
626.01	35886.44
626.365	35816.39
626.72	35960.79
627.075	35970.06
627.43	35944.07
627.785	36001.47
628.14	36125.99
628.495	36263.61
628.85	36338.18
629.205	36183.16
629.559	36363.49
629.914	36363.27
630.269	36489.14
630.623	36333.44
630.978	36243.04
631.332	36615.69
631.687	36800.32
632.041	36541.57
632.396	36545.86
632.75	36510.38
633.104	36836.02
633.459	36473.09
633.813	36502.7
634.167	36673.32
634.521	36681.68
634.875	36755.57
635.229	36628.8
635.583	36606.42
635.937	36555.35
636.291	36686.87
636.645	36763.71
636.999	36675.8
637.352	36751.05
637.706	36678.96
638.06	36848.23
638.413	36683.48
638.767	36737.04
639.121	36812.97
639.474	36635.35
639.828	36677.61
640.181	36650.94
640.534	36728.68
640.888	36551.96
641.241	36479.42
641.594	36637.61
641.947	36797.61
642.301	36655.46
642.654	36638.74
643.007	36609.81
643.36	36549.7
643.713	36481.68
644.066	36591.74
644.419	36269.71
644.771	36095.03
645.124	36004.41
645.477	35965.31
645.83	35680.57
646.182	35533.23
646.535	35426.12
646.888	35593.57
647.24	35413.46
647.593	35630.86
647.945	35517.41
648.298	35392.67
648.65	35249.62
649.002	35201.04
649.355	35472.67
649.707	35303.18
650.059	35505.66
650.411	35899.32
650.763	35972.09
651.115	36390.84
651.467	36167.34
651.819	36256.6
652.171	36049.38
652.523	36121.24
652.875	36078.3
653.227	35955.82
653.578	36087.57
653.93	36152.43
654.282	35923.05
654.633	35955.37
654.985	35993.11
655.337	35998.08
655.688	35958.98
656.039	36005.76
656.391	35723.96
656.742	35995.37
657.094	35981.81
657.445	36013.22
657.796	35933
658.147	35898.65
658.498	35894.58
658.849	36018.64
659.2	35981.81
659.551	35771.87
659.902	35956.27
660.253	35864.75
660.604	35897.06
660.955	35727.8
661.306	35912.43
661.656	35800.57
662.007	35756.05
662.358	35839.66
662.708	35708.14
663.059	35715.15
663.409	35549.73
663.76	35915.82
664.11	35723.06
664.461	35776.39
664.811	35796.05
665.161	35753.57
665.511	35621.14
665.862	35649.16
666.212	35825.65
666.562	35749.72
666.912	35731.87
667.262	35664.3
667.612	35655.49
667.962	35697.52
668.312	35715.6
668.662	35773.23
669.011	35782.72
669.361	35624.53
669.711	35750.63
670.06	35568.71
670.41	35601.48
670.76	35460.92
671.109	35695.94
671.459	35594.7
671.808	35569.39
672.157	35668.82
672.507	35543.4
672.856	35436.51
673.205	35588.82
673.554	35553.8
673.904	35456.85
674.253	35639.9
674.602	35569.16
674.951	34963.98
675.3	34815.96
675.649	35330.98
675.998	35312.22
676.346	35414.37
676.695	35468.15
677.044	35260.25
677.393	35356.29
677.741	35385.44
678.09	35302.96
678.438	35165.11
678.787	35236.29
679.135	35280.81
679.484	34982.51
679.832	35109.97
680.181	34960.59
680.529	35141.15
680.877	34956.75
681.225	34803.99
681.573	35136.18
681.922	34861.84
682.27	34840.6
682.618	34863.42
682.966	34729.86
683.314	34856.87
683.661	34639.24
684.009	34489.87
684.357	34448.97
684.705	34592.47
685.053	34460.27
685.4	34424.79
685.748	34257.33
686.095	34149.99
686.443	34074.51
686.79	34112.03
687.138	34117.45
687.485	34087.85
687.832	33921.98
688.18	34005.36
688.527	33815.09
688.874	33884.46
689.221	33717.46
689.568	33655.99
689.915	33641.08
690.262	33490.8
690.609	33542.1
690.956	33350.46
691.303	33330.13
691.65	33247.42
691.997	33259.39
692.344	32962.9
692.69	32993.64
693.037	33126.06
693.383	32800.2
693.73	32887.88
694.077	32660.77
694.423	32671.84
694.769	32591.16
695.116	32521.79
695.462	32400.66
695.808	32429.81
696.155	32480.66
696.501	32060.1
696.847	32078.63
697.193	31931.29
697.539	32133.1
697.885	31811.75
698.231	31688.14
698.577	31742.37
698.923	31780.56
699.269	31552.09
699.614	31307.81
699.96	31450.18
700.306	31430.29
700.651	31209.5
700.997	31206.79
701.342	31123.63
701.688	30987.36
702.033	30919.79
702.379	30968.83
702.724	30907.37
703.069	30799.12
703.415	30519.35
703.76	30509.41
704.105	30497.43
704.45	30326.36
704.795	30311.22
705.14	30196.88
705.485	30252.47
705.83	30171.34
706.175	30167.5
706.52	30133.83
706.865	29953.94
707.209	29922.98
707.554	29802.99
707.899	29827.17
708.243	29667.62
708.588	29645.93
708.932	29489.55
709.277	29455.2
709.621	29511.92
709.966	29283
710.31	29327.52
710.654	29036.45
710.998	29128.43
711.342	29320.06
711.687	29129.78
712.031	29064.48
712.375	28912.39
712.719	28816.35
713.063	28688.67
713.407	28949
713.75	28742.68
714.094	28704.49
714.438	28566.86
714.782	28654.54
715.125	28363.03
715.469	28402.57
715.812	28376.58
716.156	28185.18
716.499	28246.87
716.843	28232.86
717.186	28091.17
717.53	28288
717.873	28186.98
718.216	28042.58
718.559	27951.74
718.902	27794.68
719.246	27882.36
719.589	27795.58
719.932	27659.77
720.275	27694.79
720.617	27606.66
720.96	27593.33
721.303	27502.03
721.646	27584.74
721.989	27422.26
722.331	27470.39
722.674	27425.87
723.016	27438.53
723.359	27281.02
723.701	27341.81
724.044	27198.99
724.386	26997.64
724.729	27172.1
725.071	27021.59
725.413	27040.8
725.755	26952.67
726.097	26932.1
726.439	26783.41
726.782	26823.4
727.124	26974.36
727.465	26825.21
727.807	26764.88
728.149	26615.73
728.491	26697.08
728.833	26677.87
729.175	26488.5
729.516	26466.8
729.858	26469.29
730.199	26559.91
730.541	26501.38
730.882	26363.98
731.224	26431.78
731.565	26237.88
731.906	26270.88
732.248	26295.06
732.589	26072.69
732.93	26043.31
733.271	26096.64
733.612	26011.45
733.953	26142.29
734.294	26020.94
734.635	25930.77
734.976	26079.47
735.317	25709.76
735.658	25783.43
735.999	25876.09
736.339	25754.96
736.68	25776.2
737.021	25796.09
737.361	25677.67
737.702	25780.49
738.042	25721.51
738.383	25715.86
738.723	25544.34
739.063	25560.39
739.404	25522.87
739.744	25426.83
740.084	25386.15
740.424	25387.51
740.764	25313.16
741.104	25387.96
741.444	25209.66
741.784	25178.7
742.124	25188.19
742.464	25128.76
742.804	25128.99
743.143	25057.35
743.483	25198.81
743.823	24934.87
744.162	24883.34
744.502	25002.21
744.841	24811.48
745.181	25023.23
745.52	24820.97
745.86	24875.43
746.199	24840.63
746.538	24745.72
746.877	24743.69
747.216	24846.73
747.556	24611.94
747.895	24709.11
748.234	24580.75
748.573	24518.61
748.911	24574.88
749.25	24568.55
749.589	24466.18
749.928	24392.96
750.267	24410.59
750.605	24216.02
750.944	24296.24
751.283	24252.17
751.621	24303.47
751.96	24148
752.298	24185.96
752.636	24135.57
752.975	24009.69
753.313	23891.5
753.651	24155.68
753.989	23886.98
754.327	23862.13
754.666	23647.44
755.004	23798.63
755.342	23703.49
755.679	23689.02
756.017	23544.4
756.355	23720.89
756.693	23564.06
757.031	23460.1
757.368	23411.07
757.706	23284.97
758.044	23302.14
758.381	23370.16
758.719	23214.46
759.056	23224.86
759.394	23170.85
759.731	22971.3
760.068	23005.65
760.405	22921.36
760.743	22783.74
761.08	22884.53
761.417	22781.48
761.754	22816.96
762.091	22594.36
762.428	22625.55
762.765	22433.69
763.102	22426.46
763.438	22427.14
763.775	22359.34
764.112	22238.21
764.449	22268.95
764.785	22176.75
765.122	21999.58
765.458	22005.9
765.795	21938.56
766.131	21903.99
766.467	21823.54
766.804	21784.22
767.14	21714.61
767.476	21663.54
767.812	21474.17
768.148	21450.21
768.485	21453.38
768.821	21459.93
769.157	21281.86
769.492	21207.96
769.828	21191.69
770.164	20983.33
770.5	21040.51
770.836	21012.26
771.171	20775.2
771.507	20700.18
771.842	20672.83
772.178	20641.65
772.513	20628.54
772.849	20592.83
773.184	20438.26
773.519	20419.51
773.855	20309.68
774.19	20261.32
774.525	20204.14
774.86	20163.47
775.195	20132.73
775.53	19965.05
775.865	19899.07
776.2	19725.74
776.535	19589.7
776.87	19680.32
777.205	19588.34
777.539	19504.28
777.874	19459.98
778.209	19328.23
778.543	19221.34
778.878	19219.76
779.212	19191.29
779.547	19115.58
779.881	19055.02
780.215	18985.64
780.55	18991.97
780.884	18797.85
781.218	18725.99
781.552	18827.23
781.886	18667.69
782.22	18458.43
782.554	18560.12
782.888	18344.76
783.222	18180.69
783.556	18220.24
783.889	18095.95
784.223	18095.72
784.557	18013.02
784.89	17978.67
785.224	17980.7
785.557	17861.38
785.891	17671.78
786.224	17795.39
786.558	17683.98
786.891	17636.08
787.224	17532.35
787.557	17412.8
787.891	17394.5
788.224	17365.8
788.557	17448.74
788.89	17372.81
789.223	17252.36
789.556	17185.47
789.888	17086.49
790.221	16998.13
790.554	16936.66
790.887	16942.76
791.219	16857.57
791.552	16809.88
791.884	16767.17
792.217	16717.91
792.549	16684.01
792.882	16576.89
793.214	16455.99
793.546	16518.82
793.879	16374.87
794.211	16280.63
794.543	16384.13
794.875	16286.05
795.207	16390.68
795.539	16155.21
795.871	16128.09
796.203	16024.82
796.535	15930.36
796.867	15960.87
797.198	15943.69
797.53	15893.97
797.862	15819.4
798.193	15707.09
798.525	15691.72
798.856	15704.15
799.188	15550.93
799.519	15478.39
799.85	15416.25
800.182	15359.98
800.513	15357.04
800.844	15187.1
801.175	15331.05
801.506	15334.67
801.837	15168.34
802.168	15145.97
802.499	15112.07
802.83	15041.12
803.161	14967.9
803.491	14925.41
803.822	14910.05
804.153	14856.04
804.483	14770.84
804.814	14741.91
805.145	14681.13
805.475	14697.17
805.805	14627.12
806.136	14593.44
806.466	14585.99
806.796	14503.95
807.126	14470.96
807.457	14411.98
807.787	14370.85
808.117	14336.73
808.447	14302.38
808.777	14327.46
809.107	14226.67
809.436	14265.54
809.766	14197.75
810.096	14120.01
810.426	14088.6
810.755	14091.31
811.085	14015.83
811.414	14040.46
811.744	13988.26
812.073	13875.27
812.403	13887.47
812.732	13817.87
813.061	13865.78
813.39	13796.63
813.719	13686.8
814.049	13775.16
814.378	13697.65
814.707	13543.53
815.036	13595.73
815.365	13503.3
815.693	13410.42
816.022	13378.56
816.351	13380.14
816.68	13323.19
817.008	13346.92
817.337	13180.6
817.665	13300.14
817.994	13265.8
818.322	13235.06
818.651	13085.46
818.979	13139.92
819.307	13208.17
819.636	13095.4
819.964	13101.51
820.292	13006.59
820.62	13065.35
820.948	12975.41
821.276	13011.34
821.604	12938.35
821.932	13051.34
822.259	12938.8
822.587	12978.57
822.915	12843.66
823.243	12971.11
823.57	12912.81
823.898	12904
824.225	12880.49
824.553	12902.87
824.88	12971.34
825.207	12940.83
825.535	12904.22
825.862	12889.08
826.189	12860.83
826.516	12906.03
826.843	12947.39
827.17	12886.82
827.497	12942.41
827.824	12953.94
828.151	12959.14
828.478	12868.97
828.805	12899.93
829.131	12889.99
829.458	12841.4
829.785	12817.67
830.111	12903.77
830.438	12941.74
830.764	12881.62
831.09	12859.48
831.417	12850.89
831.743	12849.31
832.069	12780.16
832.395	12842.76
832.722	12817.67
833.048	12762.53
833.374	12807.28
833.7	12756.2
834.026	12723.21
834.351	12764.57
834.677	12774.06
835.003	12786.71
835.329	12753.94
835.654	12751.46
835.98	12597.79
836.306	12590.33
836.631	12610.22
836.956	12618.81
837.282	12708.52
837.607	12578.58
837.932	12546.27
838.258	12547.4
838.583	12514.4
838.908	12448.19
839.233	12521.41
839.558	12441.18
839.883	12374.29
840.208	12327.29
840.533	12449.55
840.858	12350.79
841.182	12418.13
841.507	12364.58
841.832	12382.2
842.156	12305.82
842.481	12218.59
842.805	12218.37
843.13	12175.43
843.454	12236.44
843.778	12173.39
844.103	12082.55
844.427	12094.3
844.751	12109.89
845.075	11985.83
845.399	11995.77
845.723	11846.85
846.047	11894.31
846.371	11849.34
846.695	11828.32
847.019	11785.61
847.343	11603.92
847.666	11624.71
847.99	11624.93
848.313	11505.62
848.637	11489.8
848.96	11462
849.284	11473.75
849.607	11385.84
849.931	11311.04
850.254	11268.56
850.577	11221.1
850.9	11108.11
851.223	11086.42
851.546	11074.21
851.869	11051.62
852.192	10981.79
852.515	11004.39
852.838	10869.25
853.161	10835.12
853.483	10756.71
853.806	10818.18
854.129	10834.22
854.451	10679.42
854.774	10705.41
855.096	10634.9
855.419	10552.19
855.741	10582.48
856.063	10512.87
856.385	10527.79
856.708	10430.84
857.03	10503.16
857.352	10504.96
857.674	10408.92
857.996	10362.14
858.318	10339.09
858.64	10297.96
858.961	10306.1
859.283	10224.07
859.605	10215.03
859.926	10221.36
860.248	10186.1
860.57	10165.99
860.891	10184.07
861.212	10028.14
861.534	10092.77
861.855	10038.31
862.176	10114.47
862.498	10042.38
862.819	10055.71
863.14	9968.48
863.461	9974.81
863.782	9916.73
864.103	9866.56
864.424	9839.44
864.745	9918.09
865.065	9869.05
865.386	9886.22
865.707	9834.93
866.027	9901.14
866.348	9783.85
866.668	9810.97
866.989	9754.02
867.309	9656.62
867.63	9734.59
867.95	9706.11
868.27	9624.31
868.59	9687.36
868.91	9615.72
869.23	9626.79
869.55	9598.1
869.87	9639.68
870.19	9602.39
870.51	9612.56
870.83	9592.22
871.15	9516.29
871.469	9512.67
871.789	9569.85
872.109	9533.92
872.428	9436.74
872.748	9510.64
873.067	9468.61
873.386	9513.58
873.706	9491.21
874.025	9454.37
874.344	9355.39
874.663	9340.25
874.982	9330.31
875.301	9377.99
875.62	9223.87
875.939	9272.91
876.258	9235.62
876.577	9240.14
876.896	9291.89
877.214	9236.75
877.533	9182.96
877.852	9209.63
878.17	9235.17
878.489	9189.74
878.807	9182.29
879.125	9142.74
879.444	9117.43
879.762	9182.06
880.08	9162.85
880.398	9054.15
880.716	9041.05
881.034	9051.22
881.352	9031.56
881.67	9014.83
881.988	9053.48
882.306	8905.46
882.624	8972.57
882.941	8947.04
883.259	8917.66
883.577	8889.64
883.894	8863.43
884.212	8891.22
884.529	8902.97
884.846	8861.17
885.164	8861.84
885.481	8787.49
885.798	8824.78
886.115	8688.29
886.432	8734.61
886.75	8685.58
887.067	8683.77
887.383	8699.81
887.7	8673.15
888.017	8594.96
888.334	8593.15
888.651	8542.53
888.967	8574.62
889.284	8571
889.6	8531
889.917	8431.57
890.233	8454.85
890.55	8455.98
890.866	8415.98
891.182	8410.78
891.498	8385.02
891.815	8390.22
892.131	8327.39
892.447	8274.74
892.763	8254.85
893.079	8289.88
893.395	8200.39
893.71	8130.34
894.026	8235.65
894.342	8199.04
894.657	8070.9
894.973	8085.82
895.289	8089.66
895.604	8087.4
895.92	7993.84
896.235	7917.91
896.55	7971.02
896.865	7947.97
897.181	7907.52
897.496	7923.79
897.811	7851.7
898.126	7801.08
898.441	7741.65
898.756	7752.49
899.071	7772.15
899.386	7652.61
899.7	7613.06
900.015	7636.79
900.33	7594.53
900.644	7571.03
900.959	7564.48
901.273	7559.5
901.588	7557.02
901.902	7535.78
902.216	7470.47
902.531	7439.06
902.845	7426.4
903.159	7386.4
903.473	7330.13
903.787	7331.49
904.101	7267.99
904.415	7241.55
904.729	7309.57
905.042	7198.61
905.356	7184.83
905.67	7181.89
905.984	7188.44
906.297	7104.38
906.611	7082
906.924	7116.8
907.237	7037.26
907.551	7068.22
907.864	7001.78
908.177	6959.97
908.491	6980.99
908.804	6923.82
909.117	6864.38
909.43	6861.22
909.743	6807.89
910.056	6804.72
910.368	6735.57
910.681	6737.38
910.994	6698.51
911.307	6689.47
911.619	6632.75
911.932	6658.96
912.244	6611.51
912.557	6605.18
912.869	6575.35
913.181	6541.68
913.494	6471.17
913.806	6450.16
914.118	6467.33
914.43	6421.23
914.742	6378.29
915.054	6346.88
915.366	6318.86
915.678	6325.41
915.99	6316.83
916.302	6269.6
916.613	6226.88
916.925	6226.66
917.236	6183.27
917.548	6178.3
917.859	6149.82
918.171	6098.75
918.482	6064.18
918.794	6072.76
919.105	6060.56
919.416	5963.16
919.727	5978.08
920.038	5950.28
920.349	5888.36
920.66	5923.84
920.971	5901.47
921.282	5916.38
921.593	5825.31
921.903	5788.48
922.214	5830.51
922.525	5787.8
922.835	5731.08
923.146	5710.97
923.456	5698.76
923.767	5695.37
924.077	5665.32
924.387	5602.27
924.697	5651.76
925.008	5583.51
925.318	5577.41
925.628	5598.65
925.938	5501.48
926.248	5433.68
926.558	5480.69
926.867	5455.61
927.177	5468.03
927.487	5393.69
927.796	5325.89
928.106	5313.69
928.416	5263.52
928.725	5298.32
929.034	5267.14
929.344	5266.23
929.653	5243.18
929.962	5204.99
930.271	5171.32
930.581	5141.04
930.89	5179.45
931.199	5073.92
931.508	5093.35
931.817	5088.16
932.125	5023.98
932.434	5021.94
932.743	4929.74
933.051	4971.55
933.36	4954.38
933.669	4945.56
933.977	4914.15
934.286	4904.89
934.594	4949.4
934.902	4878.67
935.21	4855.39
935.519	4810.65
935.827	4788.96
936.135	4812.91
936.443	4729.75
936.751	4722.74
937.059	4743.31
937.367	4716.64
937.674	4696.98
937.982	4693.82
938.29	4693.37
938.597	4695.85
938.905	4602.97
939.213	4578.34
939.52	4525.23
939.827	4598.23
940.135	4558.23
940.442	4505.12
940.749	4542.63
941.056	4509.42
941.363	4442.07
941.67	4415.86
941.977	4426.71
942.284	4372.7
942.591	4397.78
942.898	4336.54
943.205	4359.14
943.511	4343.54
943.818	4301.29
944.125	4290.89
944.431	4247.5
944.738	4319.14
945.044	4264.9
945.35	4217.9
945.657	4185.58
945.963	4211.57
946.269	4196.66
946.575	4177.67
946.881	4116.66
947.187	4105.81
947.493	4098.35
947.799	4076.21
948.105	4061.07
948.41	4063.78
948.716	4028.75
949.022	4014.06
949.327	3951.92
949.633	3983.33
949.938	3987.62
950.244	3957.34
950.549	3938.81
950.854	3881.86
951.16	3882.54
951.465	3855.87
951.77	3842.77
952.075	3856.33
952.38	3835.99
952.685	3793.73
952.99	3743.56
953.294	3794.41
953.599	3722.77
953.904	3732.26
954.209	3721.64
954.513	3704.46
954.818	3731.81
955.122	3702.66
955.426	3645.94
955.731	3607.07
956.035	3637.12
956.339	3602.32
956.643	3603.22
956.948	3582.66
957.252	3576.56
957.556	3555.99
957.86	3530.91
958.163	3536.79
958.467	3494.75
958.771	3462.44
959.075	3487.3
959.378	3461.31
959.682	3432.83
959.985	3405.49
960.289	3410.01
960.592	3387.41
960.896	3380.18
961.199	3364.13
961.502	3332.72
961.805	3329.56
962.108	3345.6
962.411	3324.14
962.714	3268.54
963.017	3324.36
963.32	3265.61
963.623	3266.96
963.926	3263.12
964.228	3214.53
964.531	3215.44
964.833	3222.9
965.136	3162.11
965.438	3150.36
965.741	3149
966.043	3144.71
966.345	3135.89
966.648	3115.78
966.95	3124.14
967.252	3106.51
967.554	3096.8
967.856	3047.31
968.158	3066.97
968.46	3035.33
968.761	3041.21
969.063	3040.75
969.365	2987.87
969.666	3009.57
969.968	2933.86
970.269	2973.64
970.571	2973.64
970.872	2978.83
971.174	2934.54
971.475	2869.91
971.776	2917.37
972.077	2892.06
972.378	2880.98
972.679	2861.55
972.98	2836.01
973.281	2873.75
973.582	2861.55
973.883	2831.95
974.183	2791.72
974.484	2809.8
974.785	2791.04
975.085	2750.59
975.386	2789.23
975.686	2740.65
975.986	2734.77
976.287	2737.03
976.587	2685.28
976.887	2659.97
977.187	2685.28
977.487	2704.72
977.787	2678.5
978.087	2615.68
978.387	2647.09
978.687	2616.36
978.987	2610.71
979.286	2599.41
979.586	2595.12
979.885	2588.34
980.185	2583.82
980.484	2548.11
980.784	2521.67
981.083	2538.85
981.382	2530.71
981.682	2512.86
981.981	2543.37
982.28	2496.81
982.579	2459.98
982.878	2488.68
983.177	2455.23
983.475	2469.69
983.774	2412.75
984.073	2403.03
984.372	2414.33
984.67	2392.18
984.969	2415.91
985.267	2396.02
985.566	2376.36
985.864	2392.86
986.162	2357.38
986.461	2340.43
986.759	2320.09
987.057	2322.58
987.355	2303.82
987.653	2303.37
987.951	2302.47
988.249	2288.91
988.547	2249.81
988.844	2267.44
989.142	2249.81
989.44	2242.13
989.737	2262.92
990.035	2214.79
990.332	2208.23
990.63	2202.58
990.927	2227.89
991.224	2173.66
991.521	2165.97
991.819	2169.59
992.116	2123.26
992.413	2160.78
992.71	2161
993.006	2128.01
993.303	2082.59
993.6	2095.69
993.897	2108.8
994.193	2066.77
994.49	2098.63
994.787	2051.4
995.083	2059.31
995.379	2040.33
995.676	2064.28
995.972	2029.25
996.268	2022.48
996.565	1992.87
996.861	2031.51
997.157	1983.38
997.453	1970.05
997.749	1973.89
998.044	1967.79
998.34	1948.35
998.636	1960.78
998.932	1955.81
999.227	1928.47
999.523	1893.89
999.818	1930.73
1000.114	1877.62
1000.409	1874.46
1000.704	1857.96
1001	1851.41
1001.295	1838.07
1001.59	1835.14
1001.885	1838.53
1002.18	1788.58
1002.475	1834.23
1002.77	1810.28
1003.065	1797.4
1003.359	1790.16
1003.654	1784.06
1003.949	1760.11
1004.243	1745.65
1004.538	1750.62
1004.832	1761.69
1005.127	1712.88
1005.421	1739.77
1005.715	1715.14
1006.009	1700.68
1006.304	1691.41
1006.598	1690.51
1006.892	1675.37
1007.186	1675.37
1007.48	1652.32
1007.773	1634.91
1008.067	1652.99
1008.361	1613.67
1008.655	1637.63
1008.948	1622.94
1009.242	1609.15
1009.535	1612.32
1009.829	1584.75
1010.122	1562.37
1010.415	1564.86
1010.708	1573.9
1011.001	1546.1
1011.295	1534.58
1011.588	1512.43
1011.881	1512.66
1012.173	1503.17
1012.466	1491.87
1012.759	1477.86
1013.052	1511.98
1013.344	1495.48
1013.637	1467.24
1013.93	1474.47
1014.222	1492.09
1014.514	1449.16
1014.807	1431.53
1015.099	1443.06
1015.391	1421.59
1015.683	1426.33
1015.976	1432.21
1016.268	1398.54
1016.56	1383.17
1016.851	1360.35
1017.143	1381.59
1017.435	1342.72
1017.727	1373.9
1018.018	1362.61
1018.31	1314.25
1018.602	1337.97
1018.893	1330.74
1019.185	1323.28
1019.476	1304.53
1019.767	1312.44
1020.058	1286.45
1020.35	1286.22
1020.641	1253
1020.932	1302.04
1021.223	1269.5
1021.514	1262.95
1021.804	1259.11
1022.095	1253
1022.386	1244.19
1022.677	1227.02
1022.967	1221.37
1023.258	1205.32
1023.548	1210.97
1023.839	1201.93
1024.129	1217.52
1024.419	1169.16
1024.709	1174.59
1025	1187.02
1025.29	1163.97
1025.58	1129.84
1025.87	1150.18
1026.16	1144.98
1026.449	1139.56
1026.739	1116.06
1027.029	1100.24
1027.319	1100.69
1027.608	1122.61
1027.898	1128.49
1028.187	1086
1028.477	1063.18
1028.766	1082.61
1029.055	1077.87
1029.344	1071.99
1029.634	1053.01
1029.923	1055.95
1030.212	1034.93
1030.501	1053.46
1030.79	1032.44
1031.078	1032.9
1031.367	1029.73
1031.656	1017.08
1031.945	1002.84
1032.233	995.84
1032.522	984.76
1032.81	956.06
1033.099	978.66
1033.387	970.75
1033.675	961.26
1033.963	939.34
1034.251	961.03
1034.54	948.38
1034.828	925.33
1035.116	937.53
1035.403	934.14
1035.691	933.92
1035.979	909.96
1036.267	895.05
1036.554	903.86
1036.842	914.71
1037.129	889.4
1037.417	854.82
1037.704	885.1
1037.992	872.22
1038.279	872
1038.566	889.4
1038.853	889.4
1039.14	889.4
