Data from hue_170_FLMS001491_00006.txt Node
Date: Tue Feb 07 16:48:10 GMT 2017
User: dcchb
Spectrometer: FLMS00149
Trigger mode: 0
Integration Time (sec): 2.000000E-2
Scans to average: 10
Electric dark correction enabled: true
Nonlinearity correction enabled: false
Boxcar width: 0
XAxis mode: Wavelengths
Number of Pixels in Spectrum: 2048
>>>>>Begin Spectral Data<<<<<
341.393	-16.64
341.776	-16.64
342.16	-16.64
342.543	-74.94
342.927	-56.18
343.31	-84.66
343.693	-75.85
344.077	-68.39
344.46	-61.83
344.843	-55.96
345.226	-29.97
345.61	-33.59
345.993	4.15
346.376	-17.99
346.759	9.58
347.142	15.23
347.525	54.32
347.908	56.58
348.291	59.29
348.674	114.21
349.057	114.88
349.44	137.48
349.823	163.02
350.206	164.37
350.588	203.47
350.971	232.17
351.354	225.62
351.737	221.55
352.119	255.67
352.502	254.77
352.884	279.4
353.267	298.16
353.65	296.35
354.032	310.59
354.414	309
354.797	338.61
355.179	340.87
355.562	333.18
355.944	332.51
356.326	330.7
356.709	342.22
357.091	343.13
357.473	348.32
357.855	339.28
358.238	356.91
358.62	353.97
359.002	328.44
359.384	345.16
359.766	358.95
360.148	356.46
360.53	383.58
360.912	344.03
361.294	342.9
361.676	347.87
362.057	331.15
362.439	339.74
362.821	341.09
363.203	325.05
363.584	345.61
363.966	345.84
364.348	331.38
364.729	321.43
365.111	325.27
365.493	310.59
365.874	336.57
366.256	323.69
366.637	324.14
367.019	325.05
367.4	310.81
367.781	307.2
368.163	307.2
368.544	304.03
368.925	319.85
369.306	321.66
369.688	314.43
370.069	308.1
370.45	311.49
370.831	319.85
371.212	321.66
371.593	305.16
371.974	320.75
372.355	330.02
372.736	335.22
373.117	313.75
373.498	322.79
373.879	327.08
374.26	336.8
374.641	336.8
375.021	338.38
375.402	327.31
375.783	325.95
376.163	329.12
376.544	333.64
376.925	343.8
377.305	329.34
377.686	328.44
378.066	341.09
378.447	337.93
378.827	349.45
379.208	353.3
379.588	335.67
379.968	314.88
380.349	345.16
380.729	329.57
381.109	353.07
381.489	368.44
381.87	344.71
382.25	341.54
382.63	346.52
383.01	361.43
383.39	347.42
383.77	364.14
384.15	352.84
384.53	325.05
384.91	330.7
385.29	365.27
385.67	340.87
386.049	375.67
386.429	365.95
386.809	370.47
387.189	351.26
387.568	353.3
387.948	367.31
388.328	366.18
388.707	337.48
389.087	355.33
389.466	372.5
389.846	371.15
390.225	367.98
390.605	382.9
390.984	395.1
391.363	369.11
391.743	390.36
392.122	369.57
392.501	373.18
392.881	380.64
393.26	396.23
393.639	407.31
394.018	374.99
394.397	408.21
394.776	384.71
395.155	400.98
395.534	381.77
395.913	389.91
396.292	403.92
396.671	392.16
397.05	406.18
397.429	405.05
397.808	412.5
398.186	402.79
398.565	411.6
398.944	430.58
399.323	417.93
399.701	404.59
400.08	402.33
400.458	396.91
400.837	421.99
401.215	417.7
401.594	429.23
401.972	433.07
402.351	431.26
402.729	417.25
403.107	430.58
403.486	450.69
403.864	451.15
404.242	449.34
404.62	448.43
404.999	444.14
405.377	458.15
405.755	443.46
406.133	431.94
406.511	455.67
406.889	434.42
407.267	459.51
407.645	465.16
408.023	457.02
408.401	466.51
408.779	465.16
409.156	469.68
409.534	494.76
409.912	465.61
410.29	503.57
410.667	497.02
411.045	504.48
411.422	510.35
411.8	516.46
412.178	518.26
412.555	527.98
412.933	544.03
413.31	524.36
413.687	546.96
414.065	538.15
414.442	542.67
414.819	554.65
415.197	562.1
415.574	551.71
415.951	569.79
416.328	591.93
416.705	565.95
417.082	586.06
417.46	570.69
417.837	584.02
418.214	596.91
418.591	606.85
418.967	593.74
419.344	625.83
419.721	623.57
420.098	614.08
420.475	623.8
420.852	637.13
421.228	661.99
421.605	641.42
421.982	633.51
422.358	644.81
422.735	664.93
423.111	660.18
423.488	679.16
423.864	686.85
424.241	669.9
424.617	686.85
424.994	703.34
425.37	705.38
425.746	700.41
426.123	723
426.499	750.57
426.875	746.05
427.251	729.56
427.627	748.31
428.003	753.29
428.379	790.8
428.756	791.93
429.132	779.5
429.507	814.3
429.883	818.82
430.259	818.37
430.635	820.63
431.011	806.62
431.387	826.5
431.763	853.62
432.138	854.75
432.514	856.11
432.89	869.89
433.265	887.29
433.641	911.7
434.016	900.17
434.392	926.16
434.767	940.85
435.143	922.32
435.518	966.84
435.894	965.71
436.269	995.99
436.644	975.88
437.02	1007.97
437.395	996.89
437.77	1000.96
438.145	1031.92
438.52	1067.85
438.895	1044.35
439.271	1049.77
439.646	1078.25
440.021	1100.39
440.395	1074.41
440.77	1077.57
441.145	1082.77
441.52	1121.64
441.895	1133.84
442.27	1173.61
442.645	1156.89
443.019	1170.68
443.394	1170.45
443.769	1171.35
444.143	1184.46
444.518	1209.77
444.892	1187.62
445.267	1230.33
445.641	1207.06
446.016	1238.47
446.39	1253.16
446.764	1264.01
447.139	1243.67
447.513	1255.64
447.887	1265.36
448.262	1296.55
448.636	1271.92
449.01	1284.57
449.384	1319.15
449.758	1332.48
450.132	1327.06
450.506	1381.07
450.88	1342.65
451.254	1351.91
451.628	1382.42
452.002	1417.22
452.376	1427.39
452.75	1417.67
453.123	1414.51
453.497	1455.87
453.871	1478.69
454.244	1494.73
454.618	1506.49
454.992	1559.14
455.365	1533.15
455.739	1563.89
456.112	1569.08
456.486	1571.79
456.859	1591.68
457.232	1654.73
457.606	1636.88
457.979	1672.58
458.352	1702.41
458.725	1690.66
459.099	1745.12
459.472	1783.31
459.845	1788.29
460.218	1827.61
460.591	1824.9
460.964	1813.14
461.337	1852.47
461.71	1885.91
462.083	1909.41
462.456	1936.76
462.829	1926.59
463.201	1957.32
463.574	2035.06
463.947	2048.62
464.32	2077.54
464.692	2099.92
465.065	2132.91
465.438	2147.37
465.81	2202.29
466.183	2211.78
466.555	2266.24
466.928	2299.01
467.3	2306.92
467.672	2372.23
468.045	2376.75
468.417	2428.5
468.789	2460.36
469.161	2474.37
469.534	2542.62
469.906	2596.85
470.278	2620.35
470.65	2647.25
471.022	2702.16
471.394	2765.89
471.766	2807.24
472.138	2853.57
472.51	2912.32
472.882	2969.5
473.253	3009.72
473.625	3085.2
473.997	3159.78
474.369	3231.64
474.74	3266.21
475.112	3322.26
475.484	3392.99
475.855	3464.4
476.227	3549.14
476.598	3715.02
476.97	3715.92
477.341	3806.31
477.713	3856.71
478.084	3919.3
478.455	4053.09
478.827	4137.38
479.198	4265.51
479.569	4301.21
479.94	4445.84
480.311	4478.39
480.682	4595.9
481.053	4771.26
481.424	4879.5
481.795	4933.74
482.166	4990.46
482.537	5081.76
482.908	5279.04
483.279	5355.88
483.65	5513.39
484.021	5616.21
484.391	5722.65
484.762	5882.42
485.133	5916.77
485.503	6071.56
485.874	6241.28
486.244	6331.9
486.615	6501.38
486.985	6589.52
487.356	6815.05
487.726	6870.64
488.097	7048.04
488.467	7144.08
488.837	7339.33
489.207	7427.46
489.578	7589.04
489.948	7733.21
490.318	7836.94
490.688	7924.85
491.058	8051.62
491.428	8239.87
491.798	8350.37
492.168	8554.66
492.538	8557.15
492.908	8706.75
493.278	8880.53
493.648	8972.28
494.017	9162.56
494.387	9224.25
494.757	9369.1
495.126	9490.91
495.496	9549.44
495.866	9661.98
496.235	9836.21
496.605	9898.36
496.974	9975.64
497.344	10123.21
497.713	10169.76
498.082	10300.83
498.452	10444.33
498.821	10444.33
499.19	10562.52
499.559	10676.87
499.928	10743.31
500.298	10914.83
500.667	11006.12
501.036	10986.46
501.405	11169.28
501.774	11182.16
502.143	11257.64
502.512	11315.49
502.88	11517.75
503.249	11442.95
503.618	11588.03
503.987	11557.52
504.356	11690.4
504.724	11740.12
505.093	11842.71
505.462	11892.43
505.83	12000.22
506.199	12096.49
506.567	12216.71
506.936	12127.22
507.304	12346.2
507.672	12330.16
508.041	12407.44
508.409	12437.27
508.777	12504.61
509.145	12611.96
509.514	12580.77
509.882	12647.44
510.25	12648.11
510.618	12788
510.986	12766.3
511.354	12836.13
511.722	12884.04
512.09	12993.42
512.458	12878.84
512.826	13039.29
513.193	13126.29
513.561	13154.32
513.929	13171.72
514.297	13252.62
514.664	13317.25
515.032	13323.8
515.4	13439.28
515.767	13504.59
516.135	13531.71
516.502	13358.83
516.869	13619.84
517.237	13536.9
517.604	13469.11
517.972	13657.35
518.339	13642.44
518.706	13650.35
519.073	13762.66
519.44	13707.97
519.808	13818.03
520.175	13760.17
520.542	13835.2
520.909	13864.13
521.276	13834.07
521.643	13913.84
522.009	13982.32
522.376	14038.13
522.743	14059.38
523.11	14163.78
523.477	14135.53
523.843	14227.96
524.21	14206.94
524.577	14280.16
524.943	14256.66
525.31	14354.51
525.676	14413.94
526.043	14500.72
526.409	14420.95
526.776	14446.94
527.142	14502.98
527.508	14472.25
527.874	14538.23
528.241	14525.35
528.607	14547.5
528.973	14538.23
529.339	14483.77
529.705	14522.87
530.071	14585.01
530.437	14598.57
530.803	14584.79
531.169	14571.9
531.535	14526.26
531.901	14497.56
532.267	14510.44
532.632	14601.96
532.998	14578.23
533.364	14563.77
533.73	14472.25
534.095	14519.25
534.461	14470.44
534.826	14504.79
535.192	14519.25
535.557	14532.13
535.923	14430.21
536.288	14408.75
536.653	14420.95
537.019	14291.46
537.384	14284.68
537.749	14251.01
538.114	14282.65
538.479	14215.08
538.845	14170.79
539.21	14112.48
539.575	14102.09
539.94	14076.32
540.305	14043.78
540.67	14073.84
541.034	14003.33
541.399	13941.64
541.764	13915.43
542.129	13803.11
542.494	13941.41
542.858	13830.46
543.223	13809.21
543.587	13823.45
543.952	13695.32
544.316	13664.81
544.681	13649.67
545.045	13648.77
545.41	13662.55
545.774	13590.46
546.138	13496.23
546.503	13450.8
546.867	13381.43
547.231	13385.5
547.595	13434.99
547.959	13418.71
548.324	13256.91
548.688	13253.97
549.052	13234.09
549.416	13184.6
549.779	13227.31
550.143	13141.21
550.507	13140.08
550.871	13149.34
551.235	13050.14
551.599	13088.33
551.962	12931.5
552.326	12959.74
552.689	12938.5
553.053	12817.15
553.417	12840.2
553.78	12919.29
554.143	12815.57
554.507	12822.8
554.87	12797.04
555.234	12856.92
555.597	12741.22
555.96	12747.32
556.323	12783.93
556.686	12621.22
557.05	12691.28
557.413	12682.46
557.776	12673.42
558.139	12651.5
558.502	12540.77
558.865	12609.47
559.228	12617.15
559.59	12577.83
559.953	12603.37
560.316	12698.28
560.679	12665.06
561.041	12653.09
561.404	12661.45
561.767	12668.23
562.129	12532.64
562.492	12717.49
562.854	12609.92
563.217	12631.17
563.579	12579.19
563.941	12616.48
564.304	12644.72
564.666	12708.9
565.028	12606.53
565.39	12613.54
565.753	12637.49
566.115	12703.71
566.477	12727.89
566.839	12714.78
567.201	12725.4
567.563	12656.25
567.925	12707.1
568.287	12680.88
568.648	12736.7
569.01	12734.89
569.372	12785.74
569.734	12765.62
570.095	12771.73
570.457	12753.42
570.819	12793.65
571.18	12742.57
571.542	12779.64
571.903	12870.25
572.265	12885.4
572.626	12896.24
572.987	12865.96
573.349	12965.85
573.71	12882.68
574.071	12834.78
574.432	12867.77
574.794	13007.88
575.155	12968.56
575.516	12879.75
575.877	12903.02
576.238	12859.41
576.599	12879.07
576.96	12881.1
577.32	12939.18
577.681	12886.3
578.042	12911.84
578.403	12873.87
578.763	12881.78
579.124	12969.69
579.485	12957.26
579.845	12904.6
580.206	12916.13
580.566	12909.35
580.927	12869.35
581.287	12945.96
581.648	12889.46
582.008	12927.88
582.368	12870.48
582.728	12937.82
583.089	12824.38
583.449	12866.19
583.809	12838.84
584.169	12883.81
584.529	12827.77
584.889	12881.55
585.249	12756.81
585.609	12790.03
585.969	12803.59
586.329	12773.53
586.688	12698.73
587.048	12758.39
587.408	12707.1
587.768	12764.04
588.127	12800.2
588.487	12655.35
588.846	12766.08
589.206	12706.42
589.565	12690.15
589.925	12740.09
590.284	12724.04
590.643	12690.6
591.003	12703.71
591.362	12811.05
591.721	12726.3
592.08	12698.96
592.44	12688.79
592.799	12734.67
593.158	12621.45
593.517	12633.88
593.876	12605.4
594.235	12559.98
594.593	12589.81
594.952	12551.39
595.311	12573.99
595.67	12506.42
596.029	12619.87
596.387	12597.72
596.746	12616.25
597.104	12548.46
597.463	12509.36
597.822	12601.79
598.18	12472.3
598.538	12510.26
598.897	12593.2
599.255	12488.34
599.613	12676.14
599.972	12597.27
600.33	12571.05
600.688	12505.52
601.046	12581.9
601.404	12641.11
601.762	12600.66
602.12	12688.34
602.478	12603.14
602.836	12588.23
603.194	12456.03
603.552	12564.27
603.91	12485.18
604.268	12572.41
604.625	12511.17
604.983	12585.74
605.341	12449.47
605.698	12552.75
606.056	12598.62
606.413	12562.24
606.771	12564.95
607.128	12572.86
607.485	12480.89
607.843	12517.5
608.2	12517.95
608.557	12620.32
608.914	12526.08
609.272	12623.71
609.629	12637.94
609.986	12689.02
610.343	12582.13
610.7	12686.76
611.057	12703.71
611.414	12697.38
611.771	12647.66
612.127	12744.61
612.484	12644.72
612.841	12608.11
613.198	12682.46
613.554	12591.17
613.911	12724.72
614.267	12696.7
614.624	12763.36
614.98	12675.23
615.337	12787.77
615.693	12786.87
616.05	12679.07
616.406	12833.19
616.762	12785.96
617.118	12678.4
617.475	12730.37
617.831	12836.36
618.187	12818.5
618.543	12772.86
618.899	12845.85
619.255	12811.27
619.611	12810.14
619.967	12896.92
620.323	13005.39
620.678	12797.04
621.034	12859.86
621.39	12840.88
621.746	12873.64
622.101	12931.72
622.457	12815.79
622.812	12846.75
623.168	12928.56
623.523	12894.43
623.879	12918.16
624.234	12784.83
624.589	12792.74
624.945	12912.29
625.3	12912.74
625.655	12868.45
626.01	12869.58
626.365	12915.23
626.72	12849.69
627.075	12888.56
627.43	12853.53
627.785	12853.31
628.14	12822.35
628.495	12872.29
628.85	12881.33
629.205	12790.48
629.559	12827.77
629.914	12787.77
630.269	12789.8
630.623	12728.34
630.978	12708.68
631.332	12809.47
631.687	12792.29
632.041	12726.3
632.396	12743.48
632.75	12716.36
633.104	12672.52
633.459	12646.08
633.813	12659.64
634.167	12642.92
634.521	12627.55
634.875	12747.09
635.229	12609.47
635.583	12631.84
635.937	12593.65
636.291	12600.88
636.645	12528.79
636.999	12568.79
637.352	12586.42
637.706	12440.66
638.06	12539.87
638.413	12479.53
638.767	12454.22
639.121	12468.46
639.474	12341.91
639.828	12406.76
640.181	12366.54
640.534	12424.39
640.888	12381.91
641.241	12281.34
641.594	12354.56
641.947	12414.67
642.301	12317.73
642.654	12285.41
643.007	12263.04
643.36	12344.17
643.713	12306.2
644.066	12272.08
644.419	12207.45
644.771	12088.58
645.124	12065.08
645.477	12115.7
645.83	11958.87
646.182	11900.79
646.535	11903.27
646.888	11946.21
647.24	11782.83
647.593	11892.88
647.945	11848.36
648.298	11846.55
648.65	11774.92
649.002	11800.9
649.355	11913.9
649.707	11911.18
650.059	11906.21
650.411	12087.68
650.763	12096.49
651.115	12211.29
651.467	12146.43
651.819	12106.66
652.171	12086.55
652.523	12106.43
652.875	12076.38
653.227	12093.1
653.578	12212.87
653.93	12171.97
654.282	12083.16
654.633	12117.96
654.985	12087.68
655.337	12131.97
655.688	12171.06
656.039	12102.14
656.391	12092.65
656.742	12135.13
657.094	12144.17
657.445	12204.51
657.796	12141.46
658.147	12070.28
658.498	12160.44
658.849	12165.41
659.2	12166.32
659.551	12156.15
659.902	12160.44
660.253	12155.25
660.604	12203.38
660.955	12107.79
661.306	12194.11
661.656	12169.26
662.007	12186.66
662.358	12134.68
662.708	12207.22
663.059	12123.83
663.409	12070.73
663.76	12232.31
664.11	12164.96
664.461	12219.42
664.811	12217.84
665.161	12190.5
665.511	12175.36
665.862	12177.84
666.212	12173.78
666.562	12146.88
666.912	12228.46
667.262	12128.13
667.612	12246.32
667.962	12176.04
668.312	12202.7
668.662	12291.29
669.011	12148.24
669.361	12243.38
669.711	12242.93
670.06	12186.43
670.41	12123.38
670.76	12196.6
671.109	12257.84
671.459	12276.82
671.808	12114.79
672.157	12212.42
672.507	12059.65
672.856	12107.34
673.205	12187.33
673.554	12074.34
673.904	12128.81
674.253	12113.44
674.602	12059.65
674.951	11942.6
675.3	11823.73
675.649	12035.25
675.998	12060.11
676.346	12020.11
676.695	11977.17
677.044	11990.5
677.393	12041.12
677.741	11931.07
678.09	11975.82
678.438	11872.31
678.787	11895.14
679.135	11933.33
679.484	11875.25
679.832	11873.22
680.181	11814.92
680.529	11850.17
680.877	11751.19
681.225	11727.69
681.573	11881.35
681.922	11785.09
682.27	11767.91
682.618	11705.77
682.966	11656.95
683.314	11665.09
683.661	11647.91
684.009	11574.92
684.357	11611.53
684.705	11535.37
685.053	11520.69
685.4	11505.54
685.748	11452.89
686.095	11460.12
686.443	11447.02
686.79	11405.66
687.138	11470.52
687.485	11350.75
687.832	11363.18
688.18	11341.71
688.527	11299.9
688.874	11256.51
689.221	11205.89
689.568	11218.09
689.915	11254.25
690.262	11186.68
690.609	11161.37
690.956	11082.28
691.303	11092.45
691.65	11016.74
691.997	10994.15
692.344	10853.36
692.69	10902.17
693.037	10912.34
693.383	10768.62
693.73	10836.18
694.077	10814.72
694.423	10828.73
694.769	10650.43
695.116	10727.26
695.462	10650.43
695.808	10621.95
696.155	10590.09
696.501	10610.2
696.847	10514.61
697.193	10425.35
697.539	10530.66
697.885	10379.92
698.231	10314.39
698.577	10296.76
698.923	10302.64
699.269	10255.41
699.614	10179.03
699.96	10149.2
700.306	10135.86
700.651	10058.8
700.997	10055.41
701.342	10040.27
701.688	9991.91
702.033	9918.24
702.379	9942.2
702.724	9885.02
703.069	9913.95
703.415	9812.93
703.76	9781.52
704.105	9847.74
704.45	9734.52
704.795	9632.83
705.14	9669.21
705.485	9663.79
705.83	9626.05
706.175	9570
706.52	9532.72
706.865	9518.93
707.209	9475.54
707.554	9464.69
707.899	9419.05
708.243	9431.48
708.588	9327.75
708.932	9311.03
709.277	9333.4
709.621	9287.52
709.966	9241.2
710.31	9287.98
710.654	9151.48
710.998	9191.93
711.342	9171.6
711.687	9134.76
712.031	9116.68
712.375	9095.21
712.719	9124.14
713.063	9069.68
713.407	9127.3
713.75	9013.18
714.094	9025.61
714.438	9014.76
714.782	8991.71
715.125	9002.79
715.469	8951.04
715.812	8951.26
716.156	8898.61
716.499	8909.91
716.843	8902.22
717.186	8871.49
717.53	8860.42
717.873	8912.84
718.216	8819.51
718.559	8769.35
718.902	8703.58
719.246	8750.36
719.589	8770.48
719.932	8701.1
720.275	8671.04
720.617	8690.7
720.96	8677.14
721.303	8639.41
721.646	8688.22
721.989	8622.91
722.331	8649.35
722.674	8591.5
723.016	8657.71
723.359	8623.13
723.701	8600.99
724.044	8606.64
724.386	8562.12
724.729	8593.53
725.071	8590.14
725.413	8583.36
725.755	8550.59
726.097	8530.48
726.439	8516.7
726.782	8530.26
727.124	8577.94
727.465	8521.44
727.807	8502.91
728.149	8519.18
728.491	8429.02
728.833	8518.96
729.175	8450.94
729.516	8478.28
729.858	8419.98
730.199	8469.24
730.541	8452.07
730.882	8452.07
731.224	8469.24
731.565	8461.11
731.906	8503.14
732.248	8399.41
732.589	8411.16
732.93	8381.11
733.271	8430.82
733.612	8382.01
733.953	8496.58
734.294	8374.78
734.635	8450.26
734.976	8503.36
735.317	8402.58
735.658	8470.14
735.999	8439.18
736.339	8460.88
736.68	8514.89
737.021	8510.82
737.361	8504.95
737.702	8506.08
738.042	8534.32
738.383	8527.09
738.723	8537.04
739.063	8488.68
739.404	8567.32
739.744	8507.43
740.084	8541.33
740.424	8543.81
740.764	8613.64
741.104	8625.85
741.444	8563.02
741.784	8570.03
742.124	8630.59
742.464	8590.82
742.804	8611.84
743.143	8693.42
743.483	8691.61
743.823	8643.7
744.162	8736.35
744.502	8738.84
744.841	8802.11
745.181	8873.52
745.52	8834.88
745.86	8946.97
746.199	8922.34
746.538	9002.11
746.877	9073.97
747.216	9081.43
747.556	9160.52
747.895	9196.45
748.234	9136.79
748.573	9249.33
748.911	9295.21
749.25	9348.99
749.589	9402.32
749.928	9528.87
750.267	9551.92
750.605	9683.22
750.944	9682.77
751.283	9790.11
751.621	9869.88
751.96	9973.61
752.298	10048.63
752.636	10174.28
752.975	10238.91
753.313	10339.25
753.651	10513.48
753.989	10524.33
754.327	10666.7
754.666	10796.41
755.004	10903.75
755.342	11104.2
755.679	11145.55
756.017	11296.51
756.355	11457.86
756.693	11552.32
757.031	11729.95
757.368	11857.63
757.706	12036.15
758.044	12138.07
758.381	12414.67
758.719	12504.39
759.056	12605.18
759.394	12761.33
759.731	12913.42
760.068	13159.96
760.405	13273.63
760.743	13398.83
761.08	13572.61
761.417	13834.75
761.754	13994.75
762.091	14134.18
762.428	14248.3
762.765	14374.17
763.102	14645.58
763.438	14788.17
763.775	14959.69
764.112	15131.21
764.449	15336.86
764.785	15591.54
765.122	15615.49
765.458	15701.14
765.795	15959.44
766.131	16149.04
766.467	16294.35
766.804	16443.72
767.14	16498.41
767.476	16639.65
767.812	16819.53
768.148	17037.6
768.485	17063.82
768.821	17125.96
769.157	17245.28
769.492	17483.92
769.828	17581.32
770.164	17608.66
770.5	17676.46
770.836	17853.17
771.171	17971.59
771.507	17981.53
771.842	18063.56
772.178	18194.18
772.513	18284.8
772.849	18387.62
773.184	18404.8
773.519	18609.76
773.855	18613.38
774.19	18676.66
774.525	18717.11
774.86	18861.28
775.195	18819.02
775.53	18830.1
775.865	18909.42
776.2	18843.21
776.535	18821.74
776.87	18981.28
777.205	19004.78
777.539	19016.76
777.874	19197.09
778.209	19104.67
778.543	19227.38
778.878	19188.96
779.212	19306.7
779.547	19233.93
779.881	19291.55
780.215	19361.16
780.55	19389.18
780.884	19325.9
781.218	19307.15
781.552	19359.58
781.886	19295.85
782.22	19287.26
782.554	19300.14
782.888	19245
783.222	19204.1
783.556	19213.14
783.889	19220.82
784.223	19114.84
784.557	19223.99
784.89	19295.4
785.224	19163.87
785.557	19105.35
785.891	19133.37
786.224	19132.01
786.558	19074.61
786.891	19040.49
787.224	19000.49
787.557	19052.69
787.891	18967.27
788.224	19014.95
788.557	18923.43
788.89	19018.34
789.223	19016.53
789.556	18907.84
789.888	18923.88
790.221	18839.36
790.554	18746.48
790.887	18743.55
791.219	18673.94
791.552	18800.04
791.884	18633.49
792.217	18643.44
792.549	18628.3
792.882	18442.09
793.214	18469.2
793.546	18499.94
793.879	18417.91
794.211	18299.72
794.543	18441.41
794.875	18439.37
795.207	18369.55
795.539	18299.49
795.871	18410.67
796.203	18180.62
796.535	18140.17
796.867	18069.21
797.198	18085.26
797.53	18006.62
797.862	17888.2
798.193	17996.22
798.525	17930.23
798.856	17949.44
799.188	17805.72
799.519	17719.39
799.85	17634.65
800.182	17623.12
800.513	17591.49
800.844	17506.74
801.175	17698.15
801.506	17591.26
801.837	17548.1
802.168	17539.96
802.499	17519.62
802.83	17353.53
803.161	17311.27
803.491	17349.91
803.822	17357.82
804.153	17247.54
804.483	17138.84
804.814	17068.56
805.145	17102.91
805.475	17082.35
805.805	17023.14
806.136	16984.04
806.466	17044.16
806.796	16975.01
807.126	16824.5
807.457	16808.46
807.787	16789.47
808.117	16746.99
808.447	16627.67
808.777	16793.77
809.107	16580.44
809.436	16675.13
809.766	16631.96
810.096	16557.39
810.426	16505.64
810.755	16536.15
811.085	16465.19
811.414	16410.27
811.744	16379.54
812.073	16287.79
812.403	16324.85
812.732	16205.53
813.061	16236.95
813.39	16156.72
813.719	16116.72
814.049	16256.83
814.378	16109.72
814.707	16107.68
815.036	16074.69
815.365	15937.74
815.693	15867.46
816.022	15859.55
816.351	15855.49
816.68	15744.53
817.008	15862.04
817.337	15683.06
817.665	15719.67
817.994	15800.12
818.322	15730.07
818.651	15611.2
818.979	15536.85
819.307	15684.64
819.636	15630.18
819.964	15504.08
820.292	15521.48
820.62	15606.68
820.948	15524.65
821.276	15566.46
821.604	15414.59
821.932	15538.89
822.259	15603.97
822.587	15420.24
822.915	15495.72
823.243	15593.57
823.57	15528.94
823.898	15444.42
824.225	15320.36
824.553	15396.74
824.88	15424.09
825.207	15487.36
825.535	15553.8
825.862	15526.23
826.189	15463.63
826.516	15578.43
826.843	15520.81
827.17	15473.12
827.497	15568.71
827.824	15534.37
828.151	15559
828.478	15557.19
828.805	15613.91
829.131	15497.98
829.458	15533.46
829.785	15491.2
830.111	15515.16
830.438	15588.6
830.764	15494.82
831.09	15511.54
831.417	15517.87
831.743	15599.67
832.069	15495.04
832.395	15387.25
832.722	15538.66
833.048	15374.37
833.374	15393.58
833.7	15326.69
834.026	15382.96
834.351	15342.73
834.677	15336.63
835.003	15415.95
835.329	15356.74
835.654	15386.8
835.98	15179.57
836.306	15246.46
836.631	15225.45
836.956	15234.49
837.282	15274.49
837.607	15229.74
837.932	15101.38
838.258	15191.78
838.583	15131.89
838.908	15037.2
839.233	15137.77
839.558	15150.19
839.883	14944.1
840.208	14933.7
840.533	14964.89
840.858	14935.96
841.182	15026.81
841.507	14921.73
841.832	14851.9
842.156	14923.76
842.481	14902.97
842.805	14799.92
843.13	14783.65
843.454	14729.41
843.778	14641.28
844.103	14726.03
844.427	14634.95
844.751	14595.41
845.075	14549.31
845.399	14548.63
845.723	14335.08
846.047	14384.57
846.371	14395.19
846.695	14401.51
847.019	14248.98
847.343	14183.67
847.666	14122.43
847.99	14125.59
848.313	14017.12
848.637	13927.85
848.96	13952.49
849.284	13902.77
849.607	13800.4
849.931	13735.54
850.254	13719.72
850.577	13627.52
850.9	13557.02
851.223	13476.79
851.546	13484.25
851.869	13352.05
852.192	13364.03
852.515	13374.42
852.838	13232.05
853.161	13249.45
853.483	13164.48
853.806	13090.14
854.129	13155.67
854.451	13091.49
854.774	13007.65
855.096	13009.23
855.419	12984.6
855.741	12859.86
856.063	12832.97
856.385	12764.72
856.708	12799.07
857.03	12659.86
857.352	12715
857.674	12604.5
857.996	12695.12
858.318	12591.39
858.64	12536.93
858.961	12547.1
859.283	12488.8
859.605	12398.18
859.926	12489.25
860.248	12347.33
860.57	12322.92
860.891	12414.45
861.212	12304.85
861.534	12244.28
861.855	12226.2
862.176	12191.18
862.498	12184.17
862.819	12179.43
863.14	12184.85
863.461	12164.28
863.782	12043.61
864.103	12130.61
864.424	12071.41
864.745	12051.75
865.065	11919.55
865.386	11932.43
865.707	12011.07
866.027	11949.15
866.348	11927.23
866.668	11922.26
866.989	11887
867.309	11805.2
867.63	11871.41
867.95	11787.8
868.27	11726.1
868.59	11766.33
868.91	11731.75
869.23	11703.28
869.55	11707.12
869.87	11720.91
870.19	11614.92
870.51	11648.82
870.83	11648.14
871.15	11617.63
871.469	11532.44
871.789	11592.32
872.109	11564.75
872.428	11429.84
872.748	11603.62
873.067	11449.73
873.386	11465.09
873.706	11494.47
874.025	11407.24
874.344	11436.39
874.663	11438.88
874.982	11432.55
875.301	11280.92
875.62	11357.98
875.939	11299.9
876.258	11350.29
876.577	11289.05
876.896	11244.76
877.214	11236.4
877.533	11234.82
877.852	11229.85
878.17	11204.08
878.489	11230.52
878.807	11146.46
879.125	11138.55
879.444	11156.18
879.762	11078.89
880.08	11110.3
880.398	11075.27
880.716	11088.15
881.034	10973.13
881.352	11055.16
881.67	11027.37
881.988	10910.76
882.306	10889.97
882.624	10906.24
882.941	10830.99
883.259	10874.83
883.577	10850.42
883.894	10749.86
884.212	10755.28
884.529	10702.4
884.846	10702.4
885.164	10684.1
885.481	10684.55
885.798	10679.13
886.115	10581.73
886.432	10602.74
886.75	10565.23
887.067	10608.62
887.383	10548.73
887.7	10504.22
888.017	10504.67
888.334	10475.74
888.651	10459.02
888.967	10395.52
889.284	10332.02
889.6	10392.81
889.917	10258.35
890.233	10349.19
890.55	10258.8
890.866	10296.31
891.182	10224
891.498	10132.25
891.815	10062.87
892.131	10053.61
892.447	10031.01
892.763	10031.01
893.079	9957.34
893.395	9992.36
893.71	9908.75
894.026	9885.93
894.342	9863.78
894.657	9870.33
894.973	9802.09
895.289	9852.93
895.604	9771.35
895.92	9721.41
896.235	9690.45
896.55	9620.17
896.865	9617.01
897.181	9580.62
897.496	9555.54
897.811	9501.98
898.126	9519.61
898.441	9441.42
898.756	9494.98
899.071	9322.1
899.386	9424.7
899.7	9250.91
900.015	9238.94
900.33	9285.26
900.644	9205.27
900.959	9252.95
901.273	9140.18
901.588	9147.19
901.902	9109.9
902.216	9077.59
902.531	9105.61
902.845	8978.38
903.159	8914.2
903.473	8969.79
903.787	8911.26
904.101	8836.24
904.415	8767.54
904.729	8817.93
905.042	8744.49
905.356	8729.8
905.67	8624.94
905.984	8650.48
906.297	8638.73
906.611	8520.76
906.924	8528.45
907.237	8512.86
907.551	8462.46
907.864	8469.69
908.177	8424.95
908.491	8409.36
908.804	8365.97
909.117	8309.47
909.43	8255.91
909.743	8227.44
910.056	8197.84
910.368	8169.81
910.681	8130.49
910.994	8176.59
911.307	8092.08
911.619	8044.62
911.932	7991.51
912.244	7959.2
912.557	7954.9
912.869	7882.59
913.181	7832.2
913.494	7859.31
913.806	7862.25
914.118	7810.05
914.43	7750.16
914.742	7819.31
915.054	7690.73
915.366	7623.84
915.678	7596.27
915.99	7612.99
916.302	7554.24
916.613	7430.85
916.925	7470.4
917.236	7526.67
917.548	7436.27
917.859	7431.53
918.171	7346.56
918.482	7302.27
918.794	7340.91
919.105	7321.7
919.416	7217.52
919.727	7246.67
920.038	7273.79
920.349	7142.5
920.66	7097.07
920.971	7091.2
921.282	7156.51
921.593	7053.23
921.903	7028.83
922.214	6957.19
922.525	7012.33
922.835	6933.91
923.146	6905.44
923.456	6872.9
923.767	6890.3
924.077	6833.58
924.387	6820.47
924.697	6763.52
925.008	6803.97
925.318	6731.66
925.628	6707.25
925.938	6693.92
926.248	6606.01
926.558	6572.12
926.867	6591.32
927.177	6537.54
927.487	6525.34
927.796	6457.54
928.106	6540.25
928.416	6453.47
928.725	6439.46
929.034	6353.14
929.344	6336.19
929.653	6346.36
929.962	6309.07
930.271	6239.02
930.581	6218.23
930.89	6199.02
931.199	6191.33
931.508	6171.22
931.817	6106.14
932.125	6145.91
932.434	6112.01
932.743	6066.82
933.051	6043.99
933.36	6011.45
933.669	5958.57
933.977	5989.53
934.286	5987.72
934.594	5921.51
934.902	5868.63
935.21	5887.16
935.519	5810.33
935.827	5828.41
936.135	5822.3
936.443	5752.48
936.751	5732.36
937.059	5747.5
937.367	5678.58
937.674	5682.2
937.982	5719.26
938.29	5635.87
938.597	5654.17
938.905	5516.78
939.213	5524.69
939.52	5521.97
939.827	5511.8
940.135	5464.8
940.442	5474.74
940.749	5434.52
941.056	5468.87
941.363	5386.84
941.67	5417.8
941.977	5392.94
942.284	5340.28
942.591	5320.4
942.898	5292.6
943.205	5243.11
943.511	5236.11
943.818	5256.44
944.125	5190
944.431	5169.89
944.738	5181.42
945.044	5124.92
945.35	5074.98
945.657	5060.52
945.963	5040.63
946.269	4999.28
946.575	5015.32
946.881	5018.26
947.187	4954.98
947.493	4989.11
947.799	4910.92
948.105	4915.66
948.41	4824.59
948.716	4834.53
949.022	4855.32
949.327	4837.02
949.633	4751.82
949.938	4769.45
950.244	4794.53
950.549	4755.89
950.854	4732.62
951.16	4674.31
951.465	4721.99
951.77	4620.3
952.075	4633.41
952.38	4639.96
952.685	4564.03
952.99	4556.35
953.294	4594.09
953.599	4517.93
953.904	4507.31
954.209	4460.76
954.513	4445.62
954.818	4459.4
955.122	4413.75
955.426	4405.62
955.731	4401.78
956.035	4389.12
956.339	4338.73
956.643	4399.29
956.948	4340.08
957.252	4292.18
957.556	4312.29
957.86	4230.26
958.163	4247.88
958.467	4256.24
958.771	4204.72
959.075	4192.52
959.378	4190.26
959.682	4160.43
959.985	4137.83
960.289	4143.48
960.592	4141.9
960.896	4091.5
961.199	4080.2
961.502	4023.71
961.805	4006.53
962.108	4000.43
962.411	3969.25
962.714	3993.2
963.017	3966.31
963.32	3980.09
963.623	3927.67
963.926	3957.27
964.228	3895.12
964.531	3880.89
964.833	3888.12
965.136	3875.92
965.438	3858.06
965.741	3805.63
966.043	3837.05
966.345	3813.09
966.648	3749.82
966.95	3741.46
967.252	3722.25
967.554	3710.72
967.856	3672.53
968.158	3649.25
968.46	3698.74
968.761	3724.73
969.063	3606.77
969.365	3631.63
969.666	3645.19
969.968	3617.39
970.269	3538.75
970.571	3575.81
970.872	3532.87
971.174	3504.63
971.475	3552.76
971.776	3500.56
972.077	3479.32
972.378	3490.61
972.679	3450.16
972.98	3430.95
973.281	3465.3
973.582	3403.84
973.883	3370.62
974.183	3344.63
974.484	3382.14
974.785	3380.33
975.085	3347.79
975.386	3311.18
975.686	3339.43
975.986	3320.22
976.287	3305.99
976.587	3259.21
976.887	3247.01
977.187	3214.92
977.487	3253.11
977.787	3201.81
978.087	3189.38
978.387	3179.66
978.687	3177.63
978.987	3115.48
979.286	3099.66
979.586	3111.19
979.885	3138.76
980.185	3091.53
980.484	3062.6
980.784	3041.13
981.083	3039.33
981.382	3019.21
981.682	3007.69
981.981	3009.05
982.28	2991.19
982.579	3000.46
982.878	2975.83
983.177	2953.68
983.475	2948.93
983.774	2922.95
984.073	2881.82
984.372	2891.99
984.67	2909.39
984.969	2915.26
985.267	2873.68
985.566	2863.29
985.864	2808.37
986.162	2826.45
986.461	2816.28
986.759	2807.02
987.057	2726.79
987.355	2749.17
987.653	2746.68
987.951	2721.14
988.249	2708.94
988.547	2740.13
988.844	2692.67
989.142	2696.74
989.44	2674.82
989.737	2666
990.035	2662.84
990.332	2637.98
990.63	2617.64
990.927	2645.21
991.224	2599.56
991.521	2595.95
991.819	2559.57
992.116	2585.1
992.413	2539.23
992.71	2534.26
993.006	2551.2
993.303	2541.26
993.6	2525.67
993.897	2503.07
994.193	2516.18
994.49	2497.19
994.787	2472.11
995.083	2477.76
995.379	2422.85
995.676	2433.24
995.972	2396.86
996.268	2348.72
996.565	2394.82
996.861	2377.42
997.157	2392.56
997.453	2376.75
997.749	2350.53
998.044	2333.81
998.34	2321.83
998.636	2327.03
998.932	2314.15
999.227	2321.15
999.523	2291.78
999.818	2242.74
1000.114	2253.36
1000.409	2242.74
1000.704	2228.73
1001	2233.47
1001.295	2202.96
1001.59	2200.48
1001.885	2206.58
1002.18	2195.51
1002.475	2164.77
1002.77	2154.38
1003.065	2118.67
1003.359	2110.99
1003.654	2108.28
1003.949	2091.1
1004.243	2037.55
1004.538	2084.78
1004.832	2061.5
1005.127	2027.38
1005.421	2046.58
1005.715	2023.53
1006.009	2039.13
1006.304	2012.91
1006.598	1971.33
1006.892	1987.83
1007.186	1953.25
1007.48	1954.16
1007.773	1966.36
1008.067	1922.75
1008.361	1913.25
1008.655	1936.76
1008.948	1907.15
1009.242	1902.86
1009.535	1897.21
1009.829	1861.96
1010.122	1868.74
1010.415	1853.82
1010.708	1827.83
1011.001	1828.51
1011.295	1814.27
1011.588	1815.18
1011.881	1783.99
1012.173	1781.51
1012.466	1773.82
1012.759	1769.98
1013.052	1770.43
1013.344	1774.05
1013.637	1723.66
1013.93	1726.82
1014.222	1737.89
1014.514	1702.19
1014.807	1717.55
1015.099	1699.93
1015.391	1699.93
1015.683	1671.23
1015.976	1690.44
1016.268	1666.26
1016.56	1644.34
1016.851	1611.12
1017.143	1627.16
1017.435	1632.81
1017.727	1611.34
1018.018	1555.52
1018.31	1564.34
1018.602	1565.24
1018.893	1539.03
1019.185	1548.74
1019.476	1513.27
1019.767	1513.27
1020.058	1512.81
1020.35	1476.66
1020.641	1504.45
1020.932	1485.24
1021.223	1471.68
1021.514	1465.58
1021.804	1465.13
1022.095	1429.2
1022.386	1432.14
1022.677	1428.75
1022.967	1404.79
1023.258	1413.38
1023.548	1385.36
1023.839	1387.62
1024.129	1414.28
1024.419	1410.22
1024.709	1363.21
1025	1344
1025.29	1360.95
1025.58	1336.55
1025.87	1314.17
1026.16	1311.46
1026.449	1306.72
1026.739	1310.56
1027.029	1324.34
1027.319	1304.68
1027.608	1283.89
1027.898	1257.23
1028.187	1260.62
1028.477	1225.14
1028.766	1248.64
1029.055	1258.81
1029.344	1221.97
1029.634	1200.51
1029.923	1197.57
1030.212	1223.33
1030.501	1210.22
1030.79	1190.34
1031.078	1207.51
1031.367	1167.51
1031.656	1174.07
1031.945	1160.51
1032.233	1148.3
1032.522	1139.49
1032.81	1135.2
1033.099	1126.61
1033.387	1122.32
1033.675	1074.86
1033.963	1098.59
1034.251	1090.23
1034.54	1122.32
1034.828	1096.78
1035.116	1075.54
1035.403	1072.37
1035.691	1078.25
1035.979	1059.94
1036.267	1028.31
1036.554	1032.15
1036.842	1041.41
1037.129	1028.08
1037.417	1038.48
1037.704	1012.49
1037.992	1019.94
1038.279	994.63
1038.566	992.15
1038.853	992.15
1039.14	992.15
