Data from hue_50_FLMS001491_79.txt Node
Date: Mon Feb 06 15:10:58 GMT 2017
User: dcchb
Spectrometer: FLMS00149
Trigger mode: 0
Integration Time (sec): 2.000000E-2
Scans to average: 10
Electric dark correction enabled: true
Nonlinearity correction enabled: false
Boxcar width: 0
XAxis mode: Wavelengths
Number of Pixels in Spectrum: 2048
>>>>>Begin Spectral Data<<<<<
341.393	-5.41
341.776	-5.41
342.16	-5.41
342.543	-55.8
342.927	-75.24
343.31	-79.31
343.693	-75.92
344.077	-56.26
344.46	-78.18
344.843	-30.04
345.226	-41.79
345.61	-46.99
345.993	-16.26
346.376	-2.7
346.759	4.53
347.142	24.65
347.525	44.98
347.908	48.6
348.291	97.19
348.674	98.77
349.057	108.71
349.44	148.03
349.823	139.45
350.206	158.65
350.588	202.49
350.971	203.17
351.354	212.89
351.737	255.15
352.119	241.14
352.502	265.32
352.884	294.02
353.267	291.31
353.65	311.42
354.032	290.63
354.414	335.15
354.797	316.16
355.179	320.91
355.562	332.43
355.944	335.15
356.326	355.03
356.709	345.54
357.091	349.84
357.473	352.1
357.855	346.9
358.238	352.55
358.62	328.82
359.002	339.21
359.384	321.36
359.766	348.48
360.148	339.21
360.53	343.96
360.912	360.68
361.294	341.7
361.676	326.33
362.057	342.6
362.439	341.47
362.821	326.79
363.203	341.93
363.584	318.65
363.966	315.49
364.348	327.24
364.729	330.17
365.111	351.64
365.493	329.27
365.874	336.95
366.256	328.59
366.637	343.06
367.019	338.76
367.4	324.07
367.781	306.45
368.163	322.94
368.544	303.28
368.925	336.73
369.306	331.3
369.688	319.33
370.069	342.6
370.45	320.01
370.831	318.42
371.212	302.83
371.593	322.49
371.974	312.1
372.355	311.42
372.736	314.36
373.117	347.35
373.498	318.2
373.879	331.08
374.26	324.07
374.641	316.39
375.021	320.68
375.402	333.56
375.783	331.76
376.163	335.37
376.544	329.5
376.925	330.85
377.305	325.88
377.686	336.05
378.066	316.16
378.447	312.77
378.827	336.28
379.208	324.07
379.588	326.33
379.968	345.09
380.349	304.19
380.729	316.84
381.109	358.42
381.489	357.52
381.87	330.4
382.25	332.21
382.63	355.03
383.01	349.38
383.39	344.86
383.77	337.18
384.15	328.59
384.53	337.41
384.91	360.68
385.29	354.36
385.67	334.02
386.049	330.63
386.429	340.12
386.809	352.1
387.189	363.62
387.568	361.36
387.948	353.45
388.328	366.33
388.707	370.63
389.087	365.2
389.466	372.66
389.846	340.8
390.225	348.93
390.605	363.85
390.984	347.8
391.363	365.2
391.743	357.52
392.122	370.85
392.501	369.27
392.881	403.39
393.26	374.24
393.639	378.31
394.018	375.82
394.397	374.47
394.776	380.8
395.155	383.28
395.534	387.35
395.913	381.47
396.292	373.79
396.671	384.18
397.05	378.08
397.429	374.69
397.808	400
398.186	385.09
398.565	376.05
398.944	379.89
399.323	380.8
399.701	392.77
400.08	379.21
400.458	394.58
400.837	396.39
401.215	396.61
401.594	402.94
401.972	405.43
402.351	372.43
402.729	414.24
403.107	394.81
403.486	420.12
403.864	412.43
404.242	427.8
404.62	400.91
404.999	392.77
405.377	390.29
405.755	414.92
406.133	419.44
406.511	425.54
406.889	416.73
407.267	422.83
407.645	433.68
408.023	427.12
408.401	427.8
408.779	418.76
409.156	438.87
409.534	448.59
409.912	416.95
410.29	437.52
410.667	449.95
411.045	459.21
411.422	451.3
411.8	440.91
412.178	443.84
412.555	435.71
412.933	446.33
413.31	469.83
413.687	456.05
414.065	458.31
414.442	452.43
414.819	458.76
415.197	468.25
415.574	465.31
415.951	462.37
416.328	479.1
416.705	464.63
417.082	490.4
417.46	482.26
417.837	500.34
418.214	498.53
418.591	507.57
418.967	480.45
419.344	474.35
419.721	494.69
420.098	504.86
420.475	502.15
420.852	500.11
421.228	514.35
421.605	506.89
421.982	504.41
422.358	528.14
422.735	510.96
423.111	496.27
423.488	521.13
423.864	520.45
424.241	531.07
424.617	530.62
424.994	520.45
425.37	538.76
425.746	524.75
426.123	556.84
426.499	535.14
426.875	557.29
427.251	538.76
427.627	563.84
428.003	545.76
428.379	568.13
428.756	572.88
429.132	574.46
429.507	569.49
429.883	599.55
430.259	615.37
430.635	594.12
431.011	603.84
431.387	633.67
431.763	632.99
432.138	598.42
432.514	614.69
432.89	598.87
433.265	617.4
433.641	603.39
434.016	621.92
434.392	644.74
434.767	652.2
435.143	622.82
435.518	626.89
435.894	633.44
436.269	658.75
436.644	655.36
437.02	665.31
437.395	658.75
437.77	666.66
438.145	677.51
438.52	689.49
438.895	686.32
439.271	674.57
439.646	715.25
440.021	700.11
440.395	709.6
440.77	690.62
441.145	708.92
441.52	684.74
441.895	726.77
442.27	719.54
442.645	713.44
443.019	738.53
443.394	724.97
443.769	725.19
444.143	749.15
444.518	743.27
444.892	763.38
445.267	746.44
445.641	741.24
446.016	725.87
446.39	743.95
446.764	766.55
447.139	765.87
447.513	770.39
447.887	776.04
448.262	781.24
448.636	789.37
449.01	814.68
449.384	790.73
449.758	787.34
450.132	796.38
450.506	824.17
450.88	788.02
451.254	804.96
451.628	812.2
452.002	837.05
452.376	838.64
452.75	817.85
453.123	837.28
453.497	865.08
453.871	869.82
454.244	866.43
454.618	874.79
454.992	918.86
455.365	883.38
455.739	910.95
456.112	896.26
456.486	912.98
456.859	936.94
457.232	937.62
457.606	946.43
457.979	966.99
458.352	957.96
458.725	963.15
459.099	978.29
459.472	995.69
459.845	988.69
460.218	1012.64
460.591	995.02
460.964	1042.02
461.337	1034.34
461.71	1055.13
462.083	1104.62
462.456	1055.58
462.829	1086.77
463.201	1109.36
463.574	1118.4
463.947	1154.79
464.32	1151.62
464.692	1145.52
465.065	1166.31
465.438	1178.51
465.81	1190.94
466.183	1195.24
466.555	1240.66
466.928	1241.56
467.3	1253.77
467.672	1276.59
468.045	1310.49
468.417	1326.53
468.789	1295.12
469.161	1340.54
469.534	1392.97
469.906	1427.77
470.278	1413.08
470.65	1428.23
471.022	1478.39
471.394	1504.38
471.766	1529.47
472.138	1528.34
472.51	1571.72
472.882	1620.31
473.253	1666.19
473.625	1696.92
473.997	1736.24
474.369	1740.08
474.74	1773.75
475.112	1826.41
475.484	1922
475.855	1918.38
476.227	1931.94
476.598	2002.67
476.97	2033.41
477.341	2105.04
477.713	2142.78
478.084	2192.27
478.455	2272.72
478.827	2303.68
479.198	2410.35
479.569	2430.23
479.94	2528.76
480.311	2623.45
480.682	2672.49
481.053	2750.68
481.424	2848.3
481.795	2898.02
482.166	2946.6
482.537	3027.51
482.908	3116.32
483.279	3219.59
483.65	3309.08
484.021	3415.07
484.391	3526.93
484.762	3594.27
485.133	3715.4
485.503	3814.6
485.874	3914.94
486.244	3983.86
486.615	4144.99
486.985	4221.37
487.356	4348.15
487.726	4428.15
488.097	4623.62
488.467	4652.32
488.837	4807.12
489.207	4973.44
489.578	5093.89
489.948	5193.55
490.318	5308.58
490.688	5431.06
491.058	5572.75
491.428	5693.88
491.798	5818.62
492.168	6014.77
492.538	6121.89
492.908	6231.26
493.278	6420.86
493.648	6499.05
494.017	6645.94
494.387	6768.2
494.757	6925.48
495.126	7066.49
495.496	7139.26
495.866	7285.47
496.235	7401.4
496.605	7553.71
496.974	7640.27
497.344	7825.35
497.713	7933.36
498.082	8061.72
498.452	8228.72
498.821	8314.37
499.19	8441.37
499.559	8574.48
499.928	8713.68
500.298	8747.81
500.667	8982.83
501.036	9005.43
501.405	9191.86
501.774	9254.23
502.143	9384.4
502.512	9527.22
502.88	9595.47
503.249	9691.74
503.618	9837.04
503.987	9920.88
504.356	10068.45
504.724	10181.44
505.093	10283.59
505.462	10418.72
505.83	10449
506.199	10620.07
506.567	10813.06
506.936	10859.84
507.304	10971.93
507.672	11082.21
508.041	11229.32
508.409	11351.13
508.777	11456.66
509.145	11578.69
509.514	11630.67
509.882	11768.07
510.25	11865.24
510.618	11952.69
510.986	12067.95
511.354	12195.85
511.722	12335.73
512.09	12474.71
512.458	12563.53
512.826	12683.07
513.193	12792.22
513.561	12767.14
513.929	12875.61
514.297	12991.54
514.664	13192.66
515.032	13229.04
515.4	13455.71
515.767	13489.15
516.135	13631.97
516.502	13565.31
516.869	13817.28
517.237	13907.9
517.604	13826.32
517.972	13998.74
518.339	14156.48
518.706	14199.19
519.073	14319.41
519.44	14458.62
519.808	14592.4
520.175	14547.88
520.542	14772.28
520.909	14873.97
521.276	14922.79
521.643	15110.8
522.009	15175.21
522.376	15261.99
522.743	15428.08
523.11	15645.7
523.477	15748.3
523.843	15772.71
524.21	16018.8
524.577	16107.84
524.943	16165.46
525.31	16267.38
525.676	16426.93
526.043	16575.17
526.409	16666.69
526.776	16798.22
527.142	16934.03
527.508	16971.55
527.874	17132.67
528.241	17204.76
528.607	17240.69
528.973	17455.83
529.339	17424.87
529.705	17643.84
530.071	17797.29
530.437	17913.89
530.803	17981.46
531.169	18129.71
531.535	18058.75
531.901	18242.92
532.267	18260.1
532.632	18412.86
532.998	18420.32
533.364	18620.54
533.73	18589.36
534.095	18762.68
534.461	18801.1
534.826	19037.03
535.192	18984.83
535.557	19178.04
535.923	19227.98
536.288	19315.21
536.653	19396.34
537.019	19337.36
537.384	19458.03
537.749	19549.33
538.114	19629.55
538.479	19632.49
538.845	19720.63
539.21	19771.47
539.575	19892.15
539.94	19910.23
540.305	20055.31
540.67	20081.97
541.034	20120.39
541.399	20180.5
541.764	20323.77
542.129	20368.52
542.494	20460.72
542.858	20479.7
543.223	20495.52
543.587	20709.98
543.952	20687.61
544.316	20754.27
544.681	20781.84
545.045	20926.92
545.41	21048.05
545.774	21068.16
546.138	21022.51
546.503	21163.3
546.867	21173.69
547.231	21337.76
547.595	21426.12
547.959	21482.61
548.324	21489.62
548.688	21531.2
549.052	21643.29
549.416	21643.74
549.779	21833.11
550.143	21822.72
550.507	21980
550.871	22009.38
551.235	22161.24
551.599	22275.81
551.962	22189.71
552.326	22351.29
552.689	22505.19
553.053	22535.69
553.417	22552.64
553.78	22857.04
554.143	22682.58
554.507	22835.12
554.87	22901.33
555.234	23096.58
555.597	23065.85
555.96	23104.27
556.323	23229.23
556.686	23170.7
557.05	23449.12
557.413	23437.59
557.776	23492.28
558.139	23619.73
558.502	23754.42
558.865	23834.42
559.228	24065.37
559.59	24066.95
559.953	24125.93
560.316	24348.53
560.679	24322.76
561.041	24508.07
561.404	24598.92
561.767	24682.08
562.129	24614.96
562.492	24925.91
562.854	24885.69
563.217	24873.03
563.579	25058.56
563.941	25203.87
564.304	25360.48
564.666	25446.12
565.028	25556.86
565.39	25584.43
565.753	25881.14
566.115	25878.88
566.477	26035.94
566.839	25983.51
567.201	26172.43
567.563	26173.11
567.925	26385.76
568.287	26472.31
568.648	26604.96
569.01	26641.8
569.372	26919.53
569.734	26697.62
570.095	26898.06
570.457	27044.5
570.819	27126.76
571.18	27184.84
571.542	27235.68
571.903	27305.96
572.265	27493.75
572.626	27653.75
572.987	27713.64
573.349	27810.58
573.71	27852.62
574.071	27946.62
574.432	28054.87
574.794	28302.77
575.155	28320.85
575.516	28216
575.877	28423.22
576.238	28486.27
576.599	28629.54
576.96	28590.67
577.32	28603.78
577.681	28853.94
578.042	28953.83
578.403	29106.37
578.763	29138.46
579.124	29180.04
579.485	29416.64
579.845	29533.93
580.206	29380.71
580.566	29484.89
580.927	29692.34
581.287	29872.22
581.648	29747.93
582.008	30013.91
582.368	29913.58
582.728	30155.15
583.089	30303.4
583.449	30403.96
583.809	30399.89
584.169	30615.25
584.529	30518.08
584.889	30858.64
585.249	30801.46
585.609	30792.65
585.969	31040.78
586.329	31067.22
586.688	31209.81
587.048	31219.76
587.408	31200.78
587.768	31322.58
588.127	31512.41
588.487	31591.05
588.846	31876.92
589.206	31698.84
589.565	31822.91
589.925	31937.93
590.284	32026.52
590.643	32240.52
591.003	32385.83
591.362	32455.21
591.721	32446.84
592.08	32585.37
592.44	32840.96
592.799	32748.08
593.158	32994.85
593.517	32956.66
593.876	33050.9
594.235	33097.9
594.593	33298.57
594.952	33311.23
595.311	33436.65
595.67	33530.21
596.029	33847.03
596.387	33885.45
596.746	33776.98
597.104	33821.72
597.463	33821.95
597.822	34116.63
598.18	34029.85
598.538	34030.31
598.897	34365.66
599.255	34208.61
599.613	34711.64
599.972	34594.13
600.33	34677.75
600.688	34613.12
601.046	34788.25
601.404	34893.11
601.762	35063.05
602.12	35168.81
602.478	35197.51
602.836	35354.56
603.194	35224.17
603.552	35334.45
603.91	35196.15
604.268	35478.4
604.625	35539.42
604.983	35700.32
605.341	35585.75
605.698	35800.43
606.056	35899.41
606.413	35976.47
606.771	36083.59
607.128	36140.76
607.485	35964.49
607.843	36198.16
608.2	36246.74
608.557	36533.29
608.914	36329.23
609.272	36534.87
609.629	36631.14
609.986	36851.93
610.343	36617.58
610.7	37026.84
611.057	37023
611.414	36913.85
611.771	36971.02
612.127	37336.21
612.484	37337.56
612.841	37441.52
613.198	37352.48
613.554	37387.73
613.911	37568.52
614.267	37727.61
614.624	37675.63
614.98	37713.37
615.337	37987.04
615.693	37967.6
616.05	37891.22
616.406	38093.7
616.762	37989.52
617.118	38042.63
617.475	38109.97
617.831	38187.71
618.187	38249.4
618.543	38420.47
618.899	38481.94
619.255	38469.74
619.611	38515.39
619.967	38611.43
620.323	38718.77
620.678	38703.63
621.034	38612.78
621.39	38624.99
621.746	38598.77
622.101	39048.93
622.457	38654.36
622.812	38941.14
623.168	39062.49
623.523	38946.79
623.879	39063.62
624.234	38809.84
624.589	39168.02
624.945	39096.84
625.3	39195.82
625.655	39253.45
626.01	39162.6
626.365	39220.23
626.72	39195.37
627.075	39240.34
627.43	39183.62
627.785	39304.52
628.14	39241.92
628.495	39211.41
628.85	39112.66
629.205	39238.08
629.559	39471.52
629.914	39217.51
630.269	39196.27
630.623	39180.68
630.978	39196.27
631.332	39251.41
631.687	39437.62
632.041	39402.37
632.396	39307.23
632.75	39245.76
633.104	39297.06
633.459	39034.02
633.813	39180.68
634.167	39141.58
634.521	39202.83
634.875	39185.42
635.229	39171.41
635.583	38857.07
635.937	38945.66
636.291	38801.93
636.645	38950.63
636.999	38833.12
637.352	39122.83
637.706	38880.8
638.06	38988.14
638.413	38904.98
638.767	38825.21
639.121	38885.77
639.474	38758.54
639.828	38686.91
640.181	38638.32
640.534	38703.86
640.888	38667.47
641.241	38578.21
641.594	38592.9
641.947	38698.21
642.301	38650.52
642.654	38570.07
643.007	38544.09
643.36	38582.95
643.713	38423.18
644.066	38561.94
644.419	38306.35
644.771	38213.7
645.124	37851.22
645.477	37804.44
645.83	37457.11
646.182	37414.17
646.535	37340.05
646.888	37341.63
647.24	37083.33
647.593	37434.06
647.945	37433.38
648.298	37110.45
648.65	37150.22
649.002	37026.84
649.355	37188.87
649.707	37206.72
650.059	37191.35
650.411	37709.53
650.763	37746.37
651.115	38012.35
651.467	37994.5
651.819	37987.04
652.171	37862.52
652.523	37743.88
652.875	37882.63
653.227	37667.95
653.578	37897.32
653.93	37765.35
654.282	37682.41
654.633	37498.92
654.985	37716.08
655.337	37759.93
655.688	37716.08
656.039	37800.15
656.391	37444.91
656.742	37433.83
657.094	37569.87
657.445	37703.43
657.796	37533.94
658.147	37446.71
658.498	37514.96
658.849	37456.43
659.2	37517.9
659.551	37458.24
659.902	37599.25
660.253	37344.34
660.604	37480.61
660.955	37301.86
661.306	37399.48
661.656	37347.05
662.007	37415.98
662.358	37331.24
662.708	37425.02
663.059	37321.29
663.409	37125.59
663.76	37371.69
664.11	37462.08
664.461	37374.17
664.811	37399.93
665.161	37518.58
665.511	37203.78
665.862	37309.54
666.212	37356.77
666.562	37327.17
666.912	37270.67
667.262	37337.56
667.612	37151.13
667.962	37409.2
668.312	37172.6
668.662	37424.57
669.011	37331.46
669.361	37211.92
669.711	37104.35
670.06	37184.57
670.41	37116.1
670.76	36973.28
671.109	37255.98
671.459	37157.46
671.808	37019.38
672.157	37238.36
672.507	36919.5
672.856	37015.09
673.205	36956.78
673.554	37114.97
673.904	36986.16
674.253	37067.51
674.602	36928.76
674.951	36527.19
675.3	36256.91
675.649	36946.16
675.998	36816.67
676.346	36861.87
676.695	36891.7
677.044	36618.71
677.393	36873.39
677.741	36829.78
678.09	36652.61
678.438	36658.03
678.787	36714.53
679.135	36626.17
679.484	36359.74
679.832	36631.37
680.181	36437.25
680.529	36447.64
680.877	36386.85
681.225	36391.15
681.573	36523.8
681.922	36329.45
682.27	36163.58
682.618	36315.67
682.966	36116.8
683.314	36194.99
683.661	36229.8
684.009	36051.72
684.357	35942.35
684.705	35878.84
685.053	35882.23
685.4	35868.45
685.748	35678.62
686.095	35706.42
686.443	35563.82
686.79	35611.51
687.138	35557.5
687.485	35637.5
687.832	35399.76
688.18	35422.13
688.527	35211.29
688.874	35155.7
689.221	35147.79
689.568	34960.9
689.915	34962.48
690.262	34885.2
690.609	34830.96
690.956	34778.08
691.303	34787.35
691.65	34630.52
691.997	34625.54
692.344	34276.85
692.69	34375.16
693.037	34421.48
693.383	34157.76
693.73	34280.69
694.077	34008.16
694.423	33996.18
694.769	34001.61
695.116	33708.96
695.462	33836.19
695.808	33596.19
696.155	33849.52
696.501	33513.71
696.847	33465.35
697.193	33200.05
697.539	33432.13
697.885	33095.64
698.231	33055.19
698.577	33051.35
698.923	32956.66
699.269	32853.61
699.614	32697.23
699.96	32582.43
700.306	32730.45
700.651	32449.1
700.997	32461.31
701.342	32454.75
701.688	32344.7
702.033	32324.81
702.379	32214.53
702.724	32066.52
703.069	32166.85
703.415	31776.81
703.76	31893.41
704.105	31896.35
704.45	31683.02
704.795	31668.33
705.14	31529.81
705.485	31502.46
705.83	31395.12
706.175	31383.82
706.52	31293.88
706.865	31211.4
707.209	31143.38
707.554	31081.23
707.899	31091.85
708.243	30962.82
708.588	30839.43
708.932	30702.94
709.277	30679.43
709.621	30761.69
709.966	30516.95
710.31	30543.17
710.654	30261.14
710.998	30369.61
711.342	30381.59
711.687	30290.97
712.031	30150.86
712.375	29978.89
712.719	30109.5
713.063	29914.48
713.407	30182.05
713.75	29899.79
714.094	29915.84
714.438	29796.07
714.782	29811.21
715.125	29737.31
715.469	29770.3
715.812	29570.54
716.156	29377.32
716.499	29423.65
716.843	29498.9
717.186	29276.98
717.53	29421.39
717.873	29354.95
718.216	29277.21
718.559	29186.59
718.902	28994.28
719.246	29086.25
719.589	28892.36
719.932	28807.84
720.275	28884
720.617	28784.79
720.96	28609.66
721.303	28699.82
721.646	28796.09
721.989	28557.46
722.331	28699.82
722.674	28632.93
723.016	28664.12
723.359	28491.24
723.701	28413.05
724.044	28361.75
724.386	28196.11
724.729	28226.16
725.071	28178.26
725.413	28130.57
725.755	28218.71
726.097	28013.51
726.439	27802.22
726.782	28033.85
727.124	27940.52
727.465	27858.49
727.807	27848.1
728.149	27769.23
728.491	27751.37
728.833	27697.59
729.175	27601.1
729.516	27703.92
729.858	27445.17
730.199	27582.11
730.541	27478.16
730.882	27462.57
731.224	27551.15
731.565	27333.53
731.906	27277.49
732.248	27373.08
732.589	27204.72
732.93	27151.84
733.271	27249.24
733.612	27256.02
733.953	27229.35
734.294	27145.52
734.635	27012.86
734.976	27035.46
735.317	26877.05
735.658	26868.46
735.999	26868.91
736.339	26793.43
736.68	26886.99
737.021	26740.55
737.361	26691.06
737.702	26868.46
738.042	26719.09
738.383	26673.44
738.723	26755.24
739.063	26514.57
739.404	26497.62
739.744	26549.82
740.084	26337.85
740.424	26383.05
740.764	26355.03
741.104	26366.55
741.444	26276.16
741.784	26208.36
742.124	26204.52
742.464	26200.91
742.804	26172.89
743.143	26036.62
743.483	26064.64
743.823	25949.61
744.162	25796.4
744.502	25964.98
744.841	25877.98
745.181	25927.47
745.52	25702.16
745.86	25788.26
746.199	25670.53
746.538	25732.9
746.877	25778.32
747.216	25738.77
747.556	25632.33
747.895	25608.15
748.234	25444.77
748.573	25520.47
748.911	25291.78
749.25	25414.71
749.589	25234.83
749.928	25373.13
750.267	25330.2
750.605	25192.35
750.944	25123.2
751.283	25183.53
751.621	25239.8
751.96	24922.97
752.298	25007.04
752.636	24878.46
752.975	24882.75
753.313	24892.69
753.651	24831.68
753.989	24659.7
754.327	24807.5
754.666	24587.84
755.004	24596.2
755.342	24545.13
755.679	24430.33
756.017	24432.14
756.355	24407.06
756.693	24333.16
757.031	24424.68
757.368	24198.7
757.706	24157.12
758.044	24099.72
758.381	24104.69
758.719	24078.7
759.056	23996.22
759.394	23964.58
759.731	23724.36
760.068	23783.57
760.405	23594.87
760.743	23629.22
761.08	23737.92
761.417	23412.96
761.754	23405.27
762.091	23311.27
762.428	23364.15
762.765	23133.19
763.102	23253.87
763.438	23095.9
763.775	23075.34
764.112	23066.07
764.449	22969.58
764.785	22934.1
765.122	22811.84
765.458	22710.83
765.795	22657.5
766.131	22594.45
766.467	22582.47
766.804	22404.85
767.14	22277.39
767.476	22297.96
767.812	22152.65
768.148	22223.38
768.485	22078.98
768.821	22003.28
769.157	21898.87
769.492	21923.05
769.828	21892.77
770.164	21658.65
770.5	21591.76
770.836	21577.53
771.171	21556.06
771.507	21413.01
771.842	21295.95
772.178	21210.98
772.513	21204.65
772.849	21128.72
773.184	21085.56
773.519	20967.15
773.855	20907.04
774.19	20772.35
774.525	20787.49
774.86	20730.99
775.195	20644.44
775.53	20557.44
775.865	20562.86
776.2	20320.61
776.535	20213.72
776.87	20145.93
777.205	20161.52
777.539	19970.79
777.874	20093.95
778.209	19883.56
778.543	19849.44
778.878	19670.23
779.212	19783.45
779.547	19671.59
779.881	19646.96
780.215	19454.87
780.55	19548.65
780.884	19461.88
781.218	19366.96
781.552	19280.86
781.886	19248.55
782.22	19103.01
782.554	19034.54
782.888	18894.43
783.222	18909.35
783.556	18799.29
783.889	18709.35
784.223	18502.8
784.557	18550.03
784.89	18443.15
785.224	18377.84
785.557	18408.12
785.891	18411.96
786.224	18218.52
786.558	18296.71
786.891	18075.25
787.224	17973.1
787.557	17928.58
787.891	18049.71
788.224	17974
788.557	17913.89
788.89	17890.84
789.223	17728.81
789.556	17662.83
789.888	17645.2
790.221	17552.32
790.554	17337.19
790.887	17491.31
791.219	17343.96
791.552	17324.53
791.884	17234.59
792.217	17272.33
792.549	17210.64
792.882	16956.4
793.214	16975.39
793.546	16963.41
793.879	16873.02
794.211	16675.73
794.543	16768.84
794.875	16704.43
795.207	16741.95
795.539	16800.93
795.871	16614.04
796.203	16402.52
796.535	16359.13
796.867	16363.2
797.198	16308.06
797.53	16263.32
797.862	16190.55
798.193	16327.95
798.525	16081.4
798.856	16141.96
799.188	15927.73
799.519	15909.88
799.85	15873.04
800.182	15861.52
800.513	15789.88
800.844	15683.22
801.175	15736.78
801.506	15752.82
801.837	15645.48
802.168	15601.86
802.499	15576.78
802.83	15462.21
803.161	15378.59
803.491	15456.78
803.822	15440.29
804.153	15262.44
804.483	15242.55
804.814	15123.68
805.145	15101.54
805.475	15181.99
805.805	15068.77
806.136	15037.13
806.466	15048.43
806.796	14903.35
807.126	14837.59
807.457	14820.19
807.787	14815.22
808.117	14713.75
808.447	14703.81
808.777	14708.33
809.107	14636.69
809.436	14620.87
809.766	14580.2
810.096	14506.98
810.426	14475.11
810.755	14502.91
811.085	14428.79
811.414	14464.72
811.744	14344.95
812.073	14245.74
812.403	14283.48
812.732	14160.09
813.061	14206.87
813.39	14016.14
813.719	13969.14
814.049	14158.29
814.378	14063.15
814.707	14047.55
815.036	14027.22
815.365	13884.85
815.693	13805.07
816.022	13849.82
816.351	13741.35
816.68	13685.76
817.008	13688.92
817.337	13605.98
817.665	13561.01
817.994	13623.16
818.322	13644.4
818.651	13544.97
818.979	13501.81
819.307	13527.79
819.636	13532.77
819.964	13369.15
820.292	13437.4
820.62	13443.5
820.948	13352.21
821.276	13442.15
821.604	13345.2
821.932	13271.3
822.259	13433.33
822.587	13373.45
822.915	13276.73
823.243	13373
823.57	13251.42
823.898	13317.18
824.225	13229.04
824.553	13242.83
824.88	13283.28
825.207	13331.87
825.535	13319.89
825.862	13389.72
826.189	13314.24
826.516	13391.75
826.843	13386.33
827.17	13321.92
827.497	13312.66
827.824	13329.16
828.151	13346.33
828.478	13229.72
828.805	13335.93
829.131	13265.2
829.458	13247.35
829.785	13275.82
830.111	13199.22
830.438	13270.85
830.764	13276.5
831.09	13282.15
831.417	13145.21
831.743	13199.22
832.069	13184.75
832.395	13101.36
832.722	13236.5
833.048	13078.77
833.374	13227.24
833.7	13095.26
834.026	13066.11
834.351	13139.1
834.677	13059.11
835.003	13152.89
835.329	13034.7
835.654	13104.98
835.98	13012.1
836.306	13057.07
836.631	12889.17
836.956	13005.32
837.282	13022.95
837.607	12949.73
837.932	12987.47
838.258	12887.13
838.583	12940.24
838.908	12840.35
839.233	12886.23
839.558	12768.94
839.883	12717.19
840.208	12732.11
840.533	12707.25
840.858	12649.4
841.182	12707.48
841.507	12768.49
841.832	12629.74
842.156	12665.9
842.481	12655.05
842.805	12560.36
843.13	12524.66
843.454	12559.01
843.778	12441.04
844.103	12433.59
844.427	12399.46
844.751	12410.99
845.075	12323.53
845.399	12316.3
845.723	12294.83
846.047	12337.09
846.371	12175.51
846.695	12178.22
847.019	12025.69
847.343	12028.17
847.666	12028.4
847.99	11869.08
848.313	11943.43
848.637	11859.82
848.96	11848.06
849.284	11741.17
849.607	11673.83
849.931	11606.71
850.254	11587.28
850.577	11495.53
850.9	11460.5
851.223	11465.25
851.546	11403.1
851.869	11320.17
852.192	11383.44
852.515	11234.52
852.838	11169.89
853.161	11222.32
853.483	11166.5
853.806	11095.77
854.129	11048.31
854.451	11022.1
854.774	10985.26
855.096	10964.47
855.419	10886.73
855.741	10947.97
856.063	10834.76
856.385	10827.98
856.708	10783.69
857.03	10791.59
857.352	10785.95
857.674	10756.12
857.996	10675.21
858.318	10641.09
858.64	10584.37
858.961	10609.68
859.283	10500.53
859.605	10449.91
859.926	10487.2
860.248	10418.05
860.57	10482.68
860.891	10389.8
861.212	10422.34
861.534	10388.67
861.855	10308.67
862.176	10318.61
862.498	10315
862.819	10316.35
863.14	10236.13
863.461	10189.12
863.782	10165.4
864.103	10175.34
864.424	10181.89
864.745	10162.46
865.065	10089.92
865.386	10063.25
865.707	10113.19
866.027	10103.25
866.348	10054.89
866.668	9980.09
866.989	10003.82
867.309	9952.52
867.63	9943.03
867.95	10033.42
868.27	9894.67
868.59	9916.14
868.91	9958.85
869.23	9877.95
869.55	9856.03
869.87	9911.17
870.19	9868
870.51	9791.62
870.83	9889.47
871.15	9764.05
871.469	9766.99
871.789	9807.89
872.109	9763.37
872.428	9777.61
872.748	9727.22
873.067	9703.04
873.386	9703.04
873.706	9665.07
874.025	9584.85
874.344	9626.65
874.663	9668.46
874.982	9565.64
875.301	9573.1
875.62	9585.52
875.939	9545.07
876.258	9502.59
876.577	9539.65
876.896	9461.69
877.214	9454.68
877.533	9480.22
877.852	9487.67
878.17	9508.01
878.489	9467.56
878.807	9420.56
879.125	9402.03
879.444	9383.04
879.762	9369.94
880.08	9336.49
880.398	9352.08
880.716	9296.27
881.034	9293.1
881.352	9324.06
881.67	9266.89
881.988	9188.7
882.306	9187.8
882.624	9160.23
882.941	9152.99
883.259	9111.64
883.577	9187.34
883.894	9087.01
884.212	9145.54
884.529	9108.7
884.846	9023.73
885.164	8986.9
885.481	9021.25
885.798	9009.72
886.115	8986.22
886.432	8956.16
886.75	8893.79
887.067	8890.63
887.383	8875.04
887.7	8876.16
888.017	8861.25
888.334	8821.48
888.651	8791.65
888.967	8816.51
889.284	8758.88
889.6	8748.71
889.917	8640.24
890.233	8662.61
890.55	8577.87
890.866	8695.83
891.182	8640.24
891.498	8549.39
891.815	8579.22
892.131	8466.68
892.447	8530.64
892.763	8422.84
893.079	8479.11
893.395	8442.28
893.71	8447.02
894.026	8417.19
894.342	8367.03
894.657	8315.28
894.973	8305.33
895.289	8306.46
895.604	8261.49
895.92	8176.52
896.235	8208.39
896.55	8229.85
896.865	8145.34
897.181	8102.85
897.496	8112.34
897.811	8068.5
898.126	8024.89
898.441	7968.62
898.756	7988.96
899.071	7907.15
899.386	7911.44
899.7	7913.48
900.015	7849.98
900.33	7836.42
900.644	7810.66
900.959	7817.66
901.273	7748.28
901.588	7764.56
901.902	7677.33
902.216	7701.05
902.531	7692.47
902.845	7644.11
903.159	7569.98
903.473	7610.21
903.787	7492.7
904.101	7457.67
904.415	7452.47
904.729	7446.15
905.042	7379.48
905.356	7358.46
905.67	7385.13
905.984	7366.83
906.297	7327.05
906.611	7301.97
906.924	7242.54
907.237	7219.71
907.551	7205.47
907.864	7097
908.177	7174.06
908.491	7135.65
908.804	7124.57
909.117	7018.81
909.43	6998.93
909.743	7001.64
910.056	7011.81
910.368	6960.74
910.681	6871.7
910.994	6864.24
911.307	6961.19
911.619	6844.13
911.932	6831.47
912.244	6821.53
912.557	6757.35
912.869	6689.56
913.181	6712.83
913.494	6697.69
913.806	6651.14
914.118	6665.38
914.43	6630.12
914.742	6588.77
915.054	6516.45
915.366	6511.26
915.678	6454.53
915.99	6445.72
916.302	6420.41
916.613	6411.14
916.925	6419.05
917.236	6315.1
917.548	6326.85
917.859	6296.12
918.171	6242.11
918.482	6239.85
918.794	6268.1
919.105	6178.38
919.416	6172.06
919.727	6121.44
920.038	6105.39
920.349	6082.11
920.66	6083.92
920.971	6048.22
921.282	6019.97
921.593	5984.04
921.903	5955.79
922.214	5952.85
922.525	5956.47
922.835	5885.28
923.146	5823.59
923.456	5889.12
923.767	5831.73
924.077	5777.94
924.387	5791.73
924.697	5782.91
925.008	5684.61
925.318	5681.45
925.628	5718.73
925.938	5634.22
926.248	5620.66
926.558	5602.8
926.867	5575.69
927.177	5525.74
927.487	5503.6
927.796	5454.11
928.106	5469.47
928.416	5438.06
928.725	5506.99
929.034	5415.24
929.344	5459.31
929.653	5386.99
929.962	5356.71
930.271	5358.97
930.581	5296.37
930.89	5316.48
931.199	5193.32
931.508	5226.09
931.817	5225.41
932.125	5192.65
932.434	5220.67
932.743	5115.13
933.051	5129.6
933.36	5068.58
933.669	5020.22
933.977	5020
934.286	5050.95
934.594	5010.05
934.902	5026.1
935.21	4942.71
935.519	4967.57
935.827	4953.56
936.135	4918.75
936.443	4876.95
936.751	4861.13
937.059	4856.84
937.367	4807.8
937.674	4826.1
937.982	4791.53
938.29	4763.05
938.597	4733.22
938.905	4698.42
939.213	4718.99
939.52	4690.96
939.827	4714.24
940.135	4617.97
940.442	4639.44
940.749	4608.93
941.056	4610.51
941.363	4526.22
941.67	4503.62
941.977	4582.72
942.284	4457.75
942.591	4499.1
942.898	4500.69
943.205	4475.15
943.511	4406
943.818	4428.37
944.125	4384.98
944.431	4373.01
944.738	4383.85
945.044	4350.18
945.35	4293.46
945.657	4328.94
945.963	4253.69
946.269	4242.39
946.575	4235.83
946.881	4228.38
947.187	4227.25
947.493	4189.28
947.799	4163.29
948.105	4164.65
948.41	4132.79
948.716	4152
949.022	4100.02
949.327	4082.62
949.633	4043.98
949.938	4062.05
950.244	4043.75
950.549	4032.45
950.854	3978.44
951.16	3967.82
951.465	3951.32
951.77	3919.01
952.075	3917.65
952.38	3954.94
952.685	3906.58
952.99	3902.74
953.294	3868.84
953.599	3854.38
953.904	3808.95
954.209	3830.42
954.513	3844.43
954.818	3760.14
955.122	3807.82
955.426	3759.01
955.731	3742.29
956.035	3716.53
956.339	3702.06
956.643	3705.23
956.948	3670.43
957.252	3630.43
957.556	3618.9
957.86	3588.17
958.163	3625.46
958.467	3588.39
958.771	3552.92
959.075	3563.31
959.378	3547.72
959.682	3519.47
959.985	3540.49
960.289	3532.8
960.592	3484.44
960.896	3485.57
961.199	3427.27
961.502	3427.27
961.805	3470.66
962.108	3379.36
962.411	3394.95
962.714	3378.91
963.017	3361.73
963.32	3384.33
963.623	3335.07
963.926	3364.22
964.228	3278.12
964.531	3326.03
964.833	3263.21
965.136	3242.64
965.438	3230.66
965.741	3239.03
966.043	3270.89
966.345	3230.66
966.648	3196.99
966.95	3221.62
967.252	3169.87
967.554	3162.19
967.856	3135.52
968.158	3137.33
968.46	3101.4
968.761	3130.78
969.063	3114.73
969.365	3050.78
969.666	3044.45
969.968	3088.07
970.269	3047.17
970.571	3051.91
970.872	3039.03
971.174	3027.28
971.475	3016.66
971.776	2996.32
972.077	2971.24
972.378	2985.47
972.679	2966.94
972.98	2935.53
973.281	2933.72
973.582	2926.94
973.883	2862.54
974.183	2838.81
974.484	2900.5
974.785	2851.92
975.085	2832.26
975.386	2821.86
975.686	2815.76
975.986	2821.18
976.287	2801.3
976.587	2747.96
976.887	2764.24
977.187	2754.07
977.487	2745.03
977.787	2715.87
978.087	2727.17
978.387	2694.41
978.687	2674.29
978.987	2671.58
979.286	2676.55
979.586	2673.84
979.885	2658.7
980.185	2614.41
980.484	2624.35
980.784	2579.83
981.083	2560.62
981.382	2565.6
981.682	2569.66
981.981	2573.05
982.28	2560.85
982.579	2524.47
982.878	2530.34
983.177	2581.19
983.475	2510.23
983.774	2500.97
984.073	2496.9
984.372	2474.98
984.67	2486.5
984.969	2448.31
985.267	2432.04
985.566	2434.3
985.864	2415.09
986.162	2434.3
986.461	2396.56
986.759	2399.27
987.057	2359.95
987.355	2349.56
987.653	2359.27
987.951	2322.66
988.249	2353.17
988.547	2339.16
988.844	2311.14
989.142	2304.13
989.44	2260.07
989.737	2280.18
990.035	2263.23
990.332	2254.87
990.63	2256.9
990.927	2244.02
991.224	2211.03
991.521	2235.66
991.819	2193.4
992.116	2175.1
992.413	2184.14
992.71	2167.19
993.006	2205.38
993.303	2153.18
993.6	2148.88
993.897	2136
994.193	2149.79
994.49	2161.54
994.787	2107.08
995.083	2104.14
995.379	2104.14
995.676	2074.31
995.972	2101.65
996.268	2060.75
996.565	2055.78
996.861	2067.08
997.157	2049.45
997.453	2039.96
997.749	2023.92
998.044	2001.32
998.34	1969.23
998.636	1983.92
998.932	1988.66
999.227	1990.02
999.523	1976.91
999.818	1940.53
1000.114	1912.51
1000.409	1934.2
1000.704	1907.08
1001	1912.28
1001.295	1887.87
1001.59	1880.64
1001.885	1865.73
1002.18	1863.24
1002.475	1880.42
1002.77	1867.99
1003.065	1861.21
1003.359	1862.34
1003.654	1839.51
1003.949	1809.68
1004.243	1799.97
1004.538	1786.41
1004.832	1764.71
1005.127	1799.51
1005.421	1777.14
1005.715	1759.97
1006.009	1717.71
1006.304	1725.39
1006.598	1730.36
1006.892	1721.78
1007.186	1703.92
1007.48	1672.51
1007.773	1721.32
1008.067	1668.44
1008.361	1676.81
1008.655	1656.24
1008.948	1647.65
1009.242	1659.18
1009.535	1643.13
1009.829	1596.81
1010.122	1607.66
1010.415	1618.95
1010.708	1570.14
1011.001	1579.41
1011.295	1587.99
1011.588	1560.2
1011.881	1541.89
1012.173	1588.9
1012.466	1571.5
1012.759	1568.56
1013.052	1535.57
1013.344	1523.14
1013.637	1523.82
1013.93	1513.65
1014.222	1484.72
1014.514	1489.92
1014.807	1499.86
1015.099	1480.2
1015.391	1480.2
1015.683	1443.14
1015.976	1440.88
1016.268	1440.2
1016.56	1430.03
1016.851	1412.18
1017.143	1422.35
1017.435	1424.38
1017.727	1419.41
1018.018	1418.28
1018.31	1385.74
1018.602	1392.52
1018.893	1379.86
1019.185	1368.57
1019.476	1325.18
1019.767	1320.21
1020.058	1317.95
1020.35	1333.09
1020.641	1303.03
1020.932	1319.3
1021.223	1300.54
1021.514	1287.66
1021.804	1249.92
1022.095	1291.51
1022.386	1265.97
1022.677	1245.41
1022.967	1228
1023.258	1251.73
1023.548	1245.41
1023.839	1229.13
1024.129	1208.57
1024.419	1218.06
1024.709	1211.96
1025	1191.62
1025.29	1185.97
1025.58	1163.37
1025.87	1169.7
1026.16	1167.89
1026.449	1145.75
1026.739	1167.67
1027.029	1136.26
1027.319	1134.45
1027.608	1119.08
1027.898	1107.33
1028.187	1106.2
1028.477	1107.78
1028.766	1091.96
1029.055	1083.38
1029.344	1100.78
1029.634	1102.58
1029.923	1075.24
1030.212	1050.16
1030.501	1061.46
1030.79	1055.13
1031.078	1052.19
1031.367	1055.13
1031.656	1047.67
1031.945	1039.76
1032.233	1021.68
1032.522	1014.22
1032.81	1025.52
1033.099	994.56
1033.387	1001.12
1033.675	978.52
1033.963	986.88
1034.251	992.08
1034.54	955.24
1034.828	957.28
1035.116	959.99
1035.403	948.46
1035.691	953.89
1035.979	940.33
1036.267	939.65
1036.554	923.83
1036.842	926.09
1037.129	895.13
1037.417	901.91
1037.704	899.43
1037.992	879.31
1038.279	905.08
1038.566	907.11
1038.853	907.11
1039.14	907.11
