Data from hue_80_FLMS001491_60.txt Node
Date: Mon Feb 06 15:23:15 GMT 2017
User: dcchb
Spectrometer: FLMS00149
Trigger mode: 0
Integration Time (sec): 2.000000E-2
Scans to average: 10
Electric dark correction enabled: true
Nonlinearity correction enabled: false
Boxcar width: 0
XAxis mode: Wavelengths
Number of Pixels in Spectrum: 2048
>>>>>Begin Spectral Data<<<<<
341.393	0.69
341.776	0.69
342.16	0.69
342.543	-45.18
342.927	-42.47
343.31	-80.89
343.693	-66.2
344.077	-73.43
344.46	-66.65
344.843	-56.93
345.226	-40.89
345.61	-35.24
345.993	-14.45
346.376	5.66
346.759	-6.99
347.142	44.98
347.525	44.98
347.908	53.57
348.291	72.78
348.674	99.22
349.057	120.46
349.44	112.1
349.823	149.39
350.206	158.88
350.588	201.59
350.971	205.88
351.354	223.29
351.737	235.94
352.119	241.59
352.502	262.38
352.884	286.33
353.267	298.54
353.65	309.16
354.032	288.14
354.414	302.38
354.797	317.75
355.179	324.3
355.562	348.71
355.944	329.5
356.326	323.62
356.709	333.34
357.091	329.95
357.473	358.42
357.855	359.33
358.238	356.61
358.62	363.39
359.002	353.9
359.384	364.75
359.766	348.25
360.148	349.84
360.53	349.38
360.912	333.79
361.294	338.76
361.676	344.41
362.057	339.21
362.439	318.2
362.821	356.39
363.203	328.14
363.584	324.53
363.966	317.07
364.348	334.92
364.729	327.92
365.111	322.27
365.493	299.67
365.874	337.63
366.256	327.46
366.637	328.14
367.019	311.42
367.4	311.42
367.781	338.99
368.163	295.83
368.544	322.27
368.925	306.9
369.306	307.8
369.688	308.03
370.069	309.61
370.45	296.96
370.831	322.49
371.212	298.09
371.593	331.08
371.974	331.76
372.355	325.43
372.736	315.49
373.117	309.38
373.498	296.73
373.879	338.99
374.26	308.03
374.641	320.23
375.021	322.72
375.402	339.89
375.783	340.12
376.163	314.58
376.544	350.51
376.925	331.3
377.305	319.1
377.686	329.72
378.066	336.05
378.447	313.68
378.827	306.9
379.208	341.25
379.588	327.46
379.968	322.49
380.349	334.69
380.729	349.61
381.109	345.09
381.489	335.15
381.87	316.62
382.25	347.12
382.63	342.15
383.01	328.14
383.39	350.29
383.77	325.2
384.15	335.82
384.53	348.03
384.91	346.45
385.29	358.2
385.67	345.77
386.049	348.48
386.429	343.73
386.809	335.82
387.189	351.87
387.568	344.19
387.948	376.73
388.328	372.21
388.707	360.46
389.087	342.6
389.466	364.3
389.846	360.23
390.225	362.94
390.605	356.84
390.984	355.49
391.363	371.3
391.743	356.61
392.122	382.15
392.501	366.56
392.881	369.27
393.26	353.9
393.639	362.26
394.018	366.56
394.397	387.12
394.776	355.71
395.155	383.73
395.534	361.36
395.913	382.83
396.292	381.25
396.671	409.04
397.05	391.42
397.429	388.03
397.808	381.7
398.186	381.7
398.565	381.47
398.944	378.08
399.323	383.96
399.701	381.7
400.08	386.67
400.458	382.83
400.837	408.36
401.215	399.1
401.594	405.65
401.972	406.56
402.351	393.68
402.729	401.59
403.107	427.35
403.486	409.49
403.864	432.09
404.242	409.04
404.62	393
404.999	411.98
405.377	416.27
405.755	423.05
406.133	411.53
406.511	433.68
406.889	402.94
407.267	434.35
407.645	423.05
408.023	417.4
408.401	414.01
408.779	453.56
409.156	432.09
409.534	449.95
409.912	427.35
410.29	431.64
410.667	442.04
411.045	465.09
411.422	450.17
411.8	457.86
412.178	466.67
412.555	459.44
412.933	477.52
413.31	471.19
413.687	459.21
414.065	477.06
414.442	482.26
414.819	466.22
415.197	481.13
415.574	474.35
415.951	466.22
416.328	495.82
416.705	500.34
417.082	482.49
417.46	506.89
417.837	504.63
418.214	508.02
418.591	505.31
418.967	510.06
419.344	509.61
419.721	506.67
420.098	522.49
420.475	526.33
420.852	529.49
421.228	531.3
421.605	526.55
421.982	533.56
422.358	531.07
422.735	519.1
423.111	552.99
423.488	540.56
423.864	550.28
424.241	573.56
424.617	565.65
424.994	555.71
425.37	560.45
425.746	540.34
426.123	572.43
426.499	542.6
426.875	577.4
427.251	590.28
427.627	586.44
428.003	596.61
428.379	601.35
428.756	590.73
429.132	610.39
429.507	607.68
429.883	592.77
430.259	612.88
430.635	614.01
431.011	611.3
431.387	608.81
431.763	638.19
432.138	627.79
432.514	642.94
432.89	649.26
433.265	653.56
433.641	667.57
434.016	649.94
434.392	643.61
434.767	664.63
435.143	689.26
435.518	681.35
435.894	714.57
436.269	701.24
436.644	708.02
437.02	728.81
437.395	724.29
437.77	720.45
438.145	738.75
438.52	727.9
438.895	741.24
439.271	760.67
439.646	750.28
440.021	743.72
440.395	736.04
440.77	732.42
441.145	753.67
441.52	761.58
441.895	764.97
442.27	772.2
442.645	787.34
443.019	765.87
443.394	800.45
443.769	805.64
444.143	797.51
444.518	807.45
444.892	801.8
445.267	806.09
445.641	811.74
446.016	796.15
446.39	849.71
446.764	826.66
447.139	825.3
447.513	847.68
447.887	839.09
448.262	835.02
448.636	833.21
449.01	856.71
449.384	861.46
449.758	874.79
450.132	882.7
450.506	881.35
450.88	886.32
451.254	909.82
451.628	884.28
452.002	898.3
452.376	905.75
452.75	929.48
453.123	917.28
453.497	933.32
453.871	934.9
454.244	938.97
454.618	981.91
454.992	961.34
455.365	985.52
455.739	998.18
456.112	1007.22
456.486	1002.25
456.859	1033.66
457.232	1046.31
457.606	1036.15
457.979	1040.44
458.352	1052.87
458.725	1068.91
459.099	1109.36
459.472	1122.24
459.845	1088.12
460.218	1145.52
460.591	1152.98
460.964	1155.24
461.337	1196.37
461.71	1185.07
462.083	1188.23
462.456	1205.86
462.829	1181.68
463.201	1228.68
463.574	1223.03
463.947	1252.41
464.32	1279.75
464.692	1310.26
465.065	1308.23
465.438	1322.24
465.81	1327.89
466.183	1373.09
466.555	1403.59
466.928	1399.07
467.3	1430.26
467.672	1464.16
468.045	1446.08
468.417	1496.92
468.789	1499.18
469.161	1517.04
469.534	1553.65
469.906	1583.25
470.278	1608.11
470.65	1645.17
471.022	1674.77
471.394	1705.05
471.766	1751.38
472.138	1770.59
472.51	1792.96
472.882	1875.67
473.253	1883.58
473.625	1878.83
473.997	1948.89
474.369	1988.44
474.74	2036.57
475.112	2087.87
475.484	2098.72
475.855	2160.41
476.227	2220.52
476.598	2289.9
476.97	2342.33
477.341	2430.68
477.713	2468.42
478.084	2443.34
478.455	2569.21
478.827	2637.91
479.198	2697.57
479.569	2760.39
479.94	2869.54
480.311	2928.3
480.682	3045.13
481.053	3125.81
481.424	3205.81
481.795	3269.53
482.166	3338.68
482.537	3416.87
482.908	3579.13
483.279	3621.39
483.65	3781.16
484.021	3800.14
484.391	3944.09
484.762	4055.95
485.133	4122.17
485.503	4237.19
485.874	4403.06
486.244	4462.5
486.615	4589.95
486.985	4702.26
487.356	4853.9
487.726	4963.5
488.097	5049.15
488.467	5147.22
488.837	5354
489.207	5415.46
489.578	5658.62
489.948	5700.43
490.318	5895.9
490.688	6000.31
491.058	6115.56
491.428	6292.96
491.798	6407.08
492.168	6600.07
492.538	6679.61
492.908	6829.21
493.278	7030.56
493.648	7097.91
494.017	7263.55
494.387	7441.63
494.757	7495.18
495.126	7710.55
495.496	7798.68
495.866	7908.28
496.235	8083.19
496.605	8237.09
496.974	8294.03
497.344	8475.5
497.713	8597.53
498.082	8748.48
498.452	8907.35
498.821	9035.26
499.19	9119.55
499.559	9240.68
499.928	9405.42
500.298	9505.3
500.667	9642.02
501.036	9625.98
501.405	9814.22
501.774	9905.52
502.143	10045.85
502.512	10215.56
502.88	10330.59
503.249	10331.95
503.618	10472.96
503.987	10585.5
504.356	10764.25
504.724	10795.21
505.093	10909.78
505.462	10902.33
505.83	11110.46
506.199	11243.79
506.567	11404.23
506.936	11372.6
507.304	11554.51
507.672	11605.36
508.041	11683.32
508.409	11876.09
508.777	11906.59
509.145	12011
509.514	12070.43
509.882	12243.31
510.25	12292.57
510.618	12427.26
510.986	12450.08
511.354	12628.83
511.722	12703.63
512.09	12788.38
512.458	12861.82
512.826	12969.16
513.193	13043.51
513.561	13133.45
513.929	13165.09
514.297	13314.47
514.664	13361.24
515.032	13445.54
515.4	13525.76
515.767	13656.6
516.135	13656.38
516.502	13577.74
516.869	13852.08
517.237	13941.34
517.604	13858.18
517.972	13934.11
518.339	14038.06
518.706	14135.01
519.073	14134.11
519.44	14203.93
519.808	14409.35
520.175	14279.19
520.542	14482.12
520.909	14638.95
521.276	14578.84
521.643	14694.32
522.009	14817.48
522.376	14883.46
522.743	14911.26
523.11	15019.51
523.477	15203.91
523.843	15081.43
524.21	15300.18
524.577	15385.82
524.943	15475.09
525.31	15494.07
525.676	15598.93
526.043	15652.71
526.409	15647.96
526.776	15910.78
527.142	15819.03
527.508	15877.11
527.874	15949.88
528.241	15942.65
528.607	16040.5
528.973	16145.13
529.339	16170.44
529.705	16318.46
530.071	16254.5
530.437	16365.23
530.803	16450.66
531.169	16476.87
531.535	16391.9
531.901	16440.03
532.267	16396.87
532.632	16532.23
532.998	16622.85
533.364	16646.81
533.73	16534.04
534.095	16729.52
534.461	16763.64
534.826	16661.72
535.192	16671.21
535.557	16830.31
535.923	16765
536.288	16927.25
536.653	16816.07
537.019	16735.39
537.384	16821.27
537.749	16766.58
538.114	16801.38
538.479	16843.87
538.845	16898.33
539.21	16835.73
539.575	16916.63
539.94	16778.56
540.305	16894.03
540.67	16844.54
541.034	16840.48
541.399	16870.98
541.764	16941.94
542.129	16851.55
542.494	16943.52
542.858	16827.82
543.223	16872.34
543.587	16884.77
543.952	16844.99
544.316	16877.99
544.681	16864.88
545.045	16940.36
545.41	16887.48
545.774	16872.56
546.138	16824.43
546.503	16931.09
546.867	16816.52
547.231	16967.7
547.595	16844.77
547.959	16963.64
548.324	16931.09
548.688	16913.24
549.052	16824.88
549.416	16883.19
549.779	16822.4
550.143	16826.46
550.507	16905.56
550.871	16883.86
551.235	16891.32
551.599	16979.91
551.962	16982.62
552.326	16933.13
552.689	16986.23
553.053	16813.13
553.417	16809.97
553.78	17003.86
554.143	16838.22
554.507	16864.43
554.87	16889.97
555.234	17078.44
555.597	16898.1
555.96	16985.56
556.323	16980.36
556.686	16857.65
557.05	16997.53
557.413	17073.46
557.776	17008.38
558.139	17056.97
558.502	17047.48
558.865	17028.27
559.228	17103.07
559.59	17133.35
559.953	17206.57
560.316	17323.17
560.679	17293.57
561.041	17277.3
561.404	17318.2
561.767	17341.48
562.129	17276.62
562.492	17479.1
562.854	17379.9
563.217	17419.9
563.579	17490.4
563.941	17579.89
564.304	17596.84
564.666	17674.35
565.028	17661.24
565.39	17579.21
565.753	17614.24
566.115	17683.39
566.477	17756.61
566.839	17775.82
567.201	17836.38
567.563	17802.94
567.925	17928.81
568.287	17912.31
568.648	17961.8
569.01	18003.83
569.372	18157.28
569.734	18045.64
570.095	18138.97
570.457	18192.53
570.819	18153.66
571.18	18105.3
571.542	18171.29
571.903	18176.94
572.265	18117.73
572.626	18239.08
572.987	18308.23
573.349	18361.57
573.71	18397.72
574.071	18379.64
574.432	18421.9
574.794	18511.39
575.155	18454.44
575.516	18408.34
575.877	18546.19
576.238	18517.95
576.599	18483.82
576.96	18537.83
577.32	18613.31
577.681	18633.87
578.042	18653.99
578.403	18653.53
578.763	18586.64
579.124	18592.29
579.485	18640.88
579.845	18729.69
580.206	18627.09
580.566	18592.07
580.927	18629.81
581.287	18670.94
581.648	18598.85
582.008	18657.15
582.368	18642.01
582.728	18737.37
583.089	18684.95
583.449	18649.02
583.809	18632.29
584.169	18679.97
584.529	18618.28
584.889	18791.16
585.249	18695.12
585.609	18616.02
585.969	18707.32
586.329	18570.37
586.688	18641.56
587.048	18583.71
587.408	18545.52
587.768	18621.67
588.127	18641.78
588.487	18584.84
588.846	18697.83
589.206	18497.61
589.565	18483.6
589.925	18654.21
590.284	18494.44
590.643	18547.55
591.003	18530.37
591.362	18589.58
591.721	18501.45
592.08	18590.26
592.44	18482.24
592.799	18563.82
593.158	18456.7
593.517	18536.48
593.876	18477.49
594.235	18469.13
594.593	18538.06
594.952	18543.93
595.311	18481.34
595.67	18510.26
596.029	18628.45
596.387	18572.18
596.746	18589.13
597.104	18555.01
597.463	18528.79
597.822	18501
598.18	18370.15
598.538	18457.16
598.897	18561.79
599.255	18431.85
599.613	18697.83
599.972	18550.71
600.33	18629.35
600.688	18438.4
601.046	18494.67
601.404	18567.66
601.762	18624.61
602.12	18628.9
602.478	18671.84
602.836	18573.99
603.194	18500.32
603.552	18549.81
603.91	18439.76
604.268	18590.71
604.625	18602.24
604.983	18686.3
605.341	18522.46
605.698	18644.04
606.056	18617.83
606.413	18560.66
606.771	18627.55
607.128	18656.02
607.485	18644.72
607.843	18686.75
608.2	18739.86
608.557	18803.14
608.914	18656.7
609.272	18698.96
609.629	18795
609.986	18765.62
610.343	18691.27
610.7	18814.43
611.057	18892.4
611.414	18786.41
611.771	18914.77
612.127	18895.34
612.484	18951.83
612.841	19032.51
613.198	18905.73
613.554	18914.55
613.911	19096.69
614.267	19036.58
614.624	19038.84
614.98	18962
615.337	19040.42
615.693	19011.49
616.05	19067.31
616.406	19175.78
616.762	19050.59
617.118	19054.2
617.475	19091.49
617.831	19147.53
618.187	19103.69
618.543	19116.8
618.899	19282.9
619.255	19217.81
619.611	19150.7
619.967	19226.85
620.323	19255.55
620.678	19253.52
621.034	19237.47
621.39	19229.57
621.746	19211.71
622.101	19380.97
622.457	19306.63
622.812	19322.9
623.168	19371.93
623.523	19361.99
623.879	19384.36
624.234	19239.51
624.589	19273.41
624.945	19362.22
625.3	19362.89
625.655	19349.79
626.01	19353.86
626.365	19413.29
626.72	19337.13
627.075	19284.25
627.43	19274.08
627.785	19237.93
628.14	19310.92
628.495	19233.18
628.85	19295.55
629.205	19250.81
629.559	19344.36
629.914	19261.65
630.269	19212.84
630.623	19105.5
630.978	19086.97
631.332	19272.5
631.687	19227.08
632.041	19143.47
632.396	19256.91
632.75	19063.02
633.104	19158.83
633.459	19055.33
633.813	19084.03
634.167	19074.99
634.521	19048.1
634.875	19132.17
635.229	19016.92
635.583	19012.17
635.937	19019.63
636.291	18973.3
636.645	18928.56
636.999	18908.44
637.352	18962.23
637.706	18720.43
638.06	18813.53
638.413	18842.23
638.767	18746.87
639.121	18764.72
639.474	18657.15
639.828	18666.19
640.181	18856.24
640.534	18675.68
640.888	18708.67
641.241	18622.8
641.594	18652.41
641.947	18764.94
642.301	18623.25
642.654	18745.06
643.007	18666.87
643.36	18653.31
643.713	18558.17
644.066	18736.02
644.419	18603.82
644.771	18492.18
645.124	18300.32
645.477	18281.79
645.83	18184.85
646.182	17949.15
646.535	18021.46
646.888	18047
647.24	17973.1
647.593	18067.56
647.945	17957.73
648.298	17934.46
648.65	17861.69
649.002	17812.2
649.355	17900.33
649.707	17849.71
650.059	18038.41
650.411	18223.26
650.763	18219.65
651.115	18436.82
651.467	18358.63
651.819	18437.5
652.171	18388.91
652.523	18262.13
652.875	18306.43
653.227	18242.47
653.578	18436.59
653.93	18369.7
654.282	18263.49
654.633	18237.27
654.985	18336.71
655.337	18364.28
655.688	18341.9
656.039	18407.89
656.391	18342.81
656.742	18275.69
657.094	18342.36
657.445	18312.08
657.796	18296.26
658.147	18332.87
658.498	18308.91
658.849	18378.97
659.2	18398.85
659.551	18288.35
659.902	18392.3
660.253	18312.98
660.604	18299.65
660.955	18191.63
661.306	18276.6
661.656	18301
662.007	18347.78
662.358	18302.36
662.708	18343.03
663.059	18306.88
663.409	18071.63
663.76	18382.58
664.11	18388.91
664.461	18391.62
664.811	18297.84
665.161	18377.38
665.511	18303.49
665.862	18347.55
666.212	18448.34
666.562	18400.89
666.912	18339.87
667.262	18351.4
667.612	18369.02
667.962	18428.46
668.312	18334
668.662	18493.09
669.011	18416.93
669.361	18390.94
669.711	18334.22
670.06	18231.85
670.41	18263.49
670.76	18246.54
671.109	18367.67
671.459	18203.15
671.808	18306.2
672.157	18326.76
672.507	18181.01
672.856	18124.51
673.205	18174.45
673.554	18238.18
673.904	18103.94
674.253	18230.27
674.602	18142.36
674.951	17957.73
675.3	17842.93
675.649	18022.59
675.998	18068.92
676.346	18062.59
676.695	18250.61
677.044	17986.43
677.393	18065.3
677.741	18103.27
678.09	17981.46
678.438	17938.53
678.787	17988.92
679.135	17948.24
679.484	17830.51
679.832	17973.55
680.181	17848.13
680.529	17841.8
680.877	17830.05
681.225	17859.66
681.573	17929.26
681.922	17700.11
682.27	17772.65
682.618	17662.15
682.966	17712.99
683.314	17722.03
683.661	17613.11
684.009	17522.72
684.357	17461.93
684.705	17477.29
685.053	17426.45
685.4	17339.22
685.748	17272.78
686.095	17233.69
686.443	17263.74
686.79	17248.15
687.138	17235.72
687.485	17297.64
687.832	17086.8
688.18	17168.38
688.527	17055.16
688.874	16958.44
689.221	16985.1
689.568	16939.46
689.915	16944.88
690.262	16908.95
690.609	16758.22
690.956	16691.55
691.303	16775.84
691.65	16607.04
691.997	16554.83
692.344	16504.21
692.69	16560.48
693.037	16493.37
693.383	16358.23
693.73	16402.52
694.077	16296.99
694.423	16321.62
694.769	16253.37
695.116	16222.86
695.462	16124.79
695.808	16162.3
696.155	16079.37
696.501	16033.49
696.847	15879.14
697.193	15844.12
697.539	15995.07
697.885	15637.34
698.231	15658.81
698.577	15634.63
698.923	15680.28
699.269	15577.23
699.614	15353.51
699.96	15393.51
700.306	15290.91
700.651	15312.61
700.997	15295.88
701.342	15165.49
701.688	15142.44
702.033	15119.16
702.379	15050.47
702.724	15007.53
703.069	15170.01
703.415	14897.48
703.76	14857.7
704.105	14865.16
704.45	14812.96
704.795	14730.25
705.14	14746.29
705.485	14729.57
705.83	14660.42
706.175	14567.99
706.52	14602.57
706.865	14601.89
707.209	14467.88
707.554	14400.77
707.899	14469.92
708.243	14329.35
708.588	14310.15
708.932	14260.66
709.277	14249.36
709.621	14250.94
709.966	14034.67
710.31	14190.6
710.654	14024.28
710.998	14014.79
711.342	13980.44
711.687	13916.26
712.031	13857.28
712.375	13894.79
712.719	13875.36
713.063	13805.07
713.407	13902.25
713.75	13794.23
714.094	13728.01
714.438	13654.12
714.782	13706.55
715.125	13595.36
715.469	13629.03
715.812	13564.63
716.156	13552.43
716.499	13501.58
716.843	13527.34
717.186	13482.6
717.53	13502.48
717.873	13504.29
718.216	13465.2
718.559	13508.81
718.902	13389.49
719.246	13369.15
719.589	13330.51
719.932	13296.61
720.275	13253.68
720.617	13241.02
720.96	13231.53
721.303	13216.16
721.646	13253.22
721.989	13124.19
722.331	13171.19
722.674	13151.08
723.016	13128.03
723.359	13063.17
723.701	13134.58
724.044	13059.56
724.386	13018.2
724.729	13127.58
725.071	13008.03
725.413	12994.93
725.755	13025.43
726.097	12997.19
726.439	12951.99
726.782	12914.7
727.124	12956.28
727.465	12967.13
727.807	12964.87
728.149	12933.46
728.491	12902.27
728.833	12920.8
729.175	12870.18
729.516	12881.26
729.858	12886.68
730.199	12887.81
730.541	12833.8
730.882	12872.9
731.224	12924.65
731.565	12816.63
731.906	12833.8
732.248	12824.76
732.589	12735.05
732.93	12714.48
733.271	12701.15
733.612	12755.84
733.953	12729.62
734.294	12684.43
734.635	12729.4
734.976	12830.64
735.317	12751.77
735.658	12794.48
735.999	12736.63
736.339	12746.57
736.68	12798.77
737.021	12700.02
737.361	12691.43
737.702	12816.4
738.042	12732.79
738.383	12795.84
738.723	12797.64
739.063	12700.25
739.404	12794.48
739.744	12830.86
740.084	12708.61
740.424	12845.78
740.764	12714.93
741.104	12815.5
741.444	12818.89
741.784	12804.2
742.124	12824.76
742.464	12890.75
742.804	12823.63
743.143	12839.45
743.483	12845.78
743.823	12918.77
744.162	12909.28
744.502	12918.54
744.841	12862.05
745.181	12934.36
745.52	13067.92
745.86	13071.31
746.199	13058.43
746.538	13170.74
746.877	13264.75
747.216	13261.81
747.556	13316.95
747.895	13376.16
748.234	13357.18
748.573	13340
748.911	13399.21
749.25	13493.67
749.589	13512.2
749.928	13621.8
750.267	13595.14
750.605	13661.8
750.944	13718.3
751.283	13777.96
751.621	13979.08
751.96	13921.91
752.298	14018.85
752.636	14067.21
752.975	14092.07
753.313	14226.98
753.651	14370.48
753.989	14436.92
754.327	14650.93
754.666	14579.97
755.004	14755.56
755.342	14784.48
755.679	14987.19
756.017	14918.04
756.355	15125.94
756.693	15172.04
757.031	15359.61
757.368	15375.2
757.706	15548.76
758.044	15622.65
758.381	15768.87
758.719	15807.28
759.056	15972.93
759.394	16033.72
759.731	16052.93
760.068	16286.14
760.405	16340.6
760.743	16326.59
761.08	16616.07
761.417	16691.55
761.754	16697.88
762.091	16775.39
762.428	16897.2
762.765	17033.46
763.102	17046.35
763.438	17161.37
763.775	17164.53
764.112	17391.65
764.449	17559.78
764.785	17460.57
765.122	17597.52
765.458	17562.04
765.795	17674.13
766.131	17897.85
766.467	17769.49
766.804	17951.63
767.14	17991.18
767.476	17985.53
767.812	17963.38
768.148	18157.95
768.485	18216.48
768.821	18209.93
769.157	18255.13
769.492	18327.89
769.828	18349.81
770.164	18295.35
770.5	18347.78
770.836	18446.31
771.171	18381.45
771.507	18506.65
771.842	18407.89
772.178	18487.21
772.513	18527.21
772.849	18531.96
773.184	18461.22
773.519	18600.43
773.855	18536.48
774.19	18578.06
774.525	18548
774.86	18577.6
775.195	18527.44
775.53	18519.3
775.865	18415.35
776.2	18438.63
776.535	18351.62
776.87	18457.61
777.205	18391.62
777.539	18397.72
777.874	18475.91
778.209	18251.51
778.543	18307.56
778.878	18255.58
779.212	18296.03
779.547	18254.45
779.881	18254.22
780.215	18076.15
780.55	18254.22
780.884	18120.22
781.218	18208.8
781.552	18182.36
781.886	18084.51
782.22	18079.99
782.554	18065.08
782.888	17878.64
783.222	17927.23
783.556	17762.03
783.889	17774.01
784.223	17628.7
784.557	17639.32
784.89	17704.86
785.224	17669.83
785.557	17476.16
785.891	17498.99
786.224	17447.46
786.558	17459.22
786.891	17391.42
787.224	17357.75
787.557	17315.49
787.891	17335.38
788.224	17203.4
788.557	17271.65
788.89	17223.97
789.223	17171.54
789.556	17095.16
789.888	17124.76
790.221	16985.56
790.554	16874.15
790.887	16906.91
791.219	16841.83
791.552	16904.2
791.884	16700.82
792.217	16664.43
792.549	16686.58
792.882	16544.66
793.214	16405.23
793.546	16535.17
793.879	16449.98
794.211	16403.65
794.543	16537.21
794.875	16368.4
795.207	16383.31
795.539	16227.16
795.871	16272.58
796.203	16207.72
796.535	16060.83
796.867	16043.21
797.198	15991.68
797.53	16007.05
797.862	15980.61
798.193	15948.07
798.525	15788.07
798.856	15866.94
799.188	15735.65
799.519	15661.75
799.85	15592.15
800.182	15547.85
800.513	15637.34
800.844	15444.13
801.175	15544.24
801.506	15503.56
801.837	15391.47
802.168	15312.83
802.499	15340.63
802.83	15273.28
803.161	15243
803.491	15211.14
803.822	15239.84
804.153	15169.11
804.483	14917.14
804.814	14954.2
805.145	15019.05
805.475	14953.07
805.805	14836.01
806.136	14866.29
806.466	14920.75
806.796	14842.34
807.126	14719.18
807.457	14742.9
807.787	14655
808.117	14737.03
808.447	14562.8
808.777	14608.9
809.107	14615
809.436	14438.05
809.766	14538.61
810.096	14502.91
810.426	14368.22
810.755	14381.33
811.085	14382.91
811.414	14289.13
811.744	14239.41
812.073	14256.36
812.403	14187.21
812.732	14106.08
813.061	14086.2
813.39	14026.76
813.719	14014.33
814.049	14083.71
814.378	13964.62
814.707	13955.58
815.036	13997.16
815.365	13932.53
815.693	13755.36
816.022	13765.53
816.351	13863.6
816.68	13677.39
817.008	13744.51
817.337	13622.25
817.665	13605.76
817.994	13670.62
818.322	13582.26
818.651	13493.9
818.979	13433.79
819.307	13437.4
819.636	13496.83
819.964	13337.97
820.292	13424.07
820.62	13427.46
820.948	13402.15
821.276	13411.41
821.604	13374.35
821.932	13357.85
822.259	13400.11
822.587	13304.07
822.915	13382.26
823.243	13298.42
823.57	13318.31
823.898	13395.14
824.225	13298.87
824.553	13314.47
824.88	13246.45
825.207	13395.14
825.535	13276.28
825.862	13443.95
826.189	13271.08
826.516	13438.08
826.843	13476.95
827.17	13406.67
827.497	13353.56
827.824	13321.47
828.151	13368.25
828.478	13385.88
828.805	13341.81
829.131	13375.03
829.458	13201.93
829.785	13254.13
830.111	13242.6
830.438	13431.53
830.764	13336.84
831.09	13303.85
831.417	13200.57
831.743	13353.56
832.069	13369.61
832.395	13194.7
832.722	13337.29
833.048	13267.01
833.374	13252.32
833.7	13224.07
834.026	13171.19
834.351	13308.14
834.677	13219.1
835.003	13211.87
835.329	13160.35
835.654	13128.03
835.98	13069.5
836.306	13129.16
836.631	13092.55
836.956	13111.99
837.282	13050.07
837.607	13054.59
837.932	13041.03
838.258	13026.34
838.583	13037.86
838.908	12941.59
839.233	12883.52
839.558	12904.08
839.883	12831.32
840.208	12783.86
840.533	12892.56
840.858	12837.42
841.182	12803.29
841.507	12792.67
841.832	12744.09
842.156	12756.74
842.481	12744.09
842.805	12676.97
843.13	12601.72
843.454	12614.37
843.778	12469.97
844.103	12606.69
844.427	12604.43
844.751	12458.9
845.075	12384.77
845.399	12444.66
845.723	12373.93
846.047	12341.38
846.371	12254.16
846.695	12355.4
847.019	12183.2
847.343	12134.16
847.666	12082.18
847.99	12019.36
848.313	12012.35
848.637	11922.41
848.96	11922.19
849.284	11897.1
849.607	11801.06
849.931	11778.01
850.254	11733.94
850.577	11599.71
850.9	11529.2
851.223	11570.78
851.546	11477.23
851.869	11442.2
852.192	11465.93
852.515	11328.76
852.838	11363.33
853.161	11371.92
853.483	11314.29
853.806	11235.88
854.129	11221.41
854.451	11114.52
854.774	11067.97
855.096	11109.1
855.419	11051.25
855.741	11042.21
856.063	10886.51
856.385	10922.21
856.708	10949.1
857.03	10874.3
857.352	10917.24
857.674	10817.13
857.996	10807.19
858.318	10688.55
858.64	10811.48
858.961	10712.27
859.283	10695.33
859.605	10664.82
859.926	10690.13
860.248	10620.75
860.57	10527.19
860.891	10566.52
861.212	10505.95
861.534	10405.16
861.855	10449.68
862.176	10481.32
862.498	10460.76
862.819	10406.52
863.14	10376.46
863.461	10310.03
863.782	10292.17
864.103	10275.45
864.424	10291.72
864.745	10326.97
865.065	10230.48
865.386	10217.6
865.707	10164.94
866.027	10236.13
866.348	10200.88
866.668	10218.28
866.989	10194.1
867.309	10055.79
867.63	10050.6
867.95	10023.48
868.27	9995.23
868.59	10041.78
868.91	10001.33
869.23	9969.24
869.55	9948.68
869.87	10037.49
870.19	9943.71
870.51	9970.6
870.83	9936.02
871.15	9837.27
871.469	9902.8
871.789	9848.79
872.109	9891.51
872.428	9798.63
872.748	9882.47
873.067	9841.79
873.386	9870.94
873.706	9768.8
874.025	9771.51
874.344	9741.23
874.663	9785.97
874.982	9710.27
875.301	9688.8
875.62	9656.03
875.939	9662.13
876.258	9726.99
876.577	9619.65
876.896	9608.35
877.214	9567.9
877.533	9663.26
877.852	9619.87
878.17	9591.4
878.489	9609.25
878.807	9530.16
879.125	9525.19
879.444	9552.53
879.762	9482.02
880.08	9505.75
880.398	9427.11
880.716	9458.07
881.034	9458.97
881.352	9348.47
881.67	9394.12
881.988	9370.84
882.306	9371.97
882.624	9336.49
882.941	9270.05
883.259	9261.47
883.577	9178.3
883.894	9224.63
884.212	9240
884.529	9167.91
884.846	9166.1
885.164	9170.85
885.481	9102.37
885.798	9133.56
886.115	9059.44
886.432	9054.01
886.75	9085.65
887.067	9061.92
887.383	8982.15
887.7	9052.88
888.017	8915.71
888.334	8970.17
888.651	8916.62
888.967	8878.42
889.284	8761.37
889.6	8821.7
889.917	8762.72
890.233	8795.04
890.55	8737.86
890.866	8710.52
891.182	8701.93
891.498	8658.77
891.815	8681.59
892.131	8659.22
892.447	8639.79
892.763	8578.32
893.079	8544.65
893.395	8495.16
893.71	8468.94
894.026	8504.88
894.342	8440.92
894.657	8361.6
894.973	8361.15
895.289	8347.59
895.604	8377.42
895.92	8317.76
896.235	8280.02
896.55	8259.23
896.865	8276.41
897.181	8145.11
897.496	8218.78
897.811	8159.57
898.126	8096.52
898.441	8077.99
898.756	8082.97
899.071	7994.15
899.386	8009.75
899.7	7921.84
900.015	7952.57
900.33	7880.94
900.644	7832.12
900.959	7867.38
901.273	7851.11
901.588	7822.41
901.902	7760.71
902.216	7779.47
902.531	7734.5
902.845	7711.45
903.159	7646.14
903.473	7636.65
903.787	7565.24
904.101	7538.12
904.415	7580.15
904.729	7554.84
905.042	7400.72
905.356	7448.18
905.67	7377.22
905.984	7425.58
906.297	7344.45
906.611	7348.75
906.924	7308.75
907.237	7298.35
907.551	7310.33
907.864	7267.85
908.177	7200.28
908.491	7191.92
908.804	7131.58
909.117	7137.23
909.43	7070.79
909.743	7024.01
910.056	7043.9
910.368	6953.28
910.681	7012.49
910.994	6971.58
911.307	6914.63
911.619	6871.7
911.932	6899.72
912.244	6828.76
912.557	6872.15
912.869	6793.51
913.181	6797.35
913.494	6761.42
913.806	6688.88
914.118	6701.76
914.43	6599.16
914.742	6591.71
915.054	6579.73
915.366	6581.99
915.678	6539.73
915.99	6551.48
916.302	6432.39
916.613	6480.3
916.925	6453.4
917.236	6401.65
917.548	6391.48
917.859	6373.63
918.171	6319.62
918.482	6326.85
918.794	6269.23
919.105	6274.2
919.416	6212.28
919.727	6244.37
920.038	6186.29
920.349	6142.68
920.66	6111.72
920.971	6102.23
921.282	6101.1
921.593	6117.37
921.903	6004.83
922.214	6041.89
922.525	5993.08
922.835	5975.68
923.146	5879.18
923.456	5906.53
923.767	5873.76
924.077	5892.29
924.387	5827.43
924.697	5809.8
925.008	5827.43
925.318	5751.73
925.628	5747.66
925.938	5735.68
926.248	5717.15
926.558	5654.1
926.867	5643.93
927.177	5646.42
927.487	5649.36
927.796	5541.11
928.106	5537.5
928.416	5500.66
928.725	5521.9
929.034	5486.88
929.344	5458.4
929.653	5472.19
929.962	5375.24
930.271	5394.45
930.581	5376.37
930.89	5309.71
931.199	5293.43
931.508	5299.54
931.817	5278.75
932.125	5295.92
932.434	5261.12
932.743	5161.91
933.051	5170.73
933.36	5174.57
933.669	5123.5
933.977	5130.95
934.286	5115.59
934.594	5109.71
934.902	5067.45
935.21	5037.62
935.519	4995.36
935.827	5006.89
936.135	4906.33
936.443	4895.25
936.751	4889.38
937.059	4912.2
937.367	4877.17
937.674	4848.7
937.982	4866.1
938.29	4850.96
938.597	4829.49
938.905	4807.8
939.213	4766.89
939.52	4725.54
939.827	4730.74
940.135	4721.92
940.442	4683.73
940.749	4657.97
941.056	4644.19
941.363	4632.43
941.67	4613.9
941.977	4577.75
942.284	4526.45
942.591	4519.67
942.898	4555.15
943.205	4530.74
943.511	4466.79
943.818	4447.81
944.125	4482.16
944.431	4447.35
944.738	4404.42
945.044	4442.84
945.35	4367.13
945.657	4339.79
945.963	4366
946.269	4344.31
946.575	4312.9
946.881	4234.71
947.187	4271.77
947.493	4221.82
947.799	4264.76
948.105	4236.51
948.41	4181.37
948.716	4217.3
949.022	4161.94
949.327	4191.32
949.633	4049.17
949.938	4065.22
950.244	4102.05
950.549	4062.96
950.854	4059.79
951.16	4030.19
951.465	4056.4
951.77	4011.66
952.075	3997.88
952.38	3952.45
952.685	3947.48
952.99	3956.29
953.294	3916.52
953.599	3915.17
953.904	3909.29
954.209	3901.15
954.513	3856.86
954.818	3835.39
955.122	3799.01
955.426	3813.7
955.731	3780.71
956.035	3766.69
956.339	3764.89
956.643	3789.29
956.948	3690.99
957.252	3696.41
957.556	3702.52
957.86	3677.66
958.163	3669.75
958.467	3632.24
958.771	3671.1
959.075	3607.6
959.378	3579.58
959.682	3592.24
959.985	3559.02
960.289	3539.58
960.592	3565.57
960.896	3510.88
961.199	3500.94
961.502	3467.72
961.805	3493.71
962.108	3436.08
962.411	3407.38
962.714	3444.22
963.017	3402.41
963.32	3418.23
963.623	3414.39
963.926	3389.53
964.228	3363.09
964.531	3321.73
964.833	3285.35
965.136	3343.43
965.438	3329.42
965.741	3299.59
966.043	3244
966.345	3267.5
966.648	3244
966.95	3241.28
967.252	3210.33
967.554	3222.75
967.856	3199.25
968.158	3128.29
968.46	3164.68
968.761	3116.54
969.063	3151.34
969.365	3147.28
969.666	3105.7
969.968	3077.9
970.269	3053.04
970.571	3057.79
970.872	3087.84
971.174	3060.72
971.475	3031.12
971.776	3003.55
972.077	3011.91
972.378	2981.86
972.679	3004.23
972.98	2960.84
973.281	2955.42
973.582	2968.52
973.883	2937.56
974.183	2915.19
974.484	2890.33
974.785	2897.79
975.085	2900.05
975.386	2886.27
975.686	2863.67
975.986	2829.09
976.287	2840.17
976.587	2808.3
976.887	2795.65
977.187	2819.38
977.487	2834.74
977.787	2752.94
978.087	2717.68
978.387	2750.9
978.687	2738.93
978.987	2734.41
979.286	2706.61
979.586	2667.06
979.885	2689.43
980.185	2662.99
980.484	2656.89
980.784	2686.05
981.083	2625.93
981.382	2662.99
981.682	2608.53
981.981	2582.55
982.28	2595.88
982.579	2576.22
982.878	2631.81
983.177	2584.58
983.475	2549.55
983.774	2516.11
984.073	2531.7
984.372	2497.35
984.67	2489.44
984.969	2505.03
985.267	2451.93
985.566	2484.47
985.864	2479.5
986.162	2455.54
986.461	2436.33
986.759	2398.37
987.057	2407.41
987.355	2378.93
987.653	2381.42
987.951	2373.51
988.249	2397.01
988.547	2353.4
988.844	2353.62
989.142	2362.66
989.44	2337.58
989.737	2329.9
990.035	2300.07
990.332	2291.48
990.63	2319.95
990.927	2295.77
991.224	2278.37
991.521	2278.37
991.819	2278.15
992.116	2256.23
992.413	2227.07
992.71	2194.76
993.006	2170.58
993.303	2186.4
993.6	2213.52
993.897	2135.1
994.193	2157.02
994.49	2209.22
994.787	2149.56
995.083	2130.13
995.379	2149.56
995.676	2104.37
995.972	2101.2
996.268	2095.1
996.565	2074.31
996.861	2074.08
997.157	2065.95
997.453	2037.7
997.749	2027.53
998.044	2044.71
998.34	2023.46
998.636	2000.41
998.932	1978.49
999.227	1998.38
999.523	1966.74
999.818	1982.79
1000.114	1928.78
1000.409	1942.79
1000.704	1969.68
1001	1973.07
1001.295	1916.35
1001.59	1920.19
1001.885	1888.78
1002.18	1907.76
1002.475	1881.09
1002.77	1874.09
1003.065	1870.93
1003.359	1891.49
1003.654	1887.2
1003.949	1842.68
1004.243	1820.53
1004.538	1813.75
1004.832	1804.03
1005.127	1784.83
1005.421	1803.58
1005.715	1816.69
1006.009	1783.24
1006.304	1747.09
1006.598	1733.75
1006.892	1721.55
1007.186	1727.88
1007.48	1736.92
1007.773	1682.46
1008.067	1703.7
1008.361	1691.95
1008.655	1659.63
1008.948	1674.32
1009.242	1663.02
1009.535	1669.35
1009.829	1631.16
1010.122	1611.72
1010.415	1630.03
1010.708	1627.09
1011.001	1621.89
1011.295	1589.35
1011.588	1581.89
1011.881	1574.89
1012.173	1581.89
1012.466	1558.62
1012.759	1543.93
1013.052	1559.97
1013.344	1548.67
1013.637	1526.98
1013.93	1546.64
1014.222	1497.6
1014.514	1520.65
1014.807	1520.2
1015.099	1484.49
1015.391	1486.53
1015.683	1487.88
1015.976	1456.92
1016.268	1448.79
1016.56	1451.5
1016.851	1449.47
1017.143	1455.8
1017.435	1407.66
1017.727	1402.01
1018.018	1376.25
1018.31	1382.12
1018.602	1400.88
1018.893	1395.46
1019.185	1369.7
1019.476	1318.62
1019.767	1359.53
1020.058	1319.98
1020.35	1337.15
1020.641	1331.5
1020.932	1322.92
1021.223	1321.79
1021.514	1294.9
1021.804	1301.9
1022.095	1291.96
1022.386	1273.2
1022.677	1254.44
1022.967	1273.43
1023.258	1256.7
1023.548	1226.42
1023.839	1247.44
1024.129	1246.08
1024.419	1222.13
1024.709	1202.92
1025	1232.75
1025.29	1210.6
1025.58	1198.85
1025.87	1193.66
1026.16	1168.57
1026.449	1177.38
1026.739	1161.11
1027.029	1147.1
1027.319	1119.76
1027.608	1171.06
1027.898	1143.49
1028.187	1115.69
1028.477	1111.85
1028.766	1082.47
1029.055	1118.18
1029.344	1105.07
1029.634	1083.15
1029.923	1092.41
1030.212	1098.52
1030.501	1083.6
1030.79	1060.1
1031.078	1072.75
1031.367	1037.05
1031.656	1042.02
1031.945	1062.13
1032.233	1030.27
1032.522	1019.65
1032.81	1009.03
1033.099	1011.96
1033.387	1009.93
1033.675	1006.77
1033.963	979.42
1034.251	970.84
1034.54	963.15
1034.828	966.77
1035.116	964.06
1035.403	974.68
1035.691	955.02
1035.979	928.58
1036.267	948.69
1036.554	943.49
1036.842	920.67
1037.129	891.97
1037.417	937.39
1037.704	919.76
1037.992	927.45
1038.279	905.53
1038.566	896.26
1038.853	896.26
1039.14	896.26
