Data from hue_26_FLMS001491_00046.txt Node
Date: Tue Feb 07 17:14:04 GMT 2017
User: dcchb
Spectrometer: FLMS00149
Trigger mode: 0
Integration Time (sec): 2.000000E-2
Scans to average: 10
Electric dark correction enabled: true
Nonlinearity correction enabled: false
Boxcar width: 0
XAxis mode: Wavelengths
Number of Pixels in Spectrum: 2048
>>>>>Begin Spectral Data<<<<<
341.393	-15.95
341.776	-15.95
342.16	-15.95
342.543	-51.65
342.927	-72.22
343.31	-71.54
343.693	-64.53
344.077	-60.01
344.46	-68.6
344.843	-59.33
345.226	-43.29
345.61	-36.96
345.993	-21.37
346.376	0.1
346.759	-3.97
347.142	18.86
347.525	41.91
347.908	51.17
348.291	80.55
348.674	120.32
349.057	116.71
349.44	138.4
349.823	157.38
350.206	158.74
350.588	195.57
350.971	215.91
351.354	213.2
351.737	230.83
352.119	231.51
352.502	271.96
352.884	272.63
353.267	268.11
353.65	283.71
354.032	307.21
354.414	299.53
354.797	306.31
355.179	319.86
355.562	336.59
355.944	330.03
356.326	332.97
356.709	343.14
357.091	348.56
357.473	342.46
357.855	349.24
358.238	332.52
358.62	349.69
359.002	348.56
359.384	328.68
359.766	353.99
360.148	337.94
360.53	353.08
360.912	347.43
361.294	337.72
361.676	340.2
362.057	337.49
362.439	326.87
362.821	313.31
363.203	326.64
363.584	314.89
363.966	345.63
364.348	329.58
364.729	335.68
365.111	322.35
365.493	305.85
365.874	319.41
366.256	336.81
366.637	315.12
367.019	316.7
367.4	323.25
367.781	343.59
368.163	317.83
368.544	317.83
368.925	313.08
369.306	298.85
369.688	340.43
370.069	300.2
370.45	298.17
370.831	323.93
371.212	313.31
371.593	306.31
371.974	295.68
372.355	301.11
372.736	301.11
373.117	304.5
373.498	326.87
373.879	304.72
374.26	311.28
374.641	299.98
375.021	316.93
375.402	335.68
375.783	306.76
376.163	316.7
376.544	327.77
376.925	343.37
377.305	306.08
377.686	320.32
378.066	337.94
378.447	311.5
378.827	322.35
379.208	353.54
379.588	329.81
379.968	342.91
380.349	330.94
380.729	360.99
381.109	321.45
381.489	341.33
381.87	352.86
382.25	338.85
382.63	346.08
383.01	337.72
383.39	337.04
383.77	351.95
384.15	347.89
384.53	344.95
384.91	332.75
385.29	364.61
385.67	366.64
386.049	347.21
386.429	355.12
386.809	353.76
387.189	349.02
387.568	371.61
387.948	354.44
388.328	346.76
388.707	365.51
389.087	354.21
389.466	366.19
389.846	342.91
390.225	353.31
390.605	365.29
390.984	357.6
391.363	362.58
391.743	365.51
392.122	370.03
392.501	362.58
392.881	368.9
393.26	372.07
393.639	385.85
394.018	364.61
394.397	390.37
394.776	367.77
395.155	381.56
395.534	372.74
395.913	379.75
396.292	378.39
396.671	402.57
397.05	384.72
397.429	371.61
397.808	382.24
398.186	374.55
398.565	390.37
398.944	375.91
399.323	399.18
399.701	389.69
400.08	403.7
400.458	391.95
400.837	405.74
401.215	400.99
401.594	372.52
401.972	412.74
402.351	413.65
402.729	418.62
403.107	389.02
403.486	420.43
403.864	413.42
404.242	420.43
404.62	412.97
404.999	406.64
405.377	403.48
405.755	430.6
406.133	426.98
406.511	406.87
406.889	416.81
407.267	426.98
407.645	432.63
408.023	426.3
408.401	434.44
408.779	442.35
409.156	424.49
409.534	455.91
409.912	455.45
410.29	457.04
410.667	463.14
411.045	449.58
411.422	451.61
411.8	442.35
412.178	466.53
412.555	468.34
412.933	456.58
413.31	463.59
413.687	470.14
414.065	451.39
414.442	472.18
414.819	483.25
415.197	491.39
415.574	481.22
415.951	486.19
416.328	502.46
416.705	498.16
417.082	504.49
417.46	528.67
417.837	498.16
418.214	472.18
418.591	505.17
418.967	520.54
419.344	510.14
419.721	483.02
420.098	502.46
420.475	492.74
420.852	516.47
421.228	521.67
421.605	526.19
421.982	524.15
422.358	521.22
422.735	516.02
423.111	543.59
423.488	536.13
423.864	559.41
424.241	544.72
424.617	556.47
424.994	569.58
425.37	548.79
425.746	566.64
426.123	555.79
426.499	549.69
426.875	570.25
427.251	565.06
427.627	584.72
428.003	591.04
428.379	563.02
428.756	577.71
429.132	571.61
429.507	575
429.883	605.51
430.259	602.79
430.635	613.64
431.011	614.32
431.387	603.25
431.763	624.49
432.138	637.6
432.514	631.95
432.89	637.6
433.265	651.83
433.641	652.51
434.016	647.31
434.392	651.83
434.767	650.7
435.143	664.71
435.518	661.32
435.894	678.05
436.269	676.01
436.644	681.21
437.02	692.96
437.395	690.93
437.77	693.41
438.145	693.87
438.52	727.54
438.895	684.37
439.271	692.96
439.646	716.24
440.021	727.54
440.395	724.6
440.77	733.19
441.145	727.09
441.52	745.39
441.895	748.1
442.27	743.58
442.645	757.37
443.019	755.56
443.394	753.98
443.769	775.9
444.143	763.02
444.518	765.5
444.892	773.19
445.267	783.13
445.641	744.71
446.016	781.77
446.39	796.69
446.764	785.84
447.139	800.76
447.513	799.4
447.887	786.29
448.262	800.53
448.636	817.48
449.01	816.8
449.384	814.77
449.758	820.64
450.132	834.2
450.506	831.26
450.88	838.95
451.254	830.81
451.628	844.6
452.002	850.02
452.376	871.04
452.75	869.68
453.123	887.08
453.497	890.47
453.871	882.56
454.244	922.79
454.618	905.16
454.992	925.5
455.365	925.05
455.739	956.68
456.112	935.89
456.486	953.75
456.859	941.77
457.232	945.61
457.606	990.36
457.979	980.19
458.352	986.29
458.725	1004.82
459.099	1004.82
459.472	1017.02
459.845	1018.83
460.218	1063.12
460.591	1066.96
460.964	1040.98
461.337	1079.17
461.71	1057.47
462.083	1092.95
462.456	1066.96
462.829	1103.35
463.201	1099.96
463.574	1137.92
463.947	1145.61
464.32	1148.77
464.692	1159.39
465.065	1173.63
465.438	1185.6
465.81	1231.03
466.183	1227.41
466.555	1239.16
466.928	1254.98
467.3	1237.13
467.672	1293.85
468.045	1334.98
468.417	1320.52
468.789	1307.64
469.161	1328.65
469.534	1353.28
469.906	1358.48
470.278	1391.02
470.65	1405.49
471.022	1397.12
471.394	1451.81
471.766	1465.15
472.138	1473.05
472.51	1499.49
472.882	1515.99
473.253	1549.21
473.625	1582.43
473.997	1611.36
474.369	1604.8
474.74	1636.67
475.112	1677.12
475.484	1694.97
475.855	1722.31
476.227	1764.8
476.598	1790.79
476.97	1827.85
477.341	1821.75
477.713	1884.34
478.084	1893.38
478.455	1974.06
478.827	1926.83
479.198	2028.52
479.569	2018.58
479.94	2074.85
480.311	2109.65
480.682	2164.11
481.053	2221.96
481.424	2265.8
481.795	2263.54
482.166	2319.81
482.537	2391.22
482.908	2409.3
483.279	2481.39
483.65	2502.18
484.021	2564.1
484.391	2641.16
484.762	2620.82
485.133	2664.89
485.503	2725.22
485.874	2755.96
486.244	2816.97
486.615	2868.5
486.985	2912.34
487.356	2950.76
487.726	3002.05
488.097	3070.3
488.467	3087.93
488.837	3147.81
489.207	3205.89
489.578	3275.49
489.948	3335.38
490.318	3322.95
490.688	3378.99
491.058	3430.07
491.428	3532.21
491.798	3541.25
492.168	3580.57
492.538	3632.09
492.908	3692.66
493.278	3741.7
493.648	3742.15
494.017	3813.56
494.387	3849.49
494.757	3856.04
495.126	3975.36
495.496	3952.76
495.866	3962.93
496.235	4021.69
496.605	4069.14
496.974	4071.86
497.344	4134
497.713	4203.15
498.082	4236.15
498.452	4247.9
498.821	4305.75
499.19	4342.13
499.559	4354.56
499.928	4370.38
500.298	4411.51
500.667	4433.2
501.036	4433.2
501.405	4501.68
501.774	4489.02
502.143	4574.44
502.512	4614.67
502.88	4621.67
503.249	4647.89
503.618	4668
503.987	4663.48
504.356	4752.06
504.724	4727.21
505.093	4758.62
505.462	4826.19
505.83	4823.47
506.199	4823.47
506.567	4897.82
506.936	4911.38
507.304	4933.75
507.672	4955.67
508.041	5000.42
508.409	5072.96
508.777	5044.26
509.145	5107.08
509.514	5074.32
509.882	5157.48
510.25	5157.03
510.618	5168.55
510.986	5231.15
511.354	5223.46
511.722	5236.8
512.09	5268.21
512.458	5291.71
512.826	5322.22
513.193	5323.35
513.561	5355.21
513.929	5387.3
514.297	5476.57
514.664	5468.88
515.032	5465.72
515.4	5517.02
515.767	5512.04
516.135	5558.6
516.502	5490.35
516.869	5596.11
517.237	5613.28
517.604	5583.91
517.972	5633.4
518.339	5659.16
518.706	5672.72
519.073	5667.07
519.44	5739.38
519.808	5763.34
520.175	5757.46
520.542	5832.94
520.909	5858.25
521.276	5860.51
521.643	5914.97
522.009	5941.86
522.376	5960.85
522.743	5942.54
523.11	5977.34
523.477	6082.65
523.843	6046.49
524.21	6144.57
524.577	6184.57
524.943	6161.52
525.31	6148.41
525.676	6314.28
526.043	6283.32
526.409	6316.77
526.776	6391.8
527.142	6419.82
527.508	6434.73
527.874	6451.91
528.241	6522.64
528.607	6491
528.973	6548.4
529.339	6521.74
529.705	6632.69
530.071	6653.71
530.437	6627.04
530.803	6704.33
531.169	6732.58
531.535	6740.26
531.901	6778
532.267	6814.61
532.632	6865.46
532.998	6889.41
533.364	6958.56
533.73	6945.23
534.095	6999.69
534.461	7048.95
534.826	7012.8
535.192	7044.66
535.557	7149.97
535.923	7099.8
536.288	7172.34
536.653	7179.57
537.019	7153.81
537.384	7215.05
537.749	7239.23
538.114	7250.3
538.479	7253.92
538.845	7307.48
539.21	7353.13
539.575	7348.61
539.94	7394.03
540.305	7486
540.67	7467.25
541.034	7466.12
541.399	7527.58
541.764	7531.2
542.129	7574.36
542.494	7625.44
542.858	7609.84
543.223	7679.9
543.587	7643.74
543.952	7697.98
544.316	7780.69
544.681	7767.13
545.045	7781.14
545.41	7889.16
545.774	7874.47
546.138	7898.65
546.503	7962.6
546.867	7921.47
547.231	8054.58
547.595	8030.62
547.959	8029.72
548.324	8155.59
548.688	8113.78
549.052	8176.61
549.416	8201.69
549.779	8228.58
550.143	8179.32
550.507	8269.71
550.871	8264.06
551.235	8353.33
551.599	8358.75
551.962	8358.52
552.326	8393.32
552.689	8424.51
553.053	8426.32
553.417	8478.29
553.78	8566.65
554.143	8520.33
554.507	8572.98
554.87	8598.06
555.234	8688.46
555.597	8615.92
555.96	8690.49
556.323	8650.72
556.686	8707.89
557.05	8751.28
557.413	8751.73
557.776	8788.34
558.139	8896.36
558.502	8828.34
558.865	8869.92
559.228	8900.88
559.59	9002.12
559.953	8974.55
560.316	9062.01
560.679	9078.73
561.041	9117.83
561.404	9098.84
561.767	9137.03
562.129	9106.53
562.492	9296.13
562.854	9255.9
563.217	9241.66
563.579	9289.57
563.941	9357.59
564.304	9347.2
564.666	9371.6
565.028	9414.54
565.39	9481.43
565.753	9523.24
566.115	9521.43
566.477	9558.27
566.839	9560.53
567.201	9695.44
567.563	9650.47
567.925	9657.7
568.287	9743.57
568.648	9772.95
569.01	9845.49
569.372	9925.26
569.734	9879.84
570.095	9944.47
570.457	9946.05
570.819	10045.71
571.18	10029.44
571.542	10165.26
571.903	10178.14
572.265	10150.34
572.626	10221.75
572.987	10287.96
573.349	10352.6
573.71	10406.6
574.071	10417.9
574.432	10499.94
574.794	10584.23
575.155	10551.01
575.516	10588.52
575.877	10748.06
576.238	10739.25
576.599	10941.96
576.96	10921.85
577.32	10999.81
577.681	11118.45
578.042	11220.82
578.403	11337.88
578.763	11346.02
579.124	11540.36
579.485	11528.16
579.845	11763.63
580.206	11837.53
580.566	11929.95
580.927	12066
581.287	12218.53
581.648	12360.68
582.008	12459.88
582.368	12536.49
582.728	12631.86
583.089	12869.82
583.449	13115.46
583.809	13177.15
584.169	13401.33
584.529	13581.44
584.889	13752.96
585.249	13851.94
585.609	14058.94
585.969	14384.81
586.329	14522.88
586.688	14790.67
587.048	14962.19
587.408	15189.08
587.768	15415.96
588.127	15618.67
588.487	15863.41
588.846	16220.46
589.206	16347.47
589.565	16564.86
589.925	16842.59
590.284	17125.98
590.643	17411.84
591.003	17671.72
591.362	18083.92
591.721	18203.91
592.08	18586.95
592.44	18787.63
592.799	19124.79
593.158	19410.89
593.517	19670.99
593.876	20040.93
594.235	20274.37
594.593	20567.92
594.952	20807.24
595.311	21064.63
595.67	21534
596.029	21934.89
596.387	22180.08
596.746	22505.04
597.104	22714.53
597.463	22900.06
597.822	23385.7
598.18	23582.3
598.538	23943.2
598.897	24319.91
599.255	24428.84
599.613	25012.77
599.972	25103.85
600.33	25494.8
600.688	25688.46
601.046	26118.51
601.404	26508.33
601.762	26586.29
602.12	27071.03
602.478	27265.82
602.836	27561.86
603.194	27692.03
603.552	27996.2
603.91	28232.8
604.268	28734.48
604.625	28742.39
604.983	29186.45
605.341	29251.53
605.698	29658.53
606.056	29959.76
606.413	30076.82
606.771	30527.43
607.128	30774.2
607.485	30817.82
607.843	31132.84
608.2	31503.45
608.557	31757.68
608.914	31890.56
609.272	32334.62
609.629	32495.97
609.986	32899.57
610.343	32827.94
610.7	33386.79
611.057	33309.73
611.414	33410.52
611.771	33724.41
612.127	34125.76
612.484	34107
612.841	34510.6
613.198	34590.15
613.554	34703.14
613.911	35076.01
614.267	35330.47
614.624	35462.67
614.98	35522.1
615.337	35882.55
615.693	36029.43
616.05	36098.58
616.406	36379.26
616.762	36338.58
617.118	36661.51
617.475	36733.14
617.831	36978.56
618.187	37099.69
618.543	37218.78
618.899	37475.72
619.255	37589.84
619.611	37759.78
619.967	37920.91
620.323	38106.44
620.678	38017.18
621.034	38049.72
621.39	38134.46
621.746	38194.12
622.101	38821.45
622.457	38457.39
622.812	38598.18
623.168	38870.94
623.523	38948
623.879	39049.47
624.234	39003.59
624.589	39173.98
624.945	39331.04
625.3	39469.12
625.655	39435.67
626.01	39629.79
626.365	39624.82
626.72	39653.97
627.075	39683.58
627.43	39729
627.785	39711.37
628.14	39898.03
628.495	40028.42
628.85	39954.53
629.205	39993.4
629.559	40183.45
629.914	40131.93
630.269	40175.77
630.623	40139.38
630.978	40169.44
631.332	40450.56
631.687	40420.28
632.041	40307.29
632.396	40420.5
632.75	40394.74
633.104	40407.4
633.459	40309.77
633.813	40446.72
634.167	40305.93
634.521	40386.61
634.875	40552.93
635.229	40367.4
635.583	40317.46
635.937	40378.7
636.291	40352.03
636.645	40385.25
636.999	40300.73
637.352	40501.41
637.706	40310.45
638.06	40525.59
638.413	40322.2
638.767	40310.68
639.121	40441.75
639.474	40273.84
639.828	40393.39
640.181	40346.16
640.534	40398.13
640.888	40346.16
641.241	40189.55
641.594	40263.67
641.947	40400.39
642.301	40297.12
642.654	40270.45
643.007	40411.01
643.36	40373.05
643.713	40238.14
644.066	40483.33
644.419	40205.37
644.771	39990.91
645.124	39555.22
645.477	39468.44
645.83	39154.78
646.182	39146.19
646.535	39128.11
646.888	39249.24
647.24	38871.17
647.593	39221.44
647.945	39272.74
648.298	38858.96
648.65	39004.72
649.002	38749.36
649.355	38929.24
649.707	38967.44
650.059	39094.44
650.411	39554.54
650.763	39589.57
651.115	39993.85
651.467	39884.7
651.819	39953.62
652.171	39860.97
652.523	39756.57
652.875	39802.89
653.227	39601.77
653.578	39957.69
653.93	39841.09
654.282	39714.99
654.633	39712.28
654.985	39697.13
655.337	39810.13
655.688	39641.32
656.039	39805.38
656.391	39547.08
656.742	39564.48
657.094	39676.34
657.445	39729.22
657.796	39683.58
658.147	39442.23
658.498	39598.15
658.849	39708.66
659.2	39600.41
659.551	39469.8
659.902	39583.46
660.253	39553.41
660.604	39492.85
660.955	39423.7
661.306	39563.13
661.656	39430.47
662.007	39366.3
662.358	39429.34
662.708	39417.82
663.059	39501.43
663.409	39286.07
663.76	39558.83
664.11	39464.15
664.461	39617.81
664.811	39530.36
665.161	39372.4
665.511	39443.58
665.862	39451.49
666.212	39413.07
666.562	39614.42
666.912	39385.05
667.262	39413.98
667.612	39412.17
667.962	39415.79
668.312	39345.73
668.662	39550.25
669.011	39347.31
669.361	39453.3
669.711	39236.81
670.06	39357.93
670.41	39227.77
670.76	39249.46
671.109	39359.74
671.459	39292.85
671.808	39188.67
672.157	39251.72
672.507	39164.49
672.856	39108.9
673.205	39258.28
673.554	39310.7
673.904	39187.09
674.253	39376.46
674.602	39108.45
674.951	38727.89
675.3	38423.95
675.649	39042.01
675.998	38909.58
676.346	39011.95
676.695	39068
677.044	38759.53
677.393	38893.54
677.741	39041.33
678.09	38916.36
678.438	38921.34
678.787	38839.08
679.135	38795.69
679.484	38670.72
679.832	38685.41
680.181	38492.87
680.529	38672.53
680.877	38496.71
681.225	38562.25
681.573	38612.64
681.922	38424.4
682.27	38280.67
682.618	38431.86
682.966	38102.15
683.314	38444.06
683.661	38285.42
684.009	37910.74
684.357	38008.59
684.705	37866
685.053	37971.76
685.4	37870.52
685.748	37767.02
686.095	37855.83
686.443	37768.15
686.79	37643.63
687.138	37728.82
687.485	37777.41
687.832	37467.36
688.18	37635.49
688.527	37265.11
688.874	37363.64
689.221	37228.95
689.568	37092.23
689.915	37099.91
690.262	37033.48
690.609	36936.3
690.956	36801.84
691.303	36867.6
691.65	36725.91
691.997	36602.07
692.344	36524.11
692.69	36464.9
693.037	36527.05
693.383	36181.07
693.73	36307.39
694.077	36106.72
694.423	36192.37
694.769	35875.99
695.116	35827.86
695.462	35915.31
695.808	35745.15
696.155	35757.35
696.501	35599.61
696.847	35594.64
697.193	35297.7
697.539	35434.2
697.885	35122.79
698.231	35015.9
698.577	35052.74
698.923	35043.02
699.269	34850.26
699.614	34680.54
699.96	34603.26
700.306	34691.16
700.651	34453.66
700.997	34423.37
701.342	34345.41
701.688	34374.11
702.033	34325.3
702.379	34104.96
702.724	34036.94
703.069	34087.56
703.415	33710.4
703.76	33783.84
704.105	33769.61
704.45	33642.83
704.795	33484.64
705.14	33401.48
705.485	33414.14
705.83	33270.18
706.175	33316.06
706.52	33183.86
706.865	33027.48
707.209	33129.17
707.554	32976.18
707.899	33090.53
708.243	32685.12
708.588	32776.41
708.932	32483.09
709.277	32559.47
709.621	32552.24
709.966	32396.31
710.31	32385.46
710.654	32089.42
710.998	32261.17
711.342	32259.36
711.687	32138.46
712.031	32002.42
712.375	31873.39
712.719	31931.91
713.063	31898.24
713.407	31925.59
713.75	31693.5
714.094	31716.33
714.438	31582.32
714.782	31641.75
715.125	31401.76
715.469	31454.19
715.812	31343.46
716.156	31158.83
716.499	31220.29
716.843	31160.18
717.186	31069.79
717.53	31086.51
717.873	31092.39
718.216	31031.83
718.559	30997.02
718.902	30690.59
719.246	30963.8
719.589	30684.94
719.932	30619.18
720.275	30601.1
720.617	30479.3
720.96	30486.53
721.303	30498.28
721.646	30436.81
721.989	30181
722.331	30360.43
722.674	30323.14
723.016	30324.73
723.359	30225.52
723.701	30223.03
724.044	30107.78
724.386	29937.39
724.729	30014
725.071	30005.41
725.413	30038.41
725.755	29960.67
726.097	29868.47
726.439	29834.57
726.782	29660.79
727.124	29865.53
727.465	29637.51
727.807	29618.3
728.149	29542.15
728.491	29517.51
728.833	29576.72
729.175	29454.01
729.516	29264.64
729.858	29244.75
730.199	29327.69
730.541	29136.73
730.882	29253.57
731.224	29258.54
731.565	29058.09
731.906	29077.75
732.248	29159.56
732.589	28934.03
732.93	28834.14
733.271	28803.64
733.612	28865.55
733.953	28913.01
734.294	28807.48
734.635	28656.97
734.976	28724.54
735.317	28658.1
735.658	28685.9
735.999	28658.78
736.339	28565
736.68	28616.52
737.021	28500.14
737.361	28460.82
737.702	28555.28
738.042	28440.26
738.383	28361.39
738.723	28412.69
739.063	28282.52
739.404	28315.96
739.744	28376.98
740.084	28054.95
740.424	28173.14
740.764	28133.14
741.104	28234.84
741.444	28022.41
741.784	27949.19
742.124	28007.05
742.464	27866.26
742.804	27848.41
743.143	27833.27
743.483	27730.9
743.823	27615.87
744.162	27718.69
744.502	27578.81
744.841	27563.67
745.181	27584.46
745.52	27349.89
745.86	27548.98
746.199	27546.49
746.538	27454.07
746.877	27405.03
747.216	27428.3
747.556	27411.36
747.895	27353.28
748.234	27306.05
748.573	27270.12
748.911	27125.71
749.25	27252.94
749.589	27124.13
749.928	27169.55
750.267	27210.46
750.605	27138.82
750.944	27003.23
751.283	27017.69
751.621	27009.56
751.96	26877.58
752.298	26939.96
752.636	26766.63
752.975	26674.65
753.313	26656.12
753.651	26787.42
753.989	26591.94
754.327	26660.19
754.666	26460.87
755.004	26633.97
755.342	26424.26
755.679	26450.48
756.017	26321.21
756.355	26351.95
756.693	26224.49
757.031	26333.64
757.368	26137.49
757.706	26078.74
758.044	25888.68
758.381	26104.5
758.719	25905.86
759.056	26009.58
759.394	25779.53
759.731	25695.47
760.068	25575.02
760.405	25575.25
760.743	25526.43
761.08	25550.84
761.417	25325.31
761.754	25312.65
762.091	25244.18
762.428	25235.82
762.765	25107.01
763.102	25149.49
763.438	25022.49
763.775	24919.44
764.112	24847.58
764.449	24915.15
764.785	24812.55
765.122	24626.8
765.458	24499.34
765.795	24468.38
766.131	24493.92
766.467	24432.9
766.804	24257.31
767.14	24237.65
767.476	24251.21
767.812	24110.43
768.148	24146.13
768.485	23886.48
768.821	23882.18
769.157	23799.02
769.492	23773.94
769.828	23675.18
770.164	23455.08
770.5	23480.16
770.836	23549.08
771.171	23321.75
771.507	23167.63
771.842	23180.05
772.178	23053.05
772.513	23087.85
772.849	22922.66
773.184	22828.43
773.519	22914.07
773.855	22702.1
774.19	22696.68
774.525	22432.73
774.86	22556.12
775.195	22533.97
775.53	22430.7
775.865	22228.89
776.2	22020.54
776.535	22001.55
776.87	22081.1
777.205	21808.11
777.539	21839.3
777.874	21816.25
778.209	21675.24
778.543	21582.13
778.878	21551.62
779.212	21581.45
779.547	21430.04
779.881	21404.73
780.215	21211.74
780.55	21256.72
780.884	21089.26
781.218	21080.45
781.552	21050.39
781.886	20946.21
782.22	20821.92
782.554	20703.51
782.888	20546.9
783.222	20471.2
783.556	20392.56
783.889	20334.93
784.223	20308.49
784.557	20215.84
784.89	20208.16
785.224	20123.64
785.557	19989.86
785.891	19987.14
786.224	19911.89
786.558	19830.99
786.891	19727.04
787.224	19666.7
787.557	19621.96
787.891	19596.87
788.224	19531.11
788.557	19490.66
788.89	19396.2
789.223	19390.78
789.556	19245.02
789.888	19095.64
790.221	19015.19
790.554	18935.42
790.887	18896.1
791.219	18978.81
791.552	18846.83
791.884	18695.43
792.217	18734.07
792.549	18705.37
792.882	18488.88
793.214	18418.37
793.546	18398.71
793.879	18398.71
794.211	18275.78
794.543	18371.14
794.875	18210.24
795.207	18360.07
795.539	18098.38
795.871	18076.01
796.203	17990.81
796.535	17872.62
796.867	17839.18
797.198	17767.54
797.53	17820.42
797.862	17679.41
798.193	17697.71
798.525	17574.33
798.856	17589.01
799.188	17362.13
799.519	17387.21
799.85	17306.08
800.182	17272.64
800.513	17234.9
800.844	17128.24
801.175	17239.87
801.506	17111.06
801.837	17046.2
802.168	17022.7
802.499	16930.73
802.83	16850.28
803.161	16796.27
803.491	16878.53
803.822	16771.64
804.153	16645.76
804.483	16600.57
804.814	16469.27
805.145	16464.3
805.475	16450.29
805.805	16432.66
806.136	16372.78
806.466	16298.43
806.796	16347.01
807.126	16297.3
807.457	16193.8
807.787	16229.05
808.117	16082.39
808.447	16008.27
808.777	16102.05
809.107	15969.85
809.436	15918.32
809.766	15882.39
810.096	15931.88
810.426	15852.11
810.755	15823.41
811.085	15763.07
811.414	15673.59
811.744	15628.84
812.073	15568.73
812.403	15504.78
812.732	15365.12
813.061	15509.52
813.39	15339.81
813.719	15339.13
814.049	15452.35
814.378	15306.59
814.707	15330.32
815.036	15214.39
815.365	15119.7
815.693	15041.06
816.022	14992.92
816.351	15018.69
816.68	14928.29
817.008	14958.12
817.337	14853.27
817.665	14818.24
817.994	14856.66
818.322	14807.85
818.651	14738.92
818.979	14652.82
819.307	14782.31
819.636	14704.35
819.964	14554.74
820.292	14642.2
820.62	14664.35
820.948	14662.31
821.276	14638.36
821.604	14569.66
821.932	14519.04
822.259	14635.19
822.587	14546.16
822.915	14533.28
823.243	14565.37
823.57	14506.38
823.898	14572.82
824.225	14480.85
824.553	14490.34
824.88	14533.95
825.207	14509.1
825.535	14506.84
825.862	14524.46
826.189	14372.38
826.516	14583.67
826.843	14493.28
827.17	14485.37
827.497	14553.16
827.824	14509.55
828.151	14512.03
828.478	14462.09
828.805	14510
829.131	14420.74
829.458	14484.46
829.785	14381.87
830.111	14417.35
830.438	14467.52
830.764	14406.27
831.09	14437.69
831.417	14432.04
831.743	14467.06
832.069	14432.04
832.395	14354.52
832.722	14377.57
833.048	14345.71
833.374	14381.19
833.7	14314.07
834.026	14196.56
834.351	14344.81
834.677	14274.07
835.003	14306.84
835.329	14310.01
835.654	14314.75
835.98	14154.53
836.306	14198.82
836.631	14234.3
836.956	14176.45
837.282	14235.2
837.607	14098.71
837.932	14106.62
838.258	14107.52
838.583	14073.85
838.908	13945.95
839.233	14025.04
839.558	13932.39
839.883	13966.96
840.208	13852.62
840.533	13881.99
840.858	13928.32
841.182	13862.56
841.507	13879.06
841.832	13772.84
842.156	13865.72
842.481	13768.1
842.805	13779.85
843.13	13698.5
843.454	13651.04
843.778	13524.94
844.103	13516.58
844.427	13571.72
844.751	13563.81
845.075	13452.4
845.399	13455.56
845.723	13342.8
846.047	13408.56
846.371	13336.25
846.695	13362.69
847.019	13214.67
847.343	13069.59
847.666	13138.74
847.99	13003.6
848.313	12948.68
848.637	12882.92
848.96	12877.73
849.284	12802.25
849.607	12756.83
849.931	12666.88
850.254	12621.01
850.577	12574.46
850.9	12466.89
851.223	12557.06
851.546	12391.64
851.869	12415.82
852.192	12375.14
852.515	12319.55
852.838	12268.48
853.161	12217.4
853.483	12207.01
853.806	12168.14
854.129	12069.16
854.451	12008.6
854.774	12006.56
855.096	12019.9
855.419	11945.55
855.741	11892.89
856.063	11824.42
856.385	11821.48
856.708	11762.28
857.03	11736.29
857.352	11741.03
857.674	11750.75
857.996	11682.05
858.318	11611.54
858.64	11579.46
858.961	11593.69
859.283	11533.81
859.605	11443.87
859.926	11494.71
860.248	11412.91
860.57	11429.18
860.891	11408.84
861.212	11318.9
861.534	11308.95
861.855	11256.3
862.176	11272.8
862.498	11245.45
862.819	11313.7
863.14	11261.27
863.461	11187.6
863.782	11138.56
864.103	11257.43
864.424	11049.53
864.745	11198
865.065	11004.78
865.386	10991.9
865.707	10955.07
866.027	10932.69
866.348	11010.2
866.668	11045.01
866.989	10966.36
867.309	10896.54
867.63	10892.92
867.95	10861.51
868.27	10842.98
868.59	10818.57
868.91	10867.61
869.23	10755.75
869.55	10694.96
869.87	10790.1
870.19	10760.04
870.51	10742.19
870.83	10784
871.15	10682.3
871.469	10612.25
871.789	10685.02
872.109	10630.55
872.428	10553.95
872.748	10670.55
873.067	10623.55
873.386	10638.46
873.706	10584
874.025	10460.84
874.344	10442.76
874.663	10558.01
874.982	10467.85
875.301	10500.16
875.62	10424.23
875.939	10492.48
876.258	10401.86
876.577	10395.76
876.896	10420.62
877.214	10405.7
877.533	10371.8
877.852	10398.92
878.17	10404.57
878.489	10341.07
878.807	10287.96
879.125	10294.52
879.444	10230.56
879.762	10194.86
880.08	10235.76
880.398	10166.39
880.716	10181.07
881.034	10103.11
881.352	10161.41
881.67	10164.35
881.988	10020.63
882.306	10073.73
882.624	10087.74
882.941	9962.77
883.259	10003
883.577	10018.59
883.894	9977.46
884.212	9955.09
884.529	9944.02
884.846	9854.98
885.164	9870.12
885.481	9901.08
885.798	9818.6
886.115	9718.71
886.432	9763.91
886.75	9751.93
887.067	9743.35
887.383	9754.64
887.7	9752.61
888.017	9671.71
888.334	9680.97
888.651	9629
888.967	9579.51
889.284	9632.16
889.6	9528.89
889.917	9506.52
890.233	9511.71
890.55	9456.8
890.866	9427.65
891.182	9309.91
891.498	9394.88
891.815	9341.1
892.131	9323.02
892.447	9290.02
892.763	9279.4
893.079	9260.19
893.395	9201.21
893.71	9193.98
894.026	9180.87
894.342	9165.06
894.657	9083.25
894.973	9081.89
895.289	9018.84
895.604	8986.98
895.92	8967.77
896.235	8949.69
896.55	8913.31
896.865	8859.53
897.181	8859.07
897.496	8909.24
897.811	8828.79
898.126	8773.65
898.441	8753.54
898.756	8706.31
899.071	8667.22
899.386	8641.45
899.7	8567.56
900.015	8599.87
900.33	8467.22
900.644	8489.14
900.959	8494.79
901.273	8466.09
901.588	8377.96
901.902	8371.18
902.216	8380.44
902.531	8350.39
902.845	8321.24
903.159	8287.11
903.473	8230.62
903.787	8168.47
904.101	8124.18
904.415	8177.28
904.729	8142.03
905.042	8136.16
905.356	8045.54
905.67	8109.04
905.984	8029.27
906.297	8024.97
906.611	7967.57
906.924	7961.25
907.237	7880.57
907.551	7871.53
907.864	7837.63
908.177	7851.64
908.491	7829.27
908.804	7693.91
909.117	7777.07
909.43	7647.58
909.743	7634.7
910.056	7603.06
910.368	7621.37
910.681	7485.33
910.994	7521.71
911.307	7464.99
911.619	7435.38
911.932	7475.16
912.244	7366.23
912.557	7378.21
912.869	7309.74
913.181	7287.59
913.494	7250.76
913.806	7270.87
914.118	7256.86
914.43	7179.57
914.742	7175.5
915.054	7161.72
915.366	7077.43
915.678	7070.42
915.99	7089.86
916.302	7025.68
916.613	6958.79
916.925	6953.81
917.236	6963.76
917.548	6920.14
917.859	6872.01
918.171	6846.25
918.482	6827.49
918.794	6729.64
919.105	6802.18
919.416	6740.71
919.727	6676.76
920.038	6683.99
920.349	6640.6
920.66	6610.32
920.971	6590.89
921.282	6593.37
921.593	6563.32
921.903	6502.53
922.214	6515.86
922.525	6466.82
922.835	6386.15
923.146	6389.99
923.456	6358.12
923.767	6279.03
924.077	6385.24
924.387	6313.61
924.697	6288.52
925.008	6223.44
925.318	6261.86
925.628	6179.15
925.938	6162.65
926.248	6128.98
926.558	6094.18
926.867	6143.21
927.177	6032.48
927.487	6082.88
927.796	5957.23
928.106	5987.29
928.416	5970.79
928.725	5947.97
929.034	5888.31
929.344	5938.47
929.653	5878.36
929.962	5880.17
930.271	5794.3
930.581	5723.11
930.89	5779.83
931.199	5661.42
931.508	5730.34
931.817	5719.04
932.125	5680.4
932.434	5651.25
932.743	5576.9
933.051	5626.39
933.36	5525.15
933.669	5455.55
933.977	5460.75
934.286	5505.26
934.594	5490.12
934.902	5465.49
935.21	5446.51
935.519	5392.05
935.827	5334.42
936.135	5345.04
936.443	5294.2
936.751	5259.85
937.059	5261.66
937.367	5208.55
937.674	5243.58
937.982	5178.04
938.29	5183.47
938.597	5140.75
938.905	5159.96
939.213	5136.91
939.52	5113.18
939.827	5114.99
940.135	5085.84
940.442	5025.5
940.749	5032.73
941.056	5045.62
941.363	4929.23
941.67	4988.89
941.977	4896.02
942.284	4872.51
942.591	4841.78
942.898	4851.04
943.205	4860.54
943.511	4832.74
943.818	4845.62
944.125	4757.94
944.431	4730.6
944.738	4769.92
945.044	4740.31
945.35	4695.57
945.657	4657.38
945.963	4633.42
946.269	4608.57
946.575	4655.34
946.881	4614.89
947.187	4597.72
947.493	4532.64
947.799	4572.86
948.105	4590.03
948.41	4487.44
948.716	4451.28
949.022	4461
949.327	4514.33
949.633	4367.89
949.938	4424.84
950.244	4394.79
950.549	4335.58
950.854	4348.69
951.16	4324.73
951.465	4351.62
951.77	4260.55
952.075	4268.91
952.38	4285.86
952.685	4251.29
952.99	4258.97
953.294	4218.75
953.599	4189.59
953.904	4159.31
954.209	4151.85
954.513	4142.59
954.818	4121.35
955.122	4085.19
955.426	4051.29
955.731	4056.94
956.035	4038.41
956.339	4062.36
956.643	4021.46
956.948	4018.07
957.252	3976.94
957.556	3948.47
957.86	3935.14
958.163	3932.2
958.467	3860.56
958.771	3879.77
959.075	3889.26
959.378	3853.56
959.682	3840.22
959.985	3788.93
960.289	3838.64
960.592	3801.13
960.896	3785.08
961.199	3734.46
961.502	3730.85
961.805	3732.43
962.108	3696.5
962.411	3705.31
962.714	3646.56
963.017	3634.35
963.32	3615.82
963.623	3621.47
963.926	3663.05
964.228	3558.42
964.531	3566.11
964.833	3542.38
965.136	3550.29
965.438	3523.17
965.741	3530.63
966.043	3509.16
966.345	3471.65
966.648	3467.35
966.95	3471.87
967.252	3445.88
967.554	3447.24
967.856	3434.13
968.158	3401.14
968.46	3378.09
968.761	3396.39
969.063	3356.85
969.365	3306
969.666	3351.88
969.968	3329.95
970.269	3260.13
970.571	3296.28
970.872	3243.63
971.174	3244.31
971.475	3236.85
971.776	3242.73
972.077	3235.49
972.378	3191.65
972.679	3157.76
972.98	3194.37
973.281	3113.92
973.582	3154.82
973.883	3127.47
974.183	3080.24
974.484	3127.7
974.785	3088.61
975.085	3060.13
975.386	3070.3
975.686	3032.11
975.986	3044.54
976.287	3013.8
976.587	2973.13
976.887	2997.53
977.187	3002.28
977.487	2960.25
977.787	2937.65
978.087	2960.92
978.387	2912.79
978.687	2928.38
978.987	2928.61
979.286	2884.77
979.586	2909.63
979.885	2876.18
980.185	2819.91
980.484	2836.41
980.784	2822.17
981.083	2779.46
981.382	2805.67
981.682	2787.37
981.981	2809.29
982.28	2770.42
982.579	2775.17
982.878	2751.89
983.177	2731.78
983.475	2743.76
983.774	2703.76
984.073	2664.89
984.372	2668.5
984.67	2706.02
984.969	2663.31
985.267	2657.66
985.566	2596.64
985.864	2621.72
986.162	2607.49
986.461	2576.53
986.759	2574.49
987.057	2601.39
987.355	2546.92
987.653	2561.39
987.951	2571.1
988.249	2509.64
988.547	2544.44
988.844	2505.57
989.142	2513.25
989.44	2496.53
989.737	2438.9
990.035	2498.11
990.332	2448.85
990.63	2449.98
990.927	2420.37
991.224	2402.52
991.521	2395.52
991.819	2391.67
992.116	2356.87
992.413	2379.47
992.71	2364.56
993.006	2360.26
993.303	2379.7
993.6	2343.54
993.897	2316.42
994.193	2299.02
994.49	2303.09
994.787	2283.88
995.083	2291.56
995.379	2270.55
995.676	2259.7
995.972	2238.46
996.268	2214.28
996.565	2225.13
996.861	2210.21
997.157	2204.79
997.453	2184.67
997.749	2169.08
998.044	2164.11
998.34	2160.04
998.636	2143.55
998.932	2124.79
999.227	2073.94
999.523	2114.85
999.818	2092.25
1000.114	2099.03
1000.409	2088.41
1000.704	2054.73
1001	2056.99
1001.295	2047.73
1001.59	2060.16
1001.885	2024.23
1002.18	2009.09
1002.475	1986.49
1002.77	1997.79
1003.065	1995.07
1003.359	1962.08
1003.654	1957.79
1003.949	1943.1
1004.243	1936.55
1004.538	1908.07
1004.832	1926.38
1005.127	1943.1
1005.421	1900.84
1005.715	1910.56
1006.009	1892.93
1006.304	1861.97
1006.598	1857.68
1006.892	1813.38
1007.186	1856.1
1007.48	1817.23
1007.773	1795.08
1008.067	1795.08
1008.361	1789.88
1008.655	1803.89
1008.948	1776.1
1009.242	1771.8
1009.535	1773.84
1009.829	1761.18
1010.122	1744.23
1010.415	1739.94
1010.708	1718.02
1011.001	1715.08
1011.295	1704.23
1011.588	1688.19
1011.881	1666.72
1012.173	1642.77
1012.466	1674.41
1012.759	1671.24
1013.052	1643.22
1013.344	1631.47
1013.637	1645.03
1013.93	1595.54
1014.222	1585.14
1014.514	1604.8
1014.807	1564.8
1015.099	1554.86
1015.391	1604.35
1015.683	1560.06
1015.976	1541.3
1016.268	1547.85
1016.56	1523.45
1016.851	1533.39
1017.143	1510.57
1017.435	1532.26
1017.727	1489.1
1018.018	1492.71
1018.31	1489.55
1018.602	1439.38
1018.893	1447.29
1019.185	1433.51
1019.476	1426.28
1019.767	1437.12
1020.058	1435.77
1020.35	1430.12
1020.641	1397.12
1020.932	1431.7
1021.223	1401.87
1021.514	1378.82
1021.804	1361.64
1022.095	1351.48
1022.386	1340.4
1022.677	1332.72
1022.967	1324.13
1023.258	1351.02
1023.548	1319.84
1023.839	1277.81
1024.129	1290.23
1024.419	1274.19
1024.709	1249.33
1025	1250.46
1025.29	1260.18
1025.58	1250.01
1025.87	1240.52
1026.16	1243.46
1026.449	1219.73
1026.739	1233.06
1027.029	1210.01
1027.319	1211.14
1027.608	1166.17
1027.898	1215.89
1028.187	1178.6
1028.477	1188.32
1028.766	1155.55
1029.055	1154.19
1029.344	1181.54
1029.634	1167.07
1029.923	1145.38
1030.212	1148.54
1030.501	1121.88
1030.79	1104.02
1031.078	1100.86
1031.367	1112.61
1031.656	1099.5
1031.945	1113.74
1032.233	1085.49
1032.522	1087.3
1032.81	1057.47
1033.099	1077.58
1033.387	1065.61
1033.675	1052.95
1033.963	1041.65
1034.251	1058.83
1034.54	1014.99
1034.828	1018.6
1035.116	1009.79
1035.403	1005.04
1035.691	1012.73
1035.979	997.13
1036.267	980.41
1036.554	968.43
1036.842	972.05
1037.129	978.6
1037.417	972.28
1037.704	948.77
1037.992	952.16
1038.279	932.96
1038.566	954.88
1038.853	954.88
1039.14	954.88
