Data from hue_80_FLMS001491_73.txt Node
Date: Mon Feb 06 15:23:31 GMT 2017
User: dcchb
Spectrometer: FLMS00149
Trigger mode: 0
Integration Time (sec): 2.000000E-2
Scans to average: 10
Electric dark correction enabled: true
Nonlinearity correction enabled: false
Boxcar width: 0
XAxis mode: Wavelengths
Number of Pixels in Spectrum: 2048
>>>>>Begin Spectral Data<<<<<
341.393	0.2
341.776	0.2
342.16	0.2
342.543	-61.27
342.927	-53.59
343.31	-62.4
343.693	-67.6
344.077	-81.38
344.46	-42.29
344.843	-45.22
345.226	-44.55
345.61	-24.89
345.993	-19.69
346.376	-2.29
346.759	5.4
347.142	7.88
347.525	39.74
347.908	49.46
348.291	75.45
348.674	93.3
349.057	119.06
349.44	117.71
349.823	152.28
350.206	169.46
350.588	176.92
350.971	210.81
351.354	230.02
351.737	226.86
352.119	255.11
352.502	243.58
352.884	267.08
353.267	280.19
353.65	279.74
354.032	279.29
354.414	318.16
354.797	271.6
355.179	314.77
355.562	312.96
355.944	337.82
356.326	337.59
356.709	333.07
357.091	326.29
357.473	336.46
357.855	335.33
358.238	342.11
358.62	333.52
359.002	329.68
359.384	344.37
359.766	332.84
360.148	328.55
360.53	312.51
360.912	344.6
361.294	335.56
361.676	336.23
362.057	305.73
362.439	326.52
362.821	331.04
363.203	316.57
363.584	322.22
363.966	317.25
364.348	310.02
364.729	325.84
365.111	315.44
365.493	308.21
365.874	310.02
366.256	328.32
366.637	301.66
367.019	304.14
367.4	305.05
367.781	305.27
368.163	326.74
368.544	312.73
368.925	310.92
369.306	298.95
369.688	318.16
370.069	298.27
370.45	312.51
370.831	317.03
371.212	318.61
371.593	293.52
371.974	309.57
372.355	316.35
372.736	330.81
373.117	313.86
373.498	305.73
373.879	305.73
374.26	325.16
374.641	323.58
375.021	312.28
375.402	311.15
375.783	313.18
376.163	330.58
376.544	326.06
376.925	305.27
377.305	321.32
377.686	323.58
378.066	317.93
378.447	312.05
378.827	328.78
379.208	321.32
379.588	318.83
379.968	321.55
380.349	345.73
380.729	340.98
381.109	339.4
381.489	334.43
381.87	340.75
382.25	319.96
382.63	344.14
383.01	342.11
383.39	337.59
383.77	355.44
384.15	342.79
384.53	338.95
384.91	334.65
385.29	342.56
385.67	345.27
386.049	318.61
386.429	351.83
386.809	348.89
387.189	347.99
387.568	348.44
387.948	351.83
388.328	344.14
388.707	361.77
389.087	369.45
389.466	347.08
389.846	359.96
390.225	366.97
390.605	356.8
390.984	353.41
391.363	371.26
391.743	354.09
392.122	340.98
392.501	378.72
392.881	387.08
393.26	373.07
393.639	361.09
394.018	369.91
394.397	374.65
394.776	389.57
395.155	349.57
395.534	380.75
395.913	371.49
396.292	353.86
396.671	380.07
397.05	373.75
397.429	374.88
397.808	376.01
398.186	379.85
398.565	361.09
398.944	379.17
399.323	381.88
399.701	399.51
400.08	388.89
400.458	386.85
400.837	403.12
401.215	418.27
401.594	391.6
401.972	380.3
402.351	389.79
402.729	405.38
403.107	406.06
403.486	388.44
403.864	415.33
404.242	417.36
404.62	414.42
404.999	392.73
405.377	406.51
405.755	417.59
406.133	433.18
406.511	425.27
406.889	410.81
407.267	427.31
407.645	447.42
408.023	422.79
408.401	425.27
408.779	416.46
409.156	427.76
409.534	432.73
409.912	432.05
410.29	436.57
410.667	448.1
411.045	456.46
411.422	451.71
411.8	439.96
412.178	436.8
412.555	474.31
412.933	463.24
413.31	457.59
413.687	467.98
414.065	466.17
414.442	459.17
414.819	472.73
415.197	486.06
415.574	505.95
415.951	487.87
416.328	502.11
416.705	505.72
417.082	496.68
417.46	501.43
417.837	504.82
418.214	486.29
418.591	484.48
418.967	505.95
419.344	493.74
419.721	498.49
420.098	510.92
420.475	515.21
420.852	525.38
421.228	516.12
421.605	511.82
421.982	540.3
422.358	536
422.735	536.45
423.111	518.38
423.488	533.07
423.864	521.99
424.241	533.29
424.617	527.42
424.994	569
425.37	556.34
425.746	545.49
426.123	548.43
426.499	551.6
426.875	542.33
427.251	592.05
427.627	566.28
428.003	586.85
428.379	582.78
428.756	574.87
429.132	576.23
429.507	605.15
429.883	582.1
430.259	609.45
430.635	625.72
431.011	612.84
431.387	622.78
431.763	617.81
432.138	634.76
432.514	615.77
432.89	630.46
433.265	638.37
433.641	646.96
434.016	668.2
434.392	657.58
434.767	648.99
435.143	654.19
435.518	697.35
435.894	700.07
436.269	676.11
436.644	694.64
437.02	709.78
437.395	700.07
437.77	697.81
438.145	712.04
438.52	719.95
438.895	720.4
439.271	741.42
439.646	723.57
440.021	757.47
440.395	720.86
440.77	719.95
441.145	745.94
441.52	771.7
441.895	772.61
442.27	755.21
442.645	767.41
443.019	774.19
443.394	777.13
443.769	798.37
444.143	775.77
444.518	796.79
444.892	795.21
445.267	786.84
445.641	798.37
446.016	791.59
446.39	804.24
446.764	800.63
447.139	824.58
447.513	815.09
447.887	825.94
448.262	820.97
448.636	845.15
449.01	844.92
449.384	824.81
449.758	851.93
450.132	871.81
450.506	862.32
450.88	872.72
451.254	861.87
451.628	886.28
452.002	891.7
452.376	894.41
452.75	897.12
453.123	896.45
453.497	901.19
453.871	931.02
454.244	951.13
454.618	956.33
454.992	928.08
455.365	960.62
455.739	990.91
456.112	984.58
456.486	953.84
456.859	995.65
457.232	1001.3
457.606	1019.61
457.979	1031.13
458.352	1045.82
458.725	1053.28
459.099	1046.95
459.472	1049.66
459.845	1094.86
460.218	1107.06
460.591	1099.38
460.964	1107.97
461.337	1138.47
461.71	1135.08
462.083	1168.98
462.456	1162.65
462.829	1185.7
463.201	1185.93
463.574	1207.4
463.947	1224.8
464.32	1269.32
464.692	1262.09
465.065	1274.51
465.438	1289.2
465.81	1307.06
466.183	1357.22
466.555	1346.38
466.928	1364.46
467.3	1375.98
467.672	1411.91
468.045	1441.52
468.417	1428.86
468.789	1444.23
469.161	1477.22
469.534	1523.55
469.906	1537.78
470.278	1553.15
470.65	1591.79
471.022	1626.82
471.394	1641.51
471.766	1662.53
472.138	1688.51
472.51	1718.34
472.882	1777.78
473.253	1795.86
473.625	1864.56
473.997	1879.7
474.369	1915.18
474.74	1973.25
475.112	1995.17
475.484	2048.73
475.855	2105
476.227	2135.06
476.598	2220.25
476.97	2255.73
477.341	2286.24
477.713	2415.28
478.084	2431.32
478.455	2499.57
478.827	2559.23
479.198	2613.46
479.569	2667.02
479.94	2785.44
480.311	2816.17
480.682	2920.35
481.053	3019.33
481.424	3101.81
481.795	3168.7
482.166	3257.74
482.537	3331.64
482.908	3426.32
483.279	3537.05
483.65	3668.58
484.021	3757.16
484.391	3813.2
484.762	3930.72
485.133	4023.82
485.503	4152.18
485.874	4270.14
486.244	4345.62
486.615	4501.77
486.985	4624.48
487.356	4751.26
487.726	4856.34
488.097	5033.51
488.467	5163.68
488.837	5235.09
489.207	5385.14
489.578	5511.47
489.948	5641.41
490.318	5803.66
490.688	5858.8
491.058	5989.19
491.428	6216.98
491.798	6354.61
492.168	6517.99
492.538	6547.82
492.908	6732.68
493.278	6862.84
493.648	6997.53
494.017	7199.56
494.387	7270.06
494.757	7526.55
495.126	7621.24
495.496	7785.98
495.866	7777.85
496.235	7980.55
496.605	8114.11
496.974	8216.03
497.344	8454.66
497.713	8525.85
498.082	8618.28
498.452	8807.65
498.821	8875.67
499.19	9014.42
499.559	9177.58
499.928	9295.77
500.298	9436.33
500.667	9623
501.036	9669.77
501.405	9805.14
501.774	9821.86
502.143	9989.54
502.512	9969.65
502.88	10175.07
503.249	10298.23
503.618	10366.7
503.987	10471.79
504.356	10607.38
504.724	10684.21
505.093	10795.17
505.462	10839.23
505.83	11006.91
506.199	11147.02
506.567	11295.27
506.936	11341.37
507.304	11549.95
507.672	11610.97
508.041	11624.52
508.409	11773.22
508.777	11851.86
509.145	12035.36
509.514	12068.13
509.882	12143.16
510.25	12241.91
510.618	12288.69
510.986	12309.7
511.354	12563.94
511.722	12600.32
512.09	12830.82
512.458	12736.13
512.826	12824.04
513.193	13032.4
513.561	12932.29
513.929	13104.03
514.297	13243.01
514.664	13253.63
515.032	13294.76
515.4	13393.07
515.767	13543.57
516.135	13577.47
516.502	13523.91
516.869	13741.31
517.237	13826.27
517.604	13758.71
517.972	13916.89
518.339	14030.56
518.706	13932.94
519.073	14118.47
519.44	14231.91
519.808	14341.74
520.175	14232.59
520.542	14530.89
520.909	14484.34
521.276	14473.49
521.643	14636.2
522.009	14644.11
522.376	14687.72
522.743	14784.89
523.11	14952.12
523.477	15055.62
523.843	15089.29
524.21	15131.33
524.577	15201.83
524.943	15324.77
525.31	15396.63
525.676	15449.51
526.043	15504.65
526.409	15590.3
526.776	15589.62
527.142	15671.65
527.508	15637.98
527.874	15831.42
528.241	15817.86
528.607	15821.48
528.973	15967.01
529.339	15902.15
529.705	16021.47
530.071	16145.08
530.437	16143.5
530.803	16157.06
531.169	16224.63
531.535	16134.01
531.901	16201.13
532.267	16337.17
532.632	16315.02
532.998	16379.88
533.364	16364.51
533.73	16429.14
534.095	16400.67
534.461	16437.05
534.826	16535.36
535.192	16520.22
535.557	16519.76
535.923	16519.99
536.288	16524.73
536.653	16628.91
537.019	16442.25
537.384	16579.87
537.749	16537.39
538.114	16533.1
538.479	16629.82
538.845	16670.95
539.21	16517.28
539.575	16621.68
539.94	16648.12
540.305	16578.74
540.67	16516.15
541.034	16657.16
541.399	16657.16
541.764	16642.25
542.129	16557.95
542.494	16569.93
542.858	16602.25
543.223	16644.51
543.587	16660.1
543.952	16524.51
544.316	16573.32
544.681	16531.51
545.045	16572.87
545.41	16599.54
545.774	16660.78
546.138	16526.77
546.503	16518.86
546.867	16534.68
547.231	16555.24
547.595	16496.49
547.959	16586.65
548.324	16503.27
548.688	16482.25
549.052	16588.69
549.416	16534.23
549.779	16483.38
550.143	16427.56
550.507	16536.26
550.871	16559.54
551.235	16498.07
551.599	16612.87
551.962	16501.01
552.326	16505.75
552.689	16644.51
553.053	16510.95
553.417	16557.05
553.78	16642.92
554.143	16598.18
554.507	16558.18
554.87	16556.6
555.234	16656.03
555.597	16538.75
555.96	16507.79
556.323	16529.93
556.686	16592.08
557.05	16579.42
557.413	16629.59
557.776	16610.16
558.139	16753.88
558.502	16689.25
558.865	16663.94
559.228	16818.74
559.59	16689.7
559.953	16737.16
560.316	16869.36
560.679	16817.38
561.041	16833.65
561.404	16891.73
561.767	16984.84
562.129	16850.38
562.492	17035
562.854	16965.18
563.217	16922.69
563.579	16921.79
563.941	17061.44
564.304	17131.5
564.666	17079.07
565.028	17219.86
565.39	17184.15
565.753	17244.04
566.115	17234.55
566.477	17285.17
566.839	17262.12
567.201	17426.41
567.563	17439.74
567.925	17428.89
568.287	17482.68
568.648	17465.28
569.01	17483.35
569.372	17578.27
569.734	17504.6
570.095	17701.43
570.457	17686.06
570.819	17678.15
571.18	17621.43
571.542	17672.28
571.903	17761.54
572.265	17770.13
572.626	17861.87
572.987	17816
573.349	17891.48
573.71	17912.5
574.071	17923.12
574.432	17960.18
574.794	18055.32
575.155	17949.78
575.516	17985.71
575.877	17987.52
576.238	17992.27
576.599	18038.82
576.96	18018.03
577.32	18088.54
577.681	18081.08
578.042	18111.59
578.403	18091.7
578.763	18101.87
579.124	18119.95
579.485	18257.57
579.845	18234.97
580.206	18158.82
580.566	18103.45
580.927	18233.16
581.287	18188.87
581.648	18140.74
582.008	18227.52
582.368	18175.09
582.728	18234.75
583.089	18157.91
583.449	18242.2
583.809	18215.76
584.169	18254.18
584.529	18094.41
584.889	18342.54
585.249	18169.66
585.609	18130.12
585.969	18199.95
586.329	18088.76
586.688	18152.04
587.048	18093.96
587.408	18059.84
587.768	18009.89
588.127	18119.5
588.487	18086.5
588.846	18152.49
589.206	17919.5
589.565	18070.46
589.925	18122.43
590.284	17992.27
590.643	18067.52
591.003	18036.79
591.362	18122.89
591.721	18046.28
592.08	17997.01
592.44	18091.02
592.799	18015.32
593.158	17976.22
593.517	17948.65
593.876	18056.9
594.235	17986.62
594.593	17945.26
594.952	18019.38
595.311	17936.45
595.67	17982.32
596.029	18079.95
596.387	18086.05
596.746	18201.08
597.104	17917.69
597.463	18028.42
597.822	18081.76
598.18	18036.79
598.538	17972.38
598.897	18077.69
599.255	17851.93
599.613	18119.95
599.972	17998.37
600.33	18112.04
600.688	18046.05
601.046	18050.34
601.404	18041.31
601.762	18034.07
602.12	18147.52
602.478	18097.57
602.836	18170.12
603.194	18030.01
603.552	18028.65
603.91	17957.69
604.268	18035.43
604.625	18041.76
604.983	18085.6
605.341	17989.56
605.698	18083.34
606.056	18214.18
606.413	18055.32
606.771	18148.42
607.128	18255.99
607.485	18029.33
607.843	18106.16
608.2	18153.62
608.557	18233.16
608.914	18119.04
609.272	18267.97
609.629	18300.06
609.986	18300.28
610.343	18171.7
610.7	18375.76
611.057	18397.45
611.414	18291.47
611.771	18243.79
612.127	18453.5
612.484	18338.25
612.841	18502.31
613.198	18387.74
613.554	18375.31
613.911	18464.12
614.267	18503.44
614.624	18434.06
614.98	18475.87
615.337	18662.08
615.693	18467.73
616.05	18494.4
616.406	18622.53
616.762	18581.63
617.118	18565.59
617.475	18500.95
617.831	18626.15
618.187	18571.01
618.543	18628.63
618.899	18782.08
619.255	18793.38
619.611	18633.38
619.967	18777.11
620.323	18780.95
620.678	18713.38
621.034	18664.34
621.39	18695.3
621.746	18630.89
622.101	18902.75
622.457	18693.49
622.812	18832.24
623.168	18914.95
623.523	18770.55
623.879	18827.27
624.234	18694.17
624.589	18765.35
624.945	18780.49
625.3	18759.48
625.655	18762.42
626.01	18806.93
626.365	18774.17
626.72	18679.03
627.075	18764.45
627.43	18763.32
627.785	18727.84
628.14	18731.68
628.495	18857.1
628.85	18805.8
629.205	18680.16
629.559	18709.99
629.914	18738.46
630.269	18796.99
630.623	18667.05
630.978	18630.67
631.332	18771.91
631.687	18774.85
632.041	18617.79
632.396	18616.43
632.75	18704.56
633.104	18664.34
633.459	18584.79
633.813	18575.3
634.167	18538.69
634.521	18581.63
634.875	18555.19
635.229	18566.94
635.583	18423.22
635.937	18484.46
636.291	18355.2
636.645	18460.5
636.999	18340.96
637.352	18370.11
637.706	18387.51
638.06	18381.41
638.413	18374.4
638.767	18263.45
639.121	18422.99
639.474	18270.23
639.828	18258.47
640.181	18323.78
640.534	18342.09
640.888	18234.29
641.241	18103.22
641.594	18223
641.947	18190
642.301	18208.98
642.654	18274.75
643.007	18169.44
643.36	18106.61
643.713	18079.5
644.066	18098.48
644.419	18040.18
644.771	17932.16
645.124	17747.98
645.477	17773.06
645.83	17605.84
646.182	17630.69
646.535	17630.24
646.888	17623.24
647.24	17541.66
647.593	17553.18
647.945	17509.57
648.298	17438.84
648.65	17450.81
649.002	17392.28
649.355	17423.69
649.707	17440.19
650.059	17489.91
650.411	17714.31
650.763	17749.11
651.115	18023.9
651.467	17725.83
651.819	17927.86
652.171	17866.39
652.523	17920.63
652.875	17797.02
653.227	17726.29
653.578	17967.18
653.93	17813.74
654.282	17855.55
654.633	17753.18
654.985	17824.36
655.337	17874.3
655.688	17869.78
656.039	17932.16
656.391	17796.11
656.742	17853.97
657.094	17834.08
657.445	17819.62
657.796	17832.5
658.147	17807.19
658.498	17846.73
658.849	17863.46
659.2	17891.48
659.551	17897.81
659.902	17924.47
660.253	17834.76
660.604	17938.03
660.955	17776
661.306	17773.74
661.656	17813.51
662.007	17860.07
662.358	17934.87
662.708	17898.26
663.059	17855.77
663.409	17819.39
663.76	17925.83
664.11	17946.39
664.461	17987.07
664.811	17892.61
665.161	17907.52
665.511	17878.37
665.862	17934.87
666.212	17976.22
666.562	17931.7
666.912	17878.82
667.262	17927.86
667.612	17897.58
667.962	17949.33
668.312	17813.51
668.662	17989.1
669.011	17980.74
669.361	17911.37
669.711	17877.69
670.06	17775.78
670.41	17816.9
670.76	17818.26
671.109	17812.38
671.459	17793.63
671.808	17844.93
672.157	17811.71
672.507	17749.11
672.856	17712.73
673.205	17773.97
673.554	17914.98
673.904	17731.26
674.253	17722.67
674.602	17738.49
674.951	17490.81
675.3	17406.07
675.649	17705.04
675.998	17643.12
676.346	17620.75
676.695	17717.47
677.044	17573.75
677.393	17543.47
677.741	17592.73
678.09	17513.86
678.438	17635.21
678.787	17553.18
679.135	17591.83
679.484	17379.63
679.832	17535.78
680.181	17443.58
680.529	17497.82
680.877	17373.07
681.225	17389.12
681.573	17502.56
681.922	17350.48
682.27	17263.7
682.618	17334.88
682.966	17261.44
683.314	17256.24
683.661	17192.97
684.009	17114.78
684.357	17079.75
684.705	17034.1
685.053	17046.98
685.4	17041.56
685.748	16893.99
686.095	16843.14
686.443	16791.85
686.79	16843.82
687.138	16815.35
687.485	16890.38
687.832	16730.61
688.18	16707.78
688.527	16615.35
688.874	16646.77
689.221	16611.96
689.568	16521.35
689.915	16574
690.262	16576.94
690.609	16465.3
690.956	16396.38
691.303	16334.68
691.65	16246.32
691.997	16255.36
692.344	16169.94
692.69	16052.21
693.037	16097.18
693.383	15962.26
693.73	16007.46
694.077	15928.59
694.423	15941.93
694.769	15813.34
695.116	15753
695.462	15728.37
695.808	15737.19
696.155	15761.37
696.501	15608.15
696.847	15649.05
697.193	15453.35
697.539	15472.79
697.885	15319.79
698.231	15390.98
698.577	15301.94
698.923	15282.96
699.269	15178.33
699.614	15034.38
699.96	15078.9
700.306	15073.02
700.651	14970.2
700.997	14898.56
701.342	14859.47
701.688	14834.61
702.033	14718.91
702.379	14792.35
702.724	14771.56
703.069	14721.84
703.415	14560.49
703.76	14501.29
704.105	14539.48
704.45	14501.51
704.795	14332.7
705.14	14323.21
705.485	14317.34
705.83	14247.96
706.175	14300.84
706.52	14209.32
706.865	14135.65
707.209	14097.45
707.554	14102.65
707.899	14142.2
708.243	14083.9
708.588	13975.88
708.932	13917.8
709.277	13869.66
709.621	13888.42
709.966	13816.56
710.31	13885.71
710.654	13685.04
710.998	13749.89
711.342	13714.64
711.687	13649.78
712.031	13610.01
712.375	13443.46
712.719	13477.13
713.063	13514.19
713.407	13533.63
713.75	13519.16
714.094	13443.46
714.438	13326.18
714.782	13425.83
715.125	13278.49
715.469	13322.11
715.812	13284.37
716.156	13200.53
716.499	13231.26
716.843	13184.48
717.186	13158.04
717.53	13222.45
717.873	13228.55
718.216	13208.89
718.559	13067.2
718.902	13055
719.246	13089.57
719.589	12982.23
719.932	12976.58
720.275	12916.02
720.617	12906.07
720.96	12875.57
721.303	12866.75
721.646	12908.11
721.989	12784.95
722.331	12862.91
722.674	12871.27
723.016	12785.85
723.359	12793.99
723.701	12829.46
724.044	12710.37
724.386	12688.23
724.729	12724.83
725.071	12731.39
725.413	12719.19
725.755	12676.25
726.097	12708.34
726.439	12622.24
726.782	12618.17
727.124	12741.11
727.465	12620.66
727.807	12641.67
728.149	12578.62
728.491	12630.6
728.833	12652.97
729.175	12550.15
729.516	12513.54
729.858	12544.73
730.199	12588.57
730.541	12484.84
730.882	12422.7
731.224	12576.36
731.565	12452.3
731.906	12542.69
732.248	12531.62
732.589	12525.74
732.93	12426.76
733.271	12442.13
733.612	12523.71
733.953	12580.88
734.294	12483.26
734.635	12518.96
734.976	12512.19
735.317	12445.97
735.658	12499.08
735.999	12458.63
736.339	12464.95
736.68	12563.48
737.021	12478.06
737.361	12384.73
737.702	12613.2
738.042	12485.07
738.383	12521.45
738.723	12541.79
739.063	12473.99
739.404	12537.04
739.744	12559.87
740.084	12499.53
740.424	12522.58
740.764	12442.81
741.104	12574.56
741.444	12492.52
741.784	12396.71
742.124	12577.27
742.464	12578.85
742.804	12578.17
743.143	12516.48
743.483	12648.23
743.823	12600.09
744.162	12669.47
744.502	12697.72
744.841	12722.8
745.181	12803.48
745.52	12744.5
745.86	12818.17
746.199	12786.75
746.538	12904.49
746.877	13036.92
747.216	13034.43
747.556	13031.95
747.895	13081.44
748.234	13010.48
748.573	13086.86
748.911	13205.05
749.25	13281.2
749.589	13222.9
749.928	13397.36
750.267	13487.98
750.605	13470.35
750.944	13489.79
751.283	13616.79
751.621	13707.63
751.96	13662.44
752.298	13858.59
752.636	13913.28
752.975	13924.13
753.313	13977.68
753.651	14172.48
753.989	14228.98
754.327	14312.14
754.666	14348.3
755.004	14521.85
755.342	14631.9
755.679	14643.43
756.017	14802.29
756.355	14927.94
756.693	14988.73
757.031	15060.14
757.368	15132.68
757.706	15277.31
758.044	15342.39
758.381	15580.58
758.719	15645.89
759.056	15808.14
759.394	15829.84
759.731	15966.78
760.068	16053.56
760.405	16146.67
760.743	16169.04
761.08	16476.83
761.417	16535.13
761.754	16617.16
762.091	16708.46
762.428	16834.56
762.765	16853.77
763.102	17014.44
763.438	17175.57
763.775	17182.57
764.112	17243.59
764.449	17427.31
764.785	17448.78
765.122	17484.26
765.458	17605.38
765.795	17750.24
766.131	17793.4
766.467	17846.28
766.804	17896
767.14	17907.98
767.476	18074.3
767.812	18033.17
768.148	18205.59
768.485	18201.98
768.821	18170.79
769.157	18280.62
769.492	18279.72
769.828	18406.72
770.164	18311.81
770.5	18335.53
770.836	18449.2
771.171	18432.93
771.507	18577.34
771.842	18473.38
772.178	18587.73
772.513	18437
772.849	18589.99
773.184	18448.98
773.519	18545.7
773.855	18503.67
774.19	18558.58
774.525	18554.51
774.86	18587.96
775.195	18628.18
775.53	18573.49
775.865	18531.46
776.2	18545.02
776.535	18495.53
776.87	18477.9
777.205	18486.94
777.539	18448.07
777.874	18422.54
778.209	18460.73
778.543	18402.88
778.878	18331.47
779.212	18401.3
779.547	18318.13
779.881	18392.71
780.215	18284.91
780.55	18341.41
780.884	18265.71
781.218	18366.27
781.552	18335.31
781.886	18260.28
782.22	18103
782.554	18172.83
782.888	17956.79
783.222	18003.34
783.556	17945.04
783.889	17926.28
784.223	17846.28
784.557	17747.75
784.89	17756.12
785.224	17745.95
785.557	17653.07
785.891	17660.75
786.224	17603.58
786.558	17659.62
786.891	17562.9
787.224	17447.65
787.557	17458.95
787.891	17347.76
788.224	17442
788.557	17416.24
788.89	17296.24
789.223	17265.28
789.556	17181.44
789.888	17157.49
790.221	17125.4
790.554	16964.5
790.887	16966.53
791.219	16923.82
791.552	16910.71
791.884	16815.35
792.217	16795.91
792.549	16746.88
792.882	16782.36
793.214	16633.43
793.546	16619.87
793.879	16601.12
794.211	16474.57
794.543	16570.61
794.875	16421.91
795.207	16548.01
795.539	16379.65
795.871	16407.68
796.203	16192.31
796.535	16171.98
796.867	16152.32
797.198	16148.93
797.53	16171.3
797.862	16073
798.193	16098.98
798.525	15866.9
798.856	16027.35
799.188	15877.52
799.519	15803.17
799.85	15733.34
800.182	15710.07
800.513	15707.58
800.844	15618.32
801.175	15699.67
801.506	15589.62
801.837	15508.49
802.168	15464.88
802.499	15510.98
802.83	15348.27
803.161	15322.96
803.491	15370.64
803.822	15366.8
804.153	15238.22
804.483	15172.23
804.814	15059.01
805.145	15107.82
805.475	15002.06
805.805	15018.33
806.136	14983.31
806.466	14987.83
806.796	14962.52
807.126	14850.2
807.457	14771.56
807.787	14797.32
808.117	14771.56
808.447	14706.25
808.777	14646.14
809.107	14702.18
809.436	14634.16
809.766	14581.96
810.096	14618.8
810.426	14536.31
810.755	14605.24
811.085	14480.72
811.414	14418.58
811.744	14389.88
812.073	14400.72
812.403	14350.33
812.732	14255.87
813.061	14277.34
813.39	14151.46
813.719	14171.8
814.049	14198.92
814.378	14108.98
814.707	14119.83
815.036	14052.94
815.365	14030.11
815.693	13981.53
816.022	13855.88
816.351	13864.92
816.68	13816.56
817.008	13885.93
817.337	13715.77
817.665	13710.8
817.994	13727.07
818.322	13702.21
818.651	13709.89
818.979	13584.7
819.307	13645.04
819.636	13612.04
819.964	13489.79
820.292	13560.07
820.62	13516.23
820.948	13579.5
821.276	13525.04
821.604	13519.84
821.932	13515.77
822.259	13473.74
822.587	13447.75
822.915	13526.62
823.243	13600.29
823.57	13421.09
823.898	13420.41
824.225	13471.26
824.553	13407.75
824.88	13409.56
825.207	13471.71
825.535	13438.04
825.862	13509.45
826.189	13386.06
826.516	13510.58
826.843	13529.11
827.17	13573.63
827.497	13468.77
827.824	13467.87
828.151	13506.96
828.478	13475.32
828.805	13513.97
829.131	13462.44
829.458	13506.96
829.785	13381.77
830.111	13410.01
830.438	13510.8
830.764	13407.3
831.09	13509
831.417	13363.24
831.743	13521.88
832.069	13455.21
832.395	13346.29
832.722	13407.3
833.048	13348.55
833.374	13389
833.7	13322.56
834.026	13370.92
834.351	13373.86
834.677	13276.91
835.003	13381.77
835.329	13331.15
835.654	13311.26
835.98	13225.16
836.306	13224.03
836.631	13182.68
836.956	13310.81
837.282	13118.04
837.607	13093.86
837.932	13101.55
838.258	13152.85
838.583	13028.33
838.908	13064.04
839.233	13046.63
839.558	13085.28
839.883	13000.31
840.208	12960.76
840.533	12969.12
840.858	12895.9
841.182	12919.41
841.507	12927.54
841.832	12816.58
842.156	12803.02
842.481	12862.91
842.805	12824.72
843.13	12765.74
843.454	12694.1
843.778	12672.18
844.103	12617.04
844.427	12615.69
844.751	12654.1
845.075	12586.53
845.399	12558.06
845.723	12475.8
846.047	12531.85
846.371	12417.95
846.695	12450.49
847.019	12322.13
847.343	12217.28
847.666	12224.06
847.99	12130.5
848.313	12153.78
848.637	12026.55
848.96	12055.7
849.284	12002.82
849.607	11920.34
849.931	11821.81
850.254	11841.47
850.577	11745.65
850.9	11723.96
851.223	11644.19
851.546	11559.44
851.869	11601.25
852.192	11591.98
852.515	11437.41
852.838	11439.22
853.161	11428.15
853.483	11415.04
853.806	11337.3
854.129	11313.8
854.451	11275.38
854.774	11124.43
855.096	11145.22
855.419	11227.7
855.741	11110.87
856.063	11079.45
856.385	11020.47
856.708	11031.77
857.03	10963.3
857.352	10989.74
857.674	10954.26
857.996	10938.89
858.318	10815.51
858.64	10820.7
858.961	10801.04
859.283	10745.45
859.605	10670.2
859.926	10674.49
860.248	10669.07
860.57	10638.34
860.891	10651.44
861.212	10563.99
861.534	10482.18
861.855	10559.02
862.176	10619.58
862.498	10523.54
862.819	10477.66
863.14	10507.72
863.461	10403.77
863.782	10418.45
864.103	10401.73
864.424	10327.16
864.745	10398.79
865.065	10362.41
865.386	10222.98
865.707	10300.72
866.027	10362.86
866.348	10292.81
866.668	10273.83
866.989	10188.86
867.309	10204.68
867.63	10138.91
867.95	10186.14
868.27	10089.2
868.59	10141.17
868.91	10132.59
869.23	10077.67
869.55	10004.23
869.87	10065.02
870.19	10035.41
870.51	10051.91
870.83	10072.7
871.15	10035.87
871.469	9991.12
871.789	10027.73
872.109	9999.93
872.428	9954.96
872.748	9915.87
873.067	9914.97
873.386	9958.13
873.706	9884.91
874.025	9876.55
874.344	9877.45
874.663	9859.6
874.982	9832.71
875.301	9822.54
875.62	9755.87
875.939	9738.92
876.258	9816.66
876.577	9764.01
876.896	9714.07
877.214	9719.49
877.533	9721.3
877.852	9642.88
878.17	9693.95
878.489	9652.15
878.807	9664.35
879.125	9635.42
879.444	9620.74
879.762	9571.25
880.08	9561.98
880.398	9510.91
880.716	9581.64
881.034	9504.58
881.352	9536.44
881.67	9447.18
881.988	9475.2
882.306	9423.9
882.624	9363.79
882.941	9432.49
883.259	9329.22
883.577	9383
883.894	9322.89
884.212	9325.6
884.529	9245.83
884.846	9276.11
885.164	9278.37
885.481	9205.38
885.798	9205.15
886.115	9197.92
886.432	9143.69
886.75	9106.85
887.067	9139.62
887.383	9023.24
887.7	9060.75
888.017	9025.05
888.334	8982.33
888.651	9002.67
888.967	8973.52
889.284	8895.33
889.6	8925.39
889.917	8863.92
890.233	8895.56
890.55	8834.09
890.866	8837.71
891.182	8752.51
891.498	8787.54
891.815	8760.42
892.131	8683.13
892.447	8654.21
892.763	8649.91
893.079	8670.7
893.395	8545.74
893.71	8628.9
894.026	8575.79
894.342	8576.02
894.657	8510.26
894.973	8486.08
895.289	8460.31
895.604	8472.97
895.92	8370.15
896.235	8283.6
896.55	8329.47
896.865	8328.34
897.181	8220.77
897.496	8329.92
897.811	8255.8
898.126	8191.85
898.441	8123.83
898.756	8176.25
899.071	8087.44
899.386	8095.8
899.7	8062.58
900.015	8017.39
900.33	7971.97
900.644	7963.6
900.959	7988.24
901.273	7932.64
901.588	7897.17
901.902	7762.48
902.216	7825.98
902.531	7723.16
902.845	7712.76
903.159	7720.67
903.473	7682.48
903.787	7602.48
904.101	7590.05
904.415	7663.73
904.729	7568.59
905.042	7549.38
905.356	7523.62
905.67	7475.26
905.984	7490.17
906.297	7496.5
906.611	7384.64
906.924	7376.73
907.237	7290.4
907.551	7260.57
907.864	7313.68
908.177	7327.46
908.491	7258.76
908.804	7221.02
909.117	7177.41
909.43	7152.55
909.743	7093.8
910.056	7120.46
910.368	7049.96
910.681	7068.49
910.994	6982.61
911.307	7001.82
911.619	6993.91
911.932	6990.3
912.244	6914.37
912.557	6954.82
912.869	6816.74
913.181	6834.82
913.494	6829.62
913.806	6767.48
914.118	6792.34
914.43	6682.73
914.742	6675.05
915.054	6697.87
915.366	6643.64
915.678	6619.68
915.99	6611.1
916.302	6553.25
916.613	6546.24
916.925	6502.63
917.236	6449.75
917.548	6483.19
917.859	6424.89
918.171	6316.64
918.482	6332.69
918.794	6323.2
919.105	6336.98
919.416	6240.26
919.727	6273.48
920.038	6242.29
920.349	6201.62
920.66	6164.56
920.971	6177.66
921.282	6125.23
921.593	6105.57
921.903	6019.02
922.214	6059.93
922.525	6030.55
922.835	6024.9
923.146	6003.66
923.456	5965.46
923.767	5925.47
924.077	5929.53
924.387	5877.33
924.697	5839.59
925.008	5876.43
925.318	5832.36
925.628	5774.06
925.938	5741.97
926.248	5706.94
926.558	5688.18
926.867	5694.29
927.177	5725.02
927.487	5601.41
927.796	5628.98
928.106	5634.4
928.416	5578.58
928.725	5541.29
929.034	5494.97
929.344	5551.24
929.653	5512.37
929.962	5437.57
930.271	5454.07
930.581	5450.45
930.89	5373.62
931.199	5333.39
931.508	5371.36
931.817	5347.18
932.125	5358.93
932.434	5333.84
932.743	5240.06
933.051	5184.02
933.36	5228.08
933.669	5167.75
933.977	5186.05
934.286	5163
934.594	5146.96
934.902	5088.2
935.21	5083.68
935.519	5050.01
935.827	5062.44
936.135	5001.87
936.443	4965.04
936.751	4931.14
937.059	4961.42
937.367	4919.84
937.674	4905.61
937.982	4873.29
938.29	4857.02
938.597	4883.91
938.905	4817.92
939.213	4813.18
939.52	4779.73
939.827	4766.63
940.135	4755.78
940.442	4702.9
940.749	4665.16
941.056	4743.58
941.363	4628.32
941.67	4619.96
941.977	4646.63
942.284	4598.72
942.591	4638.72
942.898	4546.52
943.205	4528.89
943.511	4579.29
943.818	4532.28
944.125	4542.9
944.431	4453.64
944.738	4440.31
945.044	4403.7
945.35	4442.57
945.657	4432.85
945.963	4372.06
946.269	4366.41
946.575	4370.03
946.881	4365.73
947.187	4290.25
947.493	4316.24
947.799	4270.82
948.105	4270.82
948.41	4237.37
948.716	4226.75
949.022	4211.84
949.327	4156.25
949.633	4129.13
949.938	4184.72
950.244	4156.25
950.549	4104.27
950.854	4069.24
951.16	4118.96
951.465	4075.8
951.77	4093.65
952.075	4014.78
952.38	4018.85
952.685	3931.85
952.99	3982.69
953.294	3974.33
953.599	3887.1
953.904	3928.91
954.209	3894.33
954.513	3901.56
954.818	3875.35
955.122	3856.59
955.426	3858.4
955.731	3796.93
956.035	3785.63
956.339	3776.82
956.643	3779.99
956.948	3763.26
957.252	3750.16
957.556	3739.53
957.86	3674
958.163	3730.27
958.467	3657.95
958.771	3672.64
959.075	3681
959.378	3639.88
959.682	3643.94
959.985	3606.66
960.289	3590.16
960.592	3568.47
960.896	3602.36
961.199	3561.23
961.502	3518.52
961.805	3494.12
962.108	3518.07
962.411	3481.91
962.714	3450.05
963.017	3437.62
963.32	3457.51
963.623	3439.88
963.926	3426.55
964.228	3376.15
964.531	3336.83
964.833	3352.88
965.136	3301.58
965.438	3351.07
965.741	3290.05
966.043	3284.63
966.345	3272.2
966.648	3297.51
966.95	3262.03
967.252	3219.55
967.554	3236.04
967.856	3234.46
968.158	3198.98
968.46	3198.53
968.761	3174.58
969.063	3157.63
969.365	3158.31
969.666	3140.91
969.968	3091.64
970.269	3118.99
970.571	3127.12
970.872	3075.82
971.174	3043.73
971.475	3074.47
971.776	3050.96
972.077	3042.6
972.378	3030.63
972.679	3001.93
972.98	3006.9
973.281	2988.82
973.582	2971.87
973.883	2975.26
974.183	2966.45
974.484	2940.23
974.785	2924.64
975.085	2902.27
975.386	2930.52
975.686	2863.17
975.986	2837.64
976.287	2845.09
976.587	2826.34
976.887	2820.01
977.187	2804.42
977.487	2793.8
977.787	2808.03
978.087	2771.88
978.387	2790.18
978.687	2787.24
978.987	2732.78
979.286	2750.63
979.586	2723.29
979.885	2722.61
980.185	2686
980.484	2659.56
980.784	2687.36
981.083	2652.78
981.382	2667.25
981.682	2619.79
981.981	2598.32
982.28	2566.91
982.579	2592.67
982.878	2570.98
983.177	2571.2
983.475	2583.18
983.774	2579.11
984.073	2542.05
984.372	2516.52
984.67	2488.72
984.969	2500.92
985.267	2511.32
985.566	2485.78
985.864	2482.17
986.162	2475.84
986.461	2436.52
986.759	2431.77
987.057	2421.83
987.355	2426.35
987.653	2413.02
987.951	2421.38
988.249	2384.54
988.547	2378.21
988.844	2375.73
989.142	2361.72
989.44	2369.63
989.737	2347.03
990.035	2327.82
990.332	2324.2
990.63	2324.43
990.927	2305.45
991.224	2288.5
991.521	2241.49
991.819	2272.91
992.116	2267.93
992.413	2246.69
992.71	2258.9
993.006	2211.67
993.303	2185.68
993.6	2214.15
993.897	2215.05
994.193	2185.23
994.49	2171.44
994.787	2163.08
995.083	2147.49
995.379	2117.2
995.676	2140.48
995.972	2123.53
996.268	2090.31
996.565	2109.97
996.861	2103.42
997.157	2073.36
997.453	2055.96
997.749	2059.8
998.044	2034.72
998.34	2036.75
998.636	2038.34
998.932	2030.65
999.227	1996.98
999.523	1984.55
999.818	1994.72
1000.114	1987.04
1000.409	1968.73
1000.704	1953.59
1001	1948.4
1001.295	1931.9
1001.59	1914.05
1001.885	1925.12
1002.18	1879.92
1002.475	1911.56
1002.77	1920.37
1003.065	1876.08
1003.359	1873.82
1003.654	1838.12
1003.949	1843.54
1004.243	1813.71
1004.538	1858.91
1004.832	1804.67
1005.127	1808.29
1005.421	1776.42
1005.715	1805.35
1006.009	1768.29
1006.304	1751.34
1006.598	1761.06
1006.892	1762.41
1007.186	1719.02
1007.48	1728.29
1007.773	1738.23
1008.067	1718.34
1008.361	1747.27
1008.655	1695.07
1008.948	1654.62
1009.242	1674.96
1009.535	1661.4
1009.829	1672.24
1010.122	1633.15
1010.415	1626.37
1010.708	1637.22
1011.001	1615.52
1011.295	1603.32
1011.588	1585.69
1011.881	1599.48
1012.173	1562.42
1012.466	1592.25
1012.759	1586.37
1013.052	1538.69
1013.344	1508.86
1013.637	1530.78
1013.93	1537.56
1014.222	1522.19
1014.514	1506.37
1014.807	1502.08
1015.099	1463.44
1015.391	1510.21
1015.683	1479.03
1015.976	1474.74
1016.268	1447.39
1016.56	1461.63
1016.851	1445.81
1017.143	1445.81
1017.435	1427.5
1017.727	1413.95
1018.018	1399.48
1018.31	1393.83
1018.602	1375.75
1018.893	1376.21
1019.185	1365.13
1019.476	1341.86
1019.767	1397.9
1020.058	1349.31
1020.35	1339.6
1020.641	1329.2
1020.932	1327.17
1021.223	1342.31
1021.514	1275.19
1021.804	1298.02
1022.095	1270.67
1022.386	1281.07
1022.677	1273.38
1022.967	1270.45
1023.258	1245.81
1023.548	1279.49
1023.839	1251.46
1024.129	1226.15
1024.419	1250.11
1024.709	1213.5
1025	1209.43
1025.29	1209.43
1025.58	1190
1025.87	1197.45
1026.16	1184.35
1026.449	1196.1
1026.739	1172.6
1027.029	1158.13
1027.319	1160.39
1027.608	1159.94
1027.898	1150.68
1028.187	1129.89
1028.477	1112.26
1028.766	1106.61
1029.055	1121.3
1029.344	1092.37
1029.634	1109.32
1029.923	1083.79
1030.212	1102.09
1030.501	1087.4
1030.79	1070
1031.078	1049.66
1031.367	1076.33
1031.656	1041.53
1031.945	1020.28
1032.233	1005.6
1032.522	1015.09
1032.81	1034.97
1033.099	1013.5
1033.387	1013.5
1033.675	986.84
1033.963	1009.89
1034.251	991.13
1034.54	983.45
1034.828	968.08
1035.116	985.26
1035.403	960.62
1035.691	942.09
1035.979	949.33
1036.267	972.38
1036.554	950.91
1036.842	938.25
1037.129	925.15
1037.417	925.82
1037.704	942.32
1037.992	887.86
1038.279	928.53
1038.566	906.16
1038.853	906.16
1039.14	906.16
