Data from hue_190_FLMS001491_00013.txt Node
Date: Tue Feb 07 16:44:54 GMT 2017
User: dcchb
Spectrometer: FLMS00149
Trigger mode: 0
Integration Time (sec): 2.000000E-2
Scans to average: 10
Electric dark correction enabled: true
Nonlinearity correction enabled: false
Boxcar width: 0
XAxis mode: Wavelengths
Number of Pixels in Spectrum: 2048
>>>>>Begin Spectral Data<<<<<
341.393	-2.18
341.776	-2.18
342.16	-2.18
342.543	-58.67
342.927	-66.81
343.31	-62.51
343.693	-67.48
344.077	-81.04
344.46	-57.31
344.843	-49.63
345.226	-46.02
345.61	-7.6
345.993	-19.8
346.376	-5.11
346.759	8.9
347.142	44.83
347.525	25.85
347.908	45.51
348.291	69.69
348.674	100.2
349.057	101.55
349.44	132.96
349.823	138.16
350.206	174.54
350.588	194.88
350.971	214.99
351.354	242.34
351.737	231.27
352.119	264.03
352.502	255.45
352.884	263.58
353.267	295.67
353.65	297.03
354.032	303.13
354.414	297.7
354.797	323.69
355.179	302.45
355.562	289.12
355.944	328.66
356.326	321.21
356.709	333.41
357.091	328.66
357.473	356.01
357.855	323.01
358.238	348.32
358.62	335.44
359.002	318.95
359.384	360.08
359.766	337.48
360.148	340.41
360.53	323.24
360.912	315.33
361.294	329.12
361.676	335.67
362.057	326.63
362.439	317.36
362.821	321.88
363.203	330.7
363.584	322.34
363.966	321.66
364.348	321.21
364.729	308.33
365.111	323.01
365.493	305.84
365.874	323.01
366.256	323.47
366.637	324.6
367.019	301.55
367.4	297.25
367.781	307.2
368.163	312.39
368.544	321.43
368.925	317.36
369.306	328.44
369.688	292.73
370.069	311.04
370.45	294.54
370.831	323.47
371.212	310.13
371.593	309
371.974	301.32
372.355	316.01
372.736	319.4
373.117	319.85
373.498	335.67
373.879	307.2
374.26	303.81
374.641	302.22
375.021	333.18
375.402	311.94
375.783	302.68
376.163	323.69
376.544	318.04
376.925	323.69
377.305	322.34
377.686	332.28
378.066	331.38
378.447	324.37
378.827	315.78
379.208	344.26
379.588	346.52
379.968	329.79
380.349	307.65
380.729	338.38
381.109	343.8
381.489	336.57
381.87	349
382.25	328.89
382.63	337.7
383.01	341.54
383.39	337.7
383.77	343.35
384.15	337.48
384.53	345.16
384.91	347.19
385.29	345.84
385.67	332.51
386.049	351.71
386.429	356.91
386.809	362.11
387.189	339.96
387.568	353.07
387.948	366.4
388.328	332.51
388.707	365.05
389.087	373.18
389.466	365.05
389.846	346.52
390.225	362.11
390.605	356.01
390.984	349
391.363	373.41
391.743	354.43
392.122	369.34
392.501	372.28
392.881	378.38
393.26	401.88
393.639	386.06
394.018	370.02
394.397	365.5
394.776	360.3
395.155	372.5
395.534	384.93
395.913	399.17
396.292	384.71
396.671	376.57
397.05	389.68
397.429	391.26
397.808	378.61
398.186	407.53
398.565	410.02
398.944	395.33
399.323	420.86
399.701	409.79
400.08	390.58
400.458	419.73
400.837	397.36
401.215	419.28
401.594	403.92
401.972	410.92
402.351	421.32
402.729	436.68
403.107	454.54
403.486	428.1
403.864	439.62
404.242	425.16
404.62	456.34
404.999	431.71
405.377	442.78
405.755	435.78
406.133	457.02
406.511	459.28
406.889	454.76
407.267	477.59
407.645	464.25
408.023	494.99
408.401	472.39
408.779	480.98
409.156	491.37
409.534	484.14
409.912	503.8
410.29	511.48
410.667	527.53
411.045	541.54
411.422	537.02
411.8	565.72
412.178	548.32
412.555	577.92
412.933	566.4
413.31	589.9
413.687	588.77
414.065	600.29
414.442	605.04
414.819	598.94
415.197	624.48
415.574	615.21
415.951	635.77
416.328	637.13
416.705	675.77
417.082	661.08
417.46	666.96
417.837	684.59
418.214	680.74
418.591	681.2
418.967	675.1
419.344	714.64
419.721	732.27
420.098	725.04
420.475	732.95
420.852	746.28
421.228	766.62
421.605	753.29
421.982	776.34
422.358	810.23
422.735	822.21
423.111	791.93
423.488	846.62
423.864	839.84
424.241	858.37
424.617	864.02
424.994	897.01
425.37	912.83
425.746	900.63
426.123	927.52
426.499	955.99
426.875	963.22
427.251	935.88
427.627	982.43
428.003	970.23
428.379	998.93
428.756	1020.17
429.132	1018.59
429.507	1014.07
429.883	1047.51
430.259	1059.04
430.635	1087.51
431.011	1078.02
431.387	1119.15
431.763	1121.41
432.138	1131.58
432.514	1158.25
432.89	1154.4
433.265	1194.63
433.641	1195.08
434.016	1218.36
434.392	1249.77
434.767	1277.34
435.143	1305.36
435.518	1307.62
435.894	1297.23
436.269	1336.55
436.644	1376.77
437.02	1413.83
437.395	1417.67
437.77	1427.84
438.145	1450.89
438.52	1491.57
438.895	1526.82
439.271	1510.1
439.646	1579.93
440.021	1586.26
440.395	1601.4
440.77	1626.26
441.145	1617.9
441.52	1641.62
441.895	1670.55
442.27	1681.4
442.645	1693.83
443.019	1726.37
443.394	1749.19
443.769	1773.37
444.143	1758.91
444.518	1799.59
444.892	1791.9
445.267	1818.12
445.641	1819.7
446.016	1861.5
446.39	1858.79
446.764	1866.25
447.139	1878.23
447.513	1895.4
447.887	1944.44
448.262	1929.07
448.636	1954.16
449.01	1951.67
449.384	2015.62
449.758	2005.23
450.132	2044.55
450.506	2045.68
450.88	2060.14
451.254	2099.92
451.628	2147.15
452.002	2129.07
452.376	2143.53
452.75	2183.53
453.123	2227.14
453.497	2242.51
453.871	2234.6
454.244	2265.11
454.618	2286.35
454.992	2335.62
455.365	2290.87
455.739	2386.69
456.112	2423.75
456.486	2431.66
456.859	2487.03
457.232	2527.7
457.606	2504.88
457.979	2521.83
458.352	2598.43
458.725	2638.21
459.099	2647.25
459.472	2671.65
459.845	2726.34
460.218	2740.35
460.591	2769.28
460.964	2824.87
461.337	2858.99
461.71	2886.11
462.083	2910.06
462.456	2956.62
462.829	2967.01
463.201	2988.48
463.574	2993.23
463.947	3084.07
464.32	3143.28
464.692	3211.75
465.065	3169.04
465.438	3215.14
465.81	3289.26
466.183	3333.56
466.555	3403.84
466.928	3410.84
467.3	3443.61
467.672	3475.93
468.045	3580.33
468.417	3570.39
468.789	3592.98
469.161	3695.13
469.534	3703.49
469.906	3811.51
470.278	3808.8
470.65	3855.12
471.022	3950.49
471.394	4030.71
471.766	4083.37
472.138	4100.54
472.51	4211.5
472.882	4291.05
473.253	4283.14
473.625	4354.55
473.997	4460.98
474.369	4468.44
474.74	4537.37
475.112	4654.65
475.484	4724.93
475.855	4808.55
476.227	4825.95
476.598	4980.29
476.97	5041.99
477.341	5111.14
477.713	5191.81
478.084	5243.34
478.455	5422.32
478.827	5472.48
479.198	5604.91
479.569	5603.78
479.94	5745.24
480.311	5808.07
480.682	5969.87
481.053	6083.54
481.424	6133.03
481.795	6249.86
482.166	6310.2
482.537	6437.66
482.908	6550.42
483.279	6602.85
483.65	6741.6
484.021	6892.78
484.391	6971.43
484.762	6988.6
485.133	7047.58
485.503	7196.05
485.874	7341.59
486.244	7366.67
486.615	7561.02
486.985	7590.62
487.356	7798.07
487.726	7826.77
488.097	7991.29
488.467	8031.06
488.837	8192.19
489.207	8266.99
489.578	8353.99
489.948	8554.44
490.318	8589.24
490.688	8650.48
491.058	8727.31
491.428	8831.94
491.798	8991.94
492.168	9103.12
492.538	9089.11
492.908	9214.76
493.278	9265.38
493.648	9360.52
494.017	9471.25
494.387	9530
494.757	9617.01
495.126	9724.8
495.496	9685.25
495.866	9818.36
496.235	9936.55
496.605	9943.33
496.974	9946.49
497.344	10010.44
497.713	10134.06
498.082	10174.28
498.452	10236.88
498.821	10291.57
499.19	10303.99
499.559	10306.48
499.928	10412.47
500.298	10486.59
500.667	10569.52
501.036	10517.55
501.405	10580.82
501.774	10679.13
502.143	10692.68
502.512	10678.22
502.88	10795.73
503.249	10718.22
503.618	10876.18
503.987	10871.66
504.356	10922.74
504.724	10931.1
505.093	11071.43
505.462	10992.79
505.83	11012.45
506.199	11076.63
506.567	11163.86
506.936	11162.73
507.304	11236.63
507.672	11246.12
508.041	11291.54
508.409	11340.58
508.777	11306.68
509.145	11371.54
509.514	11387.36
509.882	11460.12
510.25	11448.82
510.618	11541.02
510.986	11477.98
511.354	11486.34
511.722	11608.59
512.09	11621.25
512.458	11582.61
512.826	11741.7
513.193	11689.95
513.561	11670.96
513.929	11692.21
514.297	11809.04
514.664	11861.92
515.032	11795.93
515.4	11776.27
515.767	11777.18
516.135	11830.51
516.502	11765.43
516.869	11934.01
517.237	11902.82
517.604	11869.6
517.972	11897.17
518.339	11949.83
518.706	11969.26
519.073	11936.49
519.44	11940.79
519.808	11971.75
520.175	11949.83
520.542	12013.1
520.909	12037.73
521.276	11968.36
521.643	12088.81
522.009	11997.06
522.376	12063.95
522.743	12084.74
523.11	12078.41
523.477	12109.6
523.843	12200.44
524.21	12198.63
524.577	12221.46
524.943	12224.17
525.31	12176.71
525.676	12303.49
526.043	12300.33
526.409	12286.54
526.776	12260.55
527.142	12220.1
527.508	12206.09
527.874	12242.47
528.241	12281.8
528.607	12184.4
528.973	12277.5
529.339	12145.98
529.705	12231.63
530.071	12218.75
530.437	12176.49
530.803	12165.87
531.169	12144.17
531.535	12131.07
531.901	12095.36
532.267	12094
532.632	12100.11
532.998	12007.45
533.364	12049.03
533.73	11992.09
534.095	12044.06
534.461	11918.64
534.826	11920.9
535.192	11926.55
535.557	11972.88
535.923	11801.13
536.288	11827.57
536.653	11836.84
537.019	11721.81
537.384	11627.8
537.749	11590.29
538.114	11528.14
538.479	11472.78
538.845	11553.68
539.21	11390.29
539.575	11397.3
539.94	11367.7
540.305	11439.11
540.67	11322.27
541.034	11239.56
541.399	11169.51
541.764	11139
542.129	11098.78
542.494	11050.19
542.858	11064.65
543.223	10960.47
543.587	11029.63
543.952	10876.86
544.316	10846.58
544.681	10770.65
545.045	10762.29
545.41	10683.42
545.774	10691.33
546.138	10609.07
546.503	10567.26
546.867	10495.4
547.231	10559.13
547.595	10489.07
547.959	10456.31
548.324	10394.16
548.688	10229.65
549.052	10276.88
549.416	10186.48
549.779	10191.46
550.143	10068.52
550.507	10097.22
550.871	10090.67
551.235	9977.45
551.599	10033.27
551.962	9930.22
552.326	9892.93
552.689	9892.03
553.053	9833.95
553.417	9716.21
553.78	9806.83
554.143	9725.25
554.507	9661.07
554.87	9730.9
555.234	9617.46
555.597	9611.81
555.96	9592.6
556.323	9574.3
556.686	9457.24
557.05	9545.37
557.413	9456.11
557.776	9371.59
558.139	9416.11
558.502	9377.01
558.865	9355.09
559.228	9350.35
559.59	9355.77
559.953	9287.75
560.316	9380.4
560.679	9265.38
561.041	9318.48
561.404	9288.2
561.767	9322.33
562.129	9228.77
562.492	9306.73
562.854	9337.92
563.217	9213.85
563.579	9251.14
563.941	9217.24
564.304	9234.19
564.666	9273.29
565.028	9198.94
565.39	9220.18
565.753	9203.01
566.115	9185.15
566.477	9247.07
566.839	9207.07
567.201	9267.19
567.563	9127.3
567.925	9249.33
568.287	9197.58
568.648	9183.35
569.01	9251.59
569.372	9245.27
569.734	9218.6
570.095	9268.09
570.457	9260.18
570.819	9238.26
571.18	9191.48
571.542	9258.37
571.903	9211.37
572.265	9231.71
572.626	9193.29
572.987	9273.97
573.349	9272.38
573.71	9215.66
574.071	9198.49
574.432	9238.26
574.794	9299.5
575.155	9227.41
575.516	9212.72
575.877	9242.33
576.238	9232.16
576.599	9231.25
576.96	9172.95
577.32	9176.34
577.681	9257.02
578.042	9209.33
578.403	9205.94
578.763	9205.72
579.124	9246.85
579.485	9189.67
579.845	9280.74
580.206	9171.14
580.566	9208.2
580.927	9273.06
581.287	9167.08
581.648	9165.49
582.008	9187.41
582.368	9197.13
582.728	9189.45
583.089	9159.39
583.449	9168.21
583.809	9173.18
584.169	9137.02
584.529	9069
584.889	9210.24
585.249	9100.41
585.609	9089.79
585.969	9126.17
586.329	9104.48
586.688	8982
587.048	9005.27
587.408	9016.57
587.768	9069
588.127	9015.89
588.487	8992.62
588.846	9041.43
589.206	8943.35
589.565	8981.09
589.925	8961.66
590.284	8993.29
590.643	8963.24
591.003	9024.71
591.362	9007.98
591.721	9008.89
592.08	8983.35
592.44	9021.77
592.799	8971.83
593.158	8937.02
593.517	8948.32
593.876	8904.48
594.235	8912.17
594.593	8897.93
594.952	8927.76
595.311	8850.93
595.67	8871.26
596.029	8939.06
596.387	8960.08
596.746	8861.55
597.104	8848.67
597.463	8896.57
597.822	8850.47
598.18	8843.24
598.538	8849.57
598.897	8819.29
599.255	8770.02
599.613	8954.2
599.972	8883.92
600.33	8943.58
600.688	8816.35
601.046	8835.11
601.404	8855.9
601.762	8888.21
602.12	8834.88
602.478	8884.37
602.836	8873.98
603.194	8792.17
603.552	8776.58
603.91	8781.1
604.268	8879.4
604.625	8779.06
604.983	8882.79
605.341	8805.73
605.698	8751.49
606.056	8867.42
606.413	8857.93
606.771	8841.66
607.128	8807.31
607.485	8839.17
607.843	8843.92
608.2	8781.55
608.557	8891.38
608.914	8799.63
609.272	8899.06
609.629	8863.81
609.986	8895.22
610.343	8870.59
610.7	8900.64
611.057	8926.86
611.414	8832.39
611.771	8839.63
612.127	8804.15
612.484	8927.31
612.841	8906.74
613.198	8882.34
613.554	8923.92
613.911	8919.85
614.267	8902.9
614.624	8875.78
614.98	8881.89
615.337	8932.73
615.693	8933.41
616.05	8951.49
616.406	8922.34
616.762	8890.47
617.118	8974.99
617.475	8878.27
617.831	8902.45
618.187	8959.62
618.543	8981.54
618.899	9063.58
619.255	8984.71
619.611	8938.38
619.967	9059.28
620.323	8956.91
620.678	9013.18
621.034	8917.59
621.39	8983.8
621.746	8943.35
622.101	9066.06
622.457	8917.36
622.812	9023.35
623.168	9027.87
623.523	9041.2
623.879	9000.75
624.234	8971.37
624.589	8979.96
624.945	8986.29
625.3	9060.19
625.655	8972.05
626.01	8985.39
626.365	8986.52
626.72	9004.14
627.075	8960.75
627.43	9023.12
627.785	8990.13
628.14	8967.53
628.495	8919.62
628.85	8983.35
629.205	8953.52
629.559	9033.52
629.914	8940.87
630.269	8869.23
630.623	8855.67
630.978	8969.34
631.332	8951.49
631.687	8942.45
632.041	8946.52
632.396	8855.9
632.75	8851.15
633.104	8885.27
633.459	8840.08
633.813	8758.5
634.167	8762.57
634.521	8890.92
634.875	8784.03
635.229	8807.31
635.583	8787.88
635.937	8802.79
636.291	8760.31
636.645	8740.87
636.999	8725.51
637.352	8763.92
637.706	8684.83
638.06	8695
638.413	8759.18
638.767	8716.01
639.121	8673.98
639.474	8643.25
639.828	8687.31
640.181	8659.74
640.534	8677.14
640.888	8577.49
641.241	8566.87
641.594	8604.38
641.947	8595.56
642.301	8536.81
642.654	8650.25
643.007	8593.53
643.36	8585.85
643.713	8581.55
644.066	8628.78
644.419	8548.33
644.771	8470.6
645.124	8450.26
645.477	8415.46
645.83	8416.13
646.182	8303.6
646.535	8335.01
646.888	8375.46
647.24	8266.08
647.593	8371.84
647.945	8289.13
648.298	8354.89
648.65	8231.51
649.002	8255.23
649.355	8244.61
649.707	8274.44
650.059	8306.76
650.411	8381.79
650.763	8390.82
651.115	8549.01
651.467	8479.64
651.819	8467.43
652.171	8475.57
652.523	8434.67
652.875	8490.93
653.227	8445.29
653.578	8449.58
653.93	8489.81
654.282	8463.37
654.633	8432.18
654.985	8435.34
655.337	8452.74
655.688	8426.76
656.039	8500.65
656.391	8427.43
656.742	8464.72
657.094	8493.65
657.445	8524.38
657.796	8498.17
658.147	8474.89
658.498	8433.31
658.849	8532.06
659.2	8467.21
659.551	8477.15
659.902	8446.42
660.253	8445.06
660.604	8464.72
660.955	8399.19
661.306	8501.33
661.656	8469.92
662.007	8524.83
662.358	8477.15
662.708	8558.05
663.059	8465.85
663.409	8481.9
663.76	8501.56
664.11	8462.01
664.461	8515.79
664.811	8556.7
665.161	8491.61
665.511	8551.05
665.862	8561.22
666.212	8578.39
666.562	8527.09
666.912	8506.75
667.262	8507.21
667.612	8480.77
667.962	8550.14
668.312	8513.31
668.662	8527.32
669.011	8500.65
669.361	8520.99
669.711	8513.53
670.06	8485.29
670.41	8452.07
670.76	8491.16
671.109	8474.89
671.459	8438.51
671.808	8460.43
672.157	8521.67
672.507	8478.28
672.856	8384.95
673.205	8439.41
673.554	8415.46
673.904	8391.05
674.253	8451.16
674.602	8481.22
674.951	8318.96
675.3	8282.35
675.649	8385.18
675.998	8422.91
676.346	8373.88
676.695	8379.53
677.044	8345.4
677.393	8389.47
677.741	8429.02
678.09	8329.36
678.438	8332.07
678.787	8360.32
679.135	8294.78
679.484	8269.02
679.832	8293.65
680.181	8243.26
680.529	8305.18
680.877	8259.08
681.225	8219.76
681.573	8269.7
681.922	8196.25
682.27	8255.69
682.618	8224.5
682.966	8196.93
683.314	8198.29
683.661	8153.32
684.009	8121.45
684.357	8036.48
684.705	8103.37
685.053	8096.14
685.4	8095.24
685.748	7974.11
686.095	8006.88
686.443	7985.19
686.79	7914
687.138	7976.37
687.485	7976.82
687.832	7953.55
688.18	7952.64
688.527	7851.18
688.874	7893.44
689.221	7861.12
689.568	7808.47
689.915	7830.39
690.262	7758.3
690.609	7740.9
690.956	7745.19
691.303	7745.42
691.65	7693.22
691.997	7721.24
692.344	7550.62
692.69	7585.2
693.037	7654.35
693.383	7541.36
693.73	7547
694.077	7501.81
694.423	7459.1
694.769	7466.1
695.116	7420
695.462	7448.02
695.808	7357.63
696.155	7375.94
696.501	7330.74
696.847	7329.16
697.193	7243.28
697.539	7312.89
697.885	7208.48
698.231	7209.39
698.577	7193.57
698.923	7224.3
699.269	7117.64
699.614	7069.05
699.96	7035.61
700.306	7020.69
700.651	7028.83
700.997	7001.48
701.342	6959
701.688	6927.81
702.033	6953.8
702.379	6887.36
702.724	6895.04
703.069	6862.73
703.415	6815.5
703.76	6803.52
704.105	6836.52
704.45	6773.01
704.795	6750.19
705.14	6747.03
705.485	6662.73
705.83	6652.34
706.175	6724.65
706.52	6633.36
706.865	6600.82
707.209	6611.44
707.554	6590.19
707.899	6562.62
708.243	6533.92
708.588	6544.09
708.932	6515.17
709.277	6461.84
709.621	6469.97
709.966	6479.91
710.31	6474.04
710.654	6432.01
710.998	6422.74
711.342	6430.2
711.687	6354.04
712.031	6381.16
712.375	6308.39
712.719	6302.52
713.063	6276.3
713.407	6331.22
713.75	6286.02
714.094	6274.5
714.438	6283.08
714.782	6329.41
715.125	6295.96
715.469	6262.07
715.812	6209.19
716.156	6158.34
716.499	6188.17
716.843	6189.75
717.186	6142.52
717.53	6188.62
717.873	6246.47
718.216	6155.63
718.559	6183.88
718.902	6071.56
719.246	6135.06
719.589	6094.61
719.932	6081.73
720.275	6115.86
720.617	6081.96
720.96	6027.95
721.303	6113.37
721.646	6082.86
721.989	6001.28
722.331	6079.7
722.674	6024.79
723.016	6047.84
723.359	6044.9
723.701	6090.77
724.044	6010.32
724.386	5962.64
724.729	5987.95
725.071	6061.62
725.413	6038.34
725.755	5972.13
726.097	5988.63
726.439	5976.2
726.782	5987.72
727.124	6036.08
727.465	5982.3
727.807	6022.07
728.149	5942.3
728.491	5964.45
728.833	6023.43
729.175	5944.11
729.516	5976.65
729.858	5989.08
730.199	6032.02
730.541	6015.52
730.882	5972.13
731.224	6051.68
731.565	5960.38
731.906	5955.86
732.248	6008.06
732.589	5946.14
732.93	5980.04
733.271	5915.64
733.612	5898.69
733.953	5985.92
734.294	5979.14
734.635	5945.47
734.976	5984.56
735.317	5999.7
735.658	6011.23
735.999	5956.54
736.339	5975.29
736.68	5959.93
737.021	5943.66
737.361	5971.68
737.702	5945.24
738.042	5995.63
738.383	5962.87
738.723	6045.58
739.063	5996.99
739.404	6073.37
739.744	6022.07
740.084	6043.32
740.424	6039.7
740.764	6097.1
741.104	6122.18
741.444	6091.45
741.784	6129.64
742.124	6096.2
742.464	6078.79
742.804	6154.95
743.143	6125.12
743.483	6197.66
743.823	6172.35
744.162	6206.02
744.502	6258.9
744.841	6266.36
745.181	6336.19
745.52	6261.84
745.86	6354.27
746.199	6374.83
746.538	6434.49
746.877	6494.83
747.216	6527.6
747.556	6568.05
747.895	6634.94
748.234	6695.28
748.573	6660.25
748.911	6718.55
749.25	6772.11
749.589	6850.98
749.928	6931.2
750.267	6978.66
750.605	7066.34
750.944	7074.48
751.283	7191.76
751.621	7280.12
751.96	7301.14
752.298	7466.33
752.636	7514.24
752.975	7618.87
753.313	7653.67
753.651	7829.48
753.989	7901.57
754.327	7944.51
754.666	8093.66
755.004	8284.16
755.342	8379.3
755.679	8469.69
756.017	8569.12
756.355	8716.92
756.693	8823.13
757.031	9033.29
757.368	9170.01
757.706	9241.65
758.044	9424.02
758.381	9605.93
758.719	9739.49
759.056	9968.41
759.394	10059.48
759.731	10232.58
760.068	10365.24
760.405	10479.13
760.743	10668.73
761.08	10851.78
761.417	10980.14
761.754	11199.34
762.091	11387.36
762.428	11593
762.765	11659.21
763.102	11894.69
763.438	12112.76
763.775	12208.35
764.112	12441.57
764.449	12609.24
764.785	12721.11
765.122	12838.84
765.458	13089.01
765.795	13164.94
766.131	13400.41
766.467	13581.65
766.804	13688.76
767.14	13792.04
767.476	14032.94
767.812	14127.62
768.148	14303.66
768.485	14454.39
768.821	14458.91
769.157	14606.03
769.492	14799.92
769.828	15029.97
770.164	15011.22
770.5	15140.93
770.836	15323.75
771.171	15404.2
771.507	15469.28
771.842	15487.14
772.178	15703.63
772.513	15753.12
772.849	15933.23
773.184	16036.05
773.519	16085.99
773.855	16146.33
774.19	16311.75
774.525	16254.12
774.86	16313.78
775.195	16532.76
775.53	16560.33
775.865	16587.67
776.2	16568.46
776.535	16548.12
776.87	16736.82
777.205	16770.72
777.539	16768.01
777.874	16868.34
778.209	16832.41
778.543	16946.53
778.878	16951.05
779.212	17037.38
779.547	17040.99
779.881	17143.36
780.215	17076.02
780.55	17264.26
780.884	17164.83
781.218	17236.24
781.552	17239.63
781.886	17159.63
782.22	17246.64
782.554	17222
782.888	17139.97
783.222	17178.62
783.556	17196.69
783.889	17128.45
784.223	17104.49
784.557	17106.98
784.89	17195.56
785.224	17170.48
785.557	17212.29
785.891	17176.81
786.224	17082.8
786.558	17168.9
786.891	17076.47
787.224	17116.92
787.557	17078.05
787.891	17066.08
788.224	17181.1
788.557	17090.71
788.89	17125.96
789.223	17106.53
789.556	17038.05
789.888	17036.25
790.221	17059.52
790.554	16838.51
790.887	16944.95
791.219	16887.78
791.552	16942.69
791.884	16989.92
792.217	16842.58
792.549	16848.23
792.882	16645.75
793.214	16664.05
793.546	16716.26
793.879	16648.46
794.211	16579.31
794.543	16655.01
794.875	16656.6
795.207	16694.11
795.539	16581.57
795.871	16651.62
796.203	16481.01
796.535	16495.24
796.867	16417.73
797.198	16368.02
797.53	16338.41
797.862	16288.92
798.193	16397.62
798.525	16234.01
798.856	16273.56
799.188	16113.11
799.519	16015.26
799.85	16053.22
800.182	16019.55
800.513	16009.38
800.844	15875.6
801.175	16064.07
801.506	16067.91
801.837	15919.67
802.168	15790.18
802.499	15809.61
802.83	15710.41
803.161	15737.75
803.491	15792.21
803.822	15735.04
804.153	15606.45
804.483	15530.75
804.814	15571.88
805.145	15571.88
805.475	15600.58
805.805	15500.02
806.136	15436.74
806.466	15414.82
806.796	15470.64
807.126	15384.09
807.457	15293.47
807.787	15301.6
808.117	15303.41
808.447	15164.43
808.777	15306.35
809.107	15137.77
809.436	15100.48
809.766	15153.13
810.096	15099.12
810.426	15043.53
810.755	15029.29
811.085	15049.63
811.414	15013.48
811.744	14925.34
812.073	14930.09
812.403	14940.71
812.732	14790.2
813.061	14824.33
813.39	14769.19
813.719	14803.09
814.049	14803.54
814.378	14765.35
814.707	14731.9
815.036	14684.67
815.365	14664.56
815.693	14583.66
816.022	14579.14
816.351	14487.39
816.68	14495.52
817.008	14443.77
817.337	14368.07
817.665	14352.93
817.994	14358.8
818.322	14377.11
818.651	14197.23
818.979	14335.3
819.307	14306.15
819.636	14291.91
819.964	14225.93
820.292	14313.15
820.62	14264.12
820.948	14255.53
821.276	14240.39
821.604	14210.33
821.932	14234.74
822.259	14266.15
822.587	14262.53
822.915	14123.78
823.243	14266.83
823.57	14147.74
823.898	14205.59
824.225	14154.29
824.553	14255.3
824.88	14196.32
825.207	14219.6
825.535	14206.49
825.862	14230.67
826.189	14128.75
826.516	14220.95
826.843	14237.9
827.17	14270.22
827.497	14319.26
827.824	14193.16
828.151	14326.04
828.478	14312.7
828.805	14361.06
829.131	14268.86
829.458	14226.83
829.785	14161.07
830.111	14180.95
830.438	14337.79
830.764	14254.85
831.09	14188.86
831.417	14241.74
831.743	14178.47
832.069	14324.68
832.395	14113.16
832.722	14161.75
833.048	14164.46
833.374	14195.64
833.7	14094.86
834.026	14095.31
834.351	14139.6
834.677	14152.93
835.003	14159.49
835.329	14159.71
835.654	14007.4
835.98	14076.55
836.306	14050.79
836.631	14026.61
836.956	14048.98
837.282	14076.55
837.607	13987.51
837.932	13978.47
838.258	13954.97
838.583	13921.53
838.908	13901.41
839.233	13903.45
839.558	13917.91
839.883	13767.18
840.208	13773.28
840.533	13788.2
840.858	13766.28
841.182	13686.73
841.507	13748.65
841.832	13625.94
842.156	13632.49
842.481	13639.05
842.805	13587.75
843.13	13588.88
843.454	13531.25
843.778	13546.4
844.103	13481.09
844.427	13522.22
844.751	13494.42
845.075	13444.03
845.399	13414.65
845.723	13276.35
846.047	13316.34
846.371	13258.72
846.695	13192.73
847.019	13109.12
847.343	13060.76
847.666	12962.68
847.99	12957.71
848.313	12976.01
848.637	12776.7
848.96	12752.74
849.284	12886.3
849.607	12748.22
849.931	12680.88
850.254	12645.63
850.577	12553.43
850.9	12392.98
851.223	12480.66
851.546	12421.68
851.869	12324.51
852.192	12395.92
852.515	12303.72
852.838	12303.49
853.161	12162.93
853.483	12161.35
853.806	12185.3
854.129	12146.21
854.451	12021.24
854.774	11961.58
855.096	11949.83
855.419	11936.49
855.741	11905.76
856.063	11891.75
856.385	11945.08
856.708	11702.6
857.03	11704.41
857.352	11797.74
857.674	11704.86
857.996	11627.12
858.318	11583.73
858.64	11597.07
858.961	11612.89
859.283	11532.89
859.605	11480.23
859.926	11472.78
860.248	11484.98
860.57	11380.8
860.891	11396.4
861.212	11331.54
861.534	11273.23
861.855	11267.36
862.176	11315.95
862.498	11202.95
862.819	11258.09
863.14	11128.83
863.461	11201.82
863.782	11143.29
864.103	11158.66
864.424	11123.18
864.745	11099.23
865.065	11012.9
865.386	11009.96
865.707	10984.2
866.027	10986.01
866.348	11024.88
866.668	10940.81
866.989	10933.81
867.309	10858.33
867.63	10940.59
867.95	10874.15
868.27	10840.93
868.59	10884.09
868.91	10852.23
869.23	10762.29
869.55	10806.58
869.87	10811.1
870.19	10734.94
870.51	10779.01
870.83	10746.69
871.15	10626.92
871.469	10725.45
871.789	10696.75
872.109	10668.28
872.428	10634.83
872.748	10689.52
873.067	10629.41
873.386	10634.16
873.706	10556.87
874.025	10589.64
874.344	10499.24
874.663	10558.9
874.982	10530.66
875.301	10546.7
875.62	10526.59
875.939	10479.36
876.258	10471.45
876.577	10445.46
876.896	10433.03
877.214	10404.33
877.533	10348.51
877.852	10351
878.17	10338.12
878.489	10324.79
878.807	10382.18
879.125	10276.88
879.444	10261.06
879.762	10257.22
880.08	10314.62
880.398	10207.27
880.716	10299.02
881.034	10216.99
881.352	10192.81
881.67	10140.38
881.988	10244.79
882.306	10134.28
882.624	10082.08
882.941	10033.27
883.259	10020.61
883.577	10025.13
883.894	10027.84
884.212	10017
884.529	9949.2
884.846	9904.01
885.164	9912.14
885.481	9898.13
885.798	9876.21
886.115	9793.73
886.432	9829.2
886.75	9794.63
887.067	9833.5
887.383	9629.89
887.7	9754.4
888.017	9710.34
888.334	9718.47
888.651	9671.92
888.967	9641.41
889.284	9610.23
889.6	9508.76
889.917	9483
890.233	9502.21
890.55	9424.7
890.866	9475.77
891.182	9455.43
891.498	9397.58
891.815	9434.19
892.131	9346.96
892.447	9364.13
892.763	9257.69
893.079	9261.08
893.395	9238.26
893.71	9197.58
894.026	9257.02
894.342	9141.31
894.657	9069.9
894.973	9078.72
895.289	9092.5
895.604	9027.19
895.92	8937.7
896.235	8925.05
896.55	8929.34
896.865	8894.31
897.181	8882.34
897.496	8832.17
897.811	8836.69
898.126	8831.94
898.441	8729.57
898.756	8744.49
899.071	8700.65
899.386	8675.79
899.7	8530.03
900.015	8555.57
900.33	8506.08
900.644	8506.3
900.959	8480.09
901.273	8442.8
901.588	8426.53
901.902	8443.25
902.216	8318.74
902.531	8344.72
902.845	8297.95
903.159	8265.63
903.473	8201.9
903.787	8170.94
904.101	8144.05
904.415	8219.3
904.729	8119.65
905.042	8046.43
905.356	8060.21
905.67	8016.82
905.984	8009.82
906.297	7984.73
906.611	7939.31
906.924	7976.15
907.237	7872.87
907.551	7838.52
907.864	7890.27
908.177	7806.21
908.491	7788.35
908.804	7715.59
909.117	7614.8
909.43	7680.11
909.743	7573.22
910.056	7583.16
910.368	7518.31
910.681	7518.31
910.994	7446.44
911.307	7448.48
911.619	7339.1
911.932	7386.33
912.244	7331.64
912.557	7323.28
912.869	7279.22
913.181	7293.68
913.494	7259.55
913.806	7208.48
914.118	7158.77
914.43	7132.33
914.742	7141.37
915.054	7091.88
915.366	7054.59
915.678	7050.29
915.99	7029.5
916.302	6963.97
916.613	6922.16
916.925	6956.06
917.236	6970.97
917.548	6893.91
917.859	6884.88
918.171	6837.87
918.482	6785.9
918.794	6762.62
919.105	6764.65
919.416	6681.72
919.727	6669.97
920.038	6714.26
920.349	6629.29
920.66	6672.9
920.971	6573.02
921.282	6569.4
921.593	6503.87
921.903	6509.97
922.214	6467.94
922.525	6448.28
922.835	6453.93
923.146	6361.05
923.456	6372.8
923.767	6349.3
924.077	6347.04
924.387	6257.1
924.697	6269.75
925.008	6216.42
925.318	6260.49
925.628	6181.62
925.938	6176.87
926.248	6112.01
926.558	6163.31
926.867	6097.1
927.177	6081.51
927.487	6006.25
927.796	5978.23
928.106	6046.48
928.416	6012.81
928.725	5946.14
929.034	5964.22
929.344	5912.92
929.653	5947.27
929.962	5839.03
930.271	5830.21
930.581	5787.5
930.89	5756.54
931.199	5793.6
931.508	5738.46
931.817	5767.39
932.125	5704.79
932.434	5679.26
932.743	5648.3
933.051	5589.54
933.36	5601.75
933.669	5560.62
933.977	5557.45
934.286	5526.72
934.594	5488.98
934.902	5424.12
935.21	5443.56
935.519	5448.76
935.827	5368.76
936.135	5366.05
936.443	5342.77
936.751	5302.77
937.059	5342.09
937.367	5303
937.674	5261.42
937.982	5246.27
938.29	5235.2
938.597	5240.85
938.905	5179.61
939.213	5161.76
939.52	5163.79
939.827	5140.51
940.135	5087.86
940.442	5117.46
940.749	5046.96
941.056	5078.14
941.363	4997.02
941.67	4969.67
941.977	4958.82
942.284	4940.29
942.591	4960.41
942.898	4911.14
943.205	4879.5
943.511	4864.36
943.818	4852.16
944.125	4813.74
944.431	4817.59
944.738	4816.91
945.044	4779.85
945.35	4781.88
945.657	4705.5
945.963	4708.66
946.269	4699.62
946.575	4682.9
946.881	4664.37
947.187	4663.46
947.493	4572.85
947.799	4587.08
948.105	4564.48
948.41	4544.37
948.716	4513.64
949.022	4517.03
949.327	4525.16
949.633	4450.14
949.938	4456.92
950.244	4425.28
950.549	4387.31
950.854	4407.65
951.16	4366.52
951.465	4325.62
951.77	4366.3
952.075	4309.35
952.38	4315.9
952.685	4304.15
952.99	4261.44
953.294	4213.08
953.599	4221.22
953.904	4201.33
954.209	4189.81
954.513	4162.91
954.818	4159.3
955.122	4093.31
955.426	4111.62
955.731	4105.06
956.035	4093.54
956.339	4136.93
956.643	4089.24
956.948	4011.05
957.252	4011.05
957.556	4022.35
957.86	3966.31
958.163	3999.98
958.467	3938.06
958.771	3963.37
959.075	3957.04
959.378	3931.28
959.682	3874.56
959.985	3838.63
960.289	3848.12
960.592	3843.83
960.896	3830.49
961.199	3787.33
961.502	3804.05
961.805	3745.07
962.108	3759.99
962.411	3748.01
962.714	3721.57
963.017	3682.02
963.32	3709.59
963.623	3672.3
963.926	3618.52
964.228	3629.59
964.531	3651.74
964.833	3599.09
965.136	3596.83
965.438	3558.41
965.741	3573.55
966.043	3493.1
966.345	3519.09
966.648	3541.46
966.95	3496.72
967.252	3449.26
967.554	3456.49
967.856	3473.89
968.158	3452.88
968.46	3415.81
968.761	3418.3
969.063	3422.59
969.365	3419.43
969.666	3371.75
969.968	3334.46
970.269	3329.94
970.571	3275.48
970.872	3304.18
971.174	3283.61
971.475	3259.43
971.776	3214.01
972.077	3238.87
972.378	3208.59
972.679	3203.62
972.98	3230.06
973.281	3217.4
973.582	3181.24
973.883	3207.23
974.183	3146.44
974.484	3159.32
974.785	3117.52
975.085	3122.49
975.386	3116.16
975.686	3157.74
975.986	3049.72
976.287	3087.69
976.587	3064.64
976.887	3015.37
977.187	3008.14
977.487	3010.85
977.787	2995.26
978.087	2958.2
978.387	2983.51
978.687	3000.01
978.987	2940.12
979.286	2901.93
979.586	2946
979.885	2868.71
980.185	2897.18
980.484	2869.61
980.784	2871.2
981.083	2855.6
981.382	2840.69
981.682	2856.73
981.981	2819.9
982.28	2804.76
982.579	2814.7
982.878	2770.41
983.177	2740.58
983.475	2774.93
983.774	2726.11
984.073	2714.82
984.372	2728.6
984.67	2719.56
984.969	2698.77
985.267	2687.47
985.566	2670.97
985.864	2646.34
986.162	2634.14
986.461	2599.56
986.759	2606.57
987.057	2604.08
987.355	2597.53
987.653	2586.01
987.951	2600.02
988.249	2609.06
988.547	2546.23
988.844	2543.75
989.142	2506.46
989.44	2497.65
989.737	2535.39
990.035	2482.51
990.332	2457.2
990.63	2464.88
990.927	2438.44
991.224	2443.41
991.521	2419
991.819	2426.01
992.116	2434.82
992.413	2374.94
992.71	2397.99
993.006	2394.37
993.303	2346.46
993.6	2374.71
993.897	2343.07
994.193	2391.43
994.49	2300.36
994.787	2317.31
995.083	2318.89
995.379	2298.78
995.676	2270.08
995.972	2297.43
996.268	2260.82
996.565	2194.6
996.861	2278.89
997.157	2232.57
997.453	2198.9
997.749	2197.54
998.044	2198.45
998.34	2192.57
998.636	2169.75
998.932	2153.7
999.227	2172.46
999.523	2129.75
999.818	2108.28
1000.114	2075.96
1000.409	2103.98
1000.704	2073.7
1001	2082.29
1001.295	2083.87
1001.59	2101.72
1001.885	2058.79
1002.18	2000.94
1002.475	2019.92
1002.77	2035.51
1003.065	2005.68
1003.359	1986.7
1003.654	1987.38
1003.949	1974.72
1004.243	1952.35
1004.538	1947.6
1004.832	1949.64
1005.127	1960.71
1005.421	1911.67
1005.715	1915.06
1006.009	1874.84
1006.304	1871.67
1006.598	1852.69
1006.892	1881.39
1007.186	1865.8
1007.48	1839.81
1007.773	1814.73
1008.067	1819.47
1008.361	1797.78
1008.655	1798.91
1008.948	1788.74
1009.242	1774.95
1009.535	1741.96
1009.829	1758.23
1010.122	1748.74
1010.415	1729.3
1010.708	1750.77
1011.001	1721.4
1011.295	1681.4
1011.588	1680.04
1011.881	1679.59
1012.173	1703.54
1012.466	1686.59
1012.759	1654.28
1013.052	1657.67
1013.344	1664.22
1013.637	1639.14
1013.93	1616.77
1014.222	1615.41
1014.514	1616.77
1014.807	1587.61
1015.099	1605.24
1015.391	1574.05
1015.683	1586.94
1015.976	1560.95
1016.268	1569.31
1016.56	1562.76
1016.851	1527.5
1017.143	1531.34
1017.435	1507.39
1017.727	1494.96
1018.018	1464.9
1018.31	1502.42
1018.602	1475.53
1018.893	1466.26
1019.185	1466.49
1019.476	1448.18
1019.767	1446.83
1020.058	1432.82
1020.35	1430.1
1020.641	1415.41
1020.932	1390.78
1021.223	1362.31
1021.514	1385.81
1021.804	1365.92
1022.095	1362.76
1022.386	1366.15
1022.677	1342.42
1022.967	1315.76
1023.258	1320.5
1023.548	1321.86
1023.839	1293.61
1024.129	1297.45
1024.419	1295.64
1024.709	1307.4
1025	1296.1
1025.29	1278.02
1025.58	1267.85
1025.87	1265.14
1026.16	1236.89
1026.449	1265.14
1026.739	1261.29
1027.029	1218.13
1027.319	1212.48
1027.608	1221.97
1027.898	1205.02
1028.187	1196.21
1028.477	1200.28
1028.766	1180.62
1029.055	1176.78
1029.344	1174.52
1029.634	1143.33
1029.923	1142.65
1030.212	1136.55
1030.501	1136.55
1030.79	1135.65
1031.078	1124.57
1031.367	1104.46
1031.656	1098.59
1031.945	1111.02
1032.233	1086.16
1032.522	1054.75
1032.81	1081.86
1033.099	1060.85
1033.387	1099.26
1033.675	1034.63
1033.963	1047.06
1034.251	1043.45
1034.54	1028.98
1034.828	1048.42
1035.116	1009.55
1035.403	1023.56
1035.691	1012.71
1035.979	1000.74
1036.267	985.37
1036.554	986.5
1036.842	992.83
1037.129	965.48
1037.417	995.76
1037.704	961.64
1037.992	961.19
1038.279	953.96
1038.566	964.13
1038.853	964.13
1039.14	964.13
