Data from hue_220_FLMS001491_00088.txt Node
Date: Tue Feb 07 16:40:04 GMT 2017
User: dcchb
Spectrometer: FLMS00149
Trigger mode: 0
Integration Time (sec): 2.000000E-2
Scans to average: 10
Electric dark correction enabled: true
Nonlinearity correction enabled: false
Boxcar width: 0
XAxis mode: Wavelengths
Number of Pixels in Spectrum: 2048
>>>>>Begin Spectral Data<<<<<
341.393	9.1
341.776	9.1
342.16	9.1
342.543	-63.44
342.927	-61.86
343.31	-58.7
343.693	-71.13
344.077	-71.58
344.46	-62.99
344.843	-56.89
345.226	-49.89
345.61	-43.11
345.993	-3.11
346.376	-10.34
346.759	15.42
347.142	30.11
347.525	33.95
347.908	69.21
348.291	65.14
348.674	96.33
349.057	117.57
349.44	127.74
349.823	152.37
350.206	193.5
350.588	184.23
350.971	201.18
351.354	230.56
351.737	227.4
352.119	246.6
352.502	255.87
352.884	284.34
353.267	276.66
353.65	286.83
354.032	289.54
354.414	284.12
354.797	341.74
355.179	321.4
355.562	328.18
355.944	318.92
356.326	315.3
356.709	329.99
357.091	359.6
357.473	351.46
357.855	347.62
358.238	347.84
358.62	343.78
359.002	347.84
359.384	336.54
359.766	342.42
360.148	338.58
360.53	353.04
360.912	345.58
361.294	345.13
361.676	328.18
362.057	347.62
362.439	328.18
362.821	330.9
363.203	319.14
363.584	337.67
363.966	321.4
364.348	315.08
364.729	324.12
365.111	346.94
365.493	335.19
365.874	325.25
366.256	310.78
366.637	319.82
367.019	324.79
367.4	307.85
367.781	309.88
368.163	307.17
368.544	326.38
368.925	281.18
369.306	308.97
369.688	295.19
370.069	337.45
370.45	314.62
370.831	310.1
371.212	305.81
371.593	321.18
371.974	322.99
372.355	281.41
372.736	303.1
373.117	306.72
373.498	300.61
373.879	328.18
374.26	300.61
374.641	321.63
375.021	325.25
375.402	309.88
375.783	342.65
376.163	336.54
376.544	318.01
376.925	316.66
377.305	330.44
377.686	318.01
378.066	335.19
378.447	331.8
378.827	303.78
379.208	310.78
379.588	318.01
379.968	341.74
380.349	345.81
380.729	322.53
381.109	352.36
381.489	337.45
381.87	333.16
382.25	320.5
382.63	328.18
383.01	363.44
383.39	331.8
383.77	342.65
384.15	344
384.53	338.35
384.91	360.95
385.29	353.49
385.67	362.53
386.049	344.68
386.429	355.08
386.809	358.69
387.189	338.13
387.568	371.35
387.948	368.41
388.328	363.66
388.707	364.79
389.087	343.32
389.466	370.22
389.846	342.65
390.225	388.29
390.605	358.47
390.984	379.26
391.363	361.4
391.743	349.2
392.122	384
392.501	391.23
392.881	389.2
393.26	373.38
393.639	360.95
394.018	375.19
394.397	373.15
394.776	398.24
395.155	407.28
395.534	358.92
395.913	394.85
396.292	409.54
396.671	406.83
397.05	411.8
397.429	381.06
397.808	387.39
398.186	390.33
398.565	365.7
398.944	404.34
399.323	407.5
399.701	415.41
400.08	394.62
400.458	390.55
400.837	411.57
401.215	407.73
401.594	413.15
401.972	417.45
402.351	418.35
402.729	430.33
403.107	412.25
403.486	431.46
403.864	443.43
404.242	449.76
404.62	468.97
404.999	441.85
405.377	452.02
405.755	458.58
406.133	454.51
406.511	438.01
406.889	470.33
407.267	456.54
407.645	459.03
408.023	489.76
408.401	474.62
408.779	481.85
409.156	494.51
409.534	501.96
409.912	517.33
410.29	533.6
410.667	510.33
411.045	528.18
411.422	532.02
411.8	534.96
412.178	545.8
412.555	572.02
412.933	562.53
413.31	569.08
413.687	574.28
414.065	595.52
414.442	596.42
414.819	602.3
415.197	617.22
415.574	622.86
415.951	637.33
416.328	648.85
416.705	646.14
417.082	663.09
417.46	648.18
417.837	670.77
418.214	678
418.591	683.43
418.967	691.56
419.344	698.57
419.721	701.06
420.098	692.02
420.475	747.38
420.852	753.93
421.228	738.34
421.605	760.71
421.982	798
422.358	787.61
422.735	804.1
423.111	799.81
423.488	822.41
423.864	837.1
424.241	862.41
424.617	827.38
424.994	880.03
425.37	881.62
425.746	874.61
426.123	910.32
426.499	892.46
426.875	936.3
427.251	946.25
427.627	941.05
428.003	981.95
428.379	981.05
428.756	983.31
429.132	1011.78
429.507	997.09
429.883	1033.7
430.259	1038.22
430.635	1050.2
431.011	1039.35
431.387	1093.59
431.763	1085
432.138	1140.59
432.514	1132.23
432.89	1141.95
433.265	1181.72
433.641	1162.06
434.016	1204.54
434.392	1214.26
434.767	1237.76
435.143	1238.44
435.518	1255.16
435.894	1286.35
436.269	1310.08
436.644	1343.52
437.02	1352.79
437.395	1394.6
437.77	1404.77
438.145	1382.17
438.52	1442.28
438.895	1483.41
439.271	1496.06
439.646	1511.88
440.021	1534.71
440.395	1519.79
440.77	1547.13
441.145	1554.14
441.52	1579.9
441.895	1595.27
442.27	1634.36
442.645	1604.31
443.019	1656.96
443.394	1659.9
443.769	1670.07
444.143	1666
444.518	1702.16
444.892	1746
445.267	1721.37
445.641	1710.52
446.016	1745.1
446.39	1796.85
446.764	1769.95
447.139	1785.09
447.513	1817.64
447.887	1831.19
448.262	1813.79
448.636	1841.82
449.01	1861.93
449.384	1886.79
449.758	1887.69
450.132	1925.43
450.506	1920.91
450.88	1950.97
451.254	1942.15
451.628	1978.31
452.002	1962.94
452.376	2018.31
452.75	2013.56
453.123	2018.31
453.497	2056.5
453.871	2061.02
454.244	2120.9
454.618	2125.42
454.992	2174.46
455.365	2133.33
455.739	2208.13
456.112	2218.3
456.486	2239.55
456.859	2238.19
457.232	2313.44
457.606	2306.89
457.979	2312.76
458.352	2378.75
458.725	2377.85
459.099	2381.69
459.472	2455.36
459.845	2473.89
460.218	2465.53
460.591	2511.18
460.964	2521.8
461.337	2577.16
461.71	2606.99
462.083	2641.57
462.456	2598.63
462.829	2640.89
463.201	2722.47
463.574	2699.65
463.947	2739.19
464.32	2771.74
464.692	2823.71
465.065	2819.42
465.438	2861.45
465.81	2872.98
466.183	2934.89
466.555	2979.87
466.928	2962.01
467.3	2990.26
467.672	3065.74
468.045	3103.7
468.417	3105.96
468.789	3118.62
469.161	3204.72
469.534	3256.69
469.906	3291.04
470.278	3273.87
470.65	3313.87
471.022	3365.62
471.394	3444.26
471.766	3428.21
472.138	3481.09
472.51	3604.26
472.882	3603.13
473.253	3656.01
473.625	3678.6
473.997	3725.83
474.369	3759.05
474.74	3795.89
475.112	3877.24
475.484	3913.17
475.855	4006.5
476.227	4007.63
476.598	4063
476.97	4122.21
477.341	4230.91
477.713	4256.22
478.084	4263.45
478.455	4346.83
478.827	4373.73
479.198	4463.44
479.569	4449.43
479.94	4628.86
480.311	4626.83
480.682	4747.73
481.053	4834.96
481.424	4851.68
481.795	4902.98
482.166	4947.72
482.537	5020.72
482.908	5100.49
483.279	5161.28
483.65	5205.12
484.021	5309.52
484.391	5361.72
484.762	5415.96
485.133	5475.84
485.503	5515.17
485.874	5592.23
486.244	5627.03
486.615	5731.88
486.985	5811.66
487.356	5852.56
487.726	5978.88
488.097	6002.16
488.467	6045.55
488.837	6134.81
489.207	6186.33
489.578	6268.82
489.948	6338.87
490.318	6392.66
490.688	6399.21
491.058	6450.28
491.428	6574.8
491.798	6570.05
492.168	6695.93
492.538	6672.42
492.908	6781.35
493.278	6770.73
493.648	6878.97
494.017	6902.25
494.387	7000.55
494.757	7054.79
495.126	7080.1
495.496	7051.85
495.866	7142.47
496.235	7137.5
496.605	7226.76
496.974	7247.55
497.344	7258.62
497.713	7348.79
498.082	7295.23
498.452	7402.8
498.821	7430.37
499.19	7405.96
499.559	7528.67
499.928	7459.07
500.298	7579.07
500.667	7580.2
501.036	7579.07
501.405	7604.38
501.774	7675.11
502.143	7711.94
502.512	7644.6
502.88	7758.72
503.249	7746.75
503.618	7752.17
503.987	7841.43
504.356	7816.12
504.724	7811.6
505.093	7928.44
505.462	7907.87
505.83	7938.6
506.199	8014.76
506.567	8103.12
506.936	8083.01
507.304	8117.13
507.672	8050.01
508.041	8149.45
508.409	8212.95
508.777	8166.4
509.145	8251.59
509.514	8217.47
509.882	8224.7
510.25	8203.91
510.618	8222.89
510.986	8261.31
511.354	8326.84
511.722	8268.54
512.09	8364.36
512.458	8382.21
512.826	8362.77
513.193	8422.43
513.561	8318.71
513.929	8455.2
514.297	8481.42
514.664	8470.57
515.032	8444.13
515.4	8474.41
515.767	8468.99
516.135	8464.24
516.502	8428.54
516.869	8562.09
517.237	8577.23
517.604	8567.74
517.972	8535.65
518.339	8562.54
518.706	8604.35
519.073	8503.56
519.44	8579.49
519.808	8601.64
520.175	8533.39
520.542	8564.8
520.909	8646.16
521.276	8632.15
521.643	8630.79
522.009	8680.96
522.376	8680.51
522.743	8685.25
523.11	8789.43
523.477	8798.02
523.843	8794.85
524.21	8786.27
524.577	8807.96
524.943	8795.08
525.31	8806.38
525.676	8894.96
526.043	8866.72
526.409	8820.62
526.776	8929.77
527.142	8886.38
527.508	8818.36
527.874	8884.12
528.241	8905.36
528.607	8894.74
528.973	8887.51
529.339	8838.24
529.705	8894.51
530.071	8895.42
530.437	8881.86
530.803	8919.6
531.169	8882.76
531.535	8882.31
531.901	8893.83
532.267	8848.41
532.632	8875.98
532.998	8864.91
533.364	8943.55
533.73	8922.76
534.095	8913.72
534.461	8868.98
534.826	8822.65
535.192	8837.79
535.557	8913.95
535.923	8833.95
536.288	8859.71
536.653	8808.64
537.019	8717.57
537.384	8752.37
537.749	8729.32
538.114	8730.67
538.479	8689.55
538.845	8685.93
539.21	8625.14
539.575	8668.98
539.94	8628.3
540.305	8620.17
540.67	8601.64
541.034	8576.33
541.399	8590.11
541.764	8564.35
542.129	8540.62
542.494	8529.78
542.858	8483
543.223	8490
543.587	8482.09
543.952	8437.57
544.316	8410.23
544.681	8383.79
545.045	8418.82
545.41	8365.49
545.774	8391.25
546.138	8345.37
546.503	8296.11
546.867	8307.86
547.231	8244.36
547.595	8361.42
547.959	8318.48
548.324	8170.46
548.688	8115.78
549.052	8189.9
549.416	8138.6
549.779	8150.8
550.143	8127.53
550.507	8059.96
550.871	8098.15
551.235	8104.48
551.599	8036.91
551.962	8088.88
552.326	8013.41
552.689	8086.17
553.053	7928.44
553.417	7965.27
553.78	8029.68
554.143	7945.16
554.507	7923.46
554.87	7997.13
555.234	7973.18
555.597	7912.62
555.96	7838.95
556.323	7883.69
556.686	7869.23
557.05	7866.97
557.413	7892.73
557.776	7851.15
558.139	7913.75
558.502	7842.34
558.865	7873.3
559.228	7918.72
559.59	7833.3
559.953	7828.1
560.316	7929.34
560.679	7838.27
561.041	7868.1
561.404	7877.36
561.767	7860.87
562.129	7877.59
562.492	7878.27
562.854	7848.21
563.217	7897.93
563.579	7863.13
563.941	7880.75
564.304	7857.7
564.666	7868.55
565.028	7908.78
565.39	7865.84
565.753	7882.56
566.115	7934.31
566.477	7930.24
566.839	7901.54
567.201	8002.33
567.563	7947.19
567.925	7974.76
568.287	7961.43
568.648	8028.55
569.01	8022.9
569.372	8084.59
569.734	8014.08
570.095	8039.85
570.457	8146.96
570.819	8064.7
571.18	8089.56
571.542	8129.56
571.903	8120.75
572.265	8123.91
572.626	8114.42
572.987	8129.33
573.349	8156.45
573.71	8153.74
574.071	8171.59
574.432	8159.84
574.794	8237.35
575.155	8268.77
575.516	8238.94
575.877	8262.21
576.238	8321.65
576.599	8274.87
576.96	8305.37
577.32	8332.94
577.681	8368.88
578.042	8309.44
578.403	8357.12
578.763	8400.97
579.124	8398.25
579.485	8445.94
579.845	8486.39
580.206	8432.15
580.566	8456.78
580.927	8411.81
581.287	8446.61
581.648	8471.02
582.008	8526.39
582.368	8564.8
582.728	8489.55
583.089	8518.93
583.449	8558.7
583.809	8526.61
584.169	8601.19
584.529	8588.76
584.889	8612.26
585.249	8583.11
585.609	8603.45
585.969	8626.95
586.329	8621.75
586.688	8654.52
587.048	8669.66
587.408	8670.11
587.768	8646.38
588.127	8654.97
588.487	8668.98
588.846	8735.87
589.206	8754.85
589.565	8812.93
589.925	8764.57
590.284	8770
590.643	8735.87
591.003	8886.15
591.362	8821.97
591.721	8781.52
592.08	8838.47
592.44	8816.1
592.799	8866.72
593.158	8807.73
593.517	8897.9
593.876	8906.49
594.235	8857.22
594.593	8965.47
594.952	8956.21
595.311	8847.96
595.67	8904
596.029	8972.48
596.387	9005.02
596.746	8948.3
597.104	8933.38
597.463	8933.15
597.822	8956.66
598.18	8904.23
598.538	8914.17
598.897	8933.83
599.255	8948.3
599.613	9081.17
599.972	8950.78
600.33	8977.22
600.688	8962.98
601.046	9028.29
601.404	9086.15
601.762	9045.47
602.12	9134.73
602.478	9064.22
602.836	9072.13
603.194	9039.37
603.552	9055.41
603.91	9062.19
604.268	9095.41
604.625	9045.02
604.983	9138.8
605.341	9080.72
605.698	9081.4
606.056	9159.59
606.413	9080.72
606.771	9118.01
607.128	9149.19
607.485	9118.91
607.843	9129.31
608.2	9195.07
608.557	9209.76
608.914	9108.07
609.272	9228.51
609.629	9188.52
609.986	9204.33
610.343	9206.59
610.7	9237.1
611.057	9205.46
611.414	9210.66
611.771	9260.6
612.127	9225.35
612.484	9232.13
612.841	9254.05
613.198	9350.77
613.554	9278
613.911	9309.42
614.267	9327.49
614.624	9328.85
614.98	9353.71
615.337	9348.51
615.693	9356.87
616.05	9307.38
616.406	9302.18
616.762	9271.9
617.118	9345.12
617.475	9346.48
617.831	9402.07
618.187	9355.74
618.543	9408.62
618.899	9451.11
619.255	9340.6
619.611	9412.92
619.967	9374.05
620.323	9480.03
620.678	9442.07
621.034	9319.13
621.39	9376.99
621.746	9359.81
622.101	9522.97
622.457	9433.48
622.812	9416.98
623.168	9450.66
623.523	9454.05
623.879	9401.84
624.234	9355.29
624.589	9416.08
624.945	9448.4
625.3	9458.56
625.655	9417.89
626.01	9520.71
626.365	9467.38
626.72	9450.66
627.075	9384.67
627.43	9405.46
627.785	9463.31
628.14	9397.32
628.495	9417.21
628.85	9415.85
629.205	9335.63
629.559	9476.19
629.914	9416.08
630.269	9328.4
630.623	9324.56
630.978	9313.48
631.332	9339.92
631.687	9412.69
632.041	9273.26
632.396	9322.98
632.75	9273.71
633.104	9268.06
633.459	9222.19
633.813	9261.96
634.167	9252.69
634.521	9177.67
634.875	9236.65
635.229	9213.6
635.583	9236.2
635.937	9251.11
636.291	9160.72
636.645	9181.51
636.999	9143.77
637.352	9179.48
637.706	9161.85
638.06	9177.89
638.413	9184.45
638.767	9111.46
639.121	9138.35
639.474	9120.04
639.828	9113.26
640.181	9094.96
640.534	9088.18
640.888	9005.47
641.241	9016.54
641.594	9066.26
641.947	9030.55
642.301	9047.5
642.654	9074.39
643.007	8981.06
643.36	8979.71
643.713	9012.47
644.066	9017.9
644.419	8967.28
644.771	8935.41
645.124	8932.25
645.477	8807.06
645.83	8798.02
646.182	8737.68
646.535	8810.22
646.888	8743.33
647.24	8723.44
647.593	8732.71
647.945	8758.92
648.298	8708.98
648.65	8659.72
649.002	8638.93
649.355	8747.4
649.707	8718.47
650.059	8772.71
650.411	8836.66
650.763	8842.31
651.115	8985.36
651.467	8858.35
651.819	8905.13
652.171	8941.29
652.523	8882.53
652.875	8854.51
653.227	8839.15
653.578	8919.82
653.93	8874.4
654.282	8839.37
654.633	8862.42
654.985	8916.88
655.337	8847.73
655.688	8909.2
656.039	8921.63
656.391	8845.02
656.742	8839.6
657.094	8863.33
657.445	8880.5
657.796	8894.51
658.147	8869.43
658.498	8843.44
658.849	8922.31
659.2	8922.53
659.551	8923.44
659.902	8967.96
660.253	8924.57
660.604	8924.34
660.955	8909.88
661.306	8975.19
661.656	8927.96
662.007	8957.11
662.358	8983.55
662.708	8940.61
663.059	8954.4
663.409	8898.35
663.76	8963.44
664.11	8995.75
664.461	8984
664.811	8952.82
665.161	8934.06
665.511	8943.1
665.862	8971.57
666.212	8963.21
666.562	8979.26
666.912	8958.92
667.262	8991.23
667.612	8960.5
667.962	8945.36
668.312	8947.84
668.662	9013.6
669.011	8902.2
669.361	8947.84
669.711	9013.6
670.06	8945.36
670.41	8906.71
670.76	8890.44
671.109	8940.84
671.459	8892.03
671.808	8952.59
672.157	8940.84
672.507	8834.17
672.856	8875.3
673.205	8902.87
673.554	8868.52
673.904	8892.93
674.253	8886.83
674.602	8910.78
674.951	8783.33
675.3	8674.63
675.649	8772.03
675.998	8868.3
676.346	8835.53
676.695	8855.87
677.044	8780.16
677.393	8813.16
677.741	8810.67
678.09	8823.55
678.438	8747.4
678.787	8744.91
679.135	8781.75
679.484	8701.75
679.832	8762.99
680.181	8679.83
680.529	8792.82
680.877	8648.64
681.225	8688.87
681.573	8706.95
681.922	8627.17
682.27	8544.01
682.618	8629.89
682.966	8593.73
683.314	8626.5
683.661	8556.89
684.009	8546.05
684.357	8501.98
684.705	8469.66
685.053	8456.33
685.4	8458.82
685.748	8363
686.095	8426.5
686.443	8335.2
686.79	8337.92
687.138	8409.55
687.485	8390.57
687.832	8361.87
688.18	8358.71
688.527	8286.62
688.874	8302.89
689.221	8245.49
689.568	8202.33
689.915	8174.76
690.262	8209.11
690.609	8178.15
690.956	8163.01
691.303	8134.98
691.65	8126.85
691.997	8059.05
692.344	8029
692.69	8011.15
693.037	7989
693.383	7916.01
693.73	7930.92
694.077	7902.22
694.423	7852.51
694.769	7876.01
695.116	7861.09
695.462	7830.13
695.808	7745.84
696.155	7782.22
696.501	7773.86
696.847	7687.09
697.193	7660.87
697.539	7674.43
697.885	7604.38
698.231	7577.71
698.577	7649.35
698.923	7615.9
699.269	7511.72
699.614	7467.2
699.96	7416.81
700.306	7429.69
700.651	7331.62
700.997	7394.89
701.342	7333.65
701.688	7295.01
702.033	7274.44
702.379	7301.56
702.724	7226.76
703.069	7287.55
703.415	7217.72
703.76	7141.56
704.105	7128.46
704.45	7158.51
704.795	7094.11
705.14	7045.97
705.485	7067.22
705.83	7029.25
706.175	7009.14
706.52	7049.36
706.865	6965.07
707.209	6945.64
707.554	6920.1
707.899	6918.74
708.243	6865.64
708.588	6830.61
708.932	6776.38
709.277	6825.41
709.621	6780.44
709.966	6781.12
710.31	6804.62
710.654	6736.38
710.998	6669.71
711.342	6759.2
711.687	6693.44
712.031	6656.38
712.375	6668.58
712.719	6654.8
713.063	6618.41
713.407	6629.94
713.75	6651.18
714.094	6598.3
714.438	6586.32
714.782	6624.97
715.125	6550.62
715.469	6554.01
715.812	6555.14
716.156	6518.98
716.499	6555.59
716.843	6525.76
717.186	6490.96
717.53	6455.93
717.873	6503.61
718.216	6488.93
718.559	6455.48
718.902	6433.33
719.246	6467.01
719.589	6421.58
719.932	6397.63
720.275	6451.86
720.617	6405.09
720.96	6407.12
721.303	6402.37
721.646	6354.24
721.989	6338.42
722.331	6344.97
722.674	6352.88
723.016	6360.57
723.359	6329.38
723.701	6345.88
724.044	6320.79
724.386	6235.6
724.729	6327.35
725.071	6277.41
725.413	6250.97
725.755	6255.26
726.097	6270.4
726.439	6243.06
726.782	6278.31
727.124	6322.83
727.465	6234.69
727.807	6276.5
728.149	6272.89
728.491	6227.92
728.833	6269.72
729.175	6283.73
729.516	6196.73
729.858	6188.59
730.199	6291.64
730.541	6210.29
730.882	6191.08
731.224	6255.26
731.565	6250.97
731.906	6149.05
732.248	6305.65
732.589	6198.09
732.93	6173.68
733.271	6198.31
733.612	6181.14
733.953	6261.13
734.294	6217.52
734.635	6225.2
734.976	6305.88
735.317	6199.89
735.658	6263.39
735.999	6203.06
736.339	6211.64
736.68	6224.75
737.021	6295.26
737.361	6272.43
737.702	6297.74
738.042	6279.44
738.383	6254.81
738.723	6265.65
739.063	6280.34
739.404	6305.65
739.744	6295.03
740.084	6315.6
740.424	6292.32
740.764	6328.03
741.104	6333.45
741.444	6316.73
741.784	6307.69
742.124	6408.48
742.464	6397.4
742.804	6461.58
743.143	6457.29
743.483	6436.95
743.823	6457.51
744.162	6486.67
744.502	6513.11
744.841	6578.41
745.181	6561.24
745.52	6561.47
745.86	6684.4
746.199	6610.73
746.538	6654.57
746.877	6776.83
747.216	6743.61
747.556	6832.19
747.895	6836.94
748.234	6862.02
748.573	6930.04
748.911	7015.24
749.25	7034.22
749.589	7052.75
749.928	7148.8
750.267	7153.77
750.605	7266.98
750.944	7348.56
751.283	7357.83
751.621	7490.71
751.96	7546.52
752.298	7598.5
752.636	7723.92
752.975	7808.89
753.313	7865.16
753.651	7954.2
753.989	8050.24
754.327	8173.85
754.666	8280.74
755.004	8388.31
755.342	8518.48
755.679	8651.81
756.017	8758.24
756.355	8893.38
756.693	8981.74
757.031	9127.95
757.368	9231
757.706	9400.94
758.044	9545.34
758.381	9704.43
758.719	9803.64
759.056	10057.42
759.394	10147.36
759.731	10299.9
760.068	10406.79
760.405	10590.51
760.743	10749.38
761.08	10905.98
761.417	11103.27
761.754	11247.44
762.091	11395.46
762.428	11611.73
762.765	11683.82
763.102	11897.37
763.438	12009.23
763.775	12215.33
764.112	12392.72
764.449	12670.68
764.785	12666.62
765.122	12810.57
765.458	13011.24
765.795	13133.27
766.131	13401.06
766.467	13500.49
766.804	13601.28
767.14	13791.56
767.476	13914.94
767.812	14019.57
768.148	14190.87
768.485	14307.02
768.821	14446.68
769.157	14610.97
769.492	14617.75
769.828	14838.76
770.164	14856.16
770.5	14975.48
770.836	15168.47
771.171	15298.86
771.507	15321.91
771.842	15379.99
772.178	15508.8
772.513	15660.66
772.849	15713.09
773.184	15817.95
773.519	15865.85
773.855	16089.12
774.19	16029.92
774.525	16099.75
774.86	16257.93
775.195	16310.59
775.53	16353.07
775.865	16414.09
776.2	16409.34
776.535	16508.1
776.87	16480.08
777.205	16611.15
777.539	16580.41
777.874	16736.79
778.209	16564.59
778.543	16733.63
778.878	16753.06
779.212	16787.64
779.547	16777.47
779.881	16871.48
780.215	16872.16
780.55	16980.17
780.884	16922.32
781.218	16993.28
781.552	17075.99
781.886	17022.89
782.22	16992.6
782.554	16924.58
782.888	16804.13
783.222	16934.75
783.556	16958.71
783.889	16930.46
784.223	16853.17
784.557	16923.91
784.89	17096.78
785.224	16906.96
785.557	16964.81
785.891	16789.45
786.224	16884.81
786.558	16950.57
786.891	16787.19
787.224	16781.31
787.557	16868.99
787.891	16764.81
788.224	16878.26
788.557	16849.1
788.89	16868.99
789.223	16902.21
789.556	16743.12
789.888	16795.77
790.221	16796.23
790.554	16652.05
790.887	16653.63
791.219	16683.91
791.552	16637.36
791.884	16641.65
792.217	16577.93
792.549	16572.05
792.882	16527.98
793.214	16506.97
793.546	16572.5
793.879	16335.45
794.211	16371.83
794.543	16441.43
794.875	16328.67
795.207	16405.5
795.539	16358.5
795.871	16357.37
796.203	16235.56
796.535	16235.34
796.867	16076.47
797.198	16115.11
797.53	16126.19
797.862	15986.08
798.193	16102.68
798.525	15996.02
798.856	16139.75
799.188	15823.82
799.519	15803.03
799.85	15769.13
800.182	15902.92
800.513	15831.28
800.844	15772.98
801.175	15796.93
801.506	15790.6
801.837	15720.1
802.168	15646.88
802.499	15572.98
802.83	15616.82
803.161	15525.98
803.491	15562.81
803.822	15498.41
804.153	15458.63
804.483	15276.49
804.814	15230.39
805.145	15275.36
805.475	15210.96
805.805	15305.19
806.136	15232.42
806.466	15230.62
806.796	15174.57
807.126	15085.54
807.457	15062.49
807.787	15160.79
808.117	15031.07
808.447	15076.27
808.777	14982.94
809.107	14976.16
809.436	14880.8
809.766	14854.36
810.096	14851.19
810.426	14808.71
810.755	14829.05
811.085	14738.88
811.414	14801.7
811.744	14600.8
812.073	14706.79
812.403	14654.59
812.732	14525.55
813.061	14613.91
813.39	14473.12
813.719	14466.57
814.049	14564.87
814.378	14517.41
814.707	14434.25
815.036	14407.36
815.365	14498.66
815.693	14327.36
816.022	14379.79
816.351	14313.8
816.68	14097.31
817.008	14264.09
817.337	14037.2
817.665	14025.45
817.994	14198.33
818.322	14096.41
818.651	14090.08
818.979	14039.24
819.307	14069.52
819.636	14031.78
819.964	13974.83
820.292	13988.39
820.62	13996.98
820.948	14006.47
821.276	13959.01
821.604	13979.58
821.932	13921.05
822.259	13991.1
822.587	13977.54
822.915	13946.36
823.243	14030.65
823.57	13994.94
823.898	13925.34
824.225	13961.95
824.553	13858.45
824.88	14008.5
825.207	14008.28
825.535	14010.31
825.862	14047.37
826.189	14009.86
826.516	13967.15
826.843	14015.73
827.17	14003.3
827.497	14040.82
827.824	14037.88
828.151	14072.68
828.478	14054.6
828.805	14035.85
829.131	13980.48
829.458	13901.39
829.785	13906.13
830.111	14000.37
830.438	14024.09
830.764	13911.1
831.09	14032.68
831.417	13918.56
831.743	14048.27
832.069	14017.54
832.395	13920.14
832.722	13980.93
833.048	13863.87
833.374	13955.4
833.7	13890.76
834.026	13924.89
834.351	13872.69
834.677	13880.6
835.003	13900.03
835.329	13855.06
835.654	13817.09
835.98	13818.45
836.306	13855.74
836.631	13804.21
836.956	13716.08
837.282	13801.95
837.607	13716.76
837.932	13689.41
838.258	13677.44
838.583	13709.98
838.908	13601.96
839.233	13650.77
839.558	13658
839.883	13561.96
840.208	13514.96
840.533	13510.44
840.858	13565.35
841.182	13495.07
841.507	13564.22
841.832	13422.53
842.156	13397.44
842.481	13435.86
842.805	13407.16
843.13	13400.83
843.454	13393.15
843.778	13298.24
844.103	13315.41
844.427	13235.19
844.751	13250.78
845.075	13201.29
845.399	13140.5
845.723	13012.37
846.047	13091.24
846.371	12940.96
846.695	13031.35
847.019	12898.7
847.343	12793.84
847.666	12772.15
847.99	12693.51
848.313	12736.22
848.637	12655.77
848.96	12605.15
849.284	12527.86
849.607	12499.39
849.931	12477.24
850.254	12344.14
850.577	12322.9
850.9	12217.36
851.223	12271.15
851.546	12196.8
851.869	12058.27
852.192	12119.06
852.515	12042.23
852.838	11969.01
853.161	11971.72
853.483	11900.31
853.806	11937.14
854.129	11894.21
854.451	11786.41
854.774	11802.68
855.096	11670.48
855.419	11735.79
855.741	11583.48
856.063	11641.33
856.385	11594.55
856.708	11570.6
857.03	11428.68
857.352	11546.87
857.674	11450.15
857.996	11492.86
858.318	11354.79
858.64	11336.48
858.961	11290.38
859.283	11282.92
859.605	11200.44
859.926	11246.77
860.248	11133.1
860.57	11149.82
860.891	11216.48
861.212	11081.35
861.534	11094.23
861.855	11115.24
862.176	10957.73
862.498	11031.86
862.819	11062.59
863.14	10890.17
863.461	10920
863.782	10911.41
864.103	10937.17
864.424	10872.99
864.745	10873.44
865.065	10835.25
865.386	10776.95
865.707	10833.22
866.027	10832.99
866.348	10792.32
866.668	10821.69
866.989	10643.39
867.309	10627.12
867.63	10631.87
867.95	10711.41
868.27	10611.3
868.59	10646.33
868.91	10597.52
869.23	10583.73
869.55	10560.46
869.87	10624.86
870.19	10590.51
870.51	10558.87
870.83	10535.37
871.15	10492.66
871.469	10484.07
871.789	10498.99
872.109	10492.44
872.428	10449.05
872.748	10497.63
873.067	10425.77
873.386	10401.82
873.706	10395.72
874.025	10325.66
874.344	10334.7
874.663	10367.47
874.982	10312.1
875.301	10358.88
875.62	10274.36
875.939	10234.59
876.258	10246.34
876.577	10199.79
876.896	10224.42
877.214	10168.6
877.533	10238.43
877.852	10246.34
878.17	10168.38
878.489	10219
878.807	10138.55
879.125	10111.43
879.444	10093.35
879.762	10020.36
880.08	10087.02
880.398	10035.5
880.716	10061.26
881.034	9939.68
881.352	9995.27
881.67	9997.99
881.988	9886.58
882.306	9860.59
882.624	9958.89
882.941	9858.78
883.259	9826.01
883.577	9892.45
883.894	9810.42
884.212	9808.84
884.529	9824.88
884.846	9669.41
885.164	9734.94
885.481	9600.03
885.798	9680.25
886.115	9669.18
886.432	9644.77
886.75	9612.01
887.067	9565.68
887.383	9591.89
887.7	9601.61
888.017	9484.78
888.334	9490.65
888.651	9490.2
888.967	9408.62
889.284	9381.73
889.6	9464.67
889.917	9333.6
890.233	9367.95
890.55	9327.49
890.866	9313.48
891.182	9238.46
891.498	9177.22
891.815	9213.6
892.131	9138.35
892.447	9121.17
892.763	9141.74
893.079	9108.97
893.395	9045.47
893.71	9035.07
894.026	9053.6
894.342	8994.85
894.657	8906.26
894.973	8949.2
895.289	8870.56
895.604	8874.85
895.92	8877.11
896.235	8706.49
896.55	8758.24
896.865	8706.49
897.181	8735.19
897.496	8700.39
897.811	8662.43
898.126	8533.62
898.441	8595.99
898.756	8599.83
899.071	8523.67
899.386	8540.62
899.7	8426.28
900.015	8431.7
900.33	8386.73
900.644	8395.99
900.959	8318.03
901.273	8282.1
901.588	8314.19
901.902	8266.28
902.216	8205.72
902.531	8190.12
902.845	8132.72
903.159	8112.61
903.473	8119.84
903.787	8030.13
904.101	8015.21
904.415	8000.07
904.729	8004.82
905.042	7909.68
905.356	7854.99
905.67	7905.39
905.984	7903.8
906.297	7776.12
906.611	7801.21
906.924	7797.82
907.237	7743.13
907.551	7673.3
907.864	7649.57
908.177	7705.62
908.491	7643.47
908.804	7526.64
909.117	7523.25
909.43	7472.4
909.743	7436.7
910.056	7410.26
910.368	7385.17
910.681	7392.63
910.994	7367.09
911.307	7299.53
911.619	7270.6
911.932	7297.94
912.244	7213.65
912.557	7201
912.869	7165.29
913.181	7152.86
913.494	7084.62
913.806	7088.68
914.118	7058.18
914.43	6979.99
914.742	6989.48
915.054	6924.39
915.366	6943.83
915.678	6889.59
915.99	6868.58
916.302	6844.62
916.613	6811.85
916.925	6822.7
917.236	6821.8
917.548	6666.1
917.859	6724.85
918.171	6699.54
918.482	6666.77
918.794	6669.49
919.105	6603.95
919.416	6570.05
919.727	6530.96
920.038	6536.83
920.349	6493.45
920.66	6477.63
920.971	6520.11
921.282	6404.86
921.593	6417.51
921.903	6317.86
922.214	6358.08
922.525	6304.75
922.835	6315.82
923.146	6286.44
923.456	6254.58
923.767	6200.12
924.077	6249.38
924.387	6111.99
924.697	6091.2
925.008	6135.04
925.318	6074.93
925.628	6064.53
925.938	6042.84
926.248	6016.4
926.558	5946.11
926.867	6008.94
927.177	5942.05
927.487	5951.31
927.796	5843.29
928.106	5831.99
928.416	5859.56
928.725	5845.33
929.034	5778.89
929.344	5772.56
929.653	5784.76
929.962	5712.9
930.271	5674.71
930.581	5696.86
930.89	5652.56
931.199	5657.31
931.508	5661.6
931.817	5616.41
932.125	5604.65
932.434	5586.12
932.743	5529.18
933.051	5495.96
933.36	5508.39
933.669	5481.72
933.977	5454.83
934.286	5390.65
934.594	5409.63
934.902	5373.47
935.21	5334.38
935.519	5298
935.827	5275.85
936.135	5300.71
936.443	5248.51
936.751	5212.8
937.059	5199.02
937.367	5208.51
937.674	5180.03
937.982	5153.37
938.29	5155.85
938.597	5154.05
938.905	5059.36
939.213	5024.78
939.52	5041.51
939.827	5069.3
940.135	5035.18
940.442	4972.81
940.749	4949.3
941.056	4978
941.363	4932.36
941.67	4915.86
941.977	4946.82
942.284	4860.27
942.591	4868.4
942.898	4826.6
943.205	4769.65
943.511	4807.16
943.818	4785.24
944.125	4731.23
944.431	4738.01
944.738	4725.13
945.044	4658.92
945.35	4614.17
945.657	4595.42
945.963	4627.96
946.269	4596.32
946.575	4599.48
946.881	4567.39
947.187	4551.58
947.493	4479.49
947.799	4531.01
948.105	4451.01
948.41	4484.23
948.716	4484.68
949.022	4463.22
949.327	4383.44
949.633	4343.67
949.938	4418.47
950.244	4378.25
950.549	4309.55
950.854	4296.21
951.16	4317.46
951.465	4323.78
951.77	4273.62
952.075	4258.7
952.38	4248.76
952.685	4220.51
952.99	4182.09
953.294	4177.8
953.599	4195.43
953.904	4157.91
954.209	4093.96
954.513	4141.42
954.818	4086.28
955.122	4094.41
955.426	4043.34
955.731	4004.24
956.035	4006.5
956.339	4037.24
956.643	3970.8
956.948	3943
957.252	3940.29
957.556	3968.77
957.86	3925.83
958.163	3883.8
958.467	3911.59
958.771	3867.75
959.075	3885.83
959.378	3845.38
959.682	3840.41
959.985	3818.49
960.289	3781.65
960.592	3769
960.896	3751.82
961.199	3718.83
961.502	3725.16
961.805	3708.21
962.108	3694.65
962.411	3674.08
962.714	3631.6
963.017	3622.56
963.32	3591.6
963.623	3635.22
963.926	3620.75
964.228	3594.09
964.531	3554.09
964.833	3554.99
965.136	3508.66
965.438	3549.34
965.741	3537.59
966.043	3486.97
966.345	3468.89
966.648	3425.73
966.95	3460.53
967.252	3438.38
967.554	3381.66
967.856	3415.79
968.158	3383.7
968.46	3376.69
968.761	3381.66
969.063	3340.76
969.365	3341.89
969.666	3291.27
969.968	3289.46
970.269	3303.7
970.571	3285.17
970.872	3265.96
971.174	3220.31
971.475	3244.72
971.776	3210.14
972.077	3200.88
972.378	3177.83
972.679	3158.17
972.98	3162.23
973.281	3156.13
973.582	3130.82
973.883	3120.88
974.183	3072.52
974.484	3108.45
974.785	3052.86
975.085	3056.93
975.386	3097.83
975.686	3049.69
975.986	3023.93
976.287	3016.7
976.587	3024.16
976.887	2957.27
977.187	2986.64
977.487	2987.32
977.787	2964.95
978.087	2930.15
978.387	2940.09
978.687	2875.24
978.987	2903.71
979.286	2864.84
979.586	2902.13
979.885	2846.76
980.185	2829.36
980.484	2890.83
980.784	2824.16
981.083	2761.57
981.382	2776.48
981.682	2800.43
981.981	2767.44
982.28	2757.27
982.579	2759.53
982.878	2756.59
983.177	2726.76
983.475	2731.74
983.774	2669.82
984.073	2693.32
984.372	2670.95
984.67	2659.2
984.969	2655.81
985.267	2628.24
985.566	2639.99
985.864	2603.83
986.162	2592.53
986.461	2555.24
986.759	2591.17
987.057	2540.33
987.355	2517.73
987.653	2542.59
987.951	2551.63
988.249	2500.78
988.547	2523.61
988.844	2507.56
989.142	2461.01
989.44	2498.75
989.737	2457.39
990.035	2433.89
990.332	2463.49
990.63	2425.53
990.927	2393.67
991.224	2421.24
991.521	2394.8
991.819	2375.14
992.116	2391.41
992.413	2375.36
992.71	2363.16
993.006	2335.81
993.303	2332.42
993.6	2328.58
993.897	2315.7
994.193	2346.66
994.49	2284.52
994.787	2269.83
995.083	2294.91
995.379	2235.48
995.676	2250.17
995.972	2246.55
996.268	2236.16
996.565	2195.03
996.861	2195.03
997.157	2208.81
997.453	2171.52
997.749	2146.89
998.044	2152.09
998.34	2148.02
998.636	2148.47
998.932	2152.09
999.227	2101.7
999.523	2143.95
999.818	2094.69
1000.114	2060.57
1000.409	2085.88
1000.704	2024.41
1001	2044.3
1001.295	2001.81
1001.59	2044.75
1001.885	2055.6
1002.18	2010.4
1002.475	1983.06
1002.77	1993.68
1003.065	1983.06
1003.359	1960
1003.654	1906.9
1003.949	1964.07
1004.243	1956.16
1004.538	1891.53
1004.832	1913
1005.127	1923.62
1005.421	1883.17
1005.715	1869.84
1006.009	1861.93
1006.304	1849.73
1006.598	1825.32
1006.892	1862.61
1007.186	1823.74
1007.48	1808.14
1007.773	1786
1008.067	1805.88
1008.361	1785.55
1008.655	1787.81
1008.948	1769.95
1009.242	1744.42
1009.535	1728.37
1009.829	1738.99
1010.122	1723.63
1010.415	1745.77
1010.708	1696.28
1011.001	1686.57
1011.295	1684.76
1011.588	1682.95
1011.881	1667.36
1012.173	1695.83
1012.466	1655.15
1012.759	1623.74
1013.052	1608.15
1013.344	1608.15
1013.637	1619.9
1013.93	1595.27
1014.222	1589.17
1014.514	1564.31
1014.807	1557.3
1015.099	1593.46
1015.391	1561.6
1015.683	1543.29
1015.976	1562.05
1016.268	1535.84
1016.56	1516.17
1016.851	1498.77
1017.143	1528.15
1017.435	1496.74
1017.727	1478.21
1018.018	1479.34
1018.31	1466.23
1018.602	1466.68
1018.893	1440.92
1019.185	1418.78
1019.476	1456.52
1019.767	1448.38
1020.058	1423.3
1020.35	1400.25
1020.641	1390.08
1020.932	1396.86
1021.223	1377.87
1021.514	1345.11
1021.804	1337.65
1022.095	1342.62
1022.386	1333.81
1022.677	1343.07
1022.967	1314.6
1023.258	1319.57
1023.548	1299.23
1023.839	1314.6
1024.129	1299.46
1024.419	1266.24
1024.709	1286.8
1025	1283.64
1025.29	1260.81
1025.58	1253.58
1025.87	1236.63
1026.16	1234.83
1026.449	1237.31
1026.739	1207.26
1027.029	1210.19
1027.319	1210.42
1027.608	1190.53
1027.898	1177.43
1028.187	1179.46
1028.477	1169.97
1028.766	1155.51
1029.055	1145.11
1029.344	1164.09
1029.634	1121.38
1029.923	1146.92
1030.212	1135.62
1030.501	1129.07
1030.79	1113.93
1031.078	1103.3
1031.367	1099.91
1031.656	1090.42
1031.945	1071.21
1032.233	1105.34
1032.522	1054.94
1032.81	1067.37
1033.099	1082.74
1033.387	1054.04
1033.675	1021.95
1033.963	1048.39
1034.251	1016.07
1034.54	1031.44
1034.828	1029.63
1035.116	1024.66
1035.403	1006.36
1035.691	993.7
1035.979	1000.71
1036.267	995.51
1036.554	951.67
1036.842	963.87
1037.129	970.2
1037.417	942.4
1037.704	978.11
1037.992	939.47
1038.279	952.57
1038.566	952.12
1038.853	952.12
1039.14	952.12
