Data from hue_280_FLMS001491_00040.txt Node
Date: Tue Feb 07 15:55:12 GMT 2017
User: dcchb
Spectrometer: FLMS00149
Trigger mode: 0
Integration Time (sec): 2.000000E-2
Scans to average: 10
Electric dark correction enabled: true
Nonlinearity correction enabled: false
Boxcar width: 0
XAxis mode: Wavelengths
Number of Pixels in Spectrum: 2048
>>>>>Begin Spectral Data<<<<<
341.393	-5.34
341.776	-5.34
342.16	-5.34
342.543	-57.77
342.927	-69.74
343.31	-53.7
343.693	-69.74
344.077	-56.86
344.46	-40.59
344.843	-47.82
345.226	-47.6
345.61	-37.43
345.993	-25.45
346.376	2.12
346.759	0.76
347.142	26.75
347.525	40.31
347.908	45.28
348.291	60.2
348.674	94.32
349.057	109.46
349.44	108.78
349.823	148.33
350.206	151.49
350.588	187.65
350.971	208.21
351.354	224.71
351.737	256.8
352.119	243.24
352.502	247.76
352.884	256.12
353.267	272.62
353.65	278.5
354.032	299.51
354.414	298.38
354.797	289.12
355.179	306.07
355.562	316.46
355.944	318.72
356.326	325.05
356.709	332.05
357.091	329.12
357.473	339.74
357.855	331.83
358.238	342.22
358.62	321.66
359.002	319.17
359.384	334.99
359.766	330.7
360.148	322.11
360.53	315.56
360.912	311.71
361.294	325.05
361.676	318.04
362.057	309.91
362.439	325.27
362.821	294.09
363.203	335.9
363.584	313.75
363.966	304.94
364.348	320.53
364.729	299.96
365.111	310.59
365.493	316.23
365.874	328.66
366.256	328.21
366.637	316.23
367.019	295.9
367.4	303.58
367.781	303.58
368.163	294.09
368.544	300.19
368.925	308.55
369.306	326.18
369.688	296.57
370.069	303.35
370.45	319.4
370.831	335.44
371.212	309.46
371.593	306.07
371.974	294.31
372.355	312.62
372.736	303.58
373.117	314.65
373.498	326.86
373.879	319.17
374.26	299.29
374.641	313.07
375.021	303.13
375.402	281.66
375.783	306.07
376.163	329.79
376.544	318.95
376.925	342.67
377.305	300.87
377.686	321.21
378.066	296.8
378.447	320.53
378.827	343.35
379.208	332.51
379.588	319.17
379.968	342.22
380.349	323.92
380.729	344.26
381.109	316.46
381.489	338.83
381.87	315.1
382.25	327.31
382.63	325.73
383.01	329.12
383.39	328.66
383.77	350.58
384.15	348.1
384.53	348.32
384.91	354.88
385.29	353.3
385.67	353.75
386.049	344.26
386.429	337.7
386.809	345.84
387.189	384.48
387.568	353.3
387.948	335.67
388.328	324.6
388.707	357.36
389.087	353.97
389.466	370.92
389.846	356.01
390.225	364.37
390.605	339.28
390.984	360.08
391.363	338.83
391.743	366.4
392.122	372.73
392.501	358.72
392.881	382
393.26	365.27
393.639	371.6
394.018	365.95
394.397	386.52
394.776	391.03
395.155	376.12
395.534	377.25
395.913	386.52
396.292	382
396.671	376.12
397.05	382.22
397.429	403.69
397.808	395.55
398.186	398.94
398.565	398.49
398.944	409.79
399.323	418.83
399.701	406.85
400.08	431.94
400.458	405.72
400.837	421.99
401.215	423.58
401.594	411.37
401.972	413.18
402.351	392.39
402.729	412.5
403.107	440.98
403.486	425.84
403.864	419.51
404.242	429.68
404.62	423.35
404.999	447.08
405.377	437.59
405.755	471.71
406.133	454.54
406.511	458.15
406.889	477.36
407.267	463.35
407.645	481.65
408.023	470.13
408.401	481.65
408.779	466.29
409.156	485.95
409.534	511.26
409.912	502.67
410.29	517.59
410.667	522.33
411.045	529.79
411.422	529.34
411.8	525.49
412.178	513.97
412.555	552.16
412.933	543.35
413.31	562.56
413.687	588.09
414.065	563.01
414.442	549.22
414.819	584.48
415.197	602.1
415.574	609.79
415.951	618.6
416.328	612.27
416.705	626.96
417.082	625.38
417.46	642.1
417.837	641.42
418.214	632.84
418.591	671.48
418.967	664.02
419.344	655.21
419.721	664.7
420.098	657.02
420.475	708.09
420.852	700.63
421.228	689.33
421.605	739.5
421.982	720.97
422.358	732.27
422.735	720.07
423.111	726.62
423.488	764.81
423.864	762.78
424.241	778.82
424.617	777.01
424.994	772.27
425.37	807.07
425.746	807.07
426.123	819.27
426.499	791.48
426.875	840.51
427.251	854.53
427.627	866.5
428.003	884.81
428.379	872.83
428.756	901.53
429.132	912.15
429.507	904.47
429.883	911.25
430.259	931.81
430.635	944.92
431.011	963.45
431.387	964.13
431.763	990.12
432.138	1021.98
432.514	1000.74
432.89	1000.96
433.265	1018.59
433.641	1028.76
434.016	1045.03
434.392	1043
434.767	1074.41
435.143	1072.37
435.518	1095.42
435.894	1113.5
436.269	1137.91
436.644	1178.81
437.02	1155.76
437.395	1185.59
437.77	1198.92
438.145	1160.73
438.52	1219.04
438.895	1235.76
439.271	1239.83
439.646	1286.38
440.021	1277.57
440.395	1271.46
440.77	1256.77
441.145	1299.26
441.52	1327.06
441.895	1306.94
442.27	1316.66
442.645	1350.33
443.019	1352.14
443.394	1332.48
443.769	1347.62
444.143	1360.05
444.518	1389.2
444.892	1350.11
445.267	1407.05
445.641	1408.86
446.016	1443.21
446.39	1405.47
446.764	1430.33
447.139	1442.76
447.513	1452.02
447.887	1445.7
448.262	1465.81
448.636	1447.96
449.01	1486.6
449.384	1473.27
449.758	1464.23
450.132	1496.77
450.506	1527.28
450.88	1526.37
451.254	1514.4
451.628	1530.21
452.002	1568.18
452.376	1549.87
452.75	1564.79
453.123	1558.01
453.497	1613.83
453.871	1605.92
454.244	1645.92
454.618	1652.47
454.992	1661.06
455.365	1648.63
455.739	1702.86
456.112	1692.02
456.486	1717.33
456.859	1710.1
457.232	1755.52
457.606	1738.8
457.979	1756.65
458.352	1751.45
458.725	1802.07
459.099	1824.67
459.472	1852.01
459.845	1864.89
460.218	1880.71
460.591	1893.82
460.964	1888.4
461.337	1928.17
461.71	1950.32
462.083	1946.47
462.456	1949.86
462.829	1953.03
463.201	1974.5
463.574	1967.72
463.947	2010.43
464.32	2067.83
464.692	2069.41
465.065	2056.75
465.438	2064.21
465.81	2066.47
466.183	2138.56
466.555	2181.04
466.928	2182.85
467.3	2205.68
467.672	2197.99
468.045	2240.25
468.417	2252
468.789	2228.73
469.161	2238.44
469.534	2287.26
469.906	2353.24
470.278	2351.21
470.65	2387.14
471.022	2426.46
471.394	2439.12
471.766	2448.38
472.138	2479.79
472.51	2515.72
472.882	2563.41
473.253	2562.28
473.625	2581.94
473.997	2627.36
474.369	2651.09
474.74	2693.35
475.112	2715.04
475.484	2734.93
475.855	2779.22
476.227	2794.81
476.598	2821.25
476.97	2865.77
477.341	2915.49
477.713	2964.75
478.084	2920.69
478.455	3018.31
478.827	3084.52
479.198	3111.64
479.569	3165.65
479.94	3173.33
480.311	3179.44
480.682	3257.4
481.053	3286.33
481.424	3308.92
481.795	3371.3
482.166	3386.66
482.537	3446.77
482.908	3471.18
483.279	3477.73
483.65	3557.05
484.021	3588.01
484.391	3627.11
484.762	3639.54
485.133	3736.48
485.503	3743.94
485.874	3780.32
486.244	3815.58
486.615	3846.76
486.985	3887.21
487.356	3947.55
487.726	3940.55
488.097	4045.63
488.467	4030.04
488.837	4104.61
489.207	4182.35
489.578	4205.17
489.948	4213.99
490.318	4297.6
490.688	4299.41
491.058	4295.34
491.428	4383.25
491.798	4391.16
492.168	4468.22
492.538	4482.23
492.908	4507.54
493.278	4552.28
493.648	4554.99
494.017	4634.54
494.387	4615.78
494.757	4667.08
495.126	4675.67
495.496	4743.69
495.866	4713.63
496.235	4792.73
496.605	4827.08
496.974	4820.07
497.344	4891.26
497.713	4878.6
498.082	4870.69
498.452	4920.86
498.821	4923.35
499.19	4918.6
499.559	4968.99
499.928	5018.03
500.298	5016.9
500.667	5088.99
501.036	5061.65
501.405	5114.3
501.774	5083.11
502.143	5150.91
502.512	5134.86
502.88	5204.24
503.249	5219.61
503.618	5227.74
503.987	5197.91
504.356	5193.85
504.724	5235.2
505.093	5274.52
505.462	5264.81
505.83	5314.07
506.199	5332.15
506.567	5373.05
506.936	5424.35
507.304	5452.82
507.672	5431.35
508.041	5462.09
508.409	5504.12
508.777	5515.87
509.145	5536.21
509.514	5519.04
509.882	5539.6
510.25	5565.59
510.618	5580.5
510.986	5588.41
511.354	5584.8
511.722	5651.46
512.09	5650.78
512.458	5681.07
512.826	5736.43
513.193	5716.54
513.561	5729.43
513.929	5719.26
514.297	5835.86
514.664	5819.14
515.032	5801.29
515.4	5825.24
515.767	5836.99
516.135	5829.99
516.502	5811.91
516.869	5891.68
517.237	5883.55
517.604	5844.22
517.972	5956.09
518.339	5939.14
518.706	5964.45
519.073	6004.22
519.44	5966.48
519.808	5982.07
520.175	6105.46
520.542	6058
520.909	6067.04
521.276	6035.18
521.643	6088.74
522.009	6214.38
522.376	6158.34
522.743	6208.28
523.11	6212.8
523.477	6267.49
523.843	6265.68
524.21	6276.53
524.577	6321.73
524.943	6354.04
525.31	6348.84
525.676	6432.01
526.043	6433.81
526.409	6458.45
526.776	6543.42
527.142	6493.47
527.508	6502.96
527.874	6589.97
528.241	6528.95
528.607	6619.57
528.973	6618.89
529.339	6642.62
529.705	6681.72
530.071	6708.83
530.437	6736.63
530.803	6766.46
531.169	6775.5
531.535	6759.68
531.901	6785.67
532.267	6792.45
532.632	6809.62
532.998	6816.18
533.364	6890.98
533.73	6968.72
534.095	6913.8
534.461	6944.53
534.826	6959.9
535.192	6999
535.557	6999.22
535.923	6991.31
536.288	7022.27
536.653	7048.71
537.019	7040.58
537.384	7045.32
537.749	7083.29
538.114	7116.06
538.479	7087.58
538.845	7157.86
539.21	7150.63
539.575	7168.48
539.94	7113.12
540.305	7185.88
540.67	7152.89
541.034	7154.25
541.399	7213.68
541.764	7221.82
542.129	7269.27
542.494	7221.14
542.858	7242.38
543.223	7285.77
543.587	7344.3
543.952	7340.91
544.316	7335.94
544.681	7299.33
545.045	7373.68
545.41	7387.24
545.774	7397.4
546.138	7369.16
546.503	7458.42
546.867	7461.36
547.231	7506.78
547.595	7510.17
547.959	7468.59
548.324	7483.05
548.688	7482.37
549.052	7513.33
549.416	7490.51
549.779	7501.36
550.143	7598.53
550.507	7576.38
550.871	7566.89
551.235	7615.25
551.599	7629.71
551.962	7620.45
552.326	7605.53
552.689	7670.84
553.053	7678.98
553.417	7669.94
553.78	7775.47
554.143	7699.09
554.507	7721.01
554.87	7789.71
555.234	7834.46
555.597	7770.73
555.96	7881.23
556.323	7794.68
556.686	7824.51
557.05	7832.42
557.413	7925.75
557.776	7855.02
558.139	7899.54
558.502	7906.54
558.865	7983.38
559.228	7980.67
559.59	7973.43
559.953	8000.33
560.316	8059.08
560.679	8091.85
561.041	8132.3
561.404	8107.89
561.767	8147.22
562.129	8200.55
562.492	8223.82
562.854	8196.48
563.217	8204.16
563.579	8270.38
563.941	8321.22
564.304	8323.26
564.666	8346.31
565.028	8390.15
565.39	8423.14
565.753	8371.39
566.115	8392.63
566.477	8397.15
566.839	8503.59
567.201	8579.29
567.563	8556.92
567.925	8593.76
568.287	8627.65
568.648	8605.28
569.01	8669.46
569.372	8700.19
569.734	8663.36
570.095	8797.82
570.457	8823.36
570.819	8791.04
571.18	8814.99
571.542	8886.86
571.903	8922.56
572.265	8972.05
572.626	8938.38
572.987	8948.1
573.349	8992.16
573.71	9064.25
574.071	9099.96
574.432	9137.92
574.794	9155.55
575.155	9161.2
575.516	9167.75
575.877	9192.61
576.238	9257.47
576.599	9277.35
576.96	9373.4
577.32	9314.64
577.681	9407.75
578.042	9467.18
578.403	9498.14
578.763	9523
579.124	9569.32
579.485	9669.89
579.845	9670.56
580.206	9695.2
580.566	9784.46
580.927	9750.79
581.287	9911.24
581.648	9833.95
582.008	9905.59
582.368	9976.77
582.728	9982.87
583.089	10089.31
583.449	10135.19
583.809	10137.45
584.169	10182.19
584.529	10229.42
584.889	10316.88
585.249	10362.75
585.609	10368.63
585.969	10463.54
586.329	10495.4
586.688	10645
587.048	10606.13
587.408	10668.96
587.768	10788.05
588.127	10767.26
588.487	10853.58
588.846	11011.32
589.206	10962.28
589.565	11054.26
589.925	11182.16
590.284	11189.62
590.643	11259
591.003	11362.5
591.362	11433
591.721	11455.38
592.08	11558.2
592.44	11627.8
592.799	11737.86
593.158	11743.96
593.517	11717.06
593.876	11841.13
594.235	11925.19
594.593	11915.25
594.952	12018.75
595.311	12079.09
595.67	12116.38
596.029	12294.45
596.387	12299.42
596.746	12369.7
597.104	12398.85
597.463	12416.71
597.822	12517.95
598.18	12532.86
598.538	12599.75
598.897	12752.97
599.255	12683.59
599.613	12877.94
599.972	12908.9
600.33	13011.95
600.688	12867.77
601.046	12977.14
601.404	13026.18
601.762	13079.97
602.12	13144.82
602.478	13287.87
602.836	13258.72
603.194	13200.64
603.552	13259.62
603.91	13353.63
604.268	13387.3
604.625	13410.81
604.983	13550.24
605.341	13380.07
605.698	13576.9
606.056	13635.43
606.413	13608.09
606.771	13719.72
607.128	13747.07
607.485	13746.16
607.843	13863.9
608.2	13866.84
608.557	13930.57
608.914	13869.32
609.272	13907.52
609.629	13968.98
609.986	14077.23
610.343	14115.19
610.7	14210.33
611.057	14128.53
611.414	14171.01
611.771	14134.63
612.127	14310.89
612.484	14322.42
612.841	14362.42
613.198	14335.3
613.554	14369.88
613.911	14422.3
614.267	14482.42
614.624	14451.46
614.98	14562.64
615.337	14666.37
615.693	14560.38
616.05	14632.69
616.406	14671.56
616.762	14559.93
617.118	14620.04
617.475	14671.56
617.831	14644.45
618.187	14736.87
618.543	14775.06
618.899	14848.96
619.255	14801.5
619.611	14743.2
619.967	14922.63
620.323	14821.16
620.678	14812.58
621.034	14849.64
621.39	14847.38
621.746	14919.01
622.101	15014.83
622.457	14919.47
622.812	14952.01
623.168	15025
623.523	14962.63
623.879	14978.45
624.234	14844.89
624.589	14957.66
624.945	14985.68
625.3	14995.17
625.655	14931.44
626.01	15074.49
626.365	15074.26
626.72	15062.29
627.075	15053.02
627.43	15024.32
627.785	15017.32
628.14	15064.1
628.495	15136.86
628.85	15099.8
629.205	15008.73
629.559	15117.43
629.914	14966.02
630.269	15101.61
630.623	14959.47
630.978	14993.14
631.332	15087.6
631.687	15090.76
632.041	15017.54
632.396	15044.89
632.75	14943.65
633.104	14984.55
633.459	14854.16
633.813	14864.78
634.167	14911.11
634.521	14856.64
634.875	14904.55
635.229	14956.53
635.583	14758.11
635.937	14780.71
636.291	14897.55
636.645	14797.44
636.999	14746.82
637.352	14770.54
637.706	14669.3
638.06	14782.97
638.413	14714.27
638.767	14747.49
639.121	14747.04
639.474	14618.01
639.828	14687.38
640.181	14702.07
640.534	14673.15
640.888	14597.89
641.241	14585.24
641.594	14655.52
641.947	14567.84
642.301	14621.62
642.654	14719.02
643.007	14603.09
643.36	14606.93
643.713	14559.02
644.066	14674.05
644.419	14531.91
644.771	14418.01
645.124	14326.71
645.477	14329.65
645.83	14296.43
646.182	14155.64
646.535	14160.84
646.888	14243.33
647.24	14115.65
647.593	14224.12
647.945	14201.75
648.298	14089.88
648.65	14114.74
649.002	13995.2
649.355	14130.11
649.707	14057.12
650.059	14185.93
650.411	14283.1
650.763	14393.15
651.115	14469.31
651.467	14527.84
651.819	14500.72
652.171	14467.73
652.523	14469.53
652.875	14472.47
653.227	14378.01
653.578	14529.19
653.93	14412.81
654.282	14432.7
654.633	14352.25
654.985	14365.36
655.337	14437.45
655.688	14422.53
656.039	14507.5
656.391	14406.71
656.742	14423.43
657.094	14438.8
657.445	14506.37
657.796	14486.71
658.147	14412.36
658.498	14465.69
658.849	14471.34
659.2	14476.54
659.551	14411.68
659.902	14469.31
660.253	14470.44
660.604	14462.08
660.955	14426.82
661.306	14549.53
661.656	14513.38
662.007	14566.71
662.358	14553.37
662.708	14483.55
663.059	14470.21
663.409	14452.13
663.76	14544.34
664.11	14540.04
664.461	14494.39
664.811	14570.78
665.161	14582.3
665.511	14487.16
665.862	14549.31
666.212	14634.5
666.562	14576.65
666.912	14593.37
667.262	14553.37
667.612	14496.88
667.962	14544.79
668.312	14643.77
668.662	14592.02
669.011	14549.08
669.361	14611.68
669.711	14547.5
670.06	14512.7
670.41	14448.74
670.76	14449.42
671.109	14550.44
671.459	14480.16
671.808	14450.33
672.157	14478.8
672.507	14386.6
672.856	14388.41
673.205	14406.71
673.554	14415.52
673.904	14307.96
674.253	14519.25
674.602	14347.73
674.951	14232.93
675.3	14236.55
675.649	14399.25
675.998	14365.58
676.346	14321.52
676.695	14338.69
677.044	14220.5
677.393	14340.95
677.741	14316.54
678.09	14203.1
678.438	14153.61
678.787	14217.11
679.135	14323.78
679.484	14167.62
679.832	14224.8
680.181	14073.16
680.529	14094.86
680.877	14114.06
681.225	14141.86
681.573	14182.54
681.922	14075.42
682.27	13976.44
682.618	14050.11
682.966	13931.02
683.314	13986.38
683.661	14065.7
684.009	13908.65
684.357	13856.22
684.705	13863.9
685.053	13778.93
685.4	13750.91
685.748	13812.6
686.095	13649.44
686.443	13715.2
686.79	13650.57
687.138	13664.13
687.485	13688.09
687.832	13597.47
688.18	13611.25
688.527	13513.63
688.874	13552.5
689.221	13503.23
689.568	13474.08
689.915	13361.77
690.262	13404.7
690.609	13355.67
690.956	13234.31
691.303	13222.79
691.65	13158.16
691.997	13134.88
692.344	13169
692.69	12989.8
693.037	13132.62
693.383	12971.04
693.73	13023.02
694.077	12871.84
694.423	12886.53
694.769	12806.08
695.116	12768.79
695.462	12723.37
695.808	12813.08
696.155	12715
696.501	12691.73
696.847	12588
697.193	12572.86
697.539	12527.89
697.885	12471.4
698.231	12446.99
698.577	12390.04
698.923	12388.46
699.269	12253.1
699.614	12269.37
699.96	12207
700.306	12218.52
700.651	12130.61
700.997	12060.11
701.342	12012.42
701.688	12008.13
702.033	12047.9
702.379	11925.42
702.724	11849.04
703.069	11949.38
703.415	11755.26
703.76	11807.01
704.105	11785.76
704.45	11825.08
704.795	11647.69
705.14	11577.18
705.485	11603.62
705.83	11496.28
706.175	11495.6
706.52	11494.47
706.865	11411.99
707.209	11440.91
707.554	11343.52
707.899	11441.14
708.243	11348.26
708.588	11325.66
708.932	11256.96
709.277	11143.52
709.621	11253.8
709.966	11118.89
710.31	11098.78
710.654	11095.16
710.998	11149.17
711.342	11138.55
711.687	11044.09
712.031	10914.6
712.375	10938.55
712.719	10962.06
713.063	10934.71
713.407	10943.75
713.75	10827.82
714.094	10901.94
714.438	10793.02
714.782	10772.46
715.125	10745.79
715.469	10792.12
715.812	10723.19
716.156	10703.08
716.499	10676.87
716.843	10616.53
717.186	10553.25
717.53	10629.86
717.873	10646.81
718.216	10696.53
718.559	10568.17
718.902	10487.72
719.246	10506.7
719.589	10562.29
719.932	10526.81
720.275	10496.53
720.617	10503.31
720.96	10524.1
721.303	10485.91
721.646	10584.67
721.989	10416.08
722.331	10433.71
722.674	10413.82
723.016	10448.4
723.359	10432.13
723.701	10377.66
724.044	10271.23
724.386	10271.23
724.729	10379.92
725.071	10393.26
725.413	10292.02
725.755	10357.1
726.097	10314.84
726.439	10219.25
726.782	10208.86
727.124	10336.31
727.465	10272.36
727.807	10281.85
728.149	10223.09
728.491	10240.49
728.833	10220.83
729.175	10155.98
729.516	10155.07
729.858	10179.25
730.199	10252.7
730.541	10239.36
730.882	10211.79
731.224	10155.98
731.565	10153.72
731.906	10203.43
732.248	10201.62
732.589	10110.78
732.93	10174.51
733.271	10113.72
733.612	10182.42
733.953	10168.63
734.294	10164.56
734.635	10163.89
734.976	10191.91
735.317	10078.46
735.658	10096.99
735.999	10172.02
736.339	10140.61
736.68	10212.25
737.021	10162.3
737.361	10177.67
737.702	10207.95
738.042	10193.26
738.383	10220.61
738.723	10246.82
739.063	10177.9
739.404	10230.32
739.744	10282.07
740.084	10203.88
740.424	10265.35
740.764	10242.53
741.104	10306.25
741.444	10161.85
741.784	10272.81
742.124	10282.53
742.464	10242.53
742.804	10269.65
743.143	10248.63
743.483	10375.63
743.823	10281.85
744.162	10305.58
744.502	10459.92
744.841	10414.5
745.181	10470.77
745.52	10429.19
745.86	10595.29
746.199	10606.13
746.538	10626.92
746.877	10683.19
747.216	10748.05
747.556	10731.55
747.895	10754.6
748.234	10823.3
748.573	10908.27
748.911	10858.33
749.25	11045.44
749.589	11010.42
749.928	11150.53
750.267	11237.53
750.605	11294.93
750.944	11322.72
751.283	11306.23
751.621	11471.2
751.96	11551.87
752.298	11614.69
752.636	11709.16
752.975	11813.79
753.313	11888.81
753.651	12015.14
753.989	12175.13
754.327	12220.78
754.666	12211.52
755.004	12403.37
755.342	12604.27
755.679	12677.27
756.017	12705.97
756.355	12921.78
756.693	12941.67
757.031	13128.55
757.368	13181.21
757.706	13319.73
758.044	13544.14
758.381	13553.85
758.719	13726.96
759.056	13870.68
759.394	13976.89
759.731	14098.7
760.068	14308.86
760.405	14313.83
760.743	14500.04
761.08	14676.54
761.417	14812.35
761.754	14981.39
762.091	15088.5
762.428	15148.39
762.765	15313.13
763.102	15574.82
763.438	15575.27
763.775	15664.76
764.112	15927.58
764.449	15987.69
764.785	16083.5
765.122	16180
765.458	16337.28
765.795	16504.96
766.131	16547.67
766.467	16737.72
766.804	16731.62
767.14	16895.91
767.476	17043.7
767.812	17076.7
768.148	17302.91
768.485	17341.55
768.821	17353.07
769.157	17509.45
769.492	17567.08
769.828	17675.55
770.164	17627.87
770.5	17632.39
770.836	17821.09
771.171	17871.03
771.507	17994.19
771.842	17983.34
772.178	18077.8
772.513	18050.23
772.849	18203.45
773.184	18165.03
773.519	18248.19
773.855	18191.47
774.19	18235.99
774.525	18328.64
774.86	18402.99
775.195	18435.31
775.53	18464.68
775.865	18388.53
776.2	18286.16
776.535	18365.03
776.87	18399.37
777.205	18292.03
777.539	18391.24
777.874	18490.45
778.209	18338.81
778.543	18400.73
778.878	18363.44
779.212	18427.85
779.547	18416.78
779.881	18562.08
780.215	18456.77
780.55	18407.96
780.884	18437.34
781.218	18486.38
781.552	18478.47
781.886	18294.07
782.22	18319.83
782.554	18315.31
782.888	18148.53
783.222	18202.32
783.556	18207.29
783.889	18180.4
784.223	18064.02
784.557	18096.56
784.89	18194.18
785.224	18047.52
785.557	18049.33
785.891	18085.71
786.224	17956.45
786.558	18002.55
786.891	17822.89
787.224	17832.38
787.557	17838.49
787.891	17872.16
788.224	17910.35
788.557	17838.26
788.89	17796.45
789.223	17781.99
789.556	17837.36
789.888	17647.3
790.221	17636.46
790.554	17513.52
790.887	17488.66
791.219	17480.3
791.552	17457.93
791.884	17390.59
792.217	17394.88
792.549	17431.04
792.882	17215
793.214	17173.64
793.546	17237.15
793.879	17103.36
794.211	16983.14
794.543	17171.61
794.875	17016.36
795.207	17165.96
795.539	16959.19
795.871	16984.95
796.203	16845.74
796.535	16826.08
796.867	16811.17
797.198	16689.59
797.53	16711.74
797.862	16564.62
798.193	16523.72
798.525	16557.84
798.856	16706.76
799.188	16453.66
799.519	16401.69
799.85	16306.1
800.182	16405.08
800.513	16290.28
800.844	16174.8
801.175	16286.44
801.506	16194.91
801.837	16143.16
802.168	16114.46
802.499	16078.76
802.83	16014.35
803.161	15980.23
803.491	16019.1
803.822	15950.85
804.153	15909.27
804.483	15775.49
804.814	15741.37
805.145	15754.25
805.475	15741.82
805.805	15706.34
806.136	15743.4
806.466	15650.97
806.796	15524.65
807.126	15511.54
807.457	15409.4
807.787	15408.95
808.117	15298.67
808.447	15351.09
808.777	15409.62
809.107	15368.95
809.436	15257.54
809.766	15313.81
810.096	15174.6
810.426	15163.3
810.755	15125.79
811.085	15075.39
811.414	15065.23
811.744	15036.75
812.073	14938.45
812.403	15025.9
812.732	14923.99
813.061	14934.83
813.39	14831.56
813.719	14761.96
814.049	14765.12
814.378	14850.54
814.707	14699.81
815.036	14761.5
815.365	14642.19
815.693	14479.93
816.022	14542.08
816.351	14598.12
816.68	14442.87
817.008	14600.6
817.337	14476.31
817.665	14375.75
817.994	14417.56
818.322	14424.11
818.651	14271.12
818.979	14278.81
819.307	14341.18
819.636	14284.68
819.964	14233.38
820.292	14256.21
820.62	14211.01
820.948	14280.84
821.276	14210.78
821.604	14126.04
821.932	14142.09
822.259	14226.38
822.587	14209.2
822.915	14109.09
823.243	14175.53
823.57	14118.58
823.898	14126.49
824.225	14127.17
824.553	14147.06
824.88	14102.31
825.207	14203.78
825.535	14142.09
825.862	14166.94
826.189	14113.39
826.516	14192.71
826.843	14150
827.17	14208.98
827.497	14177.11
827.824	14238.58
828.151	14239.48
828.478	14248.75
828.805	14200.16
829.131	14199.26
829.458	14194.06
829.785	14159.03
830.111	14164.01
830.438	14212.14
830.764	14140.73
831.09	14206.72
831.417	13990.45
831.743	14197.45
832.069	14131.69
832.395	14063.9
832.722	14177.57
833.048	14101.18
833.374	14027.06
833.7	14036.1
834.026	13978.47
834.351	14038.59
834.677	14048.53
835.003	13996.78
835.329	14004.69
835.654	13905.71
835.98	13892.37
836.306	13809.21
836.631	13837.24
836.956	13894.63
837.282	13947.06
837.607	13858.48
837.932	13836.56
838.258	13776.45
838.583	13768.76
838.908	13653.51
839.233	13804.24
839.558	13710.91
839.883	13709.78
840.208	13532.38
840.533	13568.99
840.858	13641.08
841.182	13676.11
841.507	13631.36
841.832	13542.78
842.156	13511.14
842.481	13521.76
842.805	13499.62
843.13	13388.43
843.454	13397.25
843.778	13356.57
844.103	13363.12
844.427	13276.35
844.751	13330.13
845.075	13218.72
845.399	13239.51
845.723	13171.26
846.047	13173.3
846.371	12962.46
846.695	13017.82
847.019	12971.5
847.343	12896.92
847.666	12837.04
847.99	12791.84
848.313	12771.95
848.637	12661.67
848.96	12663.71
849.284	12590.71
849.607	12593.2
849.931	12525.41
850.254	12408.8
850.577	12392.98
850.9	12347.78
851.223	12286.54
851.546	12200.44
851.869	12197.73
852.192	12179.65
852.515	12123.16
852.838	12090.16
853.161	12137.62
853.483	11996.83
853.806	11940.56
854.129	11947.34
854.451	11900.56
854.774	11832.32
855.096	11776.95
855.419	11734.92
855.741	11727.91
856.063	11671.19
856.385	11665.54
856.708	11616.95
857.03	11610.85
857.352	11614.69
857.674	11449.5
857.996	11529.95
858.318	11399.11
858.64	11488.82
858.961	11393.01
859.283	11384.19
859.605	11342.39
859.926	11314.82
860.248	11345.1
860.57	11194.82
860.891	11255.16
861.212	11199.11
861.534	11172.45
861.855	11108.49
862.176	11058.1
862.498	11170.41
862.819	11040.47
863.14	11019.68
863.461	11006.8
863.782	11033.01
864.103	11016.74
864.424	10977.88
864.745	11000.93
865.065	10880.02
865.386	10929.29
865.707	10848.39
866.027	10835.73
866.348	10820.37
866.668	10850.19
866.989	10779.69
867.309	10703.98
867.63	10759.58
867.95	10757.09
868.27	10639.13
868.59	10680.48
868.91	10650.65
869.23	10630.09
869.55	10560.71
869.87	10633.03
870.19	10655.85
870.51	10628.28
870.83	10674.15
871.15	10487.94
871.469	10560.03
871.789	10563.65
872.109	10507.83
872.428	10476.65
872.748	10470.77
873.067	10503.09
873.386	10526.14
873.706	10461.96
874.025	10404.56
874.344	10335.18
874.663	10454.5
874.982	10361.17
875.301	10289.08
875.62	10327.72
875.939	10346.93
876.258	10253.15
876.577	10273.49
876.896	10279.36
877.214	10224.67
877.533	10235.3
877.852	10319.14
878.17	10272.36
878.489	10231.45
878.807	10176.99
879.125	10190.78
879.444	10138.58
879.762	10121.85
880.08	10118.24
880.398	10062.65
880.716	10069.42
881.034	10059.71
881.352	10059.93
881.67	10028.3
881.988	9997.79
882.306	9972.03
882.624	9907.62
882.941	9857
883.259	9877.79
883.577	9826.49
883.894	9758.47
884.212	9839.6
884.529	9814.52
884.846	9729.77
885.164	9741.75
885.481	9673.05
885.798	9687.06
886.115	9648.19
886.432	9626.5
886.75	9594.18
887.067	9635.54
887.383	9624.92
887.7	9594.63
888.017	9468.31
888.334	9507.86
888.651	9452.27
888.967	9472.15
889.284	9432.15
889.6	9379.05
889.917	9328.65
890.233	9340.4
890.55	9322.78
890.866	9319.39
891.182	9230.58
891.498	9207.07
891.815	9234.64
892.131	9190.35
892.447	9194.65
892.763	9106.29
893.079	9117.36
893.395	9041.88
893.71	9151.93
894.026	8976.35
894.342	9056.57
894.657	8923.01
894.973	8894.54
895.289	9011.6
895.604	8937.48
895.92	8825.16
896.235	8775
896.55	8814.99
896.865	8753.3
897.181	8736.8
897.496	8718.95
897.811	8670.14
898.126	8621.1
898.441	8654.55
898.756	8554.89
899.071	8518.96
899.386	8527.32
899.7	8472.86
900.015	8459.07
900.33	8407.77
900.644	8340.43
900.959	8321
901.273	8349.24
901.588	8265.63
901.902	8253.2
902.216	8235.8
902.531	8181.79
902.845	8209.59
903.159	8148.57
903.473	8117.61
903.787	8082.36
904.101	8012.98
904.415	7972.3
904.729	8076.03
905.042	7976.6
905.356	7931.63
905.67	7931.4
905.984	7905.19
906.297	7917.62
906.611	7838.52
906.924	7730.05
907.237	7714.23
907.551	7769.15
907.864	7698.41
908.177	7716.04
908.491	7670.84
908.804	7582.03
909.117	7622.26
909.43	7566.89
909.743	7485.09
910.056	7511.07
910.368	7474.46
910.681	7441.7
910.994	7381.81
911.307	7382.04
911.619	7325.77
911.932	7317.86
912.244	7257.52
912.557	7234.02
912.869	7194.25
913.181	7224.08
913.494	7116.28
913.806	7077.86
914.118	7095.27
914.43	7028.15
914.742	7049.62
915.054	6953.35
915.366	6975.27
915.678	6998.77
915.99	6898.89
916.302	6848.04
916.613	6784.09
916.925	6834.03
917.236	6792.67
917.548	6748.61
917.859	6715.16
918.171	6735.27
918.482	6685.11
918.794	6600.14
919.105	6638.1
919.416	6541.16
919.727	6550.42
920.038	6540.25
920.349	6479.91
920.66	6460.93
920.971	6477.88
921.282	6488.28
921.593	6361.95
921.903	6388.84
922.214	6335.96
922.525	6398.56
922.835	6288.73
923.146	6280.15
923.456	6262.29
923.767	6221.84
924.077	6206.93
924.387	6227.27
924.697	6114.95
925.008	6148.85
925.318	6146.36
925.628	6043.77
925.938	6094.61
926.248	5982.3
926.558	6019.59
926.867	6003.54
927.177	5944.34
927.487	5924.67
927.796	5873.15
928.106	5859.37
928.416	5814.85
928.725	5835.64
929.034	5821.17
929.344	5801.74
929.653	5706.15
929.962	5747.73
930.271	5715.19
930.581	5672.03
930.89	5665.7
931.199	5631.58
931.508	5662.31
931.817	5618.47
932.125	5566.27
932.434	5560.62
932.743	5503.44
933.051	5477.23
933.36	5512.71
933.669	5444.01
933.977	5426.61
934.286	5410.79
934.594	5374.86
934.902	5345.25
935.21	5348.42
935.519	5325.82
935.827	5350.9
936.135	5282.88
936.443	5241.98
936.751	5192.26
937.059	5158.82
937.367	5177.8
937.674	5199.5
937.982	5160.4
938.29	5150.68
938.597	5152.49
938.905	5081.53
939.213	5057.8
939.52	5012.83
939.827	5011.7
940.135	5013.51
940.442	5014.19
940.749	5011.7
941.056	4940.07
941.363	4890.58
941.67	4946.62
941.977	4859.84
942.284	4834.31
942.591	4823.01
942.898	4825.04
943.205	4798.6
943.511	4773.07
943.818	4760.19
944.125	4725.61
944.431	4681.77
944.738	4672.96
945.044	4666.85
945.35	4632.51
945.657	4635.9
945.963	4593.41
946.269	4584.15
946.575	4572.62
946.881	4542.11
947.187	4531.27
947.493	4497.37
947.799	4471.38
948.105	4470.93
948.41	4463.92
948.716	4392.74
949.022	4405.39
949.327	4445.62
949.633	4344.6
949.938	4289.01
950.244	4357.03
950.549	4328.11
950.854	4278.39
951.16	4276.81
951.465	4212.18
951.77	4222.57
952.075	4236.13
952.38	4204.95
952.685	4188.45
952.99	4129.47
953.294	4141.67
953.599	4131.95
953.904	4127.66
954.209	4085.4
954.513	4072.29
954.818	4039.75
955.122	4053.54
955.426	4025.97
955.731	4002.92
956.035	3983.26
956.339	3957.04
956.643	3980.55
956.948	3932.41
957.252	3944.84
957.556	3931.73
957.86	3874.79
958.163	3857.61
958.467	3832.75
958.771	3832.98
959.075	3814
959.378	3773.54
959.682	3796.37
959.985	3744.39
960.289	3761.57
960.592	3743.04
960.896	3708.46
961.199	3684.28
961.502	3663.72
961.805	3641.57
962.108	3666.88
962.411	3650.61
962.714	3626.2
963.017	3615.36
963.32	3599.09
963.623	3578.75
963.926	3603.83
964.228	3561.8
964.531	3574.23
964.833	3559.54
965.136	3481.8
965.438	3464.85
965.741	3456.27
966.043	3475.93
966.345	3434.8
966.648	3421.24
966.95	3449.49
967.252	3388.24
967.554	3364.97
967.856	3383.27
968.158	3339.66
968.46	3354.8
968.761	3361.35
969.063	3311.86
969.365	3289.72
969.666	3288.81
969.968	3219.66
970.269	3203.39
970.571	3220.79
970.872	3205.42
971.174	3213.79
971.475	3174.01
971.776	3223.73
972.077	3159.55
972.378	3193.22
972.679	3150.06
972.98	3126.78
973.281	3148.93
973.582	3125.88
973.883	3084.52
974.183	3081.13
974.484	3093.34
974.785	3064.86
975.085	3052.21
975.386	3034.13
975.686	3031.42
975.986	2960.23
976.287	2988.93
976.587	2959.33
976.887	2967.92
977.187	2920.23
977.487	2913
977.787	2904.19
978.087	2874.13
978.387	2904.87
978.687	2874.36
978.987	2863.29
979.286	2854.92
979.586	2794.14
979.885	2821.03
980.185	2813.12
980.484	2762.95
980.784	2760.92
981.083	2752.33
981.382	2760.24
981.682	2747.36
981.981	2707.58
982.28	2739.22
982.579	2700.58
982.878	2695.83
983.177	2680.69
983.475	2704.42
983.774	2678.66
984.073	2636.85
984.372	2600.02
984.67	2626.23
984.969	2627.59
985.267	2601.37
985.566	2609.51
985.864	2568.15
986.162	2542.39
986.461	2531.09
986.759	2565.44
987.057	2526.8
987.355	2539.9
987.653	2506.23
987.951	2502.84
988.249	2484.77
988.547	2482.96
988.844	2435.27
989.142	2465.56
989.44	2419.68
989.737	2409.06
990.035	2390.08
990.332	2411.09
990.63	2405.67
990.927	2406.12
991.224	2382.62
991.521	2353.02
991.819	2324.77
992.116	2342.85
992.413	2329.06
992.71	2320.48
993.006	2290.19
993.303	2306.24
993.6	2279.8
993.897	2317.76
994.193	2261.49
994.49	2281.83
994.787	2267.82
995.083	2223.76
995.379	2216.07
995.676	2219.69
995.972	2176.52
996.268	2161.16
996.565	2156.64
996.861	2153.02
997.157	2146.02
997.453	2139.69
997.749	2122.74
998.044	2106.7
998.34	2127.71
998.636	2116.41
998.932	2092.91
999.227	2080.93
999.523	2088.62
999.818	2070.99
1000.114	2065.34
1000.409	2041.39
1000.704	2033.25
1001	2028.05
1001.295	1973.82
1001.59	2006.36
1001.885	2032.12
1002.18	1969.3
1002.475	1948.96
1002.77	1972.01
1003.065	1946.7
1003.359	1914.38
1003.654	1905.57
1003.949	1892.01
1004.243	1878.68
1004.538	1895.4
1004.832	1873.03
1005.127	1880.94
1005.421	1859.47
1005.715	1828.29
1006.009	1842.75
1006.304	1827.83
1006.598	1815.18
1006.892	1792.58
1007.186	1823.77
1007.48	1788.06
1007.773	1785.35
1008.067	1811.11
1008.361	1720.94
1008.655	1762.07
1008.948	1744.9
1009.242	1721.4
1009.535	1745.8
1009.829	1704.45
1010.122	1696.99
1010.415	1702.86
1010.708	1700.61
1011.001	1680.49
1011.295	1641.85
1011.588	1603.88
1011.881	1632.58
1012.173	1644.56
1012.466	1622.19
1012.759	1614.28
1013.052	1617.44
1013.344	1615.18
1013.637	1577.67
1013.93	1582.19
1014.222	1553.26
1014.514	1546.94
1014.807	1549.87
1015.099	1516.88
1015.391	1561.17
1015.683	1504.45
1015.976	1532.93
1016.268	1503.32
1016.56	1474.17
1016.851	1502.19
1017.143	1463.55
1017.435	1441.4
1017.727	1458.35
1018.018	1434.4
1018.31	1455.19
1018.602	1422.19
1018.893	1402.99
1019.185	1406.15
1019.476	1409.99
1019.767	1405.25
1020.058	1372.93
1020.35	1385.59
1020.641	1379.26
1020.932	1377.45
1021.223	1352.82
1021.514	1332.48
1021.804	1346.49
1022.095	1328.41
1022.386	1312.59
1022.677	1312.82
1022.967	1298.81
1023.258	1311.91
1023.548	1263.1
1023.839	1268.75
1024.129	1275.76
1024.419	1251.13
1024.709	1242.54
1025	1248.64
1025.29	1220.39
1025.58	1219.04
1025.87	1214.74
1026.16	1197.12
1026.449	1208.19
1026.739	1193.5
1027.029	1178.36
1027.319	1173.61
1027.608	1157.57
1027.898	1158.92
1028.187	1146.72
1028.477	1146.5
1028.766	1140.62
1029.055	1152.14
1029.344	1140.85
1029.634	1127.74
1029.923	1110.34
1030.212	1095.2
1030.501	1112.15
1030.79	1068.08
1031.078	1083.22
1031.367	1078.25
1031.656	1050.68
1031.945	1059.27
1032.233	1076.89
1032.522	1051.36
1032.81	1005.48
1033.099	1022.66
1033.387	1050.45
1033.675	1024.69
1033.963	1003.45
1034.251	991.47
1034.54	984.47
1034.828	987.63
1035.116	1000.28
1035.403	1006.84
1035.691	953.28
1035.979	965.03
1036.267	990.79
1036.554	942.66
1036.842	954.64
1037.129	945.14
1037.417	933.85
1037.704	957.57
1037.992	946.95
1038.279	932.26
1038.566	923.22
1038.853	923.22
1039.14	923.22
