Data from hue_38_FLMS001491_00098.txt Node
Date: Tue Feb 07 17:32:15 GMT 2017
User: dcchb
Spectrometer: FLMS00149
Trigger mode: 0
Integration Time (sec): 2.000000E-2
Scans to average: 10
Electric dark correction enabled: true
Nonlinearity correction enabled: false
Boxcar width: 0
XAxis mode: Wavelengths
Number of Pixels in Spectrum: 2048
>>>>>Begin Spectral Data<<<<<
341.393	5.76
341.776	5.76
342.16	5.76
342.543	-60.22
342.927	-71.98
343.31	-66.33
343.693	-71.07
344.077	-62.26
344.46	-58.64
344.843	-59.32
345.226	-36.04
345.61	-42.15
345.993	-31.52
346.376	11.19
346.759	23.16
347.142	19.32
347.525	32.65
347.908	63.39
348.291	88.7
348.674	78.53
349.057	110.39
349.44	142.26
349.823	167.57
350.206	169.37
350.588	187.9
350.971	206.21
351.354	234.01
351.737	243.72
352.119	248.69
352.502	267
352.884	295.25
353.267	296.6
353.65	307.9
354.032	299.99
354.414	316.71
354.797	316.26
355.179	330.27
355.562	328.47
355.944	317.62
356.326	328.24
356.709	345.19
357.091	328.47
357.473	340.89
357.855	370.5
358.238	354
358.62	353.78
359.002	363.49
359.384	332.53
359.766	345.87
360.148	358.3
360.53	344.96
360.912	354.45
361.294	339.99
361.676	343.61
362.057	333.89
362.439	341.12
362.821	322.59
363.203	332.53
363.584	306.55
363.966	349.48
364.348	340.89
364.729	329.37
365.111	317.39
365.493	332.31
365.874	331.4
366.256	315.13
366.637	321.69
367.019	295.92
367.4	318.07
367.781	328.92
368.163	325.75
368.544	328.47
368.925	332.08
369.306	315.58
369.688	315.81
370.069	339.09
370.45	319.88
370.831	313.55
371.212	322.59
371.593	321.91
371.974	314.46
372.355	327.11
372.736	336.6
373.117	328.01
373.498	317.39
373.879	321.46
374.26	295.47
374.641	309.26
375.021	343.83
375.402	329.82
375.783	325.75
376.163	338.64
376.544	321.01
376.925	305.64
377.305	323.72
377.686	324.85
378.066	329.14
378.447	355.58
378.827	347
379.208	366.21
379.588	347
379.968	340.22
380.349	349.93
380.729	339.54
381.109	361.46
381.489	338.64
381.87	352.87
382.25	352.87
382.63	347.67
383.01	350.39
383.39	342.93
383.77	355.36
384.15	351.97
384.53	344.28
384.91	346.54
385.29	368.69
385.67	360.33
386.049	362.82
386.429	377.5
386.809	370.5
387.189	372.53
387.568	376.6
387.948	376.15
388.328	356.26
388.707	360.78
389.087	387.22
389.466	376.6
389.846	381.12
390.225	371.85
390.605	380.22
390.984	374.79
391.363	398.97
391.743	393.77
392.122	395.13
392.501	357.84
392.881	383.38
393.26	386.32
393.639	398.29
394.018	407.11
394.397	386.54
394.776	386.77
395.155	406.66
395.534	405.75
395.913	391.97
396.292	404.85
396.671	407.33
397.05	396.94
397.429	423.38
397.808	394.23
398.186	408.24
398.565	406.88
398.944	423.6
399.323	424.06
399.701	409.59
400.08	411.85
400.458	422.25
400.837	424.51
401.215	407.79
401.594	428.35
401.972	422.93
402.351	433.32
402.729	433.77
403.107	428.35
403.486	443.94
403.864	434.23
404.242	423.38
404.62	426.32
404.999	435.58
405.377	429.93
405.755	436.71
406.133	417.28
406.511	437.62
406.889	465.41
407.267	466.99
407.645	453.89
408.023	457.5
408.401	444.4
408.779	466.09
409.156	462.47
409.534	450.27
409.912	472.19
410.29	483.94
410.667	478.07
411.045	476.48
411.422	471.96
411.8	474
412.178	497.73
412.555	497.73
412.933	518.97
413.31	479.2
413.687	495.69
414.065	476.94
414.442	490.72
414.819	508.12
415.197	520.55
415.574	529.82
415.951	537.95
416.328	522.81
416.705	513.09
417.082	514.9
417.46	536.6
417.837	535.24
418.214	544.51
418.591	546.31
418.967	549.48
419.344	555.35
419.721	535.01
420.098	540.66
420.475	562.36
420.852	560.55
421.228	537.73
421.605	575.92
421.982	552.19
422.358	595.35
422.735	589.7
423.111	594.67
423.488	584.73
423.864	590.61
424.241	598.97
424.617	605.29
424.994	584.5
425.37	615.24
425.746	580.21
426.123	624.73
426.499	611.85
426.875	605.07
427.251	613.66
427.627	635.58
428.003	627.44
428.379	663.82
428.756	657.04
429.132	653.88
429.507	652.98
429.883	673.54
430.259	671.96
430.635	670.15
431.011	656.59
431.387	689.36
431.763	671.96
432.138	705.63
432.514	712.18
432.89	709.47
433.265	736.14
433.641	687.1
434.016	737.49
434.392	732.75
434.767	730.72
435.143	730.49
435.518	742.01
435.894	742.92
436.269	746.99
436.644	782.01
437.02	759.19
437.395	775.46
437.77	770.71
438.145	817.94
438.52	805.97
438.895	770.26
439.271	804.84
439.646	818.4
440.021	827.21
440.395	835.57
440.77	834.22
441.145	816.81
441.52	836.02
441.895	840.54
442.27	855.23
442.645	825.18
443.019	839.64
443.394	846.87
443.769	873.54
444.143	857.49
444.518	873.08
444.892	873.99
445.267	877.38
445.641	881.9
446.016	890.03
446.39	885.97
446.764	895.68
447.139	902.69
447.513	932.52
447.887	926.87
448.262	930.71
448.636	931.61
449.01	949.24
449.384	956.47
449.758	940.65
450.132	949.69
450.506	960.54
450.88	953.76
451.254	982.69
451.628	981.56
452.002	969.58
452.376	985.17
452.75	1003.93
453.123	1048.22
453.497	1018.84
453.871	1032.18
454.244	1050.25
454.618	1055.9
454.992	1076.47
455.365	1069.92
455.739	1085.28
456.112	1113.76
456.486	1087.09
456.859	1108.78
457.232	1142
457.606	1147.65
457.979	1132.74
458.352	1127.77
458.725	1165.73
459.099	1178.39
459.472	1227.65
459.845	1220.19
460.218	1209.57
460.591	1233.3
460.964	1222.45
461.337	1269.68
461.71	1278.95
462.083	1303.81
462.456	1325.5
462.829	1309.91
463.201	1337.03
463.574	1353.07
463.947	1356.91
464.32	1388.78
464.692	1401.21
465.065	1427.42
465.438	1448.89
465.81	1476.23
466.183	1454.54
466.555	1484.14
466.928	1525.04
467.3	1492.05
467.672	1539.51
468.045	1585.83
468.417	1584.7
468.789	1594.42
469.161	1640.3
469.534	1669.22
469.906	1669.22
470.278	1706.28
470.65	1748.09
471.022	1796.9
471.394	1805.04
471.766	1800.29
472.138	1847.3
472.51	1861.53
472.882	1947.41
473.253	1959.84
473.625	1979.72
473.997	2029.89
474.369	2069.66
474.74	2126.16
475.112	2168.64
475.484	2179.04
475.855	2246.61
476.227	2242.09
476.598	2334.06
476.97	2383.1
477.341	2437.34
477.713	2481.86
478.084	2511.01
478.455	2617.45
478.827	2634.85
479.198	2725.24
479.569	2759.59
479.94	2869.42
480.311	2885.69
480.682	2974.5
481.053	3047.49
481.424	3152.57
481.795	3221.95
482.166	3240.03
482.537	3339.69
482.908	3434.15
483.279	3507.82
483.65	3623.52
484.021	3678.89
484.391	3741.71
484.762	3815.61
485.133	3877.98
485.503	3975.15
485.874	4082.27
486.244	4146.9
486.615	4257.4
486.985	4362.71
487.356	4486.32
487.726	4534.46
488.097	4653.1
488.467	4703.72
488.837	4895.58
489.207	4991.62
489.578	5117.04
489.948	5190.26
490.318	5323.81
490.688	5350.48
491.058	5429.8
491.428	5599.74
491.798	5697.59
492.168	5895.33
492.538	5896.68
492.908	6042.89
493.278	6096
493.648	6176.9
494.017	6329.89
494.387	6389.55
494.757	6499.6
495.126	6620.73
495.496	6675.19
495.866	6791.8
496.235	6885.58
496.605	7009.65
496.974	7031.79
497.344	7234.27
497.713	7300.94
498.082	7374.83
498.452	7491.89
498.821	7532.34
499.19	7569.18
499.559	7695.05
499.928	7771.66
500.298	7917.64
500.667	8036.96
501.036	8054.59
501.405	8168.94
501.774	8164.87
502.143	8285.54
502.512	8346.33
502.88	8462.26
503.249	8531.64
503.618	8578.87
503.987	8688.92
504.356	8798.53
504.724	8846.89
505.093	8935.47
505.462	8989.03
505.83	9052.3
506.199	9164.62
506.567	9241
506.936	9272.64
507.304	9423.14
507.672	9520.99
508.041	9515.57
508.409	9582.23
508.777	9666.53
509.145	9782.45
509.514	9768.9
509.882	9865.62
510.25	9977.25
510.618	10017.7
510.986	10127.76
511.354	10101.32
511.722	10254.08
512.09	10397.81
512.458	10304.25
512.826	10505.6
513.193	10534.75
513.561	10588.54
513.929	10619.72
514.297	10750.56
514.664	10847.06
515.032	10862.88
515.4	10977
515.767	11025.13
516.135	11091.57
516.502	11010.9
516.869	11202.53
517.237	11321.62
517.604	11236.43
517.972	11384.45
518.339	11422.19
518.706	11476.65
519.073	11583.99
519.44	11691.78
519.808	11722.29
520.175	11682.29
520.542	11847.94
520.909	11992.79
521.276	11945.11
521.643	12094.26
522.009	12174.93
522.376	12244.08
522.743	12297.19
523.11	12423.29
523.477	12556.62
523.843	12621.7
524.21	12616.28
524.577	12830.06
524.943	12924.29
525.31	12971.98
525.676	13096.27
526.043	13090.16
526.409	13122.71
526.776	13332.42
527.142	13277.28
527.508	13390.72
527.874	13449.93
528.241	13596.82
528.607	13603.15
528.973	13744.61
529.339	13829.13
529.705	13914.78
530.071	13944.15
530.437	13976.02
530.803	14145.73
531.169	14177.59
531.535	14230.02
531.901	14246.07
532.267	14320.64
532.632	14500.52
532.998	14504.82
533.364	14545.72
533.73	14586.85
534.095	14760.4
534.461	14780.06
534.826	14864.13
535.192	14957.46
535.557	15057.34
535.923	15025.25
536.288	15073.61
536.653	15303.67
537.019	15156.78
537.384	15279.71
537.749	15376.21
538.114	15288.52
538.479	15422.98
538.845	15438.8
539.21	15439.93
539.575	15585.24
539.94	15568.07
540.305	15661.85
540.67	15716.08
541.034	15801.51
541.399	15794.95
541.764	15894.84
542.129	16034.27
542.494	16076.75
542.858	16159.01
543.223	16126.24
543.587	16188.39
543.952	16253.02
544.316	16380.25
544.681	16344.99
545.045	16384.77
545.41	16619.34
545.774	16576.63
546.138	16620.47
546.503	16693.46
546.867	16653.46
547.231	16867.47
547.595	16844.87
547.959	16869.27
548.324	16985.88
548.688	16979.33
549.052	17067.46
549.416	17082.38
549.779	17191.75
550.143	17215.93
550.507	17330.05
550.871	17432.2
551.235	17429.03
551.599	17515.58
551.962	17560.78
552.326	17628.12
552.689	17692.53
553.053	17611.18
553.417	17748.8
553.78	17928.46
554.143	17795.58
554.507	17958.06
554.87	17997.83
555.234	18163.93
555.597	18049.36
555.96	18142.69
556.323	18231.95
556.686	18273.3
557.05	18414.32
557.413	18448.22
557.776	18499.97
558.139	18600.53
558.502	18633.3
558.865	18713.29
559.228	18813.4
559.59	18807.98
559.953	18859.05
560.316	19061.53
560.679	19083.23
561.041	19099.05
561.404	19267.85
561.767	19393.95
562.129	19332.49
562.492	19361.86
562.854	19472.82
563.217	19445.93
563.579	19553.05
563.941	19785.58
564.304	19765.69
564.666	19838.91
565.028	19932.7
565.39	20057.66
565.753	20153.93
566.115	20162.29
566.477	20193.71
566.839	20299.24
567.201	20383.31
567.563	20434.6
567.925	20615.39
568.287	20589.85
568.648	20700.13
569.01	20758.89
569.372	21012.67
569.734	20792.56
570.095	20984.19
570.457	21108.71
570.819	21052.89
571.18	21203.62
571.542	21396.61
571.903	21346.9
572.265	21473.67
572.626	21531.07
572.987	21617.85
573.349	21730.62
573.71	21842.25
574.071	22009.03
574.432	21991.4
574.794	22206.76
575.155	22194.78
575.516	22357.04
575.877	22503.7
576.238	22503.02
576.599	22720.65
576.96	22785.28
577.32	22870.7
577.681	22998.6
578.042	23168.09
578.403	23261.65
578.763	23325.15
579.124	23536.9
579.485	23685.82
579.845	23810.79
580.206	23912.48
580.566	24033.61
580.927	24207.16
581.287	24335.97
581.648	24338.68
582.008	24739.12
582.368	24824.77
582.728	24910.42
583.089	25090.98
583.449	25147.02
583.809	25472.89
584.169	25622.04
584.529	25764.18
584.889	26150.84
585.249	26121.69
585.609	26262.47
585.969	26564.84
586.329	26720.77
586.688	26978.16
587.048	27182.22
587.408	27312.16
587.768	27476.68
588.127	27754.41
588.487	27906.5
588.846	28345.58
589.206	28309.88
589.565	28562.98
589.925	28796.64
590.284	28947.83
590.643	29368.83
591.003	29525.44
591.362	29698.32
591.721	29809.72
592.08	30084.29
592.44	30334.46
592.799	30471.18
593.158	30491.74
593.517	30930.15
593.876	31046.08
594.235	31171.95
594.593	31406.52
594.952	31717.7
595.311	31773.51
595.67	32087.4
596.029	32488.3
596.387	32618.92
596.746	32821.62
597.104	32944.78
597.463	33153.82
597.822	33460.48
598.18	33434.04
598.538	33438.33
598.897	33941.14
599.255	33821.82
599.613	34454.12
599.972	34441.02
600.33	34637.62
600.688	34696.83
601.046	34962.58
601.404	35198.74
601.762	35367.77
602.12	35492.51
602.478	35780.42
602.836	35854.54
603.194	35826.52
603.552	36148.09
603.91	36123.46
604.268	36393.96
604.625	36489.78
604.983	36823.1
605.341	36815.19
605.698	37021.29
606.056	37321.39
606.413	37389.64
606.771	37550.54
607.128	37670.53
607.485	37649.97
607.843	37912.34
608.2	38131.09
608.557	38320.01
608.914	38289.73
609.272	38396.62
609.629	38605.43
609.986	38827.34
610.343	38678.42
610.7	39059.88
611.057	39115.02
611.414	39206.99
611.771	39279.53
612.127	39605.17
612.484	39609.02
612.841	39726.53
613.198	39745.96
613.554	39829.12
613.911	40155.22
614.267	40151.37
614.624	40239.05
614.98	40406.51
615.337	40562.66
615.693	40614.86
616.05	40681.53
616.406	40926.72
616.762	40912.03
617.118	40971.01
617.475	40951.58
617.831	41262.53
618.187	41280.61
618.543	41380.49
618.899	41628.17
619.255	41735.29
619.611	41544.33
619.967	41754.27
620.323	41897.54
620.678	41693.48
621.034	41744.33
621.39	41983.64
621.746	41941.38
622.101	42418.43
622.457	42088.05
622.812	42247.14
623.168	42482.16
623.523	42405.55
623.879	42564.19
624.234	42421.82
624.589	42493.68
624.945	42605.32
625.3	42767.8
625.655	42619.33
626.01	42730.29
626.365	42766.45
626.72	42845.09
627.075	42707.69
627.43	42783.85
627.785	42815.71
628.14	42800.34
628.495	42991.07
628.85	42880.79
629.205	42773.45
629.559	43140
629.914	42900.45
630.269	42883.51
630.623	42998.53
630.978	42900.68
631.332	42949.27
631.687	43018.42
632.041	42936.16
632.396	42895.71
632.75	42843.73
633.104	42904.07
633.459	42718.54
633.813	42988.14
634.167	42842.83
634.521	42867.01
634.875	42975.71
635.229	42816.39
635.583	42887.12
635.937	42956.72
636.291	42730.97
636.645	42828.82
636.999	42756.73
637.352	42903.17
637.706	42731.87
638.06	42863.39
638.413	42739.78
638.767	42690.29
639.121	42668.6
639.474	42470.86
639.828	42538.88
640.181	42612.1
640.534	42457.98
640.888	42502.05
641.241	42450.52
641.594	42506.34
641.947	42505.44
642.301	42597.64
642.654	42550.63
643.007	42588.15
643.36	42451.2
643.713	42379.11
644.066	42565.32
644.419	42241.26
644.771	42069.29
645.124	41760.37
645.477	41692.35
645.83	41302.53
646.182	41281.97
646.535	41196.32
646.888	41347.27
647.24	41138.92
647.593	41389.31
647.945	41193.15
648.298	40928.53
648.65	41069.99
649.002	40800.17
649.355	41025.02
649.707	41138.24
650.059	41281.06
650.411	41663.65
650.763	41832.23
651.115	41940.25
651.467	41953.13
651.819	41927.37
652.171	41846.92
652.523	41731.67
652.875	41704.78
653.227	41722.63
653.578	41860.93
653.93	41825.68
654.282	41674.72
654.633	41602.63
654.985	41543.65
655.337	41675.4
655.688	41658.23
656.039	41808.51
656.391	41422.98
656.742	41595.18
657.094	41590.21
657.445	41700.71
657.796	41660.03
658.147	41425.01
658.498	41484.9
658.849	41537.78
659.2	41570.77
659.551	41490.32
659.902	41524.22
660.253	41410.55
660.604	41531.9
660.955	41330.55
661.306	41552.92
661.656	41465.92
662.007	41468.4
662.358	41359.25
662.708	41434.5
663.059	41558.57
663.409	41182.31
663.76	41542.07
664.11	41546.82
664.461	41372.81
664.811	41345.92
665.161	41294.62
665.511	41366.48
665.862	41387.27
666.212	41326.26
666.562	41375.52
666.912	41326.26
667.262	41235.19
667.612	41250.55
667.962	41239.48
668.312	41212.14
668.662	41389.53
669.011	41374.39
669.361	41318.35
669.711	41215.3
670.06	41205.58
670.41	41158.58
670.76	41128.75
671.109	41294.17
671.459	41205.81
671.808	41101.86
672.157	41296.43
672.507	40994.74
672.856	40950.45
673.205	41061.18
673.554	41028.86
673.904	40803.11
674.253	41362.64
674.602	41005.59
674.951	40449.44
675.3	40401.99
675.649	40976.66
675.998	40958.13
676.346	40963.33
676.695	41149.99
677.044	40778.7
677.393	40992.71
677.741	40914.52
678.09	40826.84
678.438	40566.96
678.787	40696.44
679.135	40816.89
679.484	40487.41
679.832	40726.73
680.181	40498.03
680.529	40477.24
680.877	40353.63
681.225	40386.17
681.573	40463.68
681.922	40231.37
682.27	40258.72
682.618	40289.9
682.966	40128.1
683.314	40145.05
683.661	40121.77
684.009	39899.63
684.357	39938.72
684.705	39825.96
685.053	39960.64
685.4	39803.36
685.748	39702.35
686.095	39699.86
686.443	39252.64
686.79	39377.16
687.138	39457.15
687.485	39477.49
687.832	39324.5
688.18	39372.86
688.527	39124.28
688.874	39239.08
689.221	39080.67
689.568	38987.34
689.915	38857.85
690.262	38999.09
690.609	38823.72
690.956	38609.04
691.303	38656.27
691.65	38509.16
691.997	38475.71
692.344	38364.53
692.69	38207.02
693.037	38312.55
693.383	37923.86
693.73	38000.02
694.077	37764.77
694.423	37786.46
694.769	37777.2
695.116	37518.45
695.462	37667.6
695.808	37461.5
696.155	37486.81
696.501	37254.73
696.847	37284.33
697.193	37111
697.539	37150.1
697.885	36965.69
698.231	36830.78
698.577	36868.97
698.923	36783.55
699.269	36506.72
699.614	36409.55
699.96	36489.78
700.306	36489.32
700.651	36184.02
700.997	36074.64
701.342	35965.27
701.688	35900.64
702.033	35845.95
702.379	35874.88
702.724	35769.12
703.069	35721.21
703.415	35339.97
703.76	35436.47
704.105	35435.79
704.45	35409.35
704.795	35218.4
705.14	35152.41
705.485	35199.19
705.83	34929.82
706.175	34951.51
706.52	34854.34
706.865	34764.85
707.209	34695.02
707.554	34556.04
707.899	34618.19
708.243	34488.25
708.588	34411.64
708.932	34099.78
709.277	34220.68
709.621	34247.8
709.966	33990.18
710.31	34042.61
710.654	33820.24
710.998	34019.33
711.342	33827.47
711.687	33768.94
712.031	33551.55
712.375	33481.94
712.719	33580.25
713.063	33479.01
713.407	33523.07
713.75	33272.23
714.094	33355.17
714.438	33120.6
714.782	33106.36
715.125	33058.68
715.469	33149.75
715.812	32959.47
716.156	32800.38
716.499	32820.49
716.843	32808.74
717.186	32626.83
717.53	32656.66
717.873	32580.95
718.216	32492.82
718.559	32553.61
718.902	32302.54
719.246	32306.38
719.589	32265.03
719.932	32218.25
720.275	32162.66
720.617	32127.4
720.96	32081.08
721.303	32102.55
721.646	32017.35
721.989	31912.72
722.331	31833.4
722.674	31739.84
723.016	31902.78
723.359	31806.73
723.701	31879.27
724.044	31575.55
724.386	31473.86
724.729	31507.53
725.071	31494.2
725.413	31440.19
725.755	31427.76
726.097	31324.04
726.439	31234.09
726.782	31177.37
727.124	31295.79
727.465	31117.26
727.807	31146.86
728.149	30999.75
728.491	30962.69
728.833	30942.58
729.175	30954.55
729.516	30767.89
729.858	30762.47
730.199	30853.09
730.541	30727.89
730.882	30699.87
731.224	30833.43
731.565	30546.65
731.906	30495.36
732.248	30596.6
732.589	30394.79
732.93	30284.29
733.271	30321.8
733.612	30373.33
733.953	30364.96
734.294	30231.18
734.635	30083.62
734.976	30148.7
735.317	29888.82
735.658	30108.7
735.999	29960.46
736.339	29964.52
736.68	29966.78
737.021	29796.84
737.361	29742.38
737.702	29810.63
738.042	29723.4
738.383	29744.64
738.723	29684.53
739.063	29517.08
739.404	29680.91
739.744	29575.38
740.084	29423.97
740.424	29538.77
740.764	29312.79
741.104	29515.04
741.444	29298.1
741.784	29254.26
742.124	29413.12
742.464	29160.25
742.804	29235.28
743.143	29122.74
743.483	29270.53
743.823	29087.48
744.162	29066.47
744.502	29066.47
744.841	28931.56
745.181	29021.5
745.52	28879.58
745.86	28949.86
746.199	28921.84
746.538	28859.24
746.877	28898.34
747.216	28836.64
747.556	28815.63
747.895	28788.28
748.234	28677.33
748.573	28583.99
748.911	28578.57
749.25	28598.46
749.589	28424
749.928	28423.77
750.267	28405.24
750.605	28301.06
750.944	28217.68
751.283	28169.32
751.621	28212.93
751.96	28000.05
752.298	28025.14
752.636	28112.59
752.975	27987.85
753.313	27840.96
753.651	27943.11
753.989	27846.16
754.327	27652.27
754.666	27552.61
755.004	27638.03
755.342	27677.8
755.679	27562.1
756.017	27522.33
756.355	27588.09
756.693	27313.07
757.031	27376.57
757.368	27309.45
757.706	27171.15
758.044	27204.37
758.381	27180.87
758.719	27119.4
759.056	27076.92
759.394	27042.34
759.731	26791.27
760.068	26822.91
760.405	26576.59
760.743	26548.79
761.08	26615.01
761.417	26488.23
761.754	26390.15
762.091	26381.79
762.428	26276.26
762.765	26067.9
763.102	26205.98
763.438	26036.04
763.775	25916.95
764.112	25954.68
764.449	25883.95
764.785	25811.64
765.122	25629.27
765.458	25527.58
765.795	25475.83
766.131	25450.97
766.467	25450.29
766.804	25252.56
767.14	25128.49
767.476	25126.23
767.812	25029.74
768.148	25069.51
768.485	24985.67
768.821	24768.5
769.157	24719.01
769.492	24638.11
769.828	24672.91
770.164	24399.02
770.5	24476.76
770.836	24449.41
771.171	24291
771.507	24050.1
771.842	24006.04
772.178	24070.89
772.513	24033.38
772.849	23946.83
773.184	23821.41
773.519	23746.61
773.855	23626.16
774.19	23455.32
774.525	23497.57
774.86	23491.92
775.195	23443.11
775.53	23309.1
775.865	23106.4
776.2	22982.11
776.535	22858.5
776.87	22878.61
777.205	22786.18
777.539	22766.97
777.874	22781.89
778.209	22543.48
778.543	22498.05
778.878	22390.03
779.212	22385.97
779.547	22175.8
779.881	22305.06
780.215	21985.98
780.55	22057.39
780.884	21922.47
781.218	21813.1
781.552	21909.14
781.886	21733.78
782.22	21636.61
782.554	21472.99
782.888	21343.73
783.222	21301.25
783.556	21146.68
783.889	21178.77
784.223	21033.23
784.557	20895.61
784.89	21032.1
785.224	20870.52
785.557	20753.92
785.891	20711.43
786.224	20684.77
786.558	20650.64
786.891	20419.92
787.224	20362.97
787.557	20270.77
787.891	20382.4
788.224	20281.39
788.557	20275.51
788.89	20269.86
789.223	20123.65
789.556	20009.3
789.888	20038.91
790.221	19826.48
790.554	19717.11
790.887	19754.17
791.219	19672.36
791.552	19589.65
791.884	19448.42
792.217	19461.07
792.549	19382.2
792.882	19208.87
793.214	19199.83
793.546	19184.24
793.879	19016.79
794.211	18993.96
794.543	19070.35
794.875	18935.43
795.207	19070.8
795.539	18869.45
795.871	18790.35
796.203	18711.03
796.535	18536.12
796.867	18553.3
797.198	18464.26
797.53	18435.11
797.862	18369.12
798.193	18396.92
798.525	18220.65
798.856	18307.88
799.188	18099.3
799.519	18084.84
799.85	17938.62
800.182	17992.86
800.513	17986.08
800.844	17713.55
801.175	17876.25
801.506	17841.68
801.837	17746.54
802.168	17711.29
802.499	17640.33
802.83	17623.83
803.161	17463.61
803.491	17437.39
803.822	17434
804.153	17361.69
804.483	17145.88
804.814	17149.72
805.145	17080.12
805.475	17216.38
805.805	17102.71
806.136	17035.82
806.466	17010.51
806.796	17003.28
807.126	16882.83
807.457	16778.65
807.787	16834.25
808.117	16711.99
808.447	16616.17
808.777	16648.94
809.107	16545.21
809.436	16548.38
809.766	16531.88
810.096	16452.79
810.426	16458.89
810.755	16457.53
811.085	16313.36
811.414	16337.54
811.744	16166.47
812.073	16150.65
812.403	16138.9
812.732	16082.4
813.061	16077.88
813.39	16016.42
813.719	15970.54
814.049	16020.48
814.378	15912.69
814.707	15853.71
815.036	15921.5
815.365	15770.09
815.693	15627.5
816.022	15677.44
816.351	15560.38
816.68	15470.44
817.008	15559.03
817.337	15491.01
817.665	15491.68
817.994	15444
818.322	15368.52
818.651	15320.61
818.979	15324.91
819.307	15377.79
819.636	15305.25
819.964	15171.69
820.292	15224.57
820.62	15244.46
820.948	15169.21
821.276	15231.35
821.604	15110.45
821.932	15118.13
822.259	15179.83
822.587	15072.49
822.915	15110
823.243	15162.65
823.57	15046.05
823.898	15076.55
824.225	14966.95
824.553	15008.76
824.88	15093.05
825.207	15066.61
825.535	15055.99
825.862	15095.08
826.189	14937.35
826.516	15123.11
826.843	15115.65
827.17	15041.98
827.497	15110.22
827.824	15115.42
828.151	15039.94
828.478	15127.4
828.805	15048.53
829.131	14984.58
829.458	14992.71
829.785	14961.53
830.111	15017.57
830.438	15046.95
830.764	15001.53
831.09	14999.04
831.417	14919.95
831.743	15027.74
832.069	15012.83
832.395	14855.54
832.722	14926.05
833.048	14898.03
833.374	14938.03
833.7	14785.49
834.026	14813.51
834.351	14814.86
834.677	14818.03
835.003	14900.74
835.329	14822.55
835.654	14792.49
835.98	14759.05
836.306	14779.16
836.631	14733.28
836.956	14798.14
837.282	14750.46
837.607	14635.21
837.932	14671.59
838.258	14655.09
838.583	14661.87
838.908	14529.9
839.233	14530.58
839.558	14553.63
839.883	14418.26
840.208	14369
840.533	14442.45
840.858	14419.62
841.182	14471.6
841.507	14429.34
841.832	14293.97
842.156	14341.43
842.481	14299.85
842.805	14349.79
843.13	14291.94
843.454	14186.86
843.778	14124.94
844.103	14112.06
844.427	14159.06
844.751	14168.78
845.075	14055.34
845.399	14054.43
845.723	13940.09
846.047	13944.83
846.371	13841.78
846.695	13758.17
847.019	13666.65
847.343	13709.81
847.666	13585.74
847.99	13541.9
848.313	13535.58
848.637	13465.07
848.96	13446.09
849.284	13355.69
849.607	13234.34
849.931	13225.3
850.254	13069.37
850.577	13062.37
850.9	12919.32
851.223	12925.87
851.546	12946.44
851.869	12785.31
852.192	12915.71
852.515	12766.11
852.838	12753.68
853.161	12690.63
853.483	12627.8
853.806	12634.58
854.129	12597.97
854.451	12520.01
854.774	12480.01
855.096	12368.15
855.419	12415.38
855.741	12326.12
856.063	12244.76
856.385	12289.51
856.708	12214.26
857.03	12209.74
857.352	12197.08
857.674	12195.72
857.996	12039.12
858.318	11977.88
858.64	11991.44
858.961	11943.08
859.283	11957.99
859.605	11846.13
859.926	11856.07
860.248	11843.87
860.57	11888.16
860.891	11773.59
861.212	11753.93
861.534	11714.38
861.855	11637.32
862.176	11677.32
862.498	11621.28
862.819	11643.42
863.14	11607.04
863.461	11628.06
863.782	11523.2
864.103	11621.28
864.424	11482.07
864.745	11609.75
865.065	11507.83
865.386	11460.6
865.707	11380.6
866.027	11455.86
866.348	11415.86
866.668	11430.09
866.989	11338.35
867.309	11279.14
867.63	11306.48
867.95	11302.19
868.27	11170.44
868.59	11224.45
868.91	11241.17
869.23	11192.81
869.55	11183.1
869.87	11194.17
870.19	11100.16
870.51	11129.31
870.83	11113.04
871.15	11090.22
871.469	11068.3
871.789	11057.22
872.109	11050.67
872.428	10962.31
872.748	11012.25
873.067	11010.44
873.386	10999.6
873.706	10961.86
874.025	10901.52
874.344	10862.43
874.663	10819.04
874.982	10855.42
875.301	10866.04
875.62	10842.54
875.939	10759.15
876.258	10791.47
876.577	10710.11
876.896	10754.18
877.214	10772.26
877.533	10745.14
877.852	10673.96
878.17	10661.08
878.489	10770.9
878.807	10674.86
879.125	10659.49
879.444	10627.4
879.762	10585.37
880.08	10603.22
880.398	10554.19
880.716	10550.12
881.034	10549.44
881.352	10555.09
881.67	10504.24
881.988	10454.08
882.306	10412.49
882.624	10389.44
882.941	10345.15
883.259	10332.04
883.577	10349.67
883.894	10316.68
884.212	10280.75
884.529	10250.01
884.846	10270.8
885.164	10173.4
885.481	10147.64
885.798	10177.92
886.115	10117.59
886.432	10137.47
886.75	10114.65
887.067	10100.41
887.383	10069.9
887.7	10067.64
888.017	9988.1
888.334	10023.8
888.651	9939.96
888.967	9959.17
889.284	9889.34
889.6	9914.88
889.917	9807.76
890.233	9791.95
890.55	9790.14
890.866	9772.06
891.182	9759.63
891.498	9732.06
891.815	9737.94
892.131	9598.73
892.447	9654.77
892.763	9596.02
893.079	9589.69
893.395	9596.47
893.71	9468.79
894.026	9483.25
894.342	9467.21
894.657	9360.32
894.973	9426.53
895.289	9382.01
895.604	9375.46
895.92	9298.85
896.235	9279.19
896.55	9335.69
896.865	9242.81
897.181	9149.93
897.496	9180.89
897.811	9122.58
898.126	9084.39
898.441	9093.43
898.756	9067.22
899.071	8982.02
899.386	8987
899.7	8880.78
900.015	8945.87
900.33	8880.78
900.644	8820.45
900.959	8858.41
901.273	8763.72
901.588	8749.26
901.902	8707.45
902.216	8687.12
902.531	8647.8
902.845	8604.41
903.159	8575.03
903.473	8555.82
903.787	8529.61
904.101	8446.44
904.415	8472.88
904.729	8447.8
905.042	8387.69
905.356	8409.16
905.67	8258.2
905.984	8316.05
906.297	8264.08
906.611	8232.89
906.924	8226.34
907.237	8206
907.551	8182.72
907.864	8061.14
908.177	8080.35
908.491	8050.75
908.804	8026.57
909.117	7955.38
909.43	7922.84
909.743	7905.89
910.056	7901.83
910.368	7854.14
910.681	7779.12
910.994	7756.07
911.307	7831.09
911.619	7715.16
911.932	7681.27
912.244	7634.71
912.557	7586.58
912.869	7620.93
913.181	7581.38
913.494	7554.72
913.806	7493.48
914.118	7512.01
914.43	7422.29
914.742	7449.63
915.054	7413.25
915.366	7365.34
915.678	7384.55
915.99	7314.5
916.302	7212.13
916.613	7234.73
916.925	7229.53
917.236	7195.86
917.548	7195.18
917.859	7128.74
918.171	7089.19
918.482	7079.93
918.794	7024.34
919.105	6999.03
919.416	6892.36
919.727	6908.18
920.038	6895.3
920.349	6919.93
920.66	6847.39
920.971	6844.45
921.282	6799.48
921.593	6761.97
921.903	6761.29
922.214	6709.99
922.525	6666.15
922.835	6652.82
923.146	6581.18
923.456	6603.56
923.767	6574.86
924.077	6551.81
924.387	6526.72
924.697	6508.42
925.008	6460.96
925.318	6413.96
925.628	6431.58
925.938	6392.04
926.248	6300.06
926.558	6317.69
926.867	6302.55
927.177	6241.76
927.487	6207.18
927.796	6199.5
928.106	6157.47
928.416	6179.84
928.725	6149.1
929.034	6112.95
929.344	6081.76
929.653	6088.09
929.962	6013.51
930.271	6038.15
930.581	6001.09
930.89	5939.84
931.199	5923.12
931.508	5897.81
931.817	5848.55
932.125	5885.38
932.434	5845.38
932.743	5787.76
933.051	5754.99
933.36	5731.49
933.669	5679.06
933.977	5698.95
934.286	5697.82
934.594	5646.52
934.902	5650.36
935.21	5561.32
935.519	5659.4
935.827	5568.55
936.135	5524.94
936.443	5527.65
936.751	5460.31
937.059	5487.2
937.367	5437.48
937.674	5388.45
937.982	5438.84
938.29	5393.19
938.597	5397.03
938.905	5315.91
939.213	5321.55
939.52	5252.18
939.827	5258.51
940.135	5266.42
940.442	5205.63
940.749	5260.09
941.056	5186.64
941.363	5159.75
941.67	5170.82
941.977	5137.61
942.284	5087.66
942.591	5066.19
942.898	5066.42
943.205	5041.56
943.511	5000.43
943.818	4976.93
944.125	4909.14
944.431	4974.9
944.738	4937.38
945.044	4936.48
945.35	4870.95
945.657	4835.24
945.963	4807.9
946.269	4806.54
946.575	4781.91
946.881	4765.64
947.187	4681.57
947.493	4709.82
947.799	4749.14
948.105	4678.18
948.41	4678.63
948.716	4637.51
949.022	4622.14
949.327	4594.12
949.633	4566.09
949.938	4555.47
950.244	4570.61
950.549	4538.3
950.854	4512.54
951.16	4508.7
951.465	4482.03
951.77	4441.8
952.075	4415.36
952.38	4403.16
952.685	4383.05
952.99	4333.78
953.294	4329.94
953.599	4338.76
953.904	4317.97
954.209	4270.51
954.513	4273.22
954.818	4254.69
955.122	4212.43
955.426	4218.31
955.731	4205.2
956.035	4163.17
956.339	4137.41
956.643	4125.43
956.948	4146.9
957.252	4134.92
957.556	4065.99
957.86	4064.19
958.163	4063.06
958.467	4030.97
958.771	4005.66
959.075	4026
959.378	3980.57
959.682	3978.09
959.985	3948.94
960.289	3927.24
960.592	3934.92
960.896	3956.39
961.199	3924.98
961.502	3880.69
961.805	3867.36
962.108	3843.4
962.411	3846.11
962.714	3859.9
963.017	3781.26
963.32	3760.24
963.623	3783.06
963.926	3719.11
964.228	3716.4
964.531	3715.27
964.833	3710.3
965.136	3690.19
965.438	3661.26
965.741	3647.47
966.043	3649.96
966.345	3613.13
966.648	3598.44
966.95	3574.26
967.252	3519.34
967.554	3562.28
967.856	3519.12
968.158	3500.59
968.46	3508.27
968.761	3531.55
969.063	3469.17
969.365	3443.86
969.666	3441.6
969.968	3407.48
970.269	3389.4
970.571	3409.97
970.872	3397.09
971.174	3389.4
971.475	3378.33
971.776	3356.86
972.077	3372
972.378	3326.13
972.679	3326.58
972.98	3288.84
973.281	3273.02
973.582	3245
973.883	3226.92
974.183	3256.52
974.484	3247.94
974.785	3223.31
975.085	3213.36
975.386	3179.46
975.686	3150.99
975.986	3161.39
976.287	3116.42
976.587	3118.45
976.887	3085.91
977.187	3077.55
977.487	3141.73
977.787	3099.69
978.087	3060.37
978.387	3040.49
978.687	3022.18
978.987	3000.94
979.286	2984.44
979.586	3035.97
979.885	2956.65
980.185	2953.93
980.484	2960.94
980.784	2928.62
981.083	2921.84
981.382	2894.95
981.682	2914.61
981.981	2866.25
982.28	2876.87
982.579	2818.12
982.878	2859.47
983.177	2831.22
983.475	2827.61
983.774	2761.17
984.073	2774.96
984.372	2736.99
984.67	2762.07
984.969	2773.37
985.267	2731.57
985.566	2732.47
985.864	2718.69
986.162	2718.01
986.461	2651.79
986.759	2660.16
987.057	2647.73
987.355	2646.37
987.653	2649.99
987.951	2631.46
988.249	2630.55
988.547	2588.07
988.844	2617.45
989.142	2565.7
989.44	2581.29
989.737	2567.73
990.035	2569.99
990.332	2532.25
990.63	2520.5
990.927	2500.61
991.224	2462.42
991.521	2514.62
991.819	2472.82
992.116	2471.23
992.413	2443.89
992.71	2409.54
993.006	2458.58
993.303	2434.17
993.6	2410.22
993.897	2419.94
994.193	2393.5
994.49	2352.14
994.787	2375.19
995.083	2342.65
995.379	2336.77
995.676	2290
995.972	2334.97
996.268	2329.54
996.565	2354.63
996.861	2270.56
997.157	2292.26
997.453	2259.71
997.749	2261.97
998.044	2240.51
998.34	2205.93
998.636	2201.86
998.932	2228.53
999.227	2217
999.523	2198.47
999.818	2184.24
1000.114	2161.64
1000.409	2150.79
1000.704	2112.15
1001	2162.99
1001.295	2138.81
1001.59	2140.4
1001.885	2106.27
1002.18	2069.44
1002.475	2095.88
1002.77	2060.62
1003.065	2048.87
1003.359	2024.24
1003.654	2035.54
1003.949	2024.47
1004.243	1979.27
1004.538	1991.7
1004.832	1989.21
1005.127	1982.89
1005.421	1996.67
1005.715	1919.84
1006.009	1957.35
1006.304	1948.08
1006.598	1911.7
1006.892	1912.61
1007.186	1912.15
1007.48	1907.86
1007.773	1891.36
1008.067	1903.11
1008.361	1869.67
1008.655	1867.86
1008.948	1837.13
1009.242	1843.23
1009.535	1816.79
1009.829	1806.39
1010.122	1789.22
1010.415	1793.96
1010.708	1758.94
1011.001	1785.38
1011.295	1771.82
1011.588	1724.36
1011.881	1721.65
1012.173	1707.86
1012.466	1708.77
1012.759	1736.79
1013.052	1705.83
1013.344	1677.81
1013.637	1671.26
1013.93	1670.35
1014.222	1657.47
1014.514	1658.37
1014.807	1668.09
1015.099	1624.03
1015.391	1607.3
1015.683	1639.62
1015.976	1625.83
1016.268	1603.23
1016.56	1580.86
1016.851	1579.05
1017.143	1565.27
1017.435	1555.1
1017.727	1559.39
1018.018	1536.57
1018.31	1516.01
1018.602	1519.4
1018.893	1502.22
1019.185	1474.65
1019.476	1478.27
1019.767	1471.03
1020.058	1484.37
1020.35	1460.64
1020.641	1446.85
1020.932	1460.64
1021.223	1418.83
1021.514	1411.6
1021.804	1399.85
1022.095	1407.08
1022.386	1405.27
1022.677	1381.32
1022.967	1386.29
1023.258	1394.65
1023.548	1350.13
1023.839	1355.56
1024.129	1354.43
1024.419	1335.45
1024.709	1303.81
1025	1303.36
1025.29	1299.06
1025.58	1295.67
1025.87	1280.53
1026.16	1273.75
1026.449	1260.87
1026.739	1259.29
1027.029	1281.21
1027.319	1236.46
1027.608	1252.74
1027.898	1256.13
1028.187	1236.01
1028.477	1232.62
1028.766	1207.76
1029.055	1203.7
1029.344	1175.22
1029.634	1193.08
1029.923	1177.03
1030.212	1197.82
1030.501	1144.94
1030.79	1176.35
1031.078	1152.85
1031.367	1139.07
1031.656	1158.73
1031.945	1137.71
1032.233	1109.46
1032.522	1076.69
1032.81	1108.78
1033.099	1082.12
1033.387	1082.34
1033.675	1064.49
1033.963	1069.24
1034.251	1049.35
1034.54	1090.25
1034.828	1035.34
1035.116	1045.06
1035.403	1029.92
1035.691	1021.56
1035.979	1028.56
1036.267	1055
1036.554	1036.47
1036.842	1023.59
1037.129	981.1
1037.417	996.47
1037.704	986.75
1037.992	997.6
1038.279	963.93
1038.566	969.81
1038.853	969.81
1039.14	969.81
