Data from hue_200_FLMS001491_00072.txt Node
Date: Tue Feb 07 16:43:54 GMT 2017
User: dcchb
Spectrometer: FLMS00149
Trigger mode: 0
Integration Time (sec): 2.000000E-2
Scans to average: 10
Electric dark correction enabled: true
Nonlinearity correction enabled: false
Boxcar width: 0
XAxis mode: Wavelengths
Number of Pixels in Spectrum: 2048
>>>>>Begin Spectral Data<<<<<
341.393	0.44
341.776	0.44
342.16	0.44
342.543	-65.1
342.927	-53.35
343.31	-63.52
343.693	-48.6
344.077	-40.01
344.46	-68.03
344.843	-54.48
345.226	-51.99
345.61	-35.95
345.993	-16.96
346.376	11.29
346.759	2.92
347.142	25.97
347.525	33.43
347.908	45.63
348.291	70.72
348.674	92.19
349.057	97.38
349.44	132.19
349.823	157.27
350.206	182.58
350.588	210.6
350.971	211.73
351.354	234.78
351.737	254.67
352.119	252.63
352.502	256.7
352.884	280.43
353.267	281.79
353.65	293.31
354.032	294.89
354.414	332.41
354.797	339.64
355.179	337.83
355.562	338.73
355.944	332.86
356.326	334.44
356.709	340.09
357.091	345.97
357.473	332.18
357.855	345.97
358.238	340.09
358.62	364.27
359.002	362.46
359.384	328.56
359.766	353.87
360.148	325.4
360.53	341.22
360.912	351.62
361.294	322.01
361.676	333.99
362.057	331.95
362.439	345.06
362.821	350.94
363.203	336.25
363.584	320.66
363.966	328.34
364.348	330.15
364.729	322.24
365.111	315.23
365.493	326.98
365.874	314.78
366.256	302.58
366.637	314.33
367.019	297.61
367.4	324.05
367.781	322.24
368.163	311.16
368.544	314.78
368.925	304.38
369.306	321.11
369.688	334.89
370.069	306.19
370.45	315.01
370.831	312.07
371.212	301.45
371.593	301.45
371.974	306.64
372.355	334.21
372.736	326.3
373.117	323.14
373.498	301.22
373.879	332.41
374.26	315.91
374.641	323.37
375.021	327.43
375.402	308.9
375.783	329.92
376.163	336.25
376.544	338.73
376.925	348
377.305	338.06
377.686	318.85
378.066	325.85
378.447	325.18
378.827	359.3
379.208	333.08
379.588	333.54
379.968	345.06
380.349	341.9
380.729	335.34
381.109	335.57
381.489	335.8
381.87	331.5
382.25	338.06
382.63	358.17
383.01	341.9
383.39	324.27
383.77	352.07
384.15	363.82
384.53	315.01
384.91	336.47
385.29	359.52
385.67	359.98
386.049	359.07
386.429	358.62
386.809	353.87
387.189	358.39
387.568	365.4
387.948	353.42
388.328	347.1
388.707	355.23
389.087	369.92
389.466	358.62
389.846	367.89
390.225	402.69
390.605	381.9
390.984	367.89
391.363	363.59
391.743	379.64
392.122	374.21
392.501	374.67
392.881	388.22
393.26	405.85
393.639	369.69
394.018	386.42
394.397	385.74
394.776	372.63
395.155	393.2
395.534	413.08
395.913	381.67
396.292	384.38
396.671	385.74
397.05	400.43
397.429	401.33
397.808	396.36
398.186	397.94
398.565	417.6
398.944	422.12
399.323	416.02
399.701	413.08
400.08	403.82
400.458	453.99
400.837	439.3
401.215	429.13
401.594	419.18
401.972	420.54
402.351	434.1
402.729	426.64
403.107	436.13
403.486	438.62
403.864	422.57
404.242	434.1
404.62	474.1
404.999	447.43
405.377	447.88
405.755	466.41
406.133	471.39
406.511	480.43
406.889	454.44
407.267	498.28
407.645	507.32
408.023	486.53
408.401	519.29
408.779	478.84
409.156	513.64
409.534	526.3
409.912	510.93
410.29	521.1
410.667	531.72
411.045	568.11
411.422	550.93
411.8	570.14
412.178	594.09
412.555	584.38
412.933	593.87
413.31	598.16
413.687	601.55
414.065	649.23
414.442	659.18
414.819	621.66
415.197	654.43
415.574	661.21
415.951	670.7
416.328	705.28
416.705	694.2
417.082	706.18
417.46	701.66
417.837	716.8
418.214	711.15
418.591	741.21
418.967	754.99
419.344	766.07
419.721	763.13
420.098	776.69
420.475	801.77
420.852	812.85
421.228	823.47
421.605	811.04
421.982	865.73
422.358	876.8
422.735	875.67
423.111	911.15
423.488	923.35
423.864	906.63
424.241	942.33
424.617	967.19
424.994	971.49
425.37	978.49
425.746	1022.11
426.123	1003.58
426.499	1036.12
426.875	1023.24
427.251	1049
427.627	1094.65
428.003	1102.33
428.379	1103.46
428.756	1119.28
429.132	1154.53
429.507	1134.87
429.883	1159.73
430.259	1189.33
430.635	1178.49
431.011	1206.06
431.387	1208.99
431.763	1241.76
432.138	1258.71
432.514	1310.01
432.89	1314.08
433.265	1331.48
433.641	1358.37
434.016	1379.38
434.392	1390.91
434.767	1417.35
435.143	1436.78
435.518	1442.66
435.894	1504.58
436.269	1536.89
436.644	1563.79
437.02	1613.05
437.395	1588.64
437.77	1620.28
438.145	1652.82
438.52	1690.56
438.895	1718.81
439.271	1710.68
439.646	1771.24
440.021	1810.79
440.395	1823.21
440.77	1820.05
441.145	1838.36
441.52	1889.88
441.895	1867.73
442.27	1933.95
442.645	1958.35
443.019	1984.57
443.394	1978.92
443.769	2017.11
444.143	2023.21
444.518	2017.11
444.892	2064.34
445.267	2078.35
445.641	2084
446.016	2103.66
446.39	2162.41
446.764	2188.85
447.139	2143.43
447.513	2199.02
447.887	2191.57
448.262	2217.33
448.636	2238.35
449.01	2237.44
449.384	2306.59
449.758	2283.32
450.132	2305.46
450.506	2348.4
450.88	2368.74
451.254	2380.04
451.628	2400.37
452.002	2443.99
452.376	2441.96
452.75	2457.32
453.123	2487.6
453.497	2540.71
453.871	2549.3
454.244	2601.73
454.618	2622.97
454.992	2680.82
455.365	2690.31
455.739	2746.81
456.112	2780.7
456.486	2766.92
456.859	2764.43
457.232	2862.28
457.606	2860.02
457.979	2895.73
458.352	2940.02
458.725	2966.69
459.099	2983.64
459.472	3025.22
459.845	3054.14
460.218	3088.27
460.591	3103.86
460.964	3151.77
461.337	3219.34
461.71	3264.53
462.083	3279.9
462.456	3316.96
462.829	3342.04
463.201	3380.91
463.574	3443.74
463.947	3456.39
464.32	3571.64
464.692	3533.9
465.065	3579.33
465.438	3682.6
465.81	3711.3
466.183	3733.67
466.555	3814.35
466.928	3855.48
467.3	3824.52
467.672	3917.62
468.045	3974.12
468.417	3981.35
468.789	4024.96
469.161	4057.51
469.534	4136.6
469.906	4222.7
470.278	4242.13
470.65	4255.02
471.022	4348.8
471.394	4424.28
471.766	4449.13
472.138	4499.98
472.51	4608
472.882	4633.08
473.253	4721.9
473.625	4779.52
473.997	4867.65
474.369	4890.7
474.74	4895.68
475.112	5022.45
475.484	5099.29
475.855	5170.92
476.227	5224.71
476.598	5339.73
476.97	5402.33
477.341	5496.34
477.713	5550.57
478.084	5603.45
478.455	5707.41
478.827	5829.66
479.198	5967.51
479.569	5940.39
479.94	6100.16
480.311	6138.13
480.682	6265.13
481.053	6410.89
481.424	6471
481.795	6511
482.166	6570.89
482.537	6678.23
482.908	6785.57
483.279	6822.41
483.65	7017.65
484.021	7129.97
484.391	7146.46
484.762	7262.39
485.133	7275.05
485.503	7360.47
485.874	7460.13
486.244	7563.85
486.615	7700.8
486.985	7781.02
487.356	7969.95
487.726	7910.29
488.097	8103.28
488.467	8094.24
488.837	8226.21
489.207	8342.37
489.578	8410.16
489.948	8471.4
490.318	8601.57
490.688	8642.92
491.058	8771.28
491.428	8792.52
491.798	8922.46
492.168	9030.03
492.538	9071.61
492.908	9176.24
493.278	9300.31
493.648	9231.83
494.017	9384.15
494.387	9419.63
494.757	9522.22
495.126	9511.83
495.496	9535.1
495.866	9632.73
496.235	9753.63
496.605	9794.76
496.974	9783.91
497.344	9927.63
497.713	9840.86
498.082	9965.83
498.452	10015.99
498.821	10073.17
499.19	10112.26
499.559	10190
499.928	10191.36
500.298	10246.5
500.667	10322.88
501.036	10295.31
501.405	10435.64
501.774	10299.38
502.143	10412.14
502.512	10439.26
502.88	10493.72
503.249	10488.75
503.618	10566.04
503.987	10608.97
504.356	10646.26
504.724	10644.23
505.093	10620.72
505.462	10709.08
505.83	10762.87
506.199	10778.01
506.567	10920.38
506.936	10900.72
507.304	10895.74
507.672	10946.82
508.041	10945.69
508.409	10928.74
508.777	11024.1
509.145	11127.6
509.514	11055.97
509.882	11087.83
510.25	11122.41
510.618	11104.55
510.986	11076.98
511.354	11126.02
511.722	11210.09
512.09	11310.2
512.458	11211.44
512.826	11348.61
513.193	11293.93
513.561	11318.78
513.929	11365.11
514.297	11365.79
514.664	11385.45
515.032	11383.42
515.4	11428.84
515.767	11438.33
516.135	11466.8
516.502	11382.06
516.869	11570.98
517.237	11513.36
517.604	11468.16
517.972	11526.69
518.339	11530.53
518.706	11508.84
519.073	11535.73
519.44	11494.6
519.808	11618.66
520.175	11481.04
520.542	11662.73
520.909	11606.46
521.276	11582.28
521.643	11620.02
522.009	11633.13
522.376	11793.8
522.743	11747.93
523.11	11715.84
523.477	11756.51
523.843	11779.79
524.21	11777.3
524.577	11832.9
524.943	11850.97
525.31	11796.06
525.676	11873.12
526.043	11815.49
526.409	11837.19
526.776	11866.57
527.142	11782.5
527.508	11854.59
527.874	11830.86
528.241	11798.77
528.607	11909.5
528.973	11848.04
529.339	11782.05
529.705	11835.15
530.071	11844.87
530.437	11828.6
530.803	11806.46
531.169	11769.85
531.535	11770.52
531.901	11681.94
532.267	11699.34
532.632	11652.33
532.998	11645.33
533.364	11612.79
533.73	11579.12
534.095	11631.32
534.461	11612.11
534.826	11599.68
535.192	11471.1
535.557	11583.86
535.923	11415.96
536.288	11446.24
536.653	11462.74
537.019	11310.2
537.384	11321.5
537.749	11248.96
538.114	11288.5
538.479	11190.88
538.845	11241.72
539.21	11090.54
539.575	11155.4
539.94	11039.24
540.305	11020.94
540.67	10969.64
541.034	10952.24
541.399	10854.84
541.764	10841.06
542.129	10823.43
542.494	10810.1
542.858	10753.6
543.223	10697.11
543.587	10659.59
543.952	10614.85
544.316	10524.68
544.681	10525.13
545.045	10560.39
545.41	10473.16
545.774	10420.73
546.138	10385.02
546.503	10355.65
546.867	10218.7
547.231	10224.58
547.595	10204.01
547.959	10122.43
548.324	10131.92
548.688	10051.02
549.052	10039.5
549.416	9998.37
549.779	9952.72
550.143	9887.86
550.507	9952.94
550.871	9804.02
551.235	9761.54
551.599	9739.62
551.962	9717.92
552.326	9637.25
552.689	9651.71
553.053	9509.79
553.417	9495.56
553.78	9548.44
554.143	9526.74
554.507	9456.69
554.87	9396.12
555.234	9371.72
555.597	9326.75
555.96	9321.55
556.323	9358.16
556.686	9319.97
557.05	9296.01
557.413	9299.18
557.776	9265.73
558.139	9208.33
558.502	9169.01
558.865	9217.14
559.228	9150.03
559.59	9203.13
559.953	9187.99
560.316	9158.39
560.679	9066.41
561.041	9063.7
561.404	9079.52
561.767	9096.7
562.129	9089.92
562.492	9066.19
562.854	9116.36
563.217	9031.39
563.579	8991.39
563.941	9019.64
564.304	9071.16
564.666	8987.09
565.028	8960.2
565.39	8997.72
565.753	8969.47
566.115	8973.54
566.477	9014.21
566.839	8973.31
567.201	8961.33
567.563	8963.37
567.925	9019.41
568.287	8934.44
568.648	8944.38
569.01	8984.83
569.372	8923.14
569.734	8949.13
570.095	8978.96
570.457	8988.68
570.819	8940.32
571.18	8941.67
571.542	8995.46
571.903	9020.09
572.265	9067.09
572.626	8896.93
572.987	9033.42
573.349	8997.26
573.71	9015.12
574.071	9024.83
574.432	9050.6
574.794	9011.73
575.155	9019.64
575.516	8929.92
575.877	8964.04
576.238	9044.27
576.599	9012.86
576.96	8976.02
577.32	9059.86
577.681	9044.72
578.042	9049.92
578.403	9001.56
578.763	8972.86
579.124	8986.87
579.485	9041.33
579.845	9056.02
580.206	8940.32
580.566	9010.14
580.927	8976.92
581.287	8950.71
581.648	8941.22
582.008	8992.52
582.368	8947.32
582.728	8990.94
583.089	8934.44
583.449	8930.15
583.809	8916.81
584.169	8963.82
584.529	8910.03
584.889	8962.91
585.249	8861.67
585.609	8827.32
585.969	8945.74
586.329	8965.85
586.688	8928.34
587.048	8921.33
587.408	8912.07
587.768	8879.53
588.127	8851.5
588.487	8825.74
588.846	8863.71
589.206	8888.11
589.565	8870.26
589.925	8896.02
590.284	8822.8
590.643	8818.06
591.003	8874.78
591.362	8821.22
591.721	8808.12
592.08	8802.69
592.44	8839.08
592.799	8837.95
593.158	8817.16
593.517	8809.47
593.876	8784.16
594.235	8786.2
594.593	8725.18
594.952	8709.14
595.311	8700.1
595.67	8734.45
596.029	8809.25
596.387	8837.04
596.746	8793.2
597.104	8739.42
597.463	8677.27
597.822	8750.94
598.18	8728.8
598.538	8750.49
598.897	8737.16
599.255	8661
599.613	8859.64
599.972	8755.01
600.33	8763.6
600.688	8722.69
601.046	8722.24
601.404	8767.21
601.762	8696.93
602.12	8744.61
602.478	8693.09
602.836	8739.87
603.194	8633.43
603.552	8704.39
603.91	8611.28
604.268	8665.29
604.625	8644.5
604.983	8653.77
605.341	8603.15
605.698	8730.15
606.056	8722.92
606.413	8690.15
606.771	8745.07
607.128	8723.6
607.485	8613.54
607.843	8692.19
608.2	8713.2
608.557	8724.5
608.914	8741.9
609.272	8757.5
609.629	8773.77
609.986	8744.61
610.343	8693.32
610.7	8763.82
611.057	8741.22
611.414	8718.63
611.771	8709.81
612.127	8739.64
612.484	8726.54
612.841	8788.23
613.198	8750.04
613.554	8745.97
613.911	8723.6
614.267	8783.94
614.624	8814.44
614.98	8697.16
615.337	8773.99
615.693	8793.2
616.05	8784.61
616.406	8825.52
616.762	8775.12
617.118	8773.77
617.475	8845.18
617.831	8845.18
618.187	8832.07
618.543	8767.44
618.899	8827.78
619.255	8872.29
619.611	8855.35
619.967	8882.92
620.323	8855.8
620.678	8889.7
621.034	8840.21
621.39	8859.19
621.746	8864.16
622.101	8924.27
622.457	8803.82
622.812	8816.03
623.168	8901.67
623.523	8868.23
623.879	8918.62
624.234	8851.5
624.589	8773.77
624.945	8822.13
625.3	8857.15
625.655	8844.73
626.01	8835.69
626.365	8821.22
626.72	8804.73
627.075	8842.47
627.43	8715.24
627.785	8760.21
628.14	8838.62
628.495	8815.35
628.85	8764.5
629.205	8764.95
629.559	8843.6
629.914	8775.12
630.269	8792.98
630.623	8744.61
630.978	8741.68
631.332	8800.66
631.687	8761.11
632.041	8704.16
632.396	8747.1
632.75	8688.57
633.104	8717.5
633.459	8673.88
633.813	8668.46
634.167	8678.63
634.521	8630.27
634.875	8668.01
635.229	8627.1
635.583	8588.23
635.937	8595.01
636.291	8543.94
636.645	8606.77
636.999	8566.31
637.352	8562.02
637.706	8496.03
638.06	8595.69
638.413	8522.47
638.767	8460.55
639.121	8528.35
639.474	8501.01
639.828	8494.45
640.181	8500.55
640.534	8454.45
640.888	8463.94
641.241	8413.55
641.594	8528.58
641.947	8466.43
642.301	8403.38
642.654	8450.16
643.007	8455.13
643.36	8430.27
643.713	8422.36
644.066	8469.14
644.419	8383.27
644.771	8332.42
645.124	8292.88
645.477	8292.88
645.83	8217.4
646.182	8207.23
646.535	8179.21
646.888	8151.86
647.24	8121.35
647.593	8145.53
647.945	8115.48
648.298	8064.63
648.65	8124.52
649.002	8087.91
649.355	8142.37
649.707	8107.34
650.059	8164.29
650.411	8234.8
650.763	8282.93
651.115	8327
651.467	8270.05
651.819	8328.58
652.171	8333.55
652.523	8321.35
652.875	8298.75
653.227	8263.5
653.578	8377.17
653.93	8311.18
654.282	8284.51
654.633	8272.99
654.985	8333.55
655.337	8295.36
655.688	8325.64
656.039	8359.99
656.391	8294.46
656.742	8250.39
657.094	8358.41
657.445	8340.78
657.796	8311.86
658.147	8280.45
658.498	8330.61
658.849	8362.03
659.2	8290.62
659.551	8357.05
659.902	8317.51
660.253	8336.04
660.604	8409.93
660.955	8267.11
661.306	8364.51
661.656	8395.7
662.007	8361.8
662.358	8396.15
662.708	8383.95
663.059	8377.39
663.409	8314.8
663.76	8389.82
664.11	8370.61
664.461	8445.41
664.811	8406.54
665.161	8420.1
665.511	8448.8
665.862	8366.77
666.212	8455.36
666.562	8375.58
666.912	8364.51
667.262	8389.37
667.612	8379.43
667.962	8373.55
668.312	8435.7
668.662	8480.21
669.011	8391.4
669.361	8374
669.711	8397.96
670.06	8408.13
670.41	8411.74
670.76	8370.84
671.109	8436.15
671.459	8309.15
671.808	8340.78
672.157	8326.32
672.507	8239.54
672.856	8340.56
673.205	8351.4
673.554	8379.65
673.904	8296.04
674.253	8408.58
674.602	8308.24
674.951	8181.69
675.3	8126.33
675.649	8319.54
675.998	8249.71
676.346	8256.72
676.695	8195.93
677.044	8211.3
677.393	8241.8
677.741	8262.14
678.09	8224.4
678.438	8191.63
678.787	8231.86
679.135	8262.59
679.484	8099.66
679.832	8216.04
680.181	8183.5
680.529	8159.32
680.877	8116.83
681.225	8157.74
681.573	8143.05
681.922	8039.55
682.27	8093.11
682.618	8033.9
682.966	8031.87
683.314	8057.4
683.661	7991.64
684.009	7975.82
684.357	7967.69
684.705	7977.86
685.053	7981.02
685.4	7931.08
685.748	7868.48
686.095	7880.68
686.443	7846.79
686.79	7842.49
687.138	7844.3
687.485	7816.5
687.832	7811.98
688.18	7816.96
688.527	7787.35
688.874	7733.34
689.221	7698.54
689.568	7670.07
689.915	7623.97
690.262	7616.51
690.609	7607.7
690.956	7571.54
691.303	7504.42
691.65	7572.89
691.997	7569.05
692.344	7463.29
692.69	7470.52
693.037	7405.67
693.383	7396.63
693.73	7391.2
694.077	7334.93
694.423	7342.62
694.769	7288.38
695.116	7279.12
695.462	7278.89
695.808	7268.04
696.155	7259.91
696.501	7194.15
696.847	7215.39
697.193	7100.36
697.539	7168.84
697.885	7091.78
698.231	7058.11
698.577	7030.54
698.923	7059.46
699.269	6975.85
699.614	6943.08
699.96	6908.5
700.306	6939.01
700.651	6900.14
700.997	6871.22
701.342	6844.55
701.688	6797.1
702.033	6807.49
702.379	6736.08
702.724	6760.49
703.069	6748.06
703.415	6689.3
703.76	6664.22
704.105	6657.89
704.45	6658.79
704.795	6657.21
705.14	6541.51
705.485	6525.46
705.83	6511.91
706.175	6516.2
706.52	6512.36
706.865	6446.6
707.209	6487.95
707.554	6423.09
707.899	6437.78
708.243	6379.25
708.588	6351.46
708.932	6331.8
709.277	6336.32
709.621	6321.4
709.966	6244.57
710.31	6298.8
710.654	6230.33
710.998	6227.17
711.342	6202.08
711.687	6214.06
712.031	6217.22
712.375	6159.82
712.719	6156.66
713.063	6198.92
713.407	6172.03
713.75	6103.1
714.094	6109.88
714.438	6116.89
714.782	6120.05
715.125	6062.2
715.469	6092.93
715.812	6045.02
716.156	6014.29
716.499	6029.21
716.843	6063.78
717.186	6021.97
717.53	6067.85
717.873	6047.51
718.216	6015.65
718.559	6012.48
718.902	5987.4
719.246	6005.48
719.589	5990.11
719.932	5963.22
720.275	5940.85
720.617	5921.64
720.96	5951.24
721.303	5938.36
721.646	5914.18
721.989	5888.42
722.331	5923.9
722.674	5941.52
723.016	5881.64
723.359	5897.91
723.701	5907.4
724.044	5845.03
724.386	5904.46
724.729	5888.42
725.071	5863.79
725.413	5867.63
725.755	5890.68
726.097	5846.61
726.439	5835.09
726.782	5817.69
727.124	5847.97
727.465	5806.39
727.807	5869.89
728.149	5847.97
728.491	5866.5
728.833	5788.76
729.175	5832.6
729.516	5799.83
729.858	5836.44
730.199	5825.82
730.541	5792.6
730.882	5802.77
731.224	5873.28
731.565	5793.05
731.906	5767.07
732.248	5826.5
732.589	5808.19
732.93	5790.57
733.271	5794.41
733.612	5811.13
733.953	5855.88
734.294	5834.41
734.635	5809.78
734.976	5828.53
735.317	5825.37
735.658	5841.41
735.999	5872.6
736.339	5841.64
736.68	5889.32
737.021	5891.36
737.361	5854.3
737.702	5873.5
738.042	5876.67
738.383	5899.49
738.723	5920.06
739.063	5962.09
739.404	5926.84
739.744	5914.86
740.084	5935.2
740.424	5938.59
740.764	5918.25
741.104	6015.19
741.444	5971.81
741.784	6003.44
742.124	6005.48
742.464	6046.83
742.804	6013.61
743.143	6096.32
743.483	6092.48
743.823	6067.4
744.162	6158.24
744.502	6190.56
744.841	6129.77
745.181	6190.33
745.52	6231.23
745.86	6308.75
746.199	6327.73
746.538	6312.36
746.877	6454.05
747.216	6441.85
747.556	6474.84
747.895	6504.45
748.234	6554.84
748.573	6601.62
748.911	6612.24
749.25	6752.8
749.589	6804.78
749.928	6861.05
750.267	6964.32
750.605	6980.37
750.944	7071.66
751.283	7103.3
751.621	7220.36
751.96	7242.51
752.298	7392.11
752.636	7539.45
752.975	7539.9
753.313	7728.82
753.651	7811.08
753.989	7861.02
754.327	7991.64
754.666	8084.75
755.004	8243.38
755.342	8386.66
755.679	8498.52
756.017	8649.25
756.355	8783.48
756.693	8957.26
757.031	9114.77
757.368	9189.35
757.706	9432.28
758.044	9413.98
758.381	9690.35
758.719	9862.78
759.056	10004.92
759.394	10174.86
759.731	10231.36
760.068	10512.93
760.405	10586.6
760.743	10771
761.08	10958.57
761.417	11197.88
761.754	11389.97
762.091	11533.69
762.428	11720.58
762.765	11914.02
763.102	12084.64
763.438	12254.8
763.775	12457.74
764.112	12649.37
764.449	12841.91
764.785	12916.93
765.122	13081.45
765.458	13229.24
765.795	13508.33
766.131	13543.13
766.467	13805.27
766.804	13836.23
767.14	14067.86
767.476	14212.72
767.812	14315.32
768.148	14555.31
768.485	14663.78
768.821	14794.17
769.157	14914.85
769.492	15084.34
769.828	15256.53
770.164	15201.85
770.5	15386.47
770.836	15513.93
771.171	15584.89
771.507	15755.96
771.842	15723.64
772.178	16011.09
772.513	16029.17
772.849	16127.25
773.184	16183.97
773.519	16314.59
773.855	16296.96
774.19	16429.84
774.525	16481.13
774.86	16658.53
775.195	16807
775.53	16821.69
775.865	16841.8
776.2	16772.43
776.535	16840.22
776.87	16979.88
777.205	17028.46
777.539	17019.88
777.874	17148.91
778.209	17076.15
778.543	17093.32
778.878	17134
779.212	17176.71
779.547	17197.05
779.881	17397.49
780.215	17274.33
780.55	17452.63
780.884	17293.09
781.218	17420.09
781.552	17401.34
781.886	17376.25
782.22	17410.83
782.554	17434.1
782.888	17313.88
783.222	17305.75
783.556	17311.17
783.889	17390.49
784.223	17309.81
784.557	17310.27
784.89	17383.03
785.224	17390.94
785.557	17312.07
785.891	17370.38
786.224	17326.31
786.558	17404.73
786.891	17225.3
787.224	17289.7
787.557	17232.3
787.891	17277.27
788.224	17254.45
788.557	17240.66
788.89	17208.57
789.223	17204.28
789.556	17178.29
789.888	17233.43
790.221	17146.43
790.554	17043.61
790.887	17123.83
791.219	16951.4
791.552	16994.12
791.884	16949.82
792.217	17024.62
792.549	16955.47
792.882	16871.18
793.214	16874.8
793.546	16926.77
793.879	16684.97
794.211	16779.43
794.543	16858.98
794.875	16738.53
795.207	16846.77
795.539	16694.01
795.871	16751.64
796.203	16550.29
796.535	16551.64
796.867	16493.34
797.198	16508.7
797.53	16487.01
797.862	16358.2
798.193	16451.08
798.525	16340.35
798.856	16335.83
799.188	16223.51
799.519	16257.86
799.85	16095.83
800.182	16154.82
800.513	16207.47
800.844	16104.87
801.175	16101.03
801.506	16093.35
801.837	16067.59
802.168	16019.9
802.499	15882.73
802.83	15931.09
803.161	15887.25
803.491	15957.76
803.822	15809.97
804.153	15796.63
804.483	15665.34
804.814	15599.8
805.145	15666.24
805.475	15635.28
805.805	15586.92
806.136	15586.02
806.466	15572.01
806.796	15531.78
807.126	15477.77
807.457	15436.64
807.787	15533.59
808.117	15322.29
808.447	15372.01
808.777	15397.1
809.107	15263.31
809.436	15294.5
809.766	15259.47
810.096	15195.29
810.426	15142.19
810.755	15137.44
811.085	15099.93
811.414	15059.93
811.744	15011.79
812.073	14981.06
812.403	14977.22
812.732	15008.4
813.061	14948.29
813.39	14842.08
813.719	14855.87
814.049	14928.63
814.378	14882.76
814.707	14776.09
815.036	14822.42
815.365	14706.27
815.693	14555.76
816.022	14717.11
816.351	14611.58
816.68	14529.77
817.008	14595.31
817.337	14466.95
817.665	14396.22
817.994	14535.87
818.322	14482.54
818.651	14359.16
818.979	14383.56
819.307	14411.58
819.636	14417.91
819.964	14278.03
820.292	14302.89
820.62	14256.11
820.948	14220.18
821.276	14385.6
821.604	14284.13
821.932	14290.23
822.259	14337.91
822.587	14301.98
822.915	14259.95
823.243	14321.19
823.57	14271.7
823.898	14249.1
824.225	14188.54
824.553	14290.46
824.88	14253.62
825.207	14316.45
825.535	14256.33
825.862	14234.87
826.189	14247.07
826.516	14378.14
826.843	14379.95
827.17	14309.21
827.497	14288.88
827.824	14317.58
828.151	14369.1
828.478	14409.32
828.805	14418.36
829.131	14367.74
829.458	14363.9
829.785	14312.38
830.111	14288.65
830.438	14301.76
830.764	14257.01
831.09	14344.69
831.417	14297.92
831.743	14385.6
832.069	14296.33
832.395	14393.51
832.722	14250.91
833.048	14228.31
833.374	14283
833.7	14225.15
834.026	14196.9
834.351	14278.48
834.677	14244.58
835.003	14207.75
835.329	14244.13
835.654	14133.85
835.98	14090.24
836.306	14117.35
836.631	14155.09
836.956	14142.44
837.282	14152.61
837.607	14071.03
837.932	14012.72
838.258	14070.8
838.583	14074.64
838.908	13976.12
839.233	14055.89
839.558	13934.99
839.883	13854.76
840.208	13935.44
840.533	13892.05
840.858	13796.91
841.182	13898.38
841.507	13888.21
841.832	13689.8
842.156	13778.38
842.481	13712.85
842.805	13741.32
843.13	13718.72
843.454	13679.17
843.778	13600.76
844.103	13619.06
844.427	13523.92
844.751	13545.17
845.075	13444.83
845.399	13461.1
845.723	13349.01
846.047	13446.19
846.371	13286.19
846.695	13303.82
847.019	13221.79
847.343	13115.57
847.666	13133.43
847.99	13037.16
848.313	13024.5
848.637	12970.94
848.96	12889.82
849.284	12829.03
849.607	12773.66
849.931	12670.16
850.254	12658.86
850.577	12694.79
850.9	12565.76
851.223	12519.88
851.546	12469.26
851.869	12379.1
852.192	12494.12
852.515	12328.48
852.838	12281.02
853.161	12283.73
853.483	12204.64
853.806	12147.24
854.129	12129.84
854.451	12079.67
854.774	12014.81
855.096	11966.68
855.419	11982.5
855.741	11958.09
856.063	11876.96
856.385	11874.93
856.708	11835.15
857.03	11738.66
857.352	11814.82
857.674	11775.95
857.996	11695.72
858.318	11632.67
858.64	11646.01
858.961	11623.86
859.283	11573.69
859.605	11460.93
859.926	11544.32
860.248	11487.14
860.57	11457.99
860.891	11451.66
861.212	11393.13
861.534	11281.5
861.855	11339.12
862.176	11368.5
862.498	11320.14
862.819	11231.78
863.14	11251.22
863.461	11255.96
863.782	11199.01
864.103	11230.2
864.424	11143.87
864.745	11102.29
865.065	11108.62
865.386	11121.28
865.707	11112.01
866.027	11100.48
866.348	11056.87
866.668	10957.44
866.989	10975.74
867.309	10972.35
867.63	10987.27
867.95	10994.27
868.27	10871.79
868.59	10898.23
868.91	10883.99
869.23	10906.37
869.55	10777.1
869.87	10897.33
870.19	10807.39
870.51	10817.1
870.83	10828.63
871.15	10784.34
871.469	10761.06
871.789	10802.19
872.109	10813.49
872.428	10705.02
872.748	10673.15
873.067	10719.03
873.386	10725.58
873.706	10699.14
874.025	10638.58
874.344	10536.43
874.663	10653.94
874.982	10591.57
875.301	10510.9
875.62	10587.96
875.939	10548.18
876.258	10548.41
876.577	10459.15
876.896	10510.44
877.214	10431.58
877.533	10470.67
877.852	10413.95
878.17	10404.46
878.489	10402.65
878.807	10336.44
879.125	10346.83
879.444	10387.74
879.762	10313.39
880.08	10348.87
880.398	10275.42
880.716	10251.02
881.034	10206.95
881.352	10261.41
881.67	10251.69
881.988	10215.99
882.306	10199.04
882.624	10094.86
882.941	10128.76
883.259	10113.39
883.577	10121.08
883.894	10030.91
884.212	10096.9
884.529	10048.08
884.846	9970.8
885.164	9961.08
885.481	9899.39
885.798	9947.75
886.115	9815.77
886.432	9870.69
886.75	9805.6
887.067	9851.03
887.383	9807.19
887.7	9831.82
888.017	9713.85
888.334	9716.57
888.651	9702.33
888.967	9616.68
889.284	9656
889.6	9549.79
889.917	9573.29
890.233	9513.41
890.55	9518.15
890.866	9434.77
891.182	9488.1
891.498	9435.22
891.815	9405.61
892.131	9390.02
892.447	9364.94
892.763	9298.95
893.079	9301.89
893.395	9262.12
893.71	9257.14
894.026	9217.14
894.342	9204.26
894.657	9138.5
894.973	9098.5
895.289	9103.48
895.604	9053.76
895.92	9026.87
896.235	9006.98
896.55	8947.55
896.865	8911.62
897.181	8918.62
897.496	8894.89
897.811	8853.09
898.126	8839.75
898.441	8745.97
898.756	8721.11
899.071	8710.49
899.386	8682.7
899.7	8626.43
900.015	8631.85
900.33	8549.82
900.644	8541.68
900.959	8548.46
901.273	8411.29
901.588	8518.63
901.902	8447.22
902.216	8455.58
902.531	8355.02
902.845	8394.34
903.159	8304.4
903.473	8254.01
903.787	8323.61
904.101	8190.5
904.415	8256.49
904.729	8212.2
905.042	8093.33
905.356	8115.48
905.67	8047.91
905.984	8064.63
906.297	8058.76
906.611	7971.75
906.924	7953.9
907.237	7938.53
907.551	7914.81
907.864	7882.72
908.177	7782.38
908.491	7780.35
908.804	7778.09
909.117	7716.17
909.43	7746.9
909.743	7598.2
910.056	7675.72
910.368	7627.81
910.681	7606.11
910.994	7578.77
911.307	7509.39
911.619	7440.24
911.932	7487.02
912.244	7437.76
912.557	7364.31
912.869	7381.49
913.181	7322.28
913.494	7287.48
913.806	7249.74
914.118	7214.49
914.43	7237.54
914.742	7160.02
915.054	7126.58
915.366	7133.81
915.678	7089.97
915.99	7058.78
916.302	7017.43
916.613	6957.32
916.925	6978.33
917.236	6926.81
917.548	6875.29
917.859	6896.53
918.171	6844.78
918.482	6760.71
918.794	6822.18
919.105	6775.85
919.416	6780.6
919.727	6672.8
920.038	6716.65
920.349	6630.55
920.66	6634.84
920.971	6597.78
921.282	6584.22
921.593	6527.72
921.903	6499.7
922.214	6499.25
922.525	6505.35
922.835	6456.99
923.146	6403.43
923.456	6393.94
923.767	6383.77
924.077	6358.24
924.387	6297.67
924.697	6308.29
925.008	6237.11
925.318	6237.11
925.628	6200.05
925.938	6224
926.248	6176.32
926.558	6163.89
926.867	6181.74
927.177	6142.42
927.487	6120.73
927.796	5976.55
928.106	6000.73
928.416	5998.25
928.725	5994.18
929.034	6005.48
929.344	5902.66
929.653	5952.82
929.962	5891.13
930.271	5851.58
930.581	5781.75
930.89	5779.49
931.199	5774.52
931.508	5774.98
931.817	5759.61
932.125	5742.89
932.434	5684.81
932.743	5661.08
933.051	5634.64
933.36	5614.98
933.669	5561.87
933.977	5556.22
934.286	5573.62
934.594	5556.68
934.902	5513.51
935.21	5485.27
935.519	5456.79
935.827	5452.5
936.135	5401.88
936.443	5389.22
936.751	5339.28
937.059	5356.91
937.367	5349.9
937.674	5341.99
937.982	5297.02
938.29	5269.23
938.597	5305.84
938.905	5182
939.213	5221.54
939.52	5158.04
939.827	5172.28
940.135	5078.72
940.442	5165.95
940.749	5121.66
941.056	5085.05
941.363	5030.36
941.67	4997.37
941.977	4993.3
942.284	4976.8
942.591	4953.3
942.898	4900.2
943.205	4919.63
943.511	4898.39
943.818	4892.51
944.125	4836.24
944.431	4803.7
944.738	4820.65
945.044	4785.85
945.35	4753.99
945.657	4715.34
945.963	4734.78
946.269	4758.96
946.575	4670.15
946.881	4643.25
947.187	4701.33
947.493	4666.76
947.799	4547.44
948.105	4577.72
948.41	4557.38
948.716	4546.08
949.022	4537.72
949.327	4496.59
949.633	4498.17
949.938	4450.04
950.244	4497.04
950.549	4472.41
950.854	4421.11
951.16	4391.28
951.465	4372.98
951.77	4388.12
952.075	4355.8
952.38	4359.87
952.685	4292.53
952.99	4279.87
953.294	4243.72
953.599	4218.18
953.904	4248.91
954.209	4165.75
954.513	4212.53
954.818	4165.75
955.122	4180.89
955.426	4186.32
955.731	4165.3
956.035	4125.08
956.339	4098.18
956.643	4079.2
956.948	4064.29
957.252	4039.43
957.556	4050.73
957.86	4007.79
958.163	3994.23
958.467	3946.77
958.771	3970.5
959.075	3991.52
959.378	3924.85
959.682	3923.27
959.985	3902.03
960.289	3875.14
960.592	3890.96
960.896	3843.05
961.199	3806.44
961.502	3828.36
961.805	3794.24
962.108	3746.55
962.411	3771.86
962.714	3740
963.017	3752.43
963.32	3695.71
963.623	3707.91
963.926	3649.83
964.228	3620
964.531	3585.2
964.833	3630.85
965.136	3596.5
965.438	3621.59
965.741	3594.24
966.043	3548.82
966.345	3567.8
966.648	3509.72
966.95	3493
967.252	3502.27
967.554	3478.31
967.856	3455.94
968.158	3447.13
968.46	3433.34
968.761	3432.66
969.063	3426.56
969.365	3399.44
969.666	3404.42
969.968	3386.11
970.269	3343.85
970.571	3324.87
970.872	3318.32
971.174	3304.76
971.475	3304.08
971.776	3260.24
972.077	3282.16
972.378	3281.93
972.679	3246.91
972.98	3218.66
973.281	3209.17
973.582	3210.75
973.883	3166.68
974.183	3169.17
974.484	3208.26
974.785	3154.48
975.085	3139.34
975.386	3161.94
975.686	3095.5
975.986	3105.67
976.287	3052.56
976.587	3054.82
976.887	3055.5
977.187	3037.87
977.487	3017.53
977.787	2982.05
978.087	2977.76
978.387	2974.82
978.687	2989.96
978.987	2918.1
979.286	2954.48
979.586	2948.61
979.885	2952.9
980.185	2918.1
980.484	2886.92
980.784	2847.82
981.083	2891.21
981.382	2840.82
981.682	2823.64
981.981	2834.71
982.28	2837.88
982.579	2789.07
982.878	2787.94
983.177	2771.66
983.475	2754.49
983.774	2741.61
984.073	2740.25
984.372	2722.17
984.67	2709.75
984.969	2720.37
985.267	2687.37
985.566	2672.68
985.864	2671.78
986.162	2633.14
986.461	2654.61
986.759	2625
987.057	2615.96
987.355	2598.79
987.653	2586.58
987.951	2595.4
988.249	2585.23
988.547	2570.54
988.844	2558.11
989.142	2567.6
989.44	2502.97
989.737	2498.45
990.035	2511.56
990.332	2479.92
990.63	2465.91
990.927	2467.27
991.224	2479.92
991.521	2453.93
991.819	2432.24
992.116	2423.2
992.413	2402.18
992.71	2392.92
993.006	2397.44
993.303	2375.52
993.6	2394.27
993.897	2357.44
994.193	2332.35
994.49	2335.29
994.787	2297.55
995.083	2293.71
995.379	2302.75
995.676	2278.57
995.972	2272.02
996.268	2271.34
996.565	2268.17
996.861	2258.68
997.157	2227.5
997.453	2255.52
997.749	2234.73
998.044	2186.14
998.34	2215.52
998.636	2191.57
998.932	2157.22
999.227	2152.02
999.523	2130.33
999.818	2123.09
1000.114	2124.9
1000.409	2092.13
1000.704	2118.35
1001	2086.71
1001.295	2069.99
1001.59	2079.03
1001.885	2045.36
1002.18	2052.59
1002.475	2029.99
1002.77	2041.97
1003.065	2006.49
1003.359	2022.98
1003.654	2013.72
1003.949	1992.02
1004.243	1942.76
1004.538	1978.69
1004.832	1982.76
1005.127	1946.15
1005.421	1940.5
1005.715	1911.8
1006.009	1890.56
1006.304	1868.86
1006.598	1904.79
1006.892	1897.79
1007.186	1865.25
1007.48	1846.72
1007.773	1841.07
1008.067	1829.32
1008.361	1837.68
1008.655	1811.01
1008.948	1777.11
1009.242	1774.85
1009.535	1788.19
1009.829	1741.41
1010.122	1729.66
1010.415	1736.21
1010.708	1726.95
1011.001	1728.3
1011.295	1731.92
1011.588	1693.5
1011.881	1687.63
1012.173	1716.32
1012.466	1657.12
1012.759	1644.69
1013.052	1680.85
1013.344	1633.62
1013.637	1657.12
1013.93	1622.54
1014.222	1632.94
1014.514	1612.15
1014.807	1582.54
1015.099	1574.18
1015.391	1571.92
1015.683	1569.89
1015.976	1569.66
1016.268	1553.17
1016.56	1545.93
1016.851	1520.17
1017.143	1522.43
1017.435	1518.36
1017.727	1491.92
1018.018	1509.32
1018.31	1497.57
1018.602	1504.58
1018.893	1490.57
1019.185	1471.36
1019.476	1442.66
1019.767	1449.67
1020.058	1431.81
1020.35	1432.49
1020.641	1419.61
1020.932	1397.01
1021.223	1401.08
1021.514	1393.62
1021.804	1382.32
1022.095	1377.8
1022.386	1370.12
1022.677	1354.07
1022.967	1359.72
1023.258	1346.39
1023.548	1335.32
1023.839	1328.54
1024.129	1280.86
1024.419	1300.52
1024.709	1288.31
1025	1274.3
1025.29	1273.17
1025.58	1269.33
1025.87	1281.99
1026.16	1229.33
1026.449	1239.73
1026.739	1254.19
1027.029	1228.43
1027.319	1210.58
1027.608	1221.65
1027.898	1241.54
1028.187	1203.57
1028.477	1192.27
1028.766	1203.8
1029.055	1167.86
1029.344	1175.77
1029.634	1160.18
1029.923	1175.1
1030.212	1142.33
1030.501	1145.04
1030.79	1143.23
1031.078	1116.57
1031.367	1100.52
1031.656	1119.05
1031.945	1089
1032.233	1103.46
1032.522	1092.16
1032.81	1066.62
1033.099	1088.77
1033.387	1103.91
1033.675	1083.8
1033.963	1048.77
1034.251	1056.91
1034.54	1026.4
1034.828	1040.18
1035.116	1043.57
1035.403	1006.29
1035.691	1032.73
1035.979	1030.47
1036.267	1009.9
1036.554	1023.91
1036.842	982.56
1037.129	979.4
1037.417	975.1
1037.704	997.47
1037.992	983.01
1038.279	985.04
1038.566	928.32
1038.853	928.32
1039.14	928.32
