Data from hue_100_FLMS001491_00054.txt Node
Date: Tue Feb 07 17:03:22 GMT 2017
User: dcchb
Spectrometer: FLMS00149
Trigger mode: 0
Integration Time (sec): 2.000000E-2
Scans to average: 10
Electric dark correction enabled: true
Nonlinearity correction enabled: false
Boxcar width: 0
XAxis mode: Wavelengths
Number of Pixels in Spectrum: 2048
>>>>>Begin Spectral Data<<<<<
341.393	16.06
341.776	16.06
342.16	16.06
342.543	-62.36
342.927	-66.65
343.31	-69.81
343.693	-70.49
344.077	-49.48
344.46	-54.9
344.843	-49.7
345.226	-30.04
345.61	-37.27
345.993	-11.74
346.376	-18.74
346.759	-17.84
347.142	55.83
347.525	52.89
347.908	43.63
348.291	71.65
348.674	70.97
349.057	115.04
349.44	122.27
349.823	140.12
350.206	162.72
350.588	191.65
350.971	209.27
351.354	214.92
351.737	224.42
352.119	254.24
352.502	270.52
352.884	276.84
353.267	298.99
353.65	317.07
354.032	285.88
354.414	313.45
354.797	307.12
355.179	318.88
355.562	300.57
355.944	350.29
356.326	318.88
356.709	329.27
357.091	327.46
357.473	328.37
357.855	321.59
358.238	334.69
358.62	347.12
359.002	332.66
359.384	340.57
359.766	343.06
360.148	335.82
360.53	343.51
360.912	349.16
361.294	330.63
361.676	322.49
362.057	335.15
362.439	345.99
362.821	312.55
363.203	331.53
363.584	335.6
363.966	315.03
364.348	331.76
364.729	321.59
365.111	319.1
365.493	310.97
365.874	316.16
366.256	312.1
366.637	311.64
367.019	318.2
367.4	303.28
367.781	309.84
368.163	325.2
368.544	331.53
368.925	338.54
369.306	313.23
369.688	330.4
370.069	303.73
370.45	327.01
370.831	322.49
371.212	319.33
371.593	314.81
371.974	321.14
372.355	314.58
372.736	307.8
373.117	302.15
373.498	316.16
373.879	299.89
374.26	311.19
374.641	318.65
375.021	299.22
375.402	338.54
375.783	340.8
376.163	319.33
376.544	323.62
376.925	333.56
377.305	344.41
377.686	344.41
378.066	335.82
378.447	341.93
378.827	349.84
379.208	339.89
379.588	331.3
379.968	345.54
380.349	347.35
380.729	334.47
381.109	351.64
381.489	341.02
381.87	336.73
382.25	328.59
382.63	356.39
383.01	366.56
383.39	355.71
383.77	357.97
384.15	344.19
384.53	354.36
384.91	372.66
385.29	345.09
385.67	346.22
386.049	331.98
386.429	373.56
386.809	362.49
387.189	347.8
387.568	356.84
387.948	346.67
388.328	370.17
388.707	362.94
389.087	374.02
389.466	372.89
389.846	368.59
390.225	389.38
390.605	396.61
390.984	367.69
391.363	369.95
391.743	381.7
392.122	375.15
392.501	381.02
392.881	398.42
393.26	377.86
393.639	385.77
394.018	386.22
394.397	403.85
394.776	381.25
395.155	397.97
395.534	405.65
395.913	374.47
396.292	389.83
396.671	405.88
397.05	420.79
397.429	395.94
397.808	418.31
398.186	409.49
398.565	414.69
398.944	410.4
399.323	394.35
399.701	410.62
400.08	412.43
400.458	413.11
400.837	420.34
401.215	418.31
401.594	437.74
401.972	418.99
402.351	414.24
402.729	423.96
403.107	435.03
403.486	416.05
403.864	431.42
404.242	421.92
404.62	428.7
404.999	431.19
405.377	431.64
405.755	432.55
406.133	430.74
406.511	425.54
406.889	450.17
407.267	458.76
407.645	451.08
408.023	469.38
408.401	459.66
408.779	462.37
409.156	467.8
409.534	460.79
409.912	470.96
410.29	472.09
410.667	488.81
411.045	486.33
411.422	479.55
411.8	469.83
412.178	484.97
412.555	477.52
412.933	494.24
413.31	504.41
413.687	503.05
414.065	517.97
414.442	509.15
414.819	506.67
415.197	524.07
415.574	504.18
415.951	521.58
416.328	512.54
416.705	551.19
417.082	524.97
417.46	534.24
417.837	531.07
418.214	544.86
418.591	529.27
418.967	539.89
419.344	545.31
419.721	563.16
420.098	552.54
420.475	559.32
420.852	555.93
421.228	565.2
421.605	555.25
421.982	574.01
422.358	568.13
422.735	555.03
423.111	581.47
423.488	602.48
423.864	590.96
424.241	579.66
424.617	609.26
424.994	608.59
425.37	616.95
425.746	615.82
426.123	595.25
426.499	611.75
426.875	633.9
427.251	653.1
427.627	637.96
428.003	635.7
428.379	635.7
428.756	631.64
429.132	610.39
429.507	647.45
429.883	656.49
430.259	661.92
430.635	682.03
431.011	671.63
431.387	709.15
431.763	698.98
432.138	688.36
432.514	704.4
432.89	721.58
433.265	715.7
433.641	736.27
434.016	714.12
434.392	714.57
434.767	726.32
435.143	767.23
435.518	728.36
435.894	740.11
436.269	773.55
436.644	768.36
437.02	771.29
437.395	774.46
437.77	768.58
438.145	781.69
438.52	810.61
438.895	797.28
439.271	812.65
439.646	809.03
440.021	820.78
440.395	836.38
440.77	848.35
441.145	840.44
441.52	847.45
441.895	837.05
442.27	851.97
442.645	875.92
443.019	874.79
443.394	841.12
443.769	884.06
444.143	884.51
444.518	882.02
444.892	879.99
445.267	891.97
445.641	904.62
446.016	902.59
446.39	924.06
446.764	918.63
447.139	917.96
447.513	941.46
447.887	923.38
448.262	947.11
448.636	902.59
449.01	935.36
449.384	961.34
449.758	968.12
450.132	967.9
450.506	994.34
450.88	982.81
451.254	987.11
451.628	987.33
452.002	1004.06
452.376	1002.93
452.75	1016.94
453.123	1020.78
453.497	1044.05
453.871	1066.43
454.244	1077.73
454.618	1042.92
454.992	1090.83
455.365	1076.82
455.739	1120.44
456.112	1135.35
456.486	1117.27
456.859	1145.97
457.232	1177.84
457.606	1162.47
457.979	1177.61
458.352	1161.79
458.725	1205.63
459.099	1219.87
459.472	1197.27
459.845	1247.44
460.218	1276.59
460.591	1249.47
460.964	1273.2
461.337	1309.13
461.71	1338.96
462.083	1319.75
462.456	1326.76
462.829	1355.46
463.201	1374.22
463.574	1385.97
463.947	1377.15
464.32	1439.07
464.692	1447.66
465.065	1424.16
465.438	1490.82
465.81	1501.22
466.183	1523.36
466.555	1542.12
466.928	1573.76
467.3	1580.99
467.672	1610.37
468.045	1638.39
468.417	1653.3
468.789	1661.89
469.161	1714.55
469.534	1710.48
469.906	1785.5
470.278	1791.83
470.65	1844.26
471.022	1867.54
471.394	1890.59
471.766	1900.3
472.138	1980.3
472.51	2030.7
472.882	2034.76
473.253	2102.78
473.625	2128.77
473.997	2187.08
474.369	2226.4
474.74	2263.01
475.112	2291.48
475.484	2357.92
475.855	2406.05
476.227	2454.86
476.598	2528.99
476.97	2576.9
477.341	2653.5
477.713	2705.93
478.084	2743.9
478.455	2854.85
478.827	2880.62
479.198	3020.05
479.569	3066.6
479.94	3156.77
480.311	3260.49
480.682	3323.09
481.053	3413.26
481.424	3488.06
481.795	3594.27
482.166	3719.46
482.537	3757.2
482.908	3869.06
483.279	3948.16
483.65	4130.75
484.021	4182.05
484.391	4300.47
484.762	4405.32
485.133	4477.41
485.503	4577.97
485.874	4746.1
486.244	4865.87
486.615	4990.62
486.985	5144.29
487.356	5282.36
487.726	5354
488.097	5470.83
488.467	5586.99
488.837	5779.75
489.207	5969.12
489.578	6015.68
489.948	6189.46
490.318	6320.75
490.688	6465.83
491.058	6539.28
491.428	6675.77
491.798	6843.68
492.168	7075.08
492.538	7121.63
492.908	7285.25
493.278	7437.56
493.648	7499.7
494.017	7720.72
494.387	7861.5
494.757	7984.66
495.126	8109.41
495.496	8157.99
495.866	8328.16
496.235	8489.73
496.605	8654.93
496.974	8745.32
497.344	8847.69
497.713	8991.42
498.082	9127.01
498.452	9250.17
498.821	9377.17
499.19	9449.94
499.559	9537.39
499.928	9675.47
500.298	9779.19
500.667	9941.9
501.036	9922.69
501.405	10128.34
501.774	10215.34
502.143	10247.88
502.512	10339.4
502.88	10463.69
503.249	10598.83
503.618	10566.29
503.987	10723.12
504.356	10806.51
504.724	10931.7
505.093	11009.67
505.462	11067.52
505.83	11155.43
506.199	11336.67
506.567	11411.69
506.936	11409.88
507.304	11582.99
507.672	11612.82
508.041	11697.11
508.409	11770.1
508.777	11839.93
509.145	11984.11
509.514	11893.49
509.882	12074.95
510.25	12123.09
510.618	12146.36
510.986	12279.01
511.354	12309.29
511.722	12395.39
512.09	12469.97
512.458	12520.81
512.826	12611.66
513.193	12570.31
513.561	12748.61
513.929	12776.85
514.297	12812.33
514.664	12946.11
515.032	12966.23
515.4	13061.59
515.767	13056.62
516.135	13003.06
516.502	12987.47
516.869	13244.41
517.237	13255.48
517.604	13139.33
517.972	13299.78
518.339	13271.53
518.706	13288.7
519.073	13372.77
519.44	13411.41
519.808	13486.89
520.175	13503.39
520.542	13637.4
520.909	13591.52
521.276	13636.49
521.643	13749.03
522.009	13677.85
522.376	13827.45
522.743	13829.48
523.11	13853.89
523.477	14028.57
523.843	14090.49
524.21	14111.73
524.577	14216.36
524.943	14205.29
525.31	14169.59
525.676	14264.27
526.043	14287.1
526.409	14335
526.776	14428.56
527.142	14409.13
527.508	14494.1
527.874	14372.07
528.241	14396.7
528.607	14473.98
528.973	14507.2
529.339	14507.66
529.705	14577.03
530.071	14557.6
530.437	14565.05
530.803	14604.15
531.169	14643.7
531.535	14657.48
531.901	14565.51
532.267	14526.19
532.632	14652.74
532.998	14654.32
533.364	14603.25
533.73	14589.24
534.095	14678.27
534.461	14553.53
534.826	14567.77
535.192	14655.22
535.557	14771.83
535.923	14573.42
536.288	14628.33
536.653	14565.96
537.019	14549.46
537.384	14559.18
537.749	14586.52
538.114	14517.15
538.479	14461.78
538.845	14540.42
539.21	14384.27
539.575	14402.35
539.94	14448.45
540.305	14443.25
540.67	14400.54
541.034	14281.22
541.399	14332.74
541.764	14325.51
542.129	14205.52
542.494	14286.42
542.858	14283.93
543.223	14185.18
543.587	14271.5
543.952	14123.48
544.316	14132.07
544.681	14073.77
545.045	14083.94
545.41	14073.09
545.774	14034.45
546.138	14024.5
546.503	13890.72
546.867	13895.47
547.231	13977.73
547.595	13845.07
547.959	13918.74
548.324	13851.85
548.688	13829.48
549.052	13819.54
549.416	13753.32
549.779	13766.21
550.143	13671.07
550.507	13731.18
550.871	13752.65
551.235	13678.52
551.599	13717.85
551.962	13649.6
552.326	13624.97
552.689	13709.94
553.053	13552.65
553.417	13544.52
553.78	13565.99
554.143	13515.14
554.507	13568.92
554.87	13572.99
555.234	13645.76
555.597	13476.95
555.96	13512.88
556.323	13448.25
556.686	13384.07
557.05	13457.29
557.413	13551.52
557.776	13422.71
558.139	13524.18
558.502	13471.07
558.865	13421.81
559.228	13492.99
559.59	13555.82
559.953	13476.5
560.316	13569.37
560.679	13537.74
561.041	13560.34
561.404	13593.56
561.767	13605.08
562.129	13472.88
562.492	13628.81
562.854	13646.66
563.217	13527.57
563.579	13510.17
563.941	13611.63
564.304	13629.26
564.666	13590.62
565.028	13581.8
565.39	13698.64
565.753	13646.66
566.115	13754.91
566.477	13723.72
566.839	13736.83
567.201	13802.36
567.563	13755.13
567.925	13846.2
568.287	13804.17
568.648	13784.74
569.01	13763.27
569.372	13870.38
569.734	13828.13
570.095	13972.08
570.457	13927.56
570.819	13918.07
571.18	13856.15
571.542	13973.88
571.903	13897.5
572.265	14045.07
572.626	14047.33
572.987	13925.75
573.349	14036.26
573.71	14043.26
574.071	14011.62
574.432	14124.39
574.794	14138.85
575.155	14070.83
575.516	14021.79
575.877	14116.03
576.238	14100.21
576.599	14123.94
576.96	14094.56
577.32	14066.54
577.681	14203.71
578.042	14131.39
578.403	14118.06
578.763	14092.52
579.124	14102.69
579.485	14129.36
579.845	14269.47
580.206	14217.27
580.566	14059.31
580.927	14164.16
581.287	14179.98
581.648	14121
582.008	14175.23
582.368	14155.35
582.728	14135.24
583.089	14171.17
583.449	14162.13
583.809	14194.9
584.169	14184.73
584.529	14132.75
584.889	14193.99
585.249	14058.4
585.609	14058.4
585.969	14127.55
586.329	14057.72
586.688	14130.49
587.048	14089.59
587.408	14050.94
587.768	14055.69
588.127	14018.18
588.487	14027.44
588.846	14128.68
589.206	14093.2
589.565	13970.27
589.925	14115.8
590.284	13931.85
590.643	13953.55
591.003	13980.44
591.362	14082.58
591.721	13963.26
592.08	13944.73
592.44	13956.94
592.799	14038.74
593.158	13930.95
593.517	13892.98
593.876	13949.25
594.235	13994.67
594.593	13910.61
594.952	13945.18
595.311	13924.85
595.67	13884.39
596.029	13967.78
596.387	13981.34
596.746	13918.29
597.104	13762.59
597.463	13813.89
597.822	13909.7
598.18	13879.65
598.538	13799.65
598.897	13941.79
599.255	13771.86
599.613	13948.12
599.972	13901.34
600.33	13926.65
600.688	13873.77
601.046	13849.14
601.404	13864.51
601.762	13925.3
602.12	13997.61
602.478	13945.18
602.836	13934.34
603.194	13874.9
603.552	13850.72
603.91	13844.85
604.268	13989.93
604.625	13831.74
604.983	13922.13
605.341	13889.37
605.698	13975.92
606.056	13909.93
606.413	13924.17
606.771	13914.9
607.128	13990.61
607.485	13952.64
607.843	13941.79
608.2	13991.51
608.557	14040.77
608.914	13918.74
609.272	13901.57
609.629	13976.82
609.986	14119.87
610.343	14005.97
610.7	14125.52
611.057	13989.7
611.414	14022.92
611.771	14003.04
612.127	14060.66
612.484	14110.15
612.841	14175.23
613.198	14089.59
613.554	14110.6
613.911	14222.24
614.267	14143.15
614.624	14164.39
614.98	14183.6
615.337	14241.67
615.693	14236.93
616.05	14203.26
616.406	14322.58
616.762	14205.06
617.118	14250.26
617.475	14160.09
617.831	14337.49
618.187	14278.28
618.543	14271.5
618.899	14394.44
619.255	14311.95
619.611	14317.6
619.967	14394.44
620.323	14328
620.678	14360.99
621.034	14255.68
621.39	14299.07
621.746	14263.82
622.101	14402.8
622.457	14332.97
622.812	14275.8
623.168	14394.44
623.523	14339.07
623.879	14409.58
624.234	14296.81
624.589	14415
624.945	14314.89
625.3	14315.57
625.655	14290.94
626.01	14363.25
626.365	14332.74
626.72	14325.29
627.075	14271.28
627.43	14333.42
627.785	14266.08
628.14	14297.04
628.495	14290.03
628.85	14304.5
629.205	14234.44
629.559	14294.1
629.914	14240.09
630.269	14327.1
630.623	14175.01
630.978	14251.39
631.332	14250.03
631.687	14206.42
632.041	14237.15
632.396	14283.71
632.75	14170.94
633.104	14298.85
633.459	14225.18
633.813	14086.2
634.167	14091.17
634.521	14105.18
634.875	14086.42
635.229	14034.9
635.583	13952.87
635.937	13951.51
636.291	14073.09
636.645	13983.6
636.999	13983.83
637.352	13995.35
637.706	13901.12
638.06	14000.78
638.413	13893.89
638.767	13864.73
639.121	13919.65
639.474	13849.59
639.828	13816.15
640.181	13828.35
640.534	13880.33
640.888	13797.17
641.241	13737.96
641.594	13794
641.947	13827
642.301	13757.84
642.654	13798.97
643.007	13777.73
643.36	13757.62
643.713	13800.78
644.066	13772.76
644.419	13649.15
644.771	13570.73
645.124	13498.19
645.477	13451.86
645.83	13337.52
646.182	13340.23
646.535	13252.55
646.888	13364.63
647.24	13219.33
647.593	13358.76
647.945	13307.01
648.298	13231.08
648.65	13182.27
649.002	13172.78
649.355	13325.09
649.707	13316.95
650.059	13335.48
650.411	13446.67
650.763	13475.14
651.115	13563.05
651.467	13515.82
651.819	13598.53
652.171	13582.71
652.523	13468.36
652.875	13482.6
653.227	13467.68
653.578	13595.81
653.93	13489.38
654.282	13474.69
654.633	13578.19
654.985	13491.64
655.337	13478.3
655.688	13547.68
656.039	13604.4
656.391	13468.13
656.742	13479.21
657.094	13512.2
657.445	13542.93
657.796	13490.05
658.147	13496.38
658.498	13513.56
658.849	13506.1
659.2	13467.46
659.551	13487.34
659.902	13516.04
660.253	13489.6
660.604	13534.12
660.955	13444.63
661.306	13520.79
661.656	13511.3
662.007	13506.1
662.358	13518.98
662.708	13609.37
663.059	13524.86
663.409	13453.67
663.76	13522.82
664.11	13610.5
664.461	13557.62
664.811	13690.28
665.161	13594.23
665.511	13508.59
665.862	13571.86
666.212	13645.08
666.562	13634.46
666.912	13547
667.262	13519.88
667.612	13561.92
667.962	13599.43
668.312	13515.59
668.662	13663.16
669.011	13614.35
669.361	13461.36
669.711	13531.64
670.06	13529.83
670.41	13589.49
670.76	13465.42
671.109	13590.62
671.459	13511.98
671.808	13457.29
672.157	13553.78
672.507	13455.03
672.856	13406.89
673.205	13397.63
673.554	13437.63
673.904	13456.84
674.253	13521.47
674.602	13458.87
674.951	13340.45
675.3	13164.41
675.649	13370.28
675.998	13364.63
676.346	13429.94
676.695	13437.17
677.044	13331.87
677.393	13315.6
677.741	13349.49
678.09	13319.44
678.438	13282.83
678.787	13249.84
679.135	13273.34
679.484	13143.85
679.832	13232.66
680.181	13283.05
680.529	13211.42
680.877	13154.47
681.225	13108.82
681.573	13224.07
681.922	13060.69
682.27	13068.37
682.618	12995.83
682.966	12949.5
683.314	13022.27
683.661	12946.11
684.009	12907.7
684.357	12928.26
684.705	12854.82
685.053	12982.5
685.4	12812.56
685.748	12805.55
686.095	12827.25
686.443	12607.14
686.79	12676.07
687.138	12746.8
687.485	12668.38
687.832	12692.11
688.18	12610.3
688.527	12642.62
688.874	12647.37
689.221	12471.78
689.568	12437.65
689.915	12458.44
690.262	12396.3
690.609	12403.98
690.956	12298.67
691.303	12349.75
691.65	12271.33
691.997	12287.37
692.344	12214.16
692.69	12128.51
693.037	12204.66
693.383	11997.21
693.73	12119.47
694.077	11965.35
694.423	12001.96
694.769	11868.85
695.116	11944.11
695.462	11846.93
695.808	11801.96
696.155	11868.85
696.501	11738.24
696.847	11728.52
697.193	11631.8
697.539	11668.18
697.885	11570.56
698.231	11538.69
698.577	11526.49
698.923	11538.02
699.269	11438.81
699.614	11419.15
699.96	11360.39
700.306	11207.18
700.651	11239.72
700.997	11213.96
701.342	11232.49
701.688	11147.29
702.033	11123.34
702.379	11083.11
702.724	11113.17
703.069	11062.1
703.415	10909.33
703.76	10884.25
704.105	10941.65
704.45	10869.33
704.795	10844.47
705.14	10824.36
705.485	10739.17
705.83	10692.84
706.175	10700.3
706.52	10681.09
706.865	10728.55
707.209	10616.23
707.554	10583.46
707.899	10591.83
708.243	10524.71
708.588	10607.42
708.932	10511.6
709.277	10456.24
709.621	10444.49
709.966	10374.88
710.31	10386.63
710.654	10286.75
710.998	10390.25
711.342	10288.56
711.687	10283.13
712.031	10269.57
712.375	10165.85
712.719	10251.95
713.063	10136.02
713.407	10152.52
713.75	10084.72
714.094	10141.67
714.438	10014.44
714.782	10100.31
715.125	10051.5
715.469	10108.67
715.812	10012.86
716.156	9928.11
716.499	9941.45
716.843	9930.6
717.186	9918.85
717.53	9953.2
717.873	9991.84
718.216	9905.52
718.559	9845.4
718.902	9801.56
719.246	9773.54
719.589	9831.85
719.932	9771.96
720.275	9757.72
720.617	9771.96
720.96	9725.86
721.303	9783.94
721.646	9732.64
721.989	9673.88
722.331	9718.18
722.674	9809.47
723.016	9715.46
723.359	9645.41
723.701	9673.21
724.044	9661.91
724.386	9649.25
724.729	9658.07
725.071	9612.64
725.413	9634.56
725.755	9610.61
726.097	9544.62
726.439	9574.68
726.782	9552.53
727.124	9575.58
727.465	9536.03
727.807	9513.21
728.149	9534.23
728.491	9460.78
728.833	9476.6
729.175	9506.43
729.516	9422.37
729.858	9514.34
730.199	9491.06
730.541	9484.28
730.882	9454.45
731.224	9538.29
731.565	9428.01
731.906	9393.21
732.248	9497.17
732.589	9375.36
732.93	9420.33
733.271	9488.35
733.612	9439.31
733.953	9407.22
734.294	9458.3
734.635	9467.79
734.976	9440.22
735.317	9495.13
735.658	9423.04
735.999	9417.17
736.339	9396.6
736.68	9492.19
737.021	9429.14
737.361	9403.61
737.702	9464.4
738.042	9463.04
738.383	9398.64
738.723	9461.01
739.063	9423.5
739.404	9513.89
739.744	9538.07
740.084	9477.73
740.424	9522.25
740.764	9523.38
741.104	9518.41
741.444	9514.57
741.784	9565.41
742.124	9531.74
742.464	9576.49
742.804	9574.9
743.143	9619.42
743.483	9645.64
743.823	9679.53
744.162	9619.87
744.502	9677.05
744.841	9716.82
745.181	9760.21
745.52	9690.83
745.86	9804.28
746.199	9854.22
746.538	9836.14
746.877	9915.91
747.216	10059.41
747.556	10017.15
747.895	10118.62
748.234	10124.04
748.573	10122.91
748.911	10159.52
749.25	10347.09
749.589	10263.7
749.928	10405.39
750.267	10442.9
750.605	10610.58
750.944	10556.8
751.283	10646.97
751.621	10766.06
751.96	10839.96
752.298	10934.87
752.636	10990.46
752.975	11057.8
753.313	11098.03
753.651	11295.31
753.989	11368.3
754.327	11421.86
754.666	11558.35
755.004	11623.21
755.342	11874.96
755.679	11941.17
756.017	11991.79
756.355	12284.89
756.693	12306.13
757.031	12499.57
757.368	12588.84
757.706	12742.05
758.044	12834.48
758.381	12996.96
758.719	13205.99
759.056	13335.93
759.394	13461.36
759.731	13564.63
760.068	13775.92
760.405	13861.12
760.743	14001.68
761.08	14330.03
761.417	14337.49
761.754	14562.34
762.091	14685.05
762.428	14737.93
762.765	14927.08
763.102	15174.08
763.438	15195.55
763.775	15309.67
764.112	15545.37
764.449	15686.83
764.785	15854.06
765.122	15932.25
765.458	16111.91
765.795	16259.25
766.131	16442.52
766.467	16534.72
766.804	16587.6
767.14	16766.13
767.476	16791.89
767.812	16976.74
768.148	17166.79
768.485	17141.03
768.821	17330.41
769.157	17498.31
769.492	17548.93
769.828	17615.6
770.164	17713.67
770.5	17759.77
770.836	17980.56
771.171	18008.58
771.507	18085.41
771.842	18030.05
772.178	18217.39
772.513	18261
772.849	18316.82
773.184	18438.4
773.519	18487.44
773.855	18486.31
774.19	18630.94
774.525	18585.97
774.86	18684.49
775.195	18750.03
775.53	18799.07
775.865	18770.14
776.2	18874.55
776.535	18738.5
776.87	18812.17
777.205	18882.91
777.539	18924.71
777.874	18973.07
778.209	18854.21
778.543	18942.34
778.878	18888.56
779.212	18986.63
779.547	18919.06
779.881	19096.01
780.215	19049
780.55	19039.29
780.884	19033.86
781.218	19169
781.552	19047.87
781.886	19026.18
782.22	18993.41
782.554	18978.5
782.888	18867.77
783.222	18910.7
783.556	18931.49
783.889	18911.38
784.223	18813.76
784.557	18814.89
784.89	18813.3
785.224	18869.8
785.557	18703.7
785.891	18683.14
786.224	18687.21
786.558	18694.44
786.891	18593.88
787.224	18560.2
787.557	18486.08
787.891	18599.07
788.224	18615.12
788.557	18592.52
788.89	18631.16
789.223	18573.31
789.556	18439.3
789.888	18477.27
790.221	18442.47
790.554	18252.42
790.887	18380.77
791.219	18276.14
791.552	18293.77
791.884	18217.61
792.217	18118.18
792.549	18124.96
792.882	18127.22
793.214	18016.94
793.546	18039.09
793.879	17937.17
794.211	17872.09
794.543	17906.21
794.875	17809.04
795.207	17930.84
795.539	17817.85
795.871	17830.05
796.203	17759.32
796.535	17621.7
796.867	17587.12
797.198	17637.97
797.53	17570.17
797.862	17444.98
798.193	17577.86
798.525	17538.31
798.856	17374.02
799.188	17287.02
799.519	17261.03
799.85	17150.3
800.182	17265.77
800.513	17146.46
800.844	17116.17
801.175	17079.34
801.506	17167.02
801.837	16960.25
802.168	16993.01
802.499	17013.13
802.83	16928.38
803.161	16849.74
803.491	16847.48
803.822	16802.06
804.153	16791.44
804.483	16702.85
804.814	16506.92
805.145	16542.4
805.475	16567.04
805.805	16474.16
806.136	16567.94
806.466	16512.57
806.796	16414.05
807.126	16275.52
807.457	16213.15
807.787	16411.79
808.117	16273.03
808.447	16158.69
808.777	16204.33
809.107	16087.05
809.436	16063.55
809.766	16105.35
810.096	15967.96
810.426	15969.99
810.755	15915.53
811.085	15886.6
811.414	15934.74
811.744	15814.06
812.073	15845.7
812.403	15750.79
812.732	15686.83
813.061	15748.3
813.39	15687.29
813.719	15622.2
814.049	15692.48
814.378	15662.65
814.707	15516.89
815.036	15549.66
815.365	15475.77
815.693	15401.64
816.022	15436.22
816.351	15293.62
816.68	15258.37
817.008	15287.97
817.337	15130.92
817.665	15187.19
817.994	15267.64
818.322	15148.32
818.651	15125.27
818.979	15088.88
819.307	15130.92
819.636	15034.87
819.964	14995.33
820.292	15082.1
820.62	15022.9
820.948	15030.81
821.276	15021.99
821.604	15023.35
821.932	15056.12
822.259	14947.64
822.587	15041.88
822.915	15033.07
823.243	15033.52
823.57	14919.17
823.898	14953.52
824.225	15014.08
824.553	14917.81
824.88	14989.45
825.207	15008.66
825.535	14911.71
825.862	14975.21
826.189	14944.71
826.516	14999.39
826.843	15121.65
827.17	14966.17
827.497	15015.89
827.824	15033.29
828.151	15062.67
828.478	14975.21
828.805	15026.29
829.131	14947.19
829.458	14917.59
829.785	14888.89
830.111	14879.4
830.438	15038.49
830.764	14936.12
831.09	14965.27
831.417	14947.64
831.743	15076.45
832.069	14969.56
832.395	14936.34
832.722	14876.91
833.048	14889.11
833.374	14865.61
833.7	14814.31
834.026	14780.42
834.351	14839.4
834.677	14785.16
835.003	14842.11
835.329	14829.91
835.654	14764.6
835.98	14767.08
836.306	14753.98
836.631	14730.93
836.956	14734.77
837.282	14704.49
837.607	14722.79
837.932	14595.79
838.258	14620.87
838.583	14591.49
838.908	14536.58
839.233	14578.16
839.558	14539.97
839.883	14476.92
840.208	14495.68
840.533	14476.02
840.858	14402.35
841.182	14424.04
841.507	14392.18
841.832	14341.33
842.156	14394.21
842.481	14253.42
842.805	14322.8
843.13	14337.94
843.454	14287.32
843.778	14280.32
844.103	14140.66
844.427	14081.9
844.751	14110.6
845.075	14113.99
845.399	13995.35
845.723	13913.77
846.047	13898.18
846.371	13845.07
846.695	13918.07
847.019	13710.16
847.343	13732.53
847.666	13616.83
847.99	13560.11
848.313	13537.74
848.637	13448.25
848.96	13438.08
849.284	13463.39
849.607	13280.34
849.931	13255.03
850.254	13182.94
850.577	13125.32
850.9	12996.51
851.223	13049.16
851.546	12949.28
851.869	12899.56
852.192	12985.21
852.515	12848.94
852.838	12730.53
853.161	12785.67
853.483	12788.38
853.806	12710.19
854.129	12704.54
854.451	12607.82
854.774	12535.73
855.096	12514.71
855.419	12451.89
855.741	12497.09
856.063	12388.16
856.385	12333.7
856.708	12343.19
857.03	12286.02
857.352	12302.97
857.674	12182.97
857.996	12182.52
858.318	12089.87
858.64	12145.68
858.961	12098.68
859.283	12050.32
859.605	11925.8
859.926	11967.38
860.248	12016.42
860.57	11893.26
860.891	11833.15
861.212	11842.87
861.534	11785.47
861.855	11755.86
862.176	11776.65
862.498	11751.8
862.819	11735.3
863.14	11625.7
863.461	11712.25
863.782	11588.41
864.103	11604.45
864.424	11576.88
864.745	11597.9
865.065	11520.84
865.386	11498.47
865.707	11469.09
866.027	11482.65
866.348	11486.27
866.668	11507.51
866.989	11409.88
867.309	11394.29
867.63	11422.76
867.95	11390.22
868.27	11265.48
868.59	11282.43
868.91	11283.11
869.23	11280.62
869.55	11195.2
869.87	11299.6
870.19	11274.52
870.51	11274.29
870.83	11284.01
871.15	11186.84
871.469	11107.97
871.789	11161.53
872.109	11172.83
872.428	11045.15
872.748	11106.39
873.067	11064.58
873.386	11086.95
873.706	11040.4
874.025	10942.78
874.344	10952.49
874.663	11000.4
874.982	10953.4
875.301	10999.27
875.62	10958.37
875.939	10864.14
876.258	10959.73
876.577	10826.62
876.896	10843.12
877.214	10799.28
877.533	10857.81
877.852	10771.26
878.17	10764.7
878.489	10748.43
878.807	10712.27
879.125	10690.58
879.444	10698.26
879.762	10779.17
880.08	10743.23
880.398	10632.05
880.716	10686.96
881.034	10654.65
881.352	10617.14
881.67	10574.2
881.988	10545.27
882.306	10540.3
882.624	10525.16
882.941	10489.68
883.259	10393.41
883.577	10420.98
883.894	10397.48
884.212	10452.85
884.529	10311.83
884.846	10353.87
885.164	10326.52
885.481	10287.88
885.798	10262.8
886.115	10226.41
886.432	10247.65
886.75	10159.52
887.067	10239.29
887.383	10133.08
887.7	10119.75
888.017	10111.61
888.334	10174.44
888.651	10042.69
888.967	10042.01
889.284	9990.03
889.6	9941.45
889.917	9958.4
890.233	9897.38
890.55	9880.88
890.866	9883.82
891.182	9726.31
891.498	9789.14
891.815	9684.73
892.131	9724.96
892.447	9744.62
892.763	9663.04
893.079	9649.03
893.395	9596.37
893.71	9617.39
894.026	9510.27
894.342	9542.81
894.657	9463.95
894.973	9502.59
895.289	9482.25
895.604	9415.36
895.92	9355.93
896.235	9303.95
896.55	9350.05
896.865	9249.71
897.181	9285.87
897.496	9227.57
897.811	9214.01
898.126	9197.06
898.441	9099.66
898.756	9137.4
899.071	9013.34
899.386	9016.73
899.7	8965.43
900.015	8928.82
900.33	8909.84
900.644	8871.87
900.959	8878.65
901.273	8850.4
901.588	8787.58
901.902	8762.5
902.216	8742.61
902.531	8741.93
902.845	8706.23
903.159	8619.9
903.473	8595.49
903.787	8523.41
904.101	8508.49
904.415	8527.93
904.729	8499.9
905.042	8422.39
905.356	8414.03
905.67	8426.46
905.984	8400.7
906.297	8317.08
906.611	8292.68
906.924	8308.72
907.237	8244.77
907.551	8156.41
907.864	8143.75
908.177	8161.16
908.491	8157.09
908.804	8061.5
909.117	8076.64
909.43	8009.07
909.743	7946.02
910.056	7918.9
910.368	7914.61
910.681	7836.64
910.994	7814.95
911.307	7847.49
911.619	7766.36
911.932	7729.08
912.244	7735.63
912.557	7644.56
912.869	7629.87
913.181	7620.15
913.494	7588.74
913.806	7530.21
914.118	7497.44
914.43	7463.77
914.742	7463.55
915.054	7404.34
915.366	7430.78
915.678	7359.14
915.99	7351.01
916.302	7275.76
916.613	7223.33
916.925	7283.21
917.236	7203.21
917.548	7153.95
917.859	7179.71
918.171	7119.83
918.482	7072.82
918.794	7049.09
919.105	7035.76
919.416	6956.22
919.727	6999.15
920.038	6931.81
920.349	6881.64
920.66	6887.06
920.971	6867.18
921.282	6892.94
921.593	6789.89
921.903	6755.77
922.214	6749.89
922.525	6745.83
922.835	6708.76
923.146	6646.39
923.456	6641.2
923.767	6632.38
924.077	6570.24
924.387	6536.79
924.697	6524.81
925.008	6500.63
925.318	6450.92
925.628	6438.94
925.938	6415.89
926.248	6337.25
926.558	6312.62
926.867	6347.64
927.177	6332.28
927.487	6274.88
927.796	6210.7
928.106	6224.26
928.416	6200.3
928.725	6210.02
929.034	6102
929.344	6157.14
929.653	6123.02
929.962	6071.04
930.271	6043.25
930.581	6035.79
930.89	5960.54
931.199	5925.96
931.508	5942.23
931.817	5996.01
932.125	5924.6
932.434	5876.24
932.743	5869.24
933.051	5819.52
933.36	5836.7
933.669	5744.72
933.977	5751.05
934.286	5751.28
934.594	5703.14
934.902	5683.25
935.21	5634.44
935.519	5618.85
935.827	5598.51
936.135	5585.86
936.443	5525.29
936.751	5575.01
937.059	5533.65
937.367	5498.4
937.674	5490.04
937.982	5517.16
938.29	5486.65
938.597	5422.7
938.905	5385.41
939.213	5382.7
939.52	5369.82
939.827	5396.48
940.135	5290.27
940.442	5306.99
940.749	5270.38
941.056	5244.85
941.363	5206.88
941.67	5157.62
941.977	5126.66
942.284	5142.03
942.591	5118.98
942.898	5073.78
943.205	5102.93
943.511	5057.28
943.818	5012.31
944.125	5015.48
944.431	5032.88
944.738	4931.86
945.044	4959.66
945.35	4945.19
945.657	4912.43
945.963	4898.19
946.269	4876.95
946.575	4849.6
946.881	4741.13
947.187	4792.43
947.493	4737.29
947.799	4733.9
948.105	4760.57
948.41	4717.18
948.716	4703.17
949.022	4690.96
949.327	4652.1
949.633	4636.95
949.938	4601.48
950.244	4610.06
950.549	4561.02
950.854	4555.37
951.16	4560.12
951.465	4553.79
951.77	4465.89
952.075	4463.4
952.38	4475.15
952.685	4454.36
952.99	4416.85
953.294	4422.27
953.599	4392.22
953.904	4315.15
954.209	4312.22
954.513	4330.52
954.818	4338.88
955.122	4297.75
955.426	4272.22
955.731	4250.52
956.035	4231.09
956.339	4198.32
956.643	4176.85
956.948	4184.08
957.252	4120.81
957.556	4163.75
957.86	4129.17
958.163	4113.13
958.467	4100.47
958.771	4077.42
959.075	4065.22
959.378	4046.91
959.682	4020.02
959.985	3994.71
960.289	3977.76
960.592	3976.18
960.896	3984.54
961.199	3966.92
961.502	3940.7
961.805	3879.46
962.108	3894.38
962.411	3886.47
962.714	3834.49
963.017	3850.31
963.32	3823.42
963.623	3780.93
963.926	3775.73
964.228	3744.32
964.531	3745
964.833	3742.97
965.136	3721.27
965.438	3731.44
965.741	3673.82
966.043	3708.84
966.345	3690.54
966.648	3617.32
966.95	3621.39
967.252	3589.3
967.554	3593.14
967.856	3569.86
968.158	3532.12
968.46	3536.64
968.761	3554.27
969.063	3504.33
969.365	3529.41
969.666	3475.18
969.968	3464.33
970.269	3468.85
970.571	3444.22
970.872	3416.65
971.174	3433.14
971.475	3423.2
971.776	3387.72
972.077	3381.85
972.378	3334.39
972.679	3316.54
972.98	3321.06
973.281	3295.97
973.582	3328.29
973.883	3317.67
974.183	3269.08
974.484	3245.35
974.785	3230.66
975.085	3228.18
975.386	3221.62
975.686	3191.34
975.986	3182.53
976.287	3192.92
976.587	3134.39
976.887	3126.49
977.187	3113.15
977.487	3107.73
977.787	3119.25
978.087	3109.99
978.387	3080.84
978.687	3073.38
978.987	3044.91
979.286	3027.73
979.586	3027.73
979.885	3027.51
980.185	3023.89
980.484	3014.17
980.784	2955.87
981.083	2946.38
981.382	2948.19
981.682	2907.06
981.981	2919.26
982.28	2876.1
982.579	2868.87
982.878	2895.76
983.177	2841.75
983.475	2867.06
983.774	2824.8
984.073	2804.69
984.372	2767.17
984.67	2824.57
984.969	2810.79
985.267	2789.09
985.566	2783.9
985.864	2727.17
986.162	2723.78
986.461	2742.54
986.759	2744.35
987.057	2691.24
987.355	2691.02
987.653	2698.25
987.951	2667.74
988.249	2660.51
988.547	2632.94
988.844	2620.06
989.142	2605.6
989.44	2602.21
989.737	2607.63
990.035	2601.75
990.332	2575.54
990.63	2564.24
990.927	2543
991.224	2553.62
991.521	2531.02
991.819	2492.15
992.116	2509.1
992.413	2495.09
992.71	2476.79
993.006	2453.28
993.303	2446.73
993.6	2425.04
993.897	2383
994.193	2420.52
994.49	2401.08
994.787	2368.77
995.083	2408.99
995.379	2374.19
995.676	2355.66
995.972	2363.12
996.268	2310.46
996.565	2324.47
996.861	2288.09
997.157	2283.12
997.453	2286.28
997.749	2276.56
998.044	2289.22
998.34	2269.78
998.636	2228.66
998.932	2238.6
999.227	2173.29
999.523	2213.74
999.818	2179.17
1000.114	2214.65
1000.409	2182.56
1000.704	2193.63
1001	2150.24
1001.295	2121.54
1001.59	2140.07
1001.885	2115.21
1002.18	2114.53
1002.475	2091.26
1002.77	2087.42
1003.065	2081.54
1003.359	2071.6
1003.654	2037.93
1003.949	2065.04
1004.243	2046.97
1004.538	2019.4
1004.832	2005.84
1005.127	2001.09
1005.421	1996.57
1005.715	1986.85
1006.009	1981.2
1006.304	1968.32
1006.598	1956.12
1006.892	1914.77
1007.186	1902.11
1007.48	1912.28
1007.773	1924.71
1008.067	1875.22
1008.361	1863.02
1008.655	1851.26
1008.948	1862.34
1009.242	1847.2
1009.535	1821.66
1009.829	1810.14
1010.122	1804.26
1010.415	1822.34
1010.708	1783.47
1011.001	1767.43
1011.295	1786.86
1011.588	1749.57
1011.881	1738.27
1012.173	1770.59
1012.466	1738.95
1012.759	1703.92
1013.052	1710.48
1013.344	1746.63
1013.637	1701.66
1013.93	1681.55
1014.222	1629.58
1014.514	1667.31
1014.807	1666.64
1015.099	1656.02
1015.391	1604.04
1015.683	1618.28
1015.976	1630.71
1016.268	1611.27
1016.56	1597.94
1016.851	1612.63
1017.143	1551.39
1017.435	1541.22
1017.727	1568.79
1018.018	1530.6
1018.31	1508.22
1018.602	1528.34
1018.893	1546.64
1019.185	1500.31
1019.476	1501.22
1019.767	1475.91
1020.058	1503.93
1020.35	1467.32
1020.641	1503.48
1020.932	1445.63
1021.223	1416.7
1021.514	1423.71
1021.804	1408.56
1022.095	1418.96
1022.386	1421.22
1022.677	1395.91
1022.967	1384.61
1023.258	1365.18
1023.548	1370.83
1023.839	1359.98
1024.129	1366.53
1024.419	1325.4
1024.709	1359.3
1025	1331.05
1025.29	1316.59
1025.58	1311.17
1025.87	1284.27
1026.16	1299.41
1026.449	1282.47
1026.739	1276.59
1027.029	1264.84
1027.319	1237.27
1027.608	1244.95
1027.898	1249.7
1028.187	1203.82
1028.477	1220.1
1028.766	1220.77
1029.055	1224.61
1029.344	1189.81
1029.634	1159.98
1029.923	1183.71
1030.212	1179.64
1030.501	1167.22
1030.79	1159.76
1031.078	1141.23
1031.367	1136.26
1031.656	1124.05
1031.945	1138.52
1032.233	1128.12
1032.522	1123.37
1032.81	1097.39
1033.099	1104.39
1033.387	1084.73
1033.675	1070.49
1033.963	1073.21
1034.251	1079.76
1034.54	1050.16
1034.828	1055.13
1035.116	1043.38
1035.403	1030.72
1035.691	1065.07
1035.979	1048.12
1036.267	1027.78
1036.554	1028.24
1036.842	1014.45
1037.129	1004.06
1037.417	982.81
1037.704	983.04
1037.992	996.37
1038.279	988.69
1038.566	973.77
1038.853	973.77
1039.14	973.77
