Data from hue_160_FLMS001491_00004.txt Node
Date: Tue Feb 07 16:50:40 GMT 2017
User: dcchb
Spectrometer: FLMS00149
Trigger mode: 0
Integration Time (sec): 2.000000E-2
Scans to average: 10
Electric dark correction enabled: true
Nonlinearity correction enabled: false
Boxcar width: 0
XAxis mode: Wavelengths
Number of Pixels in Spectrum: 2048
>>>>>Begin Spectral Data<<<<<
341.393	21.14
341.776	21.14
342.16	21.14
342.543	-68.12
342.927	-62.24
343.31	-78.29
343.693	-70.38
344.077	-64.28
344.46	-53.88
344.843	-53.2
345.226	-26.76
345.61	-38.52
345.993	-15.69
346.376	2.39
346.759	17.08
347.142	22.95
347.525	44.65
347.908	39.45
348.291	72.44
348.674	92.1
349.057	109.95
349.44	150.18
349.823	152.44
350.206	171.87
350.588	189.5
350.971	198.31
351.354	215.49
351.737	237.63
352.119	254.13
352.502	258.43
352.884	279.89
353.267	286.67
353.65	297.07
354.032	290.74
354.414	311.08
354.797	298.65
355.179	321.93
355.562	318.54
355.944	327.12
356.326	323.06
356.709	332.1
357.091	329.16
357.473	330.51
357.855	332.32
358.238	324.86
358.62	334.58
359.002	335.03
359.384	338.42
359.766	337.97
360.148	343.39
360.53	341.14
360.912	320.12
361.294	340.23
361.676	311.08
362.057	349.27
362.439	316.5
362.821	332.77
363.203	322.6
363.584	302.04
363.966	319.89
364.348	312.89
364.729	340.68
365.111	325.99
365.493	311.31
365.874	302.27
366.256	321.25
366.637	326.67
367.019	317.86
367.4	311.08
367.781	307.46
368.163	314.47
368.544	307.24
368.925	305.66
369.306	309.05
369.688	308.37
370.069	322.6
370.45	331.19
370.831	322.15
371.212	296.16
371.593	318.31
371.974	325.54
372.355	313.57
372.736	310.85
373.117	315.83
373.498	315.83
373.879	308.59
374.26	312.44
374.641	312.21
375.021	302.04
375.402	331.19
375.783	318.08
376.163	332.1
376.544	341.59
376.925	323.06
377.305	330.51
377.686	317.41
378.066	313.11
378.447	314.47
378.827	337.75
379.208	311.76
379.588	339.33
379.968	356.05
380.349	330.29
380.729	339.33
381.109	349.27
381.489	321.25
381.87	334.58
382.25	335.03
382.63	358.31
383.01	345.88
383.39	327.12
383.77	350.17
384.15	336.39
384.53	344.3
384.91	346.78
385.29	356.73
385.67	328.93
386.049	356.5
386.429	353.56
386.809	339.78
387.189	363.51
387.568	361.7
387.948	343.62
388.328	344.3
388.707	348.59
389.087	337.29
389.466	353.56
389.846	357.63
390.225	352.89
390.605	382.72
390.984	349.95
391.363	382.94
391.743	343.85
392.122	369.38
392.501	362.15
392.881	358.54
393.26	376.84
393.639	357.18
394.018	363.96
394.397	365.09
394.776	361.25
395.155	373.45
395.534	390.85
395.913	379.33
396.292	389.5
396.671	404.41
397.05	391.98
397.429	404.64
397.808	383.17
398.186	386.56
398.565	386.78
398.944	402.6
399.323	396.95
399.701	384.07
400.08	410.96
400.458	403.73
400.837	414.13
401.215	392.21
401.594	395.82
401.972	408.7
402.351	410.06
402.729	420.46
403.107	404.64
403.486	405.99
403.864	415.94
404.242	409.61
404.62	427.01
404.999	411.87
405.377	433.56
405.755	420.68
406.133	429.49
406.511	417.74
406.889	418.42
407.267	424.07
407.645	418.2
408.023	442.15
408.401	426.1
408.779	456.61
409.156	424.3
409.534	427.01
409.912	425.2
410.29	462.04
410.667	464.07
411.045	443.73
411.422	471.08
411.8	468.82
412.178	508.14
412.555	490.06
412.933	469.04
413.31	484.18
413.687	494.13
414.065	497.29
414.442	506.78
414.819	504.97
415.197	501.81
415.574	489.15
415.951	512.66
416.328	476.72
416.705	498.87
417.082	507.68
417.46	512.43
417.837	517.18
418.214	507.01
418.591	524.18
418.967	516.72
419.344	549.27
419.721	535.25
420.098	534.58
420.475	540
420.852	544.29
421.228	564.41
421.605	556.04
421.982	555.59
422.358	586.1
422.735	556.95
423.111	576.38
423.488	551.53
423.864	550.62
424.241	554.24
424.617	585.2
424.994	575.25
425.37	599.89
425.746	587.23
426.123	584.29
426.499	610.51
426.875	602.15
427.251	601.24
427.627	614.12
428.003	624.97
428.379	614.12
428.756	637.17
429.132	670.39
429.507	639.21
429.883	654.8
430.259	632.43
430.635	671.75
431.011	674.91
431.387	658.19
431.763	689.15
432.138	677.62
432.514	690.73
432.89	658.41
433.265	700
433.641	717.4
434.016	713.1
434.392	708.36
434.767	732.99
435.143	739.54
435.518	731.63
435.894	739.09
436.269	731.63
436.644	751.52
437.02	759.43
437.395	787.68
437.77	772.31
438.145	804.63
438.52	811.86
438.895	796.04
439.271	833.33
439.646	823.16
440.021	822.93
440.395	831.29
440.77	821.35
441.145	862.93
441.52	849.6
441.895	843.49
442.27	848.47
442.645	881.23
443.019	857.28
443.394	858.64
443.769	894.79
444.143	847.79
444.518	898.41
444.892	900.44
445.267	917.62
445.641	909.48
446.016	903.61
446.39	923.49
446.764	912.42
447.139	919.65
447.513	928.69
447.887	916.71
448.262	932.31
448.636	955.36
449.01	976.37
449.384	973.89
449.758	979.31
450.132	993.1
450.506	1013.89
450.88	1024.28
451.254	992.42
451.628	1039.42
452.002	1025.64
452.376	1033.32
452.75	1045.98
453.123	1059.31
453.497	1054.79
453.871	1073.77
454.244	1076.26
454.618	1093.88
454.992	1085.52
455.365	1119.87
455.739	1138.4
456.112	1182.69
456.486	1152.19
456.859	1173.88
457.232	1196.93
457.606	1205.07
457.979	1197.84
458.352	1246.65
458.725	1223.82
459.099	1255.01
459.472	1283.03
459.845	1274.9
460.218	1288.68
460.591	1326.87
460.964	1305.63
461.337	1353.99
461.71	1372.52
462.083	1377.49
462.456	1397.83
462.829	1409.13
463.201	1447.77
463.574	1439.41
463.947	1462.46
464.32	1480.31
464.692	1525.74
465.065	1517.15
465.438	1529.8
465.81	1554.89
466.183	1600.09
466.555	1637.6
466.928	1648.22
467.3	1644.15
467.672	1684.38
468.045	1729.35
468.417	1718.73
468.789	1747.43
469.161	1769.12
469.534	1853.86
469.906	1835.56
470.278	1861.32
470.65	1943.13
471.022	1982.45
471.394	2015.67
471.766	2021.77
472.138	2092.73
472.51	2087.3
472.882	2142.9
473.253	2184.48
473.625	2245.27
473.997	2282.33
474.369	2328.88
474.74	2343.79
475.112	2430.57
475.484	2455.43
475.855	2512.83
476.227	2578.82
476.598	2661.3
476.97	2737.91
477.341	2775.65
477.713	2838.47
478.084	2888.19
478.455	2986.26
478.827	3023.55
479.198	3150.78
479.569	3191.23
479.94	3306.25
480.311	3341.96
480.682	3475.06
481.053	3570.65
481.424	3676.87
481.795	3748.96
482.166	3837.99
482.537	3904.43
482.908	3996.86
483.279	4075.95
483.65	4226.46
484.021	4332.67
484.391	4477.3
484.762	4496.96
485.133	4624.64
485.503	4699.89
485.874	4855.59
486.244	4901.92
486.615	5083.84
486.985	5198.86
487.356	5346.43
487.726	5439.76
488.097	5566.31
488.467	5661
488.837	5826.87
489.207	6000.42
489.578	6090.36
489.948	6219.62
490.318	6377.59
490.688	6470.24
491.058	6624.81
491.428	6673.62
491.798	6838.59
492.168	7042.2
492.538	7104.12
492.908	7291.91
493.278	7411.01
493.648	7420.27
494.017	7657.55
494.387	7723.09
494.757	7890.32
495.126	8039.92
495.496	8101.38
495.866	8155.62
496.235	8342.96
496.605	8535.04
496.974	8586.34
497.344	8702.05
497.713	8790.86
498.082	8893.45
498.452	8985.88
498.821	9063.17
499.19	9164.41
499.559	9279.88
499.928	9377.06
500.298	9476.71
500.667	9596.48
501.036	9594.9
501.405	9761.68
501.774	9787.67
502.143	9906.76
502.512	10023.14
502.88	10114.66
503.249	10089.81
503.618	10225.85
503.987	10322.12
504.356	10327.77
504.724	10456.12
505.093	10528.21
505.462	10593.97
505.83	10667.87
506.199	10814.08
506.567	10945.38
506.936	10979.5
507.304	11064.92
507.672	11060.85
508.041	11120.06
508.409	11219.27
508.777	11256.1
509.145	11399.15
509.514	11382.2
509.882	11438.47
510.25	11489.54
510.618	11530.9
510.986	11546.72
511.354	11647.73
511.722	11707.16
512.09	11928.4
512.458	11772.7
512.826	11910.1
513.193	11996.65
513.561	11993.94
513.929	12019.47
514.297	12078.23
514.664	12231.44
515.032	12082.3
515.4	12279.13
515.767	12211.56
516.135	12215.4
516.502	12194.38
516.869	12407.48
517.237	12386.47
517.604	12340.37
517.972	12446.13
518.339	12513.7
518.706	12510.08
519.073	12468.73
519.44	12570.19
519.808	12654.71
520.175	12572.68
520.542	12777.42
520.909	12728.83
521.276	12652
521.643	12745.78
522.009	12788.49
522.376	12870.52
522.743	12854.25
523.11	12957.98
523.477	13077.52
523.843	13043.85
524.21	13036.39
524.577	13123.17
524.943	13136.73
525.31	13154.36
525.676	13284.75
526.043	13248.82
526.409	13245.65
526.776	13286.33
527.142	13308.7
527.508	13285.65
527.874	13299.66
528.241	13202.04
528.607	13294.47
528.973	13433.45
529.339	13295.37
529.705	13372.43
530.071	13399.1
530.437	13375.82
530.803	13355.26
531.169	13381.02
531.535	13394.13
531.901	13360
532.267	13388.02
532.632	13393.22
532.998	13344.63
533.364	13312.32
533.73	13343.28
534.095	13346.22
534.461	13273.9
534.826	13362.26
535.192	13261.47
535.557	13334.24
535.923	13227.58
536.288	13238.2
536.653	13205.43
537.019	13118.88
537.384	13122.27
537.749	13137.18
538.114	13153.23
538.479	13113.91
538.845	12984.64
539.21	13012.67
539.575	13045.89
539.94	12941.03
540.305	13015.15
540.67	12884.76
541.034	12894.25
541.399	12831.65
541.764	12859.22
542.129	12792.33
542.494	12706.23
542.858	12741.04
543.223	12606.12
543.587	12668.95
543.952	12666.01
544.316	12652.22
544.681	12595.5
545.045	12578.55
545.41	12550.08
545.774	12517.76
546.138	12406.58
546.503	12452.91
546.867	12410.87
547.231	12416.98
547.595	12327.26
547.959	12226.02
548.324	12236.87
548.688	12292.01
549.052	12212.01
549.416	12193.25
549.779	12122.52
550.143	12127.04
550.507	12091.33
550.871	12067.83
551.235	12059.92
551.599	12052.01
551.962	12010.66
552.326	12026.48
552.689	11951.68
553.053	11863.09
553.417	11899.93
553.78	11967.72
554.143	11884.79
554.507	11777.44
554.87	11812.92
555.234	11835.3
555.597	11754.39
555.96	11749.42
556.323	11740.16
556.686	11744.45
557.05	11699.25
557.413	11703.55
557.776	11751.68
558.139	11736.32
558.502	11691.35
558.865	11700.61
559.228	11699.48
559.59	11717.79
559.953	11703.1
560.316	11744.9
560.679	11653.61
561.041	11727.95
561.404	11692.93
561.767	11773.15
562.129	11661.74
562.492	11721.4
562.854	11708.97
563.217	11690.44
563.579	11639.14
563.941	11754.17
564.304	11746.48
564.666	11738.12
565.028	11768.86
565.39	11731.34
565.753	11693.83
566.115	11731.34
566.477	11751.23
566.839	11706.49
567.201	11829.19
567.563	11838.69
567.925	11832.36
568.287	11803.43
568.648	11796.43
569.01	11877.78
569.372	11863.32
569.734	11817.44
570.095	11903.77
570.457	11897.22
570.819	11983.09
571.18	11855.41
571.542	12015.18
571.903	11914.84
572.265	11904.9
572.626	11962.75
572.987	11939.93
573.349	11936.31
573.71	11984.44
574.071	11959.13
574.432	11956.87
574.794	11985.8
575.155	12069.19
575.516	11935.41
575.877	11953.94
576.238	12091.56
576.599	12113.03
576.96	12071.9
577.32	12067.38
577.681	12081.39
578.042	12119.81
578.403	12045.46
578.763	12059.7
579.124	12080.26
579.485	12001.62
579.845	12135.4
580.206	12044.33
580.566	12063.09
580.927	12034.84
581.287	12074.16
581.648	12009.3
582.008	12146.02
582.368	12085.91
582.728	12007.95
583.089	12040.26
583.449	12017.21
583.809	12089.07
584.169	12029.87
584.529	11978.57
584.889	12063.09
585.249	11967.5
585.609	11856.09
585.969	11980.83
586.329	11948.06
586.688	11988.51
587.048	11918.68
587.408	12026.93
587.768	11934.95
588.127	11976.08
588.487	11867.39
588.846	12019.92
589.206	11818.57
589.565	11874.17
589.925	12003.43
590.284	11869.65
590.643	11888.18
591.003	11899.02
591.362	11919.81
591.721	11931.34
592.08	11833.49
592.44	11874.84
592.799	11835.07
593.158	11853.37
593.517	11923.88
593.876	11763.43
594.235	11776.54
594.593	11706.94
594.952	11772.25
595.311	11728.86
595.67	11809.76
596.029	11812.25
596.387	11912.58
596.746	11864.67
597.104	11786.26
597.463	11736.32
597.822	11771.34
598.18	11801.4
598.538	11719.14
598.897	11753.04
599.255	11702.87
599.613	11866.26
599.972	11699.71
600.33	11755.52
600.688	11681.18
601.046	11688.41
601.404	11807.5
601.762	11752.36
602.12	11788.29
602.478	11862.41
602.836	11830.1
603.194	11732.02
603.552	11685.02
603.91	11791.68
604.268	11792.59
604.625	11772.7
604.983	11767.28
605.341	11722.76
605.698	11785.81
606.056	11743.77
606.413	11683.44
606.771	11812.92
607.128	11787.39
607.485	11718.01
607.843	11760.27
608.2	11821.06
608.557	11830.55
608.914	11804.11
609.272	11717.33
609.629	11788.97
609.986	11833.49
610.343	11836.88
610.7	11818.57
611.057	11769.99
611.414	11786.71
611.771	11845.24
612.127	11886.82
612.484	11931.56
612.841	11993.94
613.198	11904.22
613.554	11961.39
613.911	11998.46
614.267	12016.08
614.624	11944.67
614.98	11865.8
615.337	11991.9
615.693	11946.25
616.05	11856.31
616.406	12043.2
616.762	11969.98
617.118	12039.81
617.475	11973.6
617.831	12057.66
618.187	11993.26
618.543	12089.53
618.899	12124.78
619.255	12077.55
619.611	12092.92
619.967	12127.94
620.323	12116.19
620.678	12067.15
621.034	11972.47
621.39	12089.3
621.746	12060.83
622.101	12109.87
622.457	12117.32
622.812	12085.01
623.168	12142.41
623.523	12105.8
623.879	12117.32
624.234	12042.52
624.589	12087.27
624.945	12080.71
625.3	12144.89
625.655	12144.89
626.01	12105.57
626.365	12082.3
626.72	12087.72
627.075	12097.21
627.43	12029.42
627.785	12100.6
628.14	12027.61
628.495	12075.74
628.85	12034.16
629.205	12010.88
629.559	11978.57
629.914	12075.74
630.269	12026.03
630.623	11917.33
630.978	11950.55
631.332	11991.9
631.687	12009.53
632.041	11918.91
632.396	11957.33
632.75	11855.63
633.104	11914.16
633.459	11958
633.813	11849.76
634.167	11913.26
634.521	11854.96
634.875	11905.58
635.229	11850.21
635.583	11842.3
635.937	11841.62
636.291	11831.45
636.645	11775.18
636.999	11790.55
637.352	11792.36
637.706	11717.33
638.06	11766.37
638.413	11675.98
638.767	11732.25
639.121	11614.06
639.474	11713.27
639.828	11623.78
640.181	11642.53
640.534	11566.6
640.888	11617.67
641.241	11449.54
641.594	11562.31
641.947	11607.96
642.301	11590.78
642.654	11544.46
643.007	11627.17
643.36	11566.83
643.713	11567.05
644.066	11591.01
644.419	11576.55
644.771	11458.81
645.124	11354.63
645.477	11333.16
645.83	11220.4
646.182	11247.06
646.535	11240.51
646.888	11176.33
647.24	11151.7
647.593	11214.75
647.945	11239.61
648.298	11193.73
648.65	11103.79
649.002	11130.23
649.355	11181.98
649.707	11152.15
650.059	11187.4
650.411	11290.45
650.763	11344.24
651.115	11391.47
651.467	11392.82
651.819	11409.09
652.171	11378.13
652.523	11375.87
652.875	11320.96
653.227	11349.21
653.578	11494.74
653.93	11367.06
654.282	11351.69
654.633	11344.24
654.985	11394.63
655.337	11375.65
655.688	11322.32
656.039	11393.27
656.391	11327.06
656.742	11350.34
657.094	11366.16
657.445	11430.79
657.796	11392.14
658.147	11407.28
658.498	11484.12
658.849	11432.37
659.2	11375.87
659.551	11412.03
659.902	11367.29
660.253	11432.82
660.604	11433.95
660.955	11438.47
661.306	11459.26
661.656	11410.45
662.007	11554.85
662.358	11469.66
662.708	11397.79
663.059	11395.53
663.409	11322.99
663.76	11453.84
664.11	11437.79
664.461	11443.44
664.811	11479.6
665.161	11489.32
665.511	11404.35
665.862	11384.23
666.212	11512.59
666.562	11483.67
666.912	11476.66
667.262	11436.44
667.612	11504.91
667.962	11436.66
668.312	11356.44
668.662	11531.35
669.011	11487.96
669.361	11386.04
669.711	11412.03
670.06	11452.48
670.41	11367.96
670.76	11386.72
671.109	11402.99
671.459	11399.6
671.808	11367.74
672.157	11479.37
672.507	11327.74
672.856	11318.25
673.205	11393.5
673.554	11365.7
673.904	11355.99
674.253	11329.77
674.602	11375.87
674.951	11205.03
675.3	11108.99
675.649	11303.56
675.998	11240.51
676.346	11231.24
676.695	11329.32
677.044	11169.32
677.393	11283.9
677.741	11292.71
678.09	11155.09
678.438	11172.26
678.787	11230.79
679.135	11218.82
679.484	11128.87
679.832	11148.76
680.181	11091.81
680.529	11190.57
680.877	11083.23
681.225	11076.9
681.573	11113.73
681.922	11066.95
682.27	10984.47
682.618	11038.93
682.966	11041.42
683.314	11017.69
683.661	11004.81
684.009	10929.33
684.357	10882.55
684.705	10890.91
685.053	10894.08
685.4	10806.62
685.748	10871.03
686.095	10802.1
686.443	10756.91
686.79	10773.63
687.138	10718.94
687.485	10730.47
687.832	10726.62
688.18	10680.3
688.527	10577.48
688.874	10628.55
689.221	10556.23
689.568	10561.66
689.915	10508.1
690.262	10460.64
690.609	10484.15
690.956	10391.04
691.303	10419.51
691.65	10360.53
691.997	10349.23
692.344	10302.68
692.69	10241.21
693.037	10229.46
693.383	10197.37
693.73	10211.16
694.077	10149.92
694.423	10128.9
694.769	10072.63
695.116	10036.25
695.462	9962.35
695.808	9968
696.155	9916.93
696.501	9848.46
696.847	9926.42
697.193	9869.7
697.539	9850.94
697.885	9747.44
698.231	9749.7
698.577	9770.27
698.923	9778.4
699.269	9603.72
699.614	9564.4
699.96	9545.86
700.306	9575.47
700.651	9492.31
700.997	9404.63
701.342	9448.24
701.688	9415.02
702.033	9434.23
702.379	9345.19
702.724	9328.47
703.069	9306.78
703.415	9271.07
703.76	9208.47
704.105	9232.88
704.45	9190.39
704.795	9122.83
705.14	9061.36
705.485	9080.57
705.83	9017.97
706.175	9044.64
706.52	9015.26
706.865	8948.59
707.209	9015.71
707.554	8921.7
707.899	8907.69
708.243	8849.39
708.588	8862.49
708.932	8752.67
709.277	8774.59
709.621	8791.53
709.966	8739.78
710.31	8816.39
710.654	8675.61
710.998	8719.45
711.342	8707.02
711.687	8658.2
712.031	8613.01
712.375	8599.9
712.719	8673.12
713.063	8571.2
713.407	8565.33
713.75	8501.6
714.094	8559.68
714.438	8460.7
714.782	8509.73
715.125	8462.28
715.469	8490.53
715.812	8455.95
716.156	8391.77
716.499	8441.49
716.843	8398.78
717.186	8338.44
717.53	8381.15
717.873	8359.91
718.216	8382.05
718.559	8309.97
718.902	8227.26
719.246	8300.25
719.589	8231.55
719.932	8223.19
720.275	8220.93
720.617	8211.21
720.96	8167.82
721.303	8223.41
721.646	8175.05
721.989	8142.51
722.331	8225
722.674	8155.17
723.016	8126.92
723.359	8141.38
723.701	8199.23
724.044	8088.28
724.386	8126.69
724.729	8148.16
725.071	8142.96
725.413	8117.88
725.755	8071.1
726.097	8100.93
726.439	8053.47
726.782	8057.32
727.124	8110.87
727.465	8092.57
727.807	8066.13
728.149	8014.83
728.491	8034.04
728.833	8067.49
729.175	8006.7
729.516	7995.85
729.858	7973.93
730.199	8110.65
730.541	8072.46
730.882	8029.29
731.224	8078.33
731.565	8024.1
731.906	8010.09
732.248	7971.44
732.589	8040.14
732.93	8028.16
733.271	8032.23
733.612	8011.67
733.953	7961.27
734.294	7972.57
734.635	7947.49
734.976	7992.46
735.317	7969.41
735.658	7999.69
735.999	7991.56
736.339	7994.95
736.68	8042.4
737.021	8035.4
737.361	7897.32
737.702	8051.44
738.042	8005.11
738.383	8046.24
738.723	7981.61
739.063	8003.98
739.404	8014.61
739.744	8130.76
740.084	8054.83
740.424	8074.04
740.764	8032.68
741.104	8138.22
741.444	8053.25
741.784	8129.18
742.124	8171.21
742.464	8174.38
742.804	8145.45
743.143	8136.18
743.483	8190.65
743.823	8152.91
744.162	8234.71
744.502	8248.95
744.841	8239.01
745.181	8351.09
745.52	8359.68
745.86	8386.12
746.199	8478.77
746.538	8479.68
746.877	8526.91
747.216	8552.22
747.556	8631.99
747.895	8644.65
748.234	8667.02
748.573	8729.62
748.911	8750.63
749.25	8823.17
749.589	8877.63
749.928	8968.48
750.267	8990.63
750.605	9122.83
750.944	9099.1
751.283	9196.95
751.621	9313.33
751.96	9421.8
752.298	9488.01
752.636	9593.32
752.975	9649.59
753.313	9706.31
753.651	9874.9
753.989	9925.97
754.327	10085.06
754.666	10134.78
755.004	10233.08
755.342	10397.82
755.679	10584.71
756.017	10652.05
756.355	10794.65
756.693	10892.27
757.031	11054.53
757.368	11218.82
757.706	11261.07
758.044	11349.21
758.381	11543.33
758.719	11713.94
759.056	11934.95
759.394	12059.92
759.731	12266.47
760.068	12345.34
760.405	12461.27
760.743	12597.31
761.08	12847.25
761.417	12920.69
761.754	13167.24
762.091	13273.9
762.428	13390.28
762.765	13544.18
763.102	13754.12
763.438	13872.3
763.775	14020.55
764.112	14211.96
764.449	14510.25
764.785	14479.52
765.122	14657.82
765.458	14803.81
765.795	14907.31
766.131	15165.38
766.467	15254.87
766.804	15390.91
767.14	15450.79
767.476	15637.68
767.812	15765.59
768.148	15952.25
768.485	16002.19
768.821	16060.5
769.157	16250.55
769.492	16349.08
769.828	16575.06
770.164	16534.83
770.5	16663.42
770.836	16847.37
771.171	16917.2
771.507	16980.02
771.842	17004.2
772.178	17229.73
772.513	17264.98
772.849	17386.56
773.184	17338.2
773.519	17510.63
773.855	17625.43
774.19	17618.19
774.525	17634.24
774.86	17780.9
775.195	17802.6
775.53	17824.52
775.865	17889.15
776.2	17963.27
776.535	17908.36
776.87	18022.93
777.205	17987.68
777.539	18011.86
777.874	18144.51
778.209	18126.88
778.543	18057.51
778.878	18179.76
779.212	18186.32
779.547	18144.96
779.881	18264.28
780.215	18181.34
780.55	18245.98
780.884	18209.59
781.218	18309.02
781.552	18346.99
781.886	18390.38
782.22	18289.82
782.554	18249.59
782.888	18217.5
783.222	18285.52
783.556	18236.26
783.889	18181.12
784.223	18147.45
784.557	18116.26
784.89	18215.69
785.224	18188.12
785.557	18160.55
785.891	18096.83
786.224	18068.35
786.558	18105.19
786.891	18116.94
787.224	18029.48
787.557	18075.13
787.891	18030.16
788.224	18080.1
788.557	17995.36
788.89	17932.08
789.223	17963.04
789.556	17945.64
789.888	17887.79
790.221	17827.68
790.554	17814.12
790.887	17881.46
791.219	17655.03
791.552	17772.54
791.884	17603.96
792.217	17733.22
792.549	17647.57
792.882	17571.64
793.214	17497.52
793.546	17608.25
793.879	17507.69
794.211	17477.86
794.543	17461.36
794.875	17401.48
795.207	17445.54
795.539	17354.7
795.871	17418.2
796.203	17266.11
796.535	17201.93
796.867	17182.95
797.198	17135.95
797.53	17109.96
797.862	17010.3
798.193	17196.96
798.525	16909.51
798.856	17014.82
799.188	16803.3
799.519	16844.43
799.85	16711.78
800.182	16778.22
800.513	16759.23
800.844	16606.7
801.175	16731.66
801.506	16735.28
801.837	16552.46
802.168	16584.1
802.499	16467.72
802.83	16436.76
803.161	16406.02
803.491	16433.59
803.822	16452.58
804.153	16282.86
804.483	16224.79
804.814	16164.9
805.145	16177.33
805.475	16171.45
805.805	15996.77
806.136	16161.96
806.466	16114.51
806.796	16054.85
807.126	15974.17
807.457	15994.06
807.787	15852.59
808.117	15881.97
808.447	15789.99
808.777	15752.48
809.107	15805.36
809.436	15652.37
809.766	15740.28
810.096	15633.61
810.426	15656.21
810.755	15644.69
811.085	15609.66
811.414	15610.34
811.744	15462.32
812.073	15476.56
812.403	15485.14
812.732	15472.71
813.061	15490.79
813.39	15276.56
813.719	15352.94
814.049	15359.05
814.378	15313.4
814.707	15234.75
815.036	15218.94
815.365	15220.52
815.693	15067.53
816.022	15143.46
816.351	15060.75
816.68	15015.55
817.008	14983.24
817.337	14863.01
817.665	14928.77
817.994	14954.54
818.322	14906.85
818.651	14869.11
818.979	14749.8
819.307	14828.89
819.636	14754.09
819.964	14720.64
820.292	14776.01
820.62	14703.7
820.948	14603.58
821.276	14743.92
821.604	14696.46
821.932	14663.92
822.259	14810.59
822.587	14575.34
822.915	14598.61
823.243	14654.66
823.57	14723.58
823.898	14679.97
824.225	14624.15
824.553	14585.73
824.88	14640.19
825.207	14688.78
825.535	14663.7
825.862	14712.51
826.189	14604.49
826.516	14722.68
826.843	14750.7
827.17	14700.98
827.497	14749.12
827.824	14742.11
828.151	14738.27
828.478	14685.39
828.805	14783.47
829.131	14647.2
829.458	14674.32
829.785	14600.87
830.111	14678.39
830.438	14714.32
830.764	14727.88
831.09	14702.11
831.417	14688.33
831.743	14726.52
832.069	14697.14
832.395	14695.33
832.722	14665.73
833.048	14680.87
833.374	14643.58
833.7	14593.42
834.026	14594.32
834.351	14636.8
834.677	14569.01
835.003	14642
835.329	14594.77
835.654	14535.79
835.98	14473.19
836.306	14518.84
836.631	14463.7
836.956	14472.51
837.282	14616.69
837.607	14428.9
837.932	14398.39
838.258	14387.32
838.583	14386.87
838.908	14346.42
839.233	14453.08
839.558	14355.68
839.883	14202.92
840.208	14218.51
840.533	14170.38
840.858	14195.46
841.182	14145.07
841.507	14221.67
841.832	14084.73
842.156	14138.29
842.481	14055.8
842.805	14044.73
843.13	13971.51
843.454	13909.37
843.778	13960.21
844.103	13990.95
844.427	13824.17
844.751	13875.47
845.075	13809.93
845.399	13694
845.723	13711.86
846.047	13776.04
846.371	13573.78
846.695	13630.96
847.019	13473.45
847.343	13466.89
847.666	13379.66
847.99	13304.41
848.313	13298.08
848.637	13252.43
848.96	13139.67
849.284	13178.09
849.607	13151.42
849.931	13098.31
850.254	12949.39
850.577	12922.73
850.9	12922.73
851.223	12745.55
851.546	12736.74
851.869	12709.62
852.192	12704.65
852.515	12609.06
852.838	12525
853.161	12520.02
853.483	12516.41
853.806	12466.69
854.129	12405.9
854.451	12420.37
854.774	12354.6
855.096	12283.65
855.419	12294.27
855.741	12198.9
856.063	12163.65
856.385	12195.74
856.708	12147.38
857.03	12146.93
857.352	11974.95
857.674	11984.9
857.996	12019.47
858.318	11881.4
858.64	11979.25
858.961	11828.29
859.283	11859.93
859.605	11800.27
859.926	11843.21
860.248	11723.43
860.57	11653.15
860.891	11737.22
861.212	11596.88
861.534	11661.97
861.855	11547.85
862.176	11551.69
862.498	11605.25
862.819	11612.7
863.14	11529.99
863.461	11475.98
863.782	11465.59
864.103	11531.12
864.424	11461.75
864.745	11422.88
865.065	11331.35
865.386	11325.48
865.707	11312.15
866.027	11288.87
866.348	11194.64
866.668	11288.87
866.989	11268.08
867.309	11151.47
867.63	11195.99
867.95	11230.79
868.27	11090.91
868.59	11140.85
868.91	11172.71
869.23	11106.73
869.55	11060.4
869.87	11102.43
870.19	11004.58
870.51	11030.8
870.83	11062.66
871.15	11015.66
871.469	11032.38
871.789	11015.66
872.109	10999.61
872.428	10961.87
872.748	10966.62
873.067	10892.04
873.386	10966.84
873.706	10921.2
874.025	10884.81
874.344	10763.46
874.663	10776.11
874.982	10758.49
875.301	10798.94
875.62	10694.54
875.939	10791.48
876.258	10734.76
876.577	10707.64
876.896	10733.18
877.214	10639.4
877.533	10654.99
877.852	10685.95
878.17	10672.61
878.489	10641.43
878.807	10659.28
879.125	10586.29
879.444	10594.65
879.762	10599.85
880.08	10623.12
880.398	10542.67
880.716	10475.56
881.034	10469.46
881.352	10478.5
881.67	10359.63
881.988	10396.01
882.306	10444.82
882.624	10408.22
882.941	10294.09
883.259	10345.17
883.577	10268.78
883.894	10273.76
884.212	10256.13
884.529	10242.8
884.846	10198.5
885.164	10239.18
885.481	10101.1
885.798	10165.74
886.115	10083.03
886.432	10101.33
886.75	10112.18
887.067	10077.83
887.383	10023.37
887.7	9992.63
888.017	9934.33
888.334	10005.74
888.651	9885.74
888.967	9887.55
889.284	9842.81
889.6	9836.48
889.917	9784.05
890.233	9799.42
890.55	9779.08
890.866	9681.23
891.182	9633.32
891.498	9693.66
891.815	9566.2
892.131	9605.07
892.447	9510.61
892.763	9543.6
893.079	9471.29
893.395	9476.71
893.71	9484.4
894.026	9383.16
894.342	9389.48
894.657	9313.1
894.973	9294.12
895.289	9296.15
895.604	9267.45
895.92	9225.42
896.235	9110.17
896.55	9170.06
896.865	9105.42
897.181	9122.15
897.496	9115.82
897.811	9021.58
898.126	8956.95
898.441	9005.09
898.756	8929.38
899.071	8906.79
899.386	8890.74
899.7	8808.48
900.015	8803.96
900.33	8728.03
900.644	8717.64
900.959	8722.61
901.273	8701.82
901.588	8648.94
901.902	8681.03
902.216	8611.65
902.531	8616.4
902.845	8533.24
903.159	8416.4
903.473	8500.92
903.787	8419.57
904.101	8372.11
904.415	8407.14
904.729	8326.91
905.042	8284.43
905.356	8290.08
905.67	8232.23
905.984	8241.72
906.297	8241.72
906.611	8160.59
906.924	8146.13
907.237	8176.18
907.551	8103.42
907.864	8023.42
908.177	8038.33
908.491	7975.96
908.804	7942.07
909.117	7898.9
909.43	7825.01
909.743	7878.34
910.056	7862.07
910.368	7759.25
910.681	7684.67
910.994	7711.11
911.307	7668.4
911.619	7586.37
911.932	7633.37
912.244	7601.28
912.557	7521.06
912.869	7481.29
913.181	7480.16
913.494	7470.89
913.806	7383.66
914.118	7420.5
914.43	7380.05
914.742	7337.56
915.054	7275.42
915.366	7284
915.678	7235.19
915.99	7186.6
916.302	7193.16
916.613	7133.05
916.925	7086.27
917.236	7114.74
917.548	7063.67
917.859	7067.51
918.171	7025.48
918.482	7032.03
918.794	6966.27
919.105	6947.06
919.416	6894.18
919.727	6890.57
920.038	6831.13
920.349	6803.11
920.66	6734.87
920.971	6786.39
921.282	6755.2
921.593	6738.48
921.903	6650.35
922.214	6629.33
922.525	6571.03
922.835	6557.02
923.146	6537.36
923.456	6534.19
923.767	6454.65
924.077	6463.46
924.387	6469.79
924.697	6420.98
925.008	6369.45
925.318	6326.74
925.628	6376.46
925.938	6322.45
926.248	6295.1
926.558	6300.75
926.867	6268.66
927.177	6203.58
927.487	6127.2
927.796	6148.67
928.106	6106.63
928.416	6128.33
928.725	6043.36
929.034	6074.32
929.344	6009.23
929.653	6055.34
929.962	5982.12
930.271	6007.88
930.581	5857.83
930.89	5933.76
931.199	5863.7
931.508	5846.08
931.817	5840.88
932.125	5809.47
932.434	5806.3
932.743	5749.58
933.051	5755
933.36	5754.33
933.669	5684.05
933.977	5655.8
934.286	5657.38
934.594	5682.46
934.902	5626.42
935.21	5588
935.519	5514.56
935.827	5565.4
936.135	5492.19
936.443	5451.51
936.751	5479.31
937.059	5486.99
937.367	5431.4
937.674	5414.67
937.982	5397.5
938.29	5349.14
938.597	5383.71
938.905	5304.85
939.213	5252.87
939.52	5238.86
939.827	5242.25
940.135	5262.81
940.442	5242.48
940.749	5199.31
941.056	5164.06
941.363	5131.52
941.67	5086.1
941.977	5071.41
942.284	5065.08
942.591	5023.27
942.898	5046.32
943.205	5009.03
943.511	4950.73
943.818	4989.15
944.125	4922.71
944.431	4898.98
944.738	4853.33
945.044	4877.74
945.35	4848.59
945.657	4847.91
945.963	4872.32
946.269	4761.36
946.575	4786.67
946.881	4752.09
947.187	4763.39
947.493	4679.33
947.799	4708.48
948.105	4635.71
948.41	4661.02
948.716	4681.13
949.022	4606.56
949.327	4588.93
949.633	4579.67
949.938	4546.9
950.244	4557.07
950.549	4489.73
950.854	4500.8
951.16	4470.74
951.465	4435.94
951.77	4443.63
952.075	4447.69
952.38	4423.97
952.685	4385.1
952.99	4355.72
953.294	4353.68
953.599	4369.73
953.904	4315.27
954.209	4286.34
954.513	4235.72
954.818	4252.9
955.122	4251.99
955.426	4247.02
955.731	4189.62
956.035	4176.06
956.339	4121.83
956.643	4128.38
956.948	4093.8
957.252	4112.56
957.556	4084.54
957.86	4056.97
958.163	4065.56
958.467	4027.37
958.771	4002.73
959.075	4007.93
959.378	3984.88
959.682	3993.92
959.985	3969.06
960.289	3933.13
960.592	3900.36
960.896	3895.17
961.199	3902.17
961.502	3903.3
961.805	3808.39
962.108	3868.05
962.411	3816.98
962.714	3800.71
963.017	3773.14
963.32	3792.8
963.623	3740.59
963.926	3729.97
964.228	3711.22
964.531	3702.4
964.833	3688.62
965.136	3658.11
965.438	3655.17
965.741	3616.08
966.043	3658.34
966.345	3602.52
966.648	3624.44
966.95	3569.07
967.252	3546.25
967.554	3539.24
967.856	3554.16
968.158	3522.52
968.46	3509.19
968.761	3471
969.063	3446.82
969.365	3479.81
969.666	3431.9
969.968	3374.73
970.269	3394.39
970.571	3408.17
970.872	3408.63
971.174	3386.48
971.475	3358
971.776	3345.35
972.077	3342.19
972.378	3291.11
972.679	3292.92
972.98	3278.01
973.281	3254.5
973.582	3248.63
973.883	3233.71
974.183	3218.35
974.484	3201.85
974.785	3207.95
975.085	3182.64
975.386	3170.67
975.686	3151.46
975.986	3158.01
976.287	3110.78
976.587	3058.35
976.887	3101.97
977.187	3072.36
977.487	3059.48
977.787	3038.47
978.087	3030.56
978.387	2993.95
978.687	3028.3
978.987	3019.71
979.286	2980.39
979.586	2993.49
979.885	2978.13
980.185	2935.64
980.484	2896.32
980.784	2910.33
981.083	2934.06
981.382	2882.76
981.682	2922.54
981.981	2887.73
982.28	2880.5
982.579	2843.22
982.878	2875.76
983.177	2853.84
983.475	2819.94
983.774	2785.59
984.073	2784.01
984.372	2776.78
984.67	2768.19
984.969	2754.86
985.267	2728.87
985.566	2759.83
985.864	2712.37
986.162	2710.11
986.461	2668.53
986.759	2669.44
987.057	2652.26
987.355	2661.75
987.653	2651.58
987.951	2649.1
988.249	2573.62
988.547	2630.79
988.844	2578.59
989.142	2585.14
989.44	2558.93
989.737	2541.98
990.035	2530
990.332	2532.72
990.63	2534.07
990.927	2525.48
991.224	2496.11
991.521	2495.2
991.819	2451.14
992.116	2441.87
992.413	2430.35
992.71	2442.77
993.006	2432.61
993.303	2411.36
993.6	2391.93
993.897	2424.47
994.193	2375.43
994.49	2385.6
994.787	2320.97
995.083	2351.25
995.379	2337.24
995.676	2298.6
995.972	2316
996.268	2299.73
996.565	2264.02
996.861	2273.97
997.157	2260.18
997.453	2240.52
997.749	2256.79
998.044	2208.43
998.34	2210.46
998.636	2231.03
998.932	2224.48
999.227	2181.54
999.523	2191.03
999.818	2157.81
1000.114	2133.18
1000.409	2137.02
1000.704	2085.72
1001	2121.2
1001.295	2092.28
1001.59	2116.46
1001.885	2039.85
1002.18	2076.23
1002.475	2048.43
1002.77	2049.34
1003.065	2019.74
1003.359	2037.14
1003.654	2014.76
1003.949	2002.33
1004.243	2039.85
1004.538	1989.45
1004.832	1965.05
1005.127	1981.54
1005.421	1939.74
1005.715	1951.26
1006.009	1888.21
1006.304	1922.56
1006.598	1921.88
1006.892	1897.25
1007.186	1875.56
1007.48	1887.76
1007.773	1860.42
1008.067	1835.11
1008.361	1837.37
1008.655	1838.5
1008.948	1816.35
1009.242	1824.26
1009.535	1802.57
1009.829	1789.46
1010.122	1762.11
1010.415	1798.27
1010.708	1750.14
1011.001	1765.5
1011.295	1735.9
1011.588	1713.08
1011.881	1728.44
1012.173	1717.82
1012.466	1672.63
1012.759	1693.64
1013.052	1680.08
1013.344	1677.37
1013.637	1646.19
1013.93	1647.32
1014.222	1621.1
1014.514	1631.5
1014.807	1642.34
1015.099	1626.07
1015.391	1631.5
1015.683	1621.33
1015.976	1610.25
1016.268	1585.4
1016.56	1569.13
1016.851	1550.14
1017.143	1568.9
1017.435	1549.24
1017.727	1537.26
1018.018	1500.2
1018.31	1502.91
1018.602	1497.04
1018.893	1516.25
1019.185	1457.72
1019.476	1479.64
1019.767	1460.65
1020.058	1442.35
1020.35	1424.95
1020.641	1428.56
1020.932	1424.95
1021.223	1436.02
1021.514	1403.03
1021.804	1379.98
1022.095	1374.78
1022.386	1376.36
1022.677	1384.5
1022.967	1394.67
1023.258	1338.85
1023.548	1354.89
1023.839	1335.69
1024.129	1335.91
1024.419	1306.76
1024.709	1299.3
1025	1274.22
1025.29	1299.3
1025.58	1288.23
1025.87	1272.64
1026.16	1263.37
1026.449	1245.74
1026.739	1256.14
1027.029	1251.17
1027.319	1241.9
1027.608	1241.9
1027.898	1236.48
1028.187	1197.16
1028.477	1210.26
1028.766	1203.26
1029.055	1184.28
1029.344	1185.63
1029.634	1143.6
1029.923	1156.48
1030.212	1172.75
1030.501	1156.93
1030.79	1139.76
1031.078	1149.25
1031.367	1132.98
1031.656	1130.27
1031.945	1104.5
1032.233	1130.72
1032.522	1110.38
1032.81	1093.88
1033.099	1115.8
1033.387	1084.84
1033.675	1076.48
1033.963	1063.38
1034.251	1059.76
1034.54	1035.13
1034.828	1044.62
1035.116	1025.86
1035.403	1024.05
1035.691	1025.86
1035.979	1010.72
1036.267	997.39
1036.554	1001.46
1036.842	995.13
1037.129	980.44
1037.417	984.51
1037.704	988.58
1037.992	960.1
1038.279	990.84
1038.566	954.23
1038.853	954.23
1039.14	954.23
