Data from hue_110_FLMS001491_00005.txt Node
Date: Tue Feb 07 17:00:49 GMT 2017
User: dcchb
Spectrometer: FLMS00149
Trigger mode: 0
Integration Time (sec): 2.000000E-2
Scans to average: 10
Electric dark correction enabled: true
Nonlinearity correction enabled: false
Boxcar width: 0
XAxis mode: Wavelengths
Number of Pixels in Spectrum: 2048
>>>>>Begin Spectral Data<<<<<
341.393	-10.48
341.776	-10.48
342.16	-10.48
342.543	-60.87
342.927	-69.01
343.31	-78.27
343.693	-82.12
344.077	-57.26
344.46	-58.61
344.843	-60.65
345.226	-40.31
345.61	-49.12
345.993	-27.43
346.376	-10.71
346.759	0.37
347.142	29.74
347.525	58.22
347.908	63.19
348.291	100.93
348.674	100.48
349.057	111.55
349.44	142.06
349.823	133.92
350.206	203.53
350.588	192.68
350.971	216.41
351.354	226.58
351.737	247.37
352.119	253.24
352.502	280.81
352.884	249.4
353.267	273.35
353.65	286.46
354.032	303.41
354.414	314.48
354.797	312.68
355.179	323.97
355.562	312.22
355.944	319
356.326	347.7
356.709	331.66
357.091	318.1
357.473	346.35
357.855	334.6
358.238	322.84
358.62	341.6
359.002	363.07
359.384	359.68
359.766	352.22
360.148	330.98
360.53	343.41
360.912	326.46
361.294	333.47
361.676	340.7
362.057	324.88
362.439	329.4
362.821	330.53
363.203	329.62
363.584	329.85
363.966	316.07
364.348	346.35
364.729	311.77
365.111	312
365.493	316.52
365.874	305.22
366.256	304.99
366.637	306.35
367.019	328.95
367.4	311.09
367.781	329.85
368.163	334.37
368.544	337.76
368.925	324.65
369.306	311.55
369.688	317.2
370.069	297.99
370.45	300.92
370.831	303.86
371.212	321.71
371.593	313.58
371.974	310.64
372.355	314.71
372.736	312.45
373.117	318.32
373.498	315.61
373.879	333.69
374.26	309.96
374.641	317.65
375.021	326.23
375.402	317.65
375.783	340.7
376.163	323.75
376.544	309.29
376.925	322.84
377.305	313.13
377.686	336.63
378.066	330.75
378.447	326.01
378.827	323.52
379.208	323.52
379.588	334.82
379.968	321.49
380.349	329.17
380.729	344.31
381.109	333.47
381.489	352.22
381.87	338.21
382.25	319.23
382.63	329.85
383.01	327.14
383.39	350.19
383.77	339.12
384.15	351.32
384.53	361.49
384.91	352.9
385.29	361.49
385.67	348.38
386.049	355.61
386.429	347.93
386.809	358.78
387.189	362.17
387.568	344.99
387.948	352.45
388.328	377.76
388.707	340.7
389.087	330.98
389.466	344.31
389.846	369.85
390.225	356.52
390.605	363.3
390.984	359.68
391.363	362.39
391.743	363.3
392.122	356.97
392.501	378.21
392.881	385.22
393.26	384.99
393.639	359.68
394.018	379.34
394.397	370.3
394.776	377.98
395.155	392.9
395.534	386.8
395.913	385.44
396.292	379.34
396.671	386.8
397.05	395.84
397.429	383.18
397.808	386.57
398.186	412.56
398.565	401.26
398.944	381.15
399.323	416.18
399.701	387.02
400.08	393.8
400.458	405.1
400.837	410.53
401.215	413.92
401.594	416.4
401.972	397.87
402.351	383.86
402.729	402.16
403.107	424.76
403.486	417.31
403.864	426.57
404.242	438.77
404.62	404.2
404.999	405.55
405.377	412.79
405.755	427.47
406.133	431.54
406.511	434.48
406.889	421.83
407.267	443.97
407.645	432.67
408.023	434.25
408.401	443.07
408.779	440.13
409.156	451.65
409.534	459.11
409.912	457.53
410.29	445.78
410.667	453.69
411.045	460.47
411.422	459.11
411.8	475.61
412.178	487.36
412.555	466.57
412.933	490.52
413.31	467.7
413.687	505.21
414.065	484.87
414.442	468.15
414.819	492.78
415.197	494.82
415.574	503.86
415.951	501.37
416.328	497.08
416.705	517.64
417.082	491.65
417.46	487.59
417.837	526.91
418.214	520.13
418.591	547.02
418.967	535.27
419.344	530.52
419.721	525.1
420.098	557.19
420.475	544.08
420.852	549.05
421.228	542.05
421.605	539.56
421.982	550.41
422.358	566.68
422.735	575.04
423.111	543.18
423.488	567.36
423.864	577.75
424.241	595.83
424.617	580.46
424.994	592.44
425.37	564.87
425.746	579.56
426.123	607.81
426.499	578.66
426.875	586.57
427.251	611.42
427.627	618.43
428.003	628.15
428.379	619.11
428.756	626.57
429.132	643.29
429.507	639.9
429.883	646.45
430.259	655.94
430.635	672.44
431.011	672.44
431.387	641.48
431.763	669.73
432.138	664.98
432.514	695.49
432.89	692.1
433.265	693.68
433.641	708.6
434.016	733.23
434.392	717.41
434.767	717.18
435.143	719.9
435.518	719.67
435.894	740.46
436.269	731.87
436.644	755.83
437.02	757.64
437.395	779.1
437.77	772.55
438.145	776.62
438.52	779.78
438.895	768.93
439.271	794.92
439.646	791.98
440.021	809.16
440.395	815.26
440.77	808.93
441.145	827.92
441.52	823.4
441.895	833.11
442.27	822.72
442.645	860.46
443.019	865.66
443.394	839.67
443.769	867.92
444.143	858.2
444.518	860.46
444.892	871.08
445.267	867.01
445.641	892.1
446.016	879.21
446.39	916.73
446.764	893.45
447.139	904.52
447.513	907.01
447.887	900
448.262	953.34
448.636	925.31
449.01	915.6
449.384	959.89
449.758	941.59
450.132	947.23
450.506	970.29
450.88	967.8
451.254	966.44
451.628	976.16
452.002	1002.83
452.376	1002.83
452.75	1008.93
453.123	996.73
453.497	1025.43
453.871	1043.73
454.244	1063.16
454.618	1057.74
454.992	1086.21
455.365	1060.9
455.739	1098.19
456.112	1083.73
456.486	1083.95
456.859	1120.79
457.232	1129.38
457.606	1157.4
457.979	1160.79
458.352	1186.1
458.725	1168.02
459.099	1232.65
459.472	1241.46
459.845	1252.99
460.218	1256.83
460.591	1286.21
460.964	1295.25
461.337	1279.43
461.71	1293.21
462.083	1321.69
462.456	1299.54
462.829	1333.67
463.201	1388.58
463.574	1364.17
463.947	1422.25
464.32	1422.25
464.692	1459.09
465.065	1471.29
465.438	1481.23
465.81	1507.67
466.183	1508.12
466.555	1557.39
466.928	1588.12
467.3	1554.9
467.672	1567.78
468.045	1635.8
468.417	1666.31
468.789	1660.66
469.161	1696.59
469.534	1725.29
469.906	1795.12
470.278	1834.9
470.65	1810.94
471.022	1904.05
471.394	1933.2
471.766	1935.01
472.138	1958.96
472.51	1988.11
472.882	2035.79
473.253	2089.8
473.625	2144.94
473.997	2205.06
474.369	2209.12
474.74	2253.42
475.112	2348.55
475.484	2379.51
475.855	2415.44
476.227	2456.8
476.598	2540.87
476.97	2571.6
477.341	2676.91
477.713	2733.85
478.084	2807.98
478.455	2885.94
478.827	2936.34
479.198	3024.24
479.569	3065.6
479.94	3153.73
480.311	3243.22
480.682	3325.93
481.053	3424.23
481.424	3526.6
481.795	3624.45
482.166	3717.33
482.537	3788.52
482.908	3929.53
483.279	3955.97
483.65	4073.25
484.021	4198.22
484.391	4299.46
484.762	4352.57
485.133	4470.76
485.503	4647.25
485.874	4786
486.244	4827.58
486.615	4958.43
486.985	5085.21
487.356	5286.56
487.726	5334.92
488.097	5483.39
488.467	5630.5
488.837	5756.37
489.207	5865.52
489.578	6032.98
489.948	6093.77
490.318	6289.92
490.688	6327.43
491.058	6582.57
491.428	6677.48
491.798	6781.43
492.168	6938.94
492.538	7100.97
492.908	7269.55
493.278	7406.05
493.648	7441.98
494.017	7627.51
494.387	7740.28
494.757	7881.29
495.126	8032.92
495.496	8148.4
495.866	8284.67
496.235	8372.8
496.605	8543.19
496.974	8657.31
497.344	8804.2
497.713	8889.63
498.082	9017.08
498.452	9122.16
498.821	9216.4
499.19	9283.29
499.559	9427.01
499.928	9526.44
500.298	9657.97
500.667	9777.51
501.036	9854.35
501.405	10006.88
501.774	10019.09
502.143	10175.69
502.512	10260.44
502.88	10328.01
503.249	10453.2
503.618	10500.66
503.987	10590.82
504.356	10725.28
504.724	10864.71
505.093	10803.25
505.462	10913.07
505.83	11091.6
506.199	11148.77
506.567	11232.16
506.936	11338.6
507.304	11406.85
507.672	11509.22
508.041	11556.9
508.409	11691.13
508.777	11715.77
509.145	11844.12
509.514	11849.32
509.882	11998.7
510.25	12006.15
510.618	12080.73
510.986	12148.75
511.354	12278.24
511.722	12308.29
512.09	12424.9
512.458	12352.81
512.826	12567.27
513.193	12512.35
513.561	12599.36
513.929	12691.33
514.297	12766.13
514.664	12754.61
515.032	12885
515.4	12958.9
515.767	12980.14
516.135	13025.34
516.502	12959.8
516.869	13101.72
517.237	13207.25
517.604	13185.33
517.972	13320.02
518.339	13372.22
518.706	13304.65
519.073	13439.79
519.44	13455.15
519.808	13583.29
520.175	13514.81
520.542	13580.35
520.909	13663.06
521.276	13660.12
521.643	13781.7
522.009	13721.14
522.376	13830.06
522.743	13806.11
523.11	13962.49
523.477	14041.13
523.843	14081.58
524.21	14237.73
524.577	14202.71
524.943	14118.64
525.31	14282.93
525.676	14312.08
526.043	14392.98
526.409	14364.51
526.776	14512.75
527.142	14477.95
527.508	14456.48
527.874	14626.42
528.241	14565.63
528.607	14514.11
528.973	14622.36
529.339	14506.2
529.705	14652.19
530.071	14689.7
530.437	14662.81
530.803	14710.71
531.169	14685.86
531.535	14687.21
531.901	14702.81
532.267	14719.3
532.632	14751.17
532.998	14759.53
533.364	14698.06
533.73	14853.99
534.095	14831.39
534.461	14829.36
534.826	14792.07
535.192	14751.84
535.557	14854.67
535.923	14729.47
536.288	14750.94
536.653	14818.96
537.019	14705.29
537.384	14686.99
537.749	14752.97
538.114	14711.62
538.479	14611.06
538.845	14702.81
539.21	14536.48
539.575	14580.55
539.94	14685.63
540.305	14633.43
540.67	14426.65
541.034	14459.65
541.399	14468.91
541.764	14497.16
542.129	14447.22
542.494	14428.46
542.858	14456.71
543.223	14378.07
543.587	14467.56
543.952	14349.82
544.316	14288.58
544.681	14283.61
545.045	14374.68
545.41	14309.14
545.774	14290.84
546.138	14167
546.503	14192.31
546.867	14149.37
547.231	14225.08
547.595	14136.49
547.959	14120.45
548.324	14157.74
548.688	14073.22
549.052	14074.8
549.416	14000.68
549.779	13943.73
550.143	14007.68
550.507	13934.46
550.871	13950.28
551.235	13842.04
551.599	13937.63
551.962	13858.99
552.326	13801.36
552.689	13913
553.053	13796.39
553.417	13783.96
553.78	13903.5
554.143	13753.23
554.507	13757.29
554.87	13766.11
555.234	13901.02
555.597	13750.97
555.96	13835.71
556.323	13774.69
556.686	13701.02
557.05	13783.28
557.413	13776.28
557.776	13696.73
558.139	13776.28
558.502	13686.79
558.865	13759.1
559.228	13793.9
559.59	13768.37
559.953	13715.03
560.316	13781.47
560.679	13727.92
561.041	13840.46
561.404	13774.47
561.767	13793.68
562.129	13725.2
562.492	13929.72
562.854	13747.12
563.217	13744.86
563.579	13733.57
563.941	13877.74
564.304	13847.69
564.666	13888.82
565.028	13900.34
565.39	13868.48
565.753	13949.38
566.115	13927.68
566.477	13980.34
566.839	13980.79
567.201	13966.33
567.563	13982.82
567.925	13958.42
568.287	14021.24
568.648	13985.08
569.01	14054.23
569.372	14081.35
569.734	14022.15
570.095	14124.06
570.457	14139.66
570.819	14197.28
571.18	14122.48
571.542	14201.8
571.903	14163.38
572.265	14216.49
572.626	14317.73
572.987	14264.17
573.349	14347.79
573.71	14274.12
574.071	14337.17
574.432	14260.33
574.794	14329.03
575.155	14375.13
575.516	14287
575.877	14328.13
576.238	14363.83
576.599	14310.73
576.96	14303.95
577.32	14395.69
577.681	14436.82
578.042	14386.88
578.403	14392.98
578.763	14506.65
579.124	14366.54
579.485	14435.24
579.845	14381.23
580.206	14423.72
580.566	14339.43
580.927	14409.25
581.287	14477.27
581.648	14376.49
582.008	14424.85
582.368	14404.51
582.728	14402.25
583.089	14401.12
583.449	14372.64
583.809	14373.55
584.169	14324.74
584.529	14302.36
584.889	14473.21
585.249	14269.82
585.609	14268.69
585.969	14320.89
586.329	14340.1
586.688	14321.8
587.048	14290.84
587.408	14217.39
587.768	14291.97
588.127	14306.43
588.487	14270.5
588.846	14389.82
589.206	14262.14
589.565	14291.29
589.925	14329.03
590.284	14274.57
590.643	14182.82
591.003	14230.95
591.362	14205.19
591.721	14262.59
592.08	14162.03
592.44	14190.73
592.799	14205.64
593.158	14219.65
593.517	14122.93
593.876	14190.05
594.235	14066.89
594.593	14148.24
594.952	14023.5
595.311	14112.54
595.67	14113.67
596.029	14194.8
596.387	14202.93
596.746	14141.92
597.104	14140.33
597.463	14136.72
597.822	14113.44
598.18	14169.03
598.538	14090.17
598.897	14164.74
599.255	14004.52
599.613	14267.56
599.972	14164.06
600.33	14193.67
600.688	14121.8
601.046	14193.89
601.404	14197.28
601.762	14106.66
602.12	14206.77
602.478	14187.79
602.836	14177.17
603.194	14194.12
603.552	14103.05
603.91	14110.05
604.268	14114.57
604.625	14051.98
604.983	14098.98
605.341	14148.24
605.698	14137.62
606.056	14173.1
606.413	14181.46
606.771	14196.6
607.128	14146.21
607.485	14089.04
607.843	14239.54
608.2	14250.84
608.557	14232.76
608.914	14200.9
609.272	14187.34
609.629	14294.23
609.986	14265.75
610.343	14185.08
610.7	14317.5
611.057	14302.14
611.414	14200.22
611.771	14291.97
612.127	14350.95
612.484	14288.13
612.841	14358.86
613.198	14386.88
613.554	14373.32
613.911	14390.72
614.267	14473.21
614.624	14404.96
614.98	14356.6
615.337	14498.52
615.693	14437.73
616.05	14382.81
616.406	14501.45
616.762	14467.33
617.118	14423.94
617.475	14509.14
617.831	14510.72
618.187	14564.73
618.543	14532.87
618.899	14518.86
619.255	14563.15
619.611	14504.39
619.967	14524.05
620.323	14618.74
620.678	14472.08
621.034	14522.92
621.39	14619.19
621.746	14569.93
622.101	14659.19
622.457	14472.08
622.812	14610.6
623.168	14625.75
623.523	14640.89
623.879	14609.47
624.234	14553.2
624.589	14570.38
624.945	14526.76
625.3	14574.67
625.655	14563.37
626.01	14604.73
626.365	14628.23
626.72	14628.46
627.075	14625.07
627.43	14588.23
627.785	14568.12
628.14	14606.76
628.495	14536.48
628.85	14536.93
629.205	14500.1
629.559	14477.73
629.914	14473.21
630.269	14530.61
630.623	14449.93
630.978	14447.67
631.332	14548.23
631.687	14507.1
632.041	14474.56
632.396	14514.56
632.75	14447.67
633.104	14458.29
633.459	14295.58
633.813	14335.36
634.167	14385.07
634.521	14327.45
634.875	14284.96
635.229	14335.36
635.583	14301.46
635.937	14299.65
636.291	14248.58
636.645	14262.82
636.999	14284.51
637.352	14279.54
637.706	14188.24
638.06	14229.15
638.413	14136.49
638.767	14125.19
639.121	14209.49
639.474	14100.79
639.828	14084.06
640.181	14120.67
640.534	14107.57
640.888	14066.21
641.241	14038.87
641.594	14131.97
641.947	14105.08
642.301	14071.41
642.654	14082.26
643.007	14075.7
643.36	14010.85
643.713	13986.89
644.066	14041.81
644.419	14002.71
644.771	13904.63
645.124	13811.08
645.477	13719.55
645.83	13624.42
646.182	13489.28
646.535	13498.77
646.888	13482.5
647.24	13467.36
647.593	13572.21
647.945	13568.37
648.298	13429.84
648.65	13465.78
649.002	13389.17
649.355	13560.01
649.707	13423.52
650.059	13588.48
650.411	13678.43
650.763	13676.62
651.115	13842.04
651.467	13768.82
651.819	13788.25
652.171	13765.65
652.523	13743.51
652.875	13786.22
653.227	13742.38
653.578	13837.52
653.93	13752.55
654.282	13657.41
654.633	13729.95
654.985	13759.1
655.337	13753.68
655.688	13744.41
656.039	13832.55
656.391	13756.84
656.742	13755.94
657.094	13786.9
657.445	13810.17
657.796	13855.6
658.147	13817.18
658.498	13716.84
658.849	13780.12
659.2	13773.79
659.551	13731.76
659.902	13816.28
660.253	13806.78
660.604	13782.6
660.955	13782.6
661.306	13823.05
661.656	13775.37
662.007	13873.22
662.358	13880.45
662.708	13815.6
663.059	13800
663.409	13781.02
663.76	13835.03
664.11	13856.95
664.461	13870.74
664.811	13809.95
665.161	13908.93
665.511	13784.41
665.862	13818.53
666.212	13887.46
666.562	13835.71
666.912	13823.05
667.262	13741.25
667.612	13795.48
667.962	13840.68
668.312	13863.51
668.662	13871.64
669.011	13824.86
669.361	13866.44
669.711	13810.63
670.06	13833.9
670.41	13790.06
670.76	13773.34
671.109	13822.15
671.459	13786.45
671.808	13742.15
672.157	13791.64
672.507	13689.5
672.856	13684.3
673.205	13744.86
673.554	13768.82
673.904	13721.14
674.253	13797.52
674.602	13743.51
674.951	13439.11
675.3	13432.56
675.649	13676.17
675.998	13611.76
676.346	13620.8
676.695	13634.13
677.044	13543.97
677.393	13566.79
677.741	13585.77
678.09	13613.79
678.438	13546.68
678.787	13547.36
679.135	13571.31
679.484	13447.02
679.832	13543.06
680.181	13403.4
680.529	13446.57
680.877	13400.24
681.225	13355.95
681.573	13470.75
681.922	13360.92
682.27	13253.13
682.618	13304.2
682.966	13246.12
683.314	13311.43
683.661	13259.91
684.009	13169.74
684.357	13145.11
684.705	13139.68
685.053	13211.32
685.4	13140.59
685.748	13015.62
686.095	12980.82
686.443	13073.24
686.79	13086.35
687.138	13020.59
687.485	12966.35
687.832	12932
688.18	12833.25
688.527	12846.81
688.874	12774.04
689.221	12769.75
689.568	12741.05
689.915	12731.33
690.262	12735.4
690.609	12667.38
690.956	12543.09
691.303	12594.61
691.65	12527.27
691.997	12512.81
692.344	12464.9
692.69	12393.49
693.037	12329.31
693.383	12215.19
693.73	12360.04
694.077	12219.93
694.423	12204.34
694.769	12316.2
695.116	12181.29
695.462	12173.61
695.808	12082.31
696.155	12101.74
696.501	11971.58
696.847	11900.17
697.193	11874.63
697.539	11847.29
697.885	11830.34
698.231	11773.39
698.577	11811.13
698.923	11713.96
699.269	11728.19
699.614	11631.02
699.96	11618.82
700.306	11516.67
700.651	11429.9
700.997	11382.21
701.342	11453.4
701.688	11355.32
702.033	11323.23
702.379	11339.96
702.724	11292.73
703.069	11312.84
703.415	11209.56
703.76	11209.34
704.105	11209.34
704.45	11097.25
704.795	11081.66
705.14	10986.52
705.485	11021.55
705.83	10938.16
706.175	10919.18
706.52	10943.81
706.865	10889.8
707.209	10885.96
707.554	10781.55
707.899	10877.6
708.243	10742.01
708.588	10714.66
708.932	10677.83
709.277	10639.41
709.621	10647.77
709.966	10551.73
710.31	10611.61
710.654	10551.73
710.998	10484.61
711.342	10556.02
711.687	10487.55
712.031	10396.48
712.375	10373.43
712.719	10334.33
713.063	10372.98
713.407	10412.3
713.75	10331.62
714.094	10322.13
714.438	10283.71
714.782	10236.48
715.125	10126.88
715.469	10270.61
715.812	10103.6
716.156	10145.86
716.499	10171.63
716.843	10127.78
717.186	10093.44
717.53	10065.41
717.873	10087.33
718.216	10074.68
718.559	10061.57
718.902	9993.55
719.246	10028.35
719.589	9988.58
719.932	9882.82
720.275	9962.82
720.617	9974.57
720.96	9933.89
721.303	9923.04
721.646	9902.03
721.989	9882.59
722.331	9841.01
722.674	9856.61
723.016	9869.71
723.359	9833.55
723.701	9894.57
724.044	9777.51
724.386	9722.15
724.729	9796.04
725.071	9734.57
725.413	9792.2
725.755	9812.09
726.097	9671.98
726.439	9662.94
726.782	9726.67
727.124	9733.44
727.465	9699.32
727.807	9680.79
728.149	9658.64
728.491	9705.65
728.833	9694.35
729.175	9725.31
729.516	9666.1
729.858	9680.56
730.199	9623.62
730.541	9704.07
730.882	9653.45
731.224	9707
731.565	9551.08
731.906	9614.58
732.248	9641.02
732.589	9593.11
732.93	9663.16
733.271	9605.54
733.612	9546.78
733.953	9586.78
734.294	9623.39
734.635	9546.56
734.976	9562.6
735.317	9524.18
735.658	9549.49
735.999	9562.83
736.339	9585.43
736.68	9546.33
737.021	9572.54
737.361	9509.72
737.702	9633.33
738.042	9675.37
738.383	9608.02
738.723	9618.65
739.063	9671.98
739.404	9617.52
739.744	9633.33
740.084	9566.9
740.424	9642.15
740.764	9679.21
741.104	9728.02
741.444	9651.41
741.784	9693.22
742.124	9722.6
742.464	9720.34
742.804	9727.12
743.143	9770.51
743.483	9804.4
743.823	9772.31
744.162	9852.54
744.502	9849.15
744.841	9858.64
745.181	9936.38
745.52	9904.29
745.86	9931.86
746.199	9998.3
746.538	10047.56
746.877	10130.5
747.216	10166.88
747.556	10210.27
747.895	10220.66
748.234	10273.09
748.573	10261.79
748.911	10295.69
749.25	10367.78
749.589	10455.46
749.928	10503.59
750.267	10611.39
750.605	10658.84
750.944	10749.24
751.283	10784.04
751.621	10932.51
751.96	10939.51
752.298	11070.58
752.636	11202.33
752.975	11245.95
753.313	11370.69
753.651	11504.92
753.989	11521.19
754.327	11660.17
754.666	11716.9
755.004	11902.2
755.342	12033.5
755.679	12137.22
756.017	12228.07
756.355	12360.49
756.693	12554.61
757.031	12659.02
757.368	12727.04
757.706	12915.96
758.044	12962.51
758.381	13199.57
758.719	13387.81
759.056	13466.23
759.394	13633.68
759.731	13650.86
760.068	13828.93
760.405	13970.85
760.743	14173.33
761.08	14401.8
761.417	14486.09
761.754	14606.08
762.091	14696.7
762.428	14876.59
762.765	14900.54
763.102	15211.04
763.438	15349.79
763.775	15404.71
764.112	15632.95
764.449	15814.64
764.785	15923.34
765.122	16011.25
765.458	16075.88
765.795	16303.22
766.131	16508.63
766.467	16535.07
766.804	16615.98
767.14	16802.86
767.476	16907.04
767.812	16976.87
768.148	17240.37
768.485	17176.86
768.821	17319.91
769.157	17391.1
769.492	17544.76
769.828	17717.19
770.164	17725.1
770.5	17797.64
770.836	17958.99
771.171	17859.33
771.507	18124.64
771.842	18048.71
772.178	18159.44
772.513	18153.34
772.849	18279.43
773.184	18254.35
773.519	18408.92
773.855	18534.34
774.19	18516.26
774.525	18523.95
774.86	18624.28
775.195	18730.27
775.53	18716.94
775.865	18657.73
776.2	18570.05
776.535	18641.23
776.87	18787.9
777.205	18804.62
777.539	18646.88
777.874	18885.29
778.209	18851.62
778.543	18809.14
778.878	18765.52
779.212	18833.77
779.547	18835.35
779.881	18915.58
780.215	18788.12
780.55	18890.04
780.884	18809.36
781.218	18891.85
781.552	18900.21
781.886	18820.21
782.22	18798.74
782.554	18841.91
782.888	18763.49
783.222	18642.81
783.556	18630.84
783.889	18625.87
784.223	18504.97
784.557	18533.44
784.89	18655.7
785.224	18561.69
785.557	18548.81
785.891	18574.57
786.224	18417.74
786.558	18580.22
786.891	18457.51
787.224	18347.68
787.557	18342.71
787.891	18345.42
788.224	18372.99
788.557	18284.63
788.89	18309.04
789.223	18351.75
789.556	18288.93
789.888	18151.98
790.221	18138.65
790.554	18056.16
790.887	18053.45
791.219	18067.24
791.552	18022.27
791.884	18009.84
792.217	17957.18
792.549	17894.13
792.882	17884.42
793.214	17713.35
793.546	17869.28
793.879	17743.18
794.211	17651.2
794.543	17726.23
794.875	17697.98
795.207	17728.49
795.539	17592
795.871	17636.51
796.203	17412.34
796.535	17376.41
796.867	17321.95
797.198	17335.05
797.53	17289.4
797.862	17214.6
798.193	17253.02
798.525	17107.94
798.856	17126.02
799.188	16988.4
799.519	17020.94
799.85	16890.77
800.182	16973.48
800.513	16911.56
800.844	16772.58
801.175	16951.79
801.506	16779.14
801.837	16785.01
802.168	16646.48
802.499	16667.73
802.83	16709.76
803.161	16565.13
803.491	16566.26
803.822	16612.13
804.153	16377.11
804.483	16412.37
804.814	16322.65
805.145	16270.67
805.475	16248.98
805.805	16172.15
806.136	16285.36
806.466	16248.08
806.796	16253.05
807.126	16070
807.457	16076.1
807.787	16067.06
808.117	16051.02
808.447	15921.08
808.777	15949.55
809.107	15872.04
809.436	15832.27
809.766	15821.42
810.096	15784.81
810.426	15807.64
810.755	15842.21
811.085	15689.22
811.414	15764.25
811.744	15644.25
812.073	15609.45
812.403	15564.7
812.732	15490.13
813.061	15497.13
813.39	15428.21
813.719	15375.56
814.049	15430.7
814.378	15409.68
814.707	15294.43
815.036	15317.03
815.365	15177.14
815.693	15093.53
816.022	15143.7
816.351	15075.45
816.68	15063.93
817.008	15108.67
817.337	14967.43
817.665	14978.96
817.994	15009.46
818.322	14903.03
818.651	14903.7
818.979	14923.14
819.307	14890.37
819.636	14889.47
819.964	14786.65
820.292	14820.77
820.62	14880.2
820.948	14756.59
821.276	14775.35
821.604	14740.54
821.932	14789.58
822.259	14715.01
822.587	14679.3
822.915	14667.1
823.243	14732.64
823.57	14642.02
823.898	14654.45
824.225	14683.37
824.553	14615.8
824.88	14766.31
825.207	14790.03
825.535	14708.68
825.862	14790.94
826.189	14726.53
826.516	14838.62
826.843	14809.47
827.17	14821.45
827.497	14816.93
827.824	14682.02
828.151	14771.05
828.478	14752.07
828.805	14835.01
829.131	14734.22
829.458	14733.99
829.785	14643.6
830.111	14661
830.438	14767.66
830.764	14761.11
831.09	14753.2
831.417	14650.6
831.743	14785.29
832.069	14688.79
832.395	14641.11
832.722	14642.24
833.048	14605.63
833.374	14620.1
833.7	14574.9
834.026	14527.67
834.351	14643.37
834.677	14598.18
835.003	14599.53
835.329	14559.53
835.654	14535.13
835.98	14503.94
836.306	14559.08
836.631	14524.05
836.956	14530.15
837.282	14475.69
837.607	14447.9
837.932	14370.84
838.258	14418.75
838.583	14415.13
838.908	14316.37
839.233	14271.63
839.558	14332.42
839.883	14208.36
840.208	14260.11
840.533	14193.89
840.858	14287.68
841.182	14213.78
841.507	14150.05
841.832	14072.77
842.156	14073.9
842.481	14102.14
842.805	14034.35
843.13	14045.2
843.454	14045.42
843.778	13938.08
844.103	13913.9
844.427	13781.7
844.751	13840
845.075	13852.66
845.399	13785.54
845.723	13680.01
846.047	13723.85
846.371	13673.68
846.695	13588.03
847.019	13492.22
847.343	13402.5
847.666	13410.64
847.99	13266.46
848.313	13372.67
848.637	13279.79
848.96	13229.4
849.284	13155.28
849.607	13122.06
849.931	13051.55
850.254	12957.77
850.577	12925.23
850.9	12807.49
851.223	12847.94
851.546	12718.22
851.869	12671.45
852.192	12647.72
852.515	12542.86
852.838	12518.23
853.161	12572.01
853.483	12506.71
853.806	12433.94
854.129	12430.77
854.451	12406.59
854.774	12245.02
855.096	12286.15
855.419	12294.51
855.741	12259.48
856.063	12117.79
856.385	12164.34
856.708	12203.21
857.03	12029.43
857.352	12154.4
857.674	12028.98
857.996	11930.67
858.318	11893.16
858.64	11875.08
858.961	11856.1
859.283	11915.76
859.605	11725.03
859.926	11698.82
860.248	11656.56
860.57	11607.07
860.891	11628.54
861.212	11657.46
861.534	11608.65
861.855	11576.33
862.176	11535.21
862.498	11661.76
862.819	11607.07
863.14	11502.89
863.461	11569.55
863.782	11498.37
864.103	11479.39
864.424	11438.03
864.745	11478.94
865.065	11323.01
865.386	11315.55
865.707	11305.38
866.027	11283.01
866.348	11266.29
866.668	11230.13
866.989	11303.35
867.309	11205.5
867.63	11195.33
867.95	11235.33
868.27	11081.88
868.59	11121.88
868.91	11085.27
869.23	11144.48
869.55	11091.6
869.87	11067.42
870.19	11077.14
870.51	11028.55
870.83	11071.26
871.15	11075.56
871.469	10988.33
871.789	11020.87
872.109	10977.93
872.428	10918.27
872.748	10969.8
873.067	10923.47
873.386	10865.39
873.706	10884.6
874.025	10828.78
874.344	10756.24
874.663	10878.5
874.982	10782.91
875.301	10708.79
875.62	10731.38
875.939	10685.96
876.258	10725.96
876.577	10722.12
876.896	10667.21
877.214	10644.83
877.533	10585.4
877.852	10619.75
878.17	10670.37
878.489	10656.58
878.807	10588.56
879.125	10638.05
879.444	10520.99
879.762	10498.85
880.08	10548.79
880.398	10533.2
880.716	10509.92
881.034	10462.47
881.352	10491.84
881.67	10423.14
881.988	10420.88
882.306	10329.36
882.624	10342.69
882.941	10339.98
883.259	10279.19
883.577	10239.65
883.894	10183.6
884.212	10257.27
884.529	10274
884.846	10202.81
885.164	10178.63
885.481	10089.14
885.798	10184.73
886.115	10098.63
886.432	10072.64
886.75	10005.08
887.067	10082.81
887.383	9937.51
887.7	10003.72
888.017	9903.61
888.334	9947.68
888.651	9921.24
888.967	9928.92
889.284	9779.09
889.6	9827.68
889.917	9728.25
890.233	9785.19
890.55	9699.77
890.866	9615.71
891.182	9682.37
891.498	9606.67
891.815	9650.28
892.131	9625.2
892.447	9544.3
892.763	9517.63
893.079	9470.63
893.395	9520.12
893.71	9422.04
894.026	9392.44
894.342	9329.61
894.657	9321.03
894.973	9342.49
895.289	9261.14
895.604	9251.2
895.92	9191.31
896.235	9164.19
896.55	9119
896.865	9154.7
897.181	9121.48
897.496	9081.94
897.811	9078.77
898.126	9064.08
898.441	8992
898.756	8931.66
899.071	8892.79
899.386	8895.73
899.7	8824.54
900.015	8782.28
900.33	8773.47
900.644	8725.11
900.959	8729.4
901.273	8743.64
901.588	8646.02
901.902	8571.89
902.216	8583.64
902.531	8551.1
902.845	8570.54
903.159	8481.95
903.473	8419.13
903.787	8406.7
904.101	8397.43
904.415	8330.32
904.729	8322.63
905.042	8258.46
905.356	8262.07
905.67	8254.61
905.984	8274.73
906.297	8260.71
906.611	8135.52
906.924	8076.99
907.237	8188.17
907.551	8131
907.864	8062.3
908.177	8035.64
908.491	7999.93
908.804	7989.31
909.117	7931.68
909.43	7877.45
909.743	7782.54
910.056	7853.49
910.368	7720.62
910.681	7742.99
910.994	7722.88
911.307	7672.03
911.619	7651.01
911.932	7643.56
912.244	7541.19
912.557	7567.17
912.869	7517.68
913.181	7550.23
913.494	7458.25
913.806	7371.92
914.118	7407.63
914.43	7383
914.742	7379.61
915.054	7286.96
915.366	7243.34
915.678	7286.5
915.99	7227.07
916.302	7146.17
916.613	7173.96
916.925	7134.87
917.236	7119.05
917.548	7066.85
917.859	7011.48
918.171	7008.54
918.482	6979.62
918.794	6910.47
919.105	6930.35
919.416	6855.78
919.727	6887.87
920.038	6909.34
920.349	6827.53
920.66	6778.04
920.971	6726.52
921.282	6707.08
921.593	6705.05
921.903	6597.93
922.214	6606.97
922.525	6595.67
922.835	6636.12
923.146	6546.86
923.456	6559.52
923.767	6469.12
924.077	6477.26
924.387	6430.71
924.697	6400.42
925.008	6388.45
925.318	6392.74
925.628	6355.45
925.938	6311.39
926.248	6290.15
926.558	6271.61
926.867	6272.29
927.177	6199.53
927.487	6175.8
927.796	6143.93
928.106	6110.94
928.416	6089.7
928.725	6098.74
929.034	6052.64
929.344	6023.03
929.653	6055.35
929.962	5992.75
930.271	6020.77
930.581	5946.88
930.89	5960.66
931.199	5866.65
931.508	5831.4
931.817	5863.26
932.125	5848.58
932.434	5794.11
932.743	5733.55
933.051	5729.26
933.36	5666.66
933.669	5674.79
933.977	5677.96
934.286	5642.93
934.594	5617.17
934.902	5615.81
935.21	5607.9
935.519	5534.01
935.827	5572.88
936.135	5497.62
936.443	5457.62
936.751	5480
937.059	5503.27
937.367	5448.13
937.674	5433.67
937.982	5403.84
938.29	5362.03
938.597	5330.4
938.905	5298.53
939.213	5293.79
939.52	5271.87
939.827	5292.21
940.135	5228.93
940.442	5214.92
940.749	5184.41
941.056	5184.86
941.363	5135.6
941.67	5103.96
941.977	5103.51
942.284	5026.9
942.591	5043.17
942.898	4966.79
943.205	4994.36
943.511	4990.07
943.818	4949.84
944.125	4941.03
944.431	4955.27
944.738	4894.48
945.044	4859.9
945.35	4851.31
945.657	4843.4
945.963	4786
946.269	4770.41
946.575	4783.74
946.881	4734.25
947.187	4760.24
947.493	4687.7
947.799	4688.15
948.105	4696.74
948.41	4607.03
948.716	4665.78
949.022	4637.99
949.327	4566.57
949.633	4545.33
949.938	4503.53
950.244	4527.25
950.549	4525.9
950.854	4472.34
951.16	4428.05
951.465	4425.56
951.77	4402.96
952.075	4425.79
952.38	4411.32
952.685	4379.91
952.99	4349.86
953.294	4349.86
953.599	4311.21
953.904	4325.68
954.209	4281.84
954.513	4269.41
954.818	4235.28
955.122	4256.98
955.426	4191.9
955.731	4156.87
956.035	4158.9
956.339	4164.78
956.643	4137.66
956.948	4084.55
957.252	4085.46
957.556	4077.77
957.86	4059.92
958.163	4091.79
958.467	4034.61
958.771	4060.6
959.075	3960.94
959.378	3980.15
959.682	3952.13
959.985	3962.52
960.289	3882.53
960.592	3886.37
960.896	3891.79
961.199	3921.17
961.502	3873.49
961.805	3859.02
962.108	3794.17
962.411	3816.76
962.714	3801.62
963.017	3798.46
963.32	3765.69
963.623	3782.87
963.926	3766.14
964.228	3718.69
964.531	3682.08
964.833	3696.77
965.136	3668.97
965.438	3662.19
965.741	3642.76
966.043	3616.09
966.345	3648.41
966.648	3603.89
966.95	3560.27
967.252	3538.81
967.554	3559.14
967.856	3527.51
968.158	3442.99
968.46	3524.79
968.761	3497.9
969.063	3462.42
969.365	3445.93
969.666	3435.31
969.968	3399.37
970.269	3391.01
970.571	3355.31
970.872	3400.73
971.174	3337.45
971.475	3295.2
971.776	3328.42
972.077	3302.65
972.378	3320.51
972.679	3253.84
972.98	3275.76
973.281	3282.31
973.582	3259.94
973.883	3225.59
974.183	3202.77
974.484	3231.02
974.785	3197.35
975.085	3172.04
975.386	3167.74
975.686	3165.26
975.986	3094.07
976.287	3124.35
976.587	3062.89
976.887	3082.32
977.187	3074.41
977.487	3060.85
977.787	3071.92
978.087	3074.86
978.387	3042.77
978.687	3013.4
978.987	3026.05
979.286	2978.14
979.586	2991.48
979.885	2963
980.185	2981.53
980.484	2901.31
980.784	2909.44
981.083	2899.5
981.382	2891.14
981.682	2906.73
981.981	2883.68
982.28	2852.5
982.579	2780.86
982.878	2842.55
983.177	2829.67
983.475	2806.85
983.774	2803.46
984.073	2765.04
984.372	2750.8
984.67	2746.28
984.969	2751.71
985.267	2750.13
985.566	2716.45
985.864	2724.14
986.162	2699.51
986.461	2698.15
986.759	2660.64
987.057	2671.94
987.355	2617.7
987.653	2598.27
987.951	2607.76
988.249	2619.73
988.547	2604.37
988.844	2570.7
989.142	2590.13
989.44	2560.07
989.737	2550.81
990.035	2532.73
990.332	2537.25
990.63	2543.35
990.927	2533.86
991.224	2502.9
991.521	2495.67
991.819	2472.17
992.116	2466.97
992.413	2447.53
992.71	2429.46
993.006	2417.93
993.303	2424.71
993.6	2376.58
993.897	2393.3
994.193	2376.12
994.49	2355.79
994.787	2353.3
995.083	2338.38
995.379	2340.42
995.676	2342.45
995.972	2299.29
996.268	2305.62
996.565	2270.82
996.861	2261.1
997.157	2250.7
997.453	2248.44
997.749	2234.21
998.044	2225.85
998.34	2239.86
998.636	2207.77
998.932	2182.91
999.227	2161.67
999.523	2195.56
999.818	2156.69
1000.114	2151.5
1000.409	2123.25
1000.704	2133.19
1001	2122.57
1001.295	2103.36
1001.59	2078.96
1001.885	2091.84
1002.18	2054.78
1002.475	2071.27
1002.77	2038.51
1003.065	2032.86
1003.359	2047.77
1003.654	2019.75
1003.949	2012.97
1004.243	1990.82
1004.538	2004.61
1004.832	1977.94
1005.127	1956.02
1005.421	1946.76
1005.715	1942.24
1006.009	1942.69
1006.304	1940.43
1006.598	1914.44
1006.892	1875.8
1007.186	1895.23
1007.48	1900.2
1007.773	1834.67
1008.067	1840.54
1008.361	1823.82
1008.655	1825.86
1008.948	1851.84
1009.242	1829.25
1009.535	1790.6
1009.829	1795.35
1010.122	1798.29
1010.415	1788.12
1010.708	1784.5
1011.001	1763.03
1011.295	1758.06
1011.588	1749.7
1011.881	1700.44
1012.173	1736.59
1012.466	1689.36
1012.759	1680.55
1013.052	1702.47
1013.344	1676.03
1013.637	1671.96
1013.93	1684.84
1014.222	1650.72
1014.514	1630.38
1014.807	1620.89
1015.099	1607.56
1015.391	1603.71
1015.683	1601.46
1015.976	1602.36
1016.268	1577.5
1016.56	1568.69
1016.851	1554.68
1017.143	1529.59
1017.435	1535.92
1017.727	1528.01
1018.018	1519.2
1018.31	1515.36
1018.602	1514.9
1018.893	1490.05
1019.185	1468.13
1019.476	1464.74
1019.767	1483.72
1020.058	1464.96
1020.35	1425.19
1020.641	1450.05
1020.932	1389.48
1021.223	1410.95
1021.514	1411.4
1021.804	1410.27
1022.095	1378.64
1022.386	1395.13
1022.677	1382.7
1022.967	1341.35
1023.258	1362.14
1023.548	1332.08
1023.839	1344.06
1024.129	1314.91
1024.419	1323.95
1024.709	1318.75
1025	1291.86
1025.29	1311.52
1025.58	1284.4
1025.87	1281.01
1026.16	1244.85
1026.449	1269.71
1026.739	1254.57
1027.029	1252.76
1027.319	1233.56
1027.608	1241.46
1027.898	1218.41
1028.187	1223.61
1028.477	1222.48
1028.766	1204.18
1029.055	1190.17
1029.344	1208.92
1029.634	1197.4
1029.923	1165.76
1030.212	1174.8
1030.501	1120.79
1030.79	1164.86
1031.078	1144.07
1031.367	1121.47
1031.656	1111.75
1031.945	1144.97
1032.233	1088.02
1032.522	1112.2
1032.81	1105.87
1033.099	1093.22
1033.387	1061.13
1033.675	1087.57
1033.963	1084.86
1034.251	1055.03
1034.54	1048.25
1034.828	1042.37
1035.116	1033.11
1035.403	1030.17
1035.691	1028.36
1035.979	1026.55
1036.267	1002.6
1036.554	985.2
1036.842	1006.89
1037.129	1002.15
1037.417	964.18
1037.704	996.5
1037.992	987.01
1038.279	964.64
1038.566	955.6
1038.853	955.6
1039.14	955.6
