Data from hue_22_FLMS001491_00077.txt Node
Date: Tue Feb 07 17:10:38 GMT 2017
User: dcchb
Spectrometer: FLMS00149
Trigger mode: 0
Integration Time (sec): 2.000000E-2
Scans to average: 10
Electric dark correction enabled: true
Nonlinearity correction enabled: false
Boxcar width: 0
XAxis mode: Wavelengths
Number of Pixels in Spectrum: 2048
>>>>>Begin Spectral Data<<<<<
341.393	0.07
341.776	0.07
342.16	0.07
342.543	-38.35
342.927	-62.75
343.31	-57.33
343.693	-78.57
344.077	-70.21
344.46	-68.63
344.843	-48.97
345.226	-45.58
345.61	-34.5
345.993	-18.23
346.376	5.72
346.759	10.24
347.142	27.87
347.525	14.53
347.908	57.92
348.291	75.32
348.674	97.7
349.057	132.72
349.44	130.01
349.823	156.45
350.206	156.22
350.588	178.82
350.971	187.18
351.354	220.18
351.737	247.07
352.119	255.88
352.502	261.08
352.884	267.18
353.267	296.33
353.65	285.49
354.032	285.03
354.414	325.03
354.797	277.8
355.179	314.64
355.562	318.25
355.944	307.63
356.326	325.71
356.709	339.04
357.091	330.91
357.473	321.64
357.855	338.14
358.238	357.12
358.62	324.13
359.002	346.28
359.384	340.85
359.766	346.5
360.148	316.45
360.53	332.72
360.912	331.59
361.294	325.71
361.676	328.42
362.057	306.5
362.439	323.45
362.821	324.81
363.203	334.98
363.584	318.03
363.966	321.42
364.348	321.42
364.729	342.43
365.111	326.84
365.493	330.23
365.874	329.55
366.256	318.71
366.637	306.5
367.019	308.99
367.4	296.56
367.781	315.54
368.163	312.15
368.544	329.55
368.925	308.76
369.306	307.86
369.688	315.77
370.069	308.54
370.45	299.5
370.831	297.01
371.212	310.12
371.593	316.45
371.974	302.89
372.355	285.49
372.736	324.13
373.117	304.24
373.498	320.51
373.879	316.22
374.26	322.1
374.641	315.99
375.021	300.4
375.402	301.76
375.783	306.5
376.163	318.25
376.544	325.03
376.925	327.29
377.305	320.97
377.686	345.15
378.066	326.16
378.447	323.9
378.827	328.88
379.208	310.34
379.588	350.57
379.968	325.26
380.349	330.91
380.729	315.32
381.109	337.69
381.489	332.72
381.87	341.08
382.25	319.84
382.63	314.41
383.01	351.25
383.39	350.8
383.77	358.48
384.15	333.17
384.53	338.82
384.91	336.56
385.29	352.15
385.67	340.85
386.049	337.91
386.429	340.17
386.809	328.88
387.189	329.55
387.568	365.71
387.948	360.74
388.328	368.42
388.707	345.6
389.087	369.78
389.466	373.62
389.846	354.86
390.225	348.99
390.605	344.69
390.984	348.31
391.363	356.9
391.743	375.43
392.122	352.38
392.501	371.59
392.881	364.13
393.26	343.34
393.639	365.71
394.018	370.46
394.397	391.92
394.776	374.98
395.155	380.85
395.534	370.91
395.913	395.77
396.292	373.17
396.671	369.78
397.05	386.73
397.429	381.53
397.808	373.62
398.186	399.38
398.565	383.34
398.944	389.66
399.323	384.92
399.701	381.76
400.08	394.64
400.458	390.57
400.837	387.18
401.215	396.9
401.594	416.33
401.972	376.56
402.351	381.08
402.729	388.53
403.107	406.16
403.486	431.7
403.864	390.79
404.242	418.14
404.62	394.18
404.999	421.98
405.377	426.73
405.755	428.76
406.133	393.96
406.511	409.1
406.889	412.26
407.267	418.82
407.645	413.17
408.023	412.94
408.401	443
408.779	430.12
409.156	446.61
409.534	451.13
409.912	460.17
410.29	425.14
410.667	431.7
411.045	452.26
411.422	447.74
411.8	460.17
412.178	450.23
412.555	464.01
412.933	452.94
413.31	473.28
413.687	445.26
414.065	468.98
414.442	457.01
414.819	469.66
415.197	486.61
415.574	475.99
415.951	479.15
416.328	488.87
416.705	461.75
417.082	488.87
417.46	498.36
417.837	484.13
418.214	489.78
418.591	502.88
418.967	475.54
419.344	510.11
419.721	491.81
420.098	494.52
420.475	506.5
420.852	518.48
421.228	498.14
421.605	522.09
421.982	531.81
422.358	546.72
422.735	529.77
423.111	520.28
423.488	539.72
423.864	527.06
424.241	542.88
424.617	548.3
424.994	548.53
425.37	544.92
425.746	536.55
426.123	558.02
426.499	551.02
426.875	555.99
427.251	563.67
427.627	589.89
428.003	577.91
428.379	577.23
428.756	592.6
429.132	574.97
429.507	594.86
429.883	572.48
430.259	599.15
430.635	598.25
431.011	634.63
431.387	629.43
431.763	633.5
432.138	629.21
432.514	632.82
432.89	624.23
433.265	657
433.641	616.78
434.016	659.94
434.392	621.07
434.767	654.29
435.143	669.88
435.518	648.87
435.894	669.88
436.269	680.96
436.644	709.2
437.02	682.99
437.395	688.19
437.77	715.08
438.145	707.62
438.52	729.32
438.895	722.09
439.271	708.98
439.646	728.64
440.021	722.31
440.395	729.99
440.77	733.38
441.145	735.19
441.52	734.74
441.895	744.68
442.27	731.35
442.645	754.18
443.019	789.2
443.394	785.13
443.769	762.76
444.143	755.98
444.518	778.13
444.892	778.13
445.267	789.65
445.641	784.68
446.016	778.36
446.39	788.98
446.764	788.75
447.139	804.34
447.513	817.68
447.887	813.83
448.262	813.38
448.636	838.24
449.01	800.28
449.384	828.75
449.758	823.33
450.132	839.82
450.506	856.77
450.88	868.75
451.254	838.24
451.628	854.74
452.002	877.34
452.376	864.45
452.75	871.23
453.123	882.31
453.497	900.16
453.871	911.91
454.244	895.64
454.618	901.06
454.992	927.96
455.365	929.54
455.739	953.94
456.112	962.08
456.486	941.97
456.859	943.55
457.232	972.25
457.606	974.51
457.979	1000.72
458.352	1030.78
458.725	1013.38
459.099	1024.45
459.472	1046.6
459.845	1049.31
460.218	1026.94
460.591	1062.64
460.964	1055.64
461.337	1070.78
461.71	1076.65
462.083	1092.92
462.456	1098.57
462.829	1100.15
463.201	1126.59
463.574	1139.93
463.947	1158.46
464.32	1165.92
464.692	1165.01
465.065	1181.06
465.438	1197.1
465.81	1217.67
466.183	1242.3
466.555	1245.01
466.928	1287.27
467.3	1263.09
467.672	1261.05
468.045	1331.34
468.417	1317.32
468.789	1331.34
469.161	1353.26
469.534	1351.45
469.906	1409.3
470.278	1415.4
470.65	1420.37
471.022	1437.77
471.394	1451.11
471.766	1485
472.138	1469.86
472.51	1542.63
472.882	1556.41
473.253	1568.39
473.625	1558.45
473.997	1630.08
474.369	1649.52
474.74	1652.91
475.112	1673.7
475.484	1697.2
475.855	1729.06
476.227	1747.14
476.598	1793.92
476.97	1820.36
477.341	1860.59
477.713	1912.11
478.084	1903.98
478.455	1962.73
478.827	1963.63
479.198	2008.61
479.569	2037.08
479.94	2116.63
480.311	2128.83
480.682	2171.99
481.053	2258.99
481.424	2262.61
481.795	2309.16
482.166	2332.66
482.537	2354.13
482.908	2415.83
483.279	2416.96
483.65	2447.69
484.021	2548.48
484.391	2578.31
484.762	2598.42
485.133	2639.55
485.503	2679.77
485.874	2759.55
486.244	2764.29
486.615	2851.52
486.985	2871.41
487.356	2908.24
487.726	2981.46
488.097	2996.38
488.467	3030.5
488.837	3142.36
489.207	3144.39
489.578	3200.44
489.948	3239.53
490.318	3332.86
490.688	3329.47
491.058	3352.3
491.428	3423.03
491.798	3454.9
492.168	3505.29
492.538	3535.8
492.908	3577.6
493.278	3625.51
493.648	3612.41
494.017	3692.4
494.387	3739.63
494.757	3809.69
495.126	3810.82
495.496	3828.44
495.866	3863.7
496.235	3918.84
496.605	3963.58
496.974	4002.68
497.344	4044.03
497.713	4042.9
498.082	4028.89
498.452	4122.45
498.821	4152.05
499.19	4174.2
499.559	4203.12
499.928	4243.8
500.298	4285.83
500.667	4316.57
501.036	4298.04
501.405	4361.99
501.774	4364.48
502.143	4360.18
502.512	4393.4
502.88	4467.98
503.249	4459.61
503.618	4499.16
503.987	4543.45
504.356	4550.91
504.724	4548.65
505.093	4557.01
505.462	4619.61
505.83	4643.79
506.199	4672.49
506.567	4702.55
506.936	4712.04
507.304	4729.21
507.672	4735.09
508.041	4818.47
508.409	4821.64
508.777	4829.32
509.145	4871.81
509.514	4863.45
509.882	4945.03
510.25	4936.21
510.618	4986.83
510.986	4957.68
511.354	5008.3
511.722	5015.08
512.09	5063.89
512.458	5048.53
512.826	5098.02
513.193	5135.75
513.561	5144.34
513.929	5204.68
514.297	5259.37
514.664	5235.87
515.032	5277.22
515.4	5291.91
515.767	5244.68
516.135	5305.02
516.502	5322.19
516.869	5412.13
517.237	5403.77
517.604	5347.95
517.972	5467.5
518.339	5480.38
518.706	5461.62
519.073	5438.12
519.44	5520.15
519.808	5589.75
520.175	5570.55
520.542	5592.24
520.909	5658
521.276	5643.31
521.643	5676.31
522.009	5663.65
522.376	5720.82
522.743	5733.48
523.11	5855.51
523.477	5851.67
523.843	5842.4
524.21	5969.86
524.577	5918.11
524.943	5916.07
525.31	5998.33
525.676	6032
526.043	6072.91
526.409	6077.88
526.776	6161.04
527.142	6158.55
527.508	6172.56
527.874	6254.14
528.241	6275.61
528.607	6257.31
528.973	6347.02
529.339	6358.77
529.705	6355.16
530.071	6418.21
530.437	6447.58
530.803	6520.8
531.169	6486.91
531.535	6474.7
531.901	6499.79
532.267	6563.51
532.632	6589.28
532.998	6616.39
533.364	6638.09
533.73	6690.97
534.095	6737.07
534.461	6789.04
534.826	6743.17
535.192	6803.28
535.557	6875.14
535.923	6814.35
536.288	6861.36
536.653	6940.23
537.019	6901.36
537.384	7010.51
537.749	6951.53
538.114	6994.91
538.479	6981.36
538.845	7017.06
539.21	7076.04
539.575	7105.42
539.94	7132.31
540.305	7213.21
540.67	7195.59
541.034	7164.63
541.399	7251.86
541.764	7249.6
542.129	7309.26
542.494	7287.56
542.858	7405.75
543.223	7364.17
543.587	7403.94
543.952	7396.71
544.316	7448.24
544.681	7455.24
545.045	7496.6
545.41	7528.46
545.774	7580.44
546.138	7623.37
546.503	7641.23
546.867	7690.72
547.231	7701.34
547.595	7724.39
547.959	7706.99
548.324	7726.65
548.688	7762.35
549.052	7822.92
549.416	7756.93
549.779	7827.44
550.143	7892.74
550.507	7957.83
550.871	7977.04
551.235	7964.38
551.599	8004.15
551.962	8005.74
552.326	8085.28
552.689	8029.92
553.053	8124.6
553.417	8080.54
553.78	8222.68
554.143	8091.38
554.507	8237.82
554.87	8287.76
555.234	8291.6
555.597	8277.37
555.96	8339.29
556.323	8336.57
556.686	8338.38
557.05	8400.53
557.413	8454.99
557.776	8425.61
558.139	8505.84
558.502	8518.49
558.865	8597.36
559.228	8630.13
559.59	8501.32
559.953	8610.24
560.316	8794.19
560.679	8693.63
561.041	8774.08
561.404	8790.12
561.767	8790.12
562.129	8849.33
562.492	8848.65
562.854	8878.48
563.217	8839.16
563.579	8879.16
563.941	8934.52
564.304	9031.92
564.666	9066.95
565.028	9059.49
565.39	9063.34
565.753	9109.89
566.115	9130.68
566.477	9149.43
566.839	9194.41
567.201	9287.96
567.563	9309.66
567.925	9313.05
568.287	9409.09
568.648	9348.3
569.01	9402.99
569.372	9391.91
569.734	9537.22
570.095	9542.19
570.457	9593.26
570.819	9575.64
571.18	9683.21
571.542	9690.89
571.903	9669.87
572.265	9763.2
572.626	9798.46
572.987	9793.49
573.349	9856.31
573.71	9972.24
574.071	10027.6
574.432	10047.49
574.794	10134.04
575.155	10172.46
575.516	10091.33
575.877	10202.51
576.238	10317.54
576.599	10357.09
576.96	10446.35
577.32	10582.84
577.681	10621.71
578.042	10796.17
578.403	10765.66
578.763	10840.46
579.124	10989.61
579.485	11107.58
579.845	11176.5
580.206	11232.77
580.566	11338.98
580.927	11387.12
581.287	11562.7
581.648	11672.31
582.008	11837.5
582.368	11926.99
582.728	12087.89
583.089	12236.81
583.449	12366.75
583.809	12562.23
584.169	12660.98
584.529	12823.24
584.889	13060.74
585.249	13244.47
585.609	13316.56
585.969	13632.71
586.329	13702.08
586.688	14045.35
587.048	14169.19
587.408	14422.97
587.768	14566.24
588.127	14828.16
588.487	15075.38
588.846	15305.88
589.206	15518.76
589.565	15712.43
589.925	16022.02
590.284	16214.33
590.643	16518.28
591.003	16808.44
591.362	17157.59
591.721	17384.7
592.08	17620.62
592.44	18015.87
592.799	18224.22
593.158	18529.3
593.517	18830.54
593.876	19134.71
594.235	19377.87
594.593	19751.64
594.952	20018.08
595.311	20257.62
595.67	20685.4
596.029	21014.21
596.387	21255.78
596.746	21691.48
597.104	21805.15
597.463	22154.74
597.822	22521.74
598.18	22801.28
598.538	23128.5
598.897	23647.36
599.255	23609.85
599.613	24304.06
599.972	24385.87
600.33	24835.12
600.688	24989.92
601.046	25325.28
601.404	25715.78
601.762	25974.75
602.12	26391.92
602.478	26688.18
602.836	27026.48
603.194	27205.91
603.552	27552.79
603.91	27690.64
604.268	28220.57
604.625	28320.68
604.983	28679.99
605.341	28812.87
605.698	29268
606.056	29517.03
606.413	29850.81
606.771	30075.89
607.128	30502.32
607.485	30501.42
607.843	30860.28
608.2	31177.56
608.557	31438.57
608.914	31570.54
609.272	31965.56
609.629	32310.63
609.986	32629.72
610.343	32559.44
610.7	33158.07
611.057	33224.06
611.414	33255.24
611.771	33553.76
612.127	34095.45
612.484	34178.15
612.841	34365.72
613.198	34443.68
613.554	34673.06
613.911	35123.21
614.267	35188.98
614.624	35315.53
614.98	35636.2
615.337	35919.8
615.693	35939.24
616.05	36107.6
616.406	36450.41
616.762	36440.92
617.118	36664.64
617.475	36721.14
617.831	37095.82
618.187	37220.33
618.543	37202.71
618.899	37662.81
619.255	37772.41
619.611	37854.22
619.967	38043.36
620.323	38292.4
620.678	38278.61
621.034	38381.66
621.39	38474.99
621.746	38492.17
622.101	39077.46
622.457	38826.85
622.812	39192.26
623.168	39267.29
623.523	39302.99
623.879	39504.12
624.234	39354.06
624.589	39506.38
624.945	39766.03
625.3	39631.12
625.655	39949.75
626.01	39962.64
626.365	40000.6
626.72	40027.27
627.075	40163.76
627.43	40144.33
627.785	40210.54
628.14	40264.55
628.495	40403.08
628.85	40360.82
629.205	40440.59
629.559	40578.21
629.914	40570.98
630.269	40666.8
630.623	40679.68
630.978	40519.23
631.332	40780.24
631.687	40906.11
632.041	40776.85
632.396	40937.3
632.75	40790.64
633.104	41004.64
633.459	40902.5
633.813	40899.79
634.167	40897.3
634.521	40768.04
634.875	41075.6
635.229	41036.73
635.583	40837.19
635.937	40985.66
636.291	41050.06
636.645	41006.68
636.999	40850.3
637.352	41081.7
637.706	40778.66
638.06	41091.19
638.413	40941.14
638.767	40939.79
639.121	41004.19
639.474	40766
639.828	40919.22
640.181	41063.17
640.534	41019.78
640.888	40936.85
641.241	40840.58
641.594	40852.1
641.947	41009.39
642.301	40807.36
642.654	40934.14
643.007	40949.73
643.36	40844.65
643.713	40843.74
644.066	40949.73
644.419	40765.1
644.771	40450.76
645.124	40252.57
645.477	40163.31
645.83	39935.74
646.182	39834.5
646.535	39783.66
646.888	39874.05
647.24	39621.85
647.593	39853.71
647.945	39777.33
648.298	39658.91
648.65	39594.06
649.002	39499.37
649.355	39696.65
649.707	39601.52
650.059	39710.89
650.411	40152.91
650.763	40275.17
651.115	40693.01
651.467	40528.72
651.819	40586.12
652.171	40567.59
652.523	40293.93
652.875	40464.32
653.227	40325.11
653.578	40548.83
653.93	40401.72
654.282	40339.35
654.633	40228.84
654.985	40265.9
655.337	40357.88
655.688	40268.39
656.039	40517.42
656.391	40095.06
656.742	40159.01
657.094	40173.25
657.445	40363.53
657.796	40233.14
658.147	40233.36
658.498	40216.64
658.849	40290.99
659.2	40257.32
659.551	40121.05
659.902	40358.56
660.253	40214.83
660.604	40267.26
660.955	40059.36
661.306	40177.55
661.656	40268.62
662.007	40187.71
662.358	40208.28
662.708	40109.07
663.059	40061.84
663.409	39851
663.76	40232.91
664.11	40312.46
664.461	40268.39
664.811	40173.7
665.161	40126.93
665.511	40099.81
665.862	40059.58
666.212	40181.16
666.562	40161.73
666.912	39922.18
667.262	39938.23
667.612	40008.74
667.962	40095.29
668.312	39993.37
668.662	40204.66
669.011	40074.72
669.361	39882.86
669.711	39987.72
670.06	39998.11
670.41	40006.7
670.76	39800.83
671.109	40047.61
671.459	39896.42
671.808	39849.64
672.157	39937.33
672.507	39660.5
672.856	39712.7
673.205	39810.55
673.554	39919.7
673.904	39789.76
674.253	39918.57
674.602	39875.18
674.951	39351.58
675.3	39136.44
675.649	39675.86
675.998	39655.53
676.346	39713.6
676.695	39841.51
677.044	39504.34
677.393	39581.85
677.741	39608.29
678.09	39449.88
678.438	39568.07
678.787	39604.68
679.135	39560.16
679.484	39143.9
679.832	39477.45
680.181	39142.09
680.529	39256.89
680.877	39163.56
681.225	39152.26
681.573	39419.37
681.922	39120.4
682.27	38992.72
682.618	39021.64
682.966	38957.46
683.314	39122.66
683.661	38877.92
684.009	38770.58
684.357	38622.11
684.705	38632.95
685.053	38651.03
685.4	38661.2
685.748	38447.2
686.095	38489.23
686.443	38306.41
686.79	38329.46
687.138	38336.46
687.485	38409.68
687.832	38077.26
688.18	38211.04
688.527	38049.47
688.874	37986.64
689.221	37874.1
689.568	37696.93
689.915	37624.39
690.262	37620.78
690.609	37455.58
690.956	37503.04
691.303	37364.51
691.65	37263.5
691.997	37301.01
692.344	36993
692.69	36955.71
693.037	37108.02
693.383	36691.08
693.73	36910.74
694.077	36796.39
694.423	36699.9
694.769	36631.42
695.116	36462.16
695.462	36384.2
695.808	36388.94
696.155	36427.14
696.501	36262.39
696.847	36178.78
697.193	35910.54
697.539	36053.59
697.885	35724.56
698.231	35640.72
698.577	35729.07
698.923	35607.72
699.269	35456.31
699.614	35383.1
699.96	35172.48
700.306	35341.51
700.651	35017.45
700.997	34922.54
701.342	34999.6
701.688	34830.57
702.033	34721.19
702.379	34733.17
702.724	34665.15
703.069	34704.02
703.415	34419.28
703.76	34367.3
704.105	34435.55
704.45	34344.93
704.795	34038.95
705.14	34092.28
705.485	34038.05
705.83	33969.8
706.175	33858.16
706.52	33864.72
706.865	33749.24
707.209	33706.98
707.554	33427.89
707.899	33566.65
708.243	33483.48
708.588	33337.05
708.932	33203.49
709.277	33115.81
709.621	33010.95
709.966	32934.57
710.31	32901.8
710.654	32571.87
710.998	32751.53
711.342	32685.76
711.687	32565.99
712.031	32542.27
712.375	32408.03
712.719	32474.47
713.063	32536.62
713.407	32454.81
713.75	32224.76
714.094	32322.16
714.438	32114.03
714.782	32192.44
715.125	32008.49
715.469	32081.49
715.812	31906.8
716.156	31772.79
716.499	31864.77
716.843	31772.12
717.186	31538
717.53	31667.49
717.873	31741.38
718.216	31638.79
718.559	31524.67
718.902	31290.1
719.246	31336.65
719.589	31186.14
719.932	31145.24
720.275	31266.82
720.617	31138.91
720.96	31067.5
721.303	31120.83
721.646	30976.21
721.989	30865.25
722.331	30985.24
722.674	30801.07
723.016	30951.57
723.359	30768.53
723.701	30724.01
724.044	30484.47
724.386	30511.81
724.729	30592.49
725.071	30478.14
725.413	30537.57
725.755	30330.57
726.097	30237.92
726.439	30237.24
726.782	30130.13
727.124	30228.43
727.465	30191.14
727.807	30207.86
728.149	30031.15
728.491	30084.25
728.833	30211.25
729.175	29872.28
729.516	29909.57
729.858	29872.28
730.199	29777.14
730.541	29779.63
730.882	29670.02
731.224	29809.68
731.565	29612.17
731.906	29510.26
732.248	29659.86
732.589	29618.27
732.93	29372.86
733.271	29505.06
733.612	29467.09
733.953	29413.31
734.294	29225.74
734.635	29173.99
734.976	29267.55
735.317	29158.17
735.658	29141.23
735.999	29179.19
736.339	29086.99
736.68	29142.58
737.021	29051.28
737.361	28887.9
737.702	28988.91
738.042	28945.07
738.383	28868.24
738.723	28937.61
739.063	28729.03
739.404	28813.55
739.744	28790.95
740.084	28584.86
740.424	28720.22
740.764	28644.97
741.104	28700.11
741.444	28432.54
741.784	28549.83
742.124	28477.74
742.464	28411.75
742.804	28506.21
743.143	28327.24
743.483	28368.82
743.823	28248.59
744.162	28071.2
744.502	28206.79
744.841	28150.06
745.181	28280
745.52	28158.88
745.86	28109.39
746.199	28081.37
746.538	27969.05
746.877	28060.8
747.216	28048.82
747.556	27917.53
747.895	27946.68
748.234	27813.58
748.573	27766.12
748.911	27719.79
749.25	27637.08
749.589	27598.89
749.928	27686.12
750.267	27695.84
750.605	27507.6
750.944	27452.46
751.283	27448.84
751.621	27496.52
751.96	27429.18
752.298	27368.39
752.636	27313.25
752.975	27263.53
753.313	27041.62
753.651	27210.43
753.989	27080.49
754.327	27078.91
754.666	26875.3
755.004	26941.28
755.342	26853.83
755.679	26717.33
756.017	26687.28
756.355	26894.28
756.693	26563.67
757.031	26815.18
757.368	26522.99
757.706	26420.62
758.044	26424.69
758.381	26431.01
758.719	26425.82
759.056	26391.47
759.394	26335.42
759.731	26162.55
760.068	26121.64
760.405	26015.88
760.743	26026.5
761.08	25883.91
761.417	25820.86
761.754	25821.54
762.091	25831.93
762.428	25719.62
762.765	25512.62
763.102	25564.37
763.438	25470.59
763.775	25343.81
764.112	25437.59
764.449	25424.94
764.785	25257.03
765.122	25041.45
765.458	24982.01
765.795	24890.49
766.131	24884.61
766.467	24916.7
766.804	24692.08
767.14	24662.25
767.476	24566.2
767.812	24451.41
768.148	24375.93
768.485	24304.52
768.821	24236.04
769.157	24230.17
769.492	24097.97
769.828	24173.45
770.164	23791.31
770.5	23878.31
770.836	23802.38
771.171	23662.05
771.507	23663.4
771.842	23355.84
772.178	23475.16
772.513	23391.77
772.849	23396.07
773.184	23254.6
773.519	23213.02
773.855	22996.3
774.19	22979.35
774.525	22872.69
774.86	22891.45
775.195	22866.59
775.53	22655.97
775.865	22619.14
776.2	22434.96
776.535	22418.24
776.87	22320.39
777.205	22246.94
777.539	22066.84
777.874	22215.08
778.209	21957.91
778.543	22021.64
778.878	21892.15
779.212	21893.28
779.547	21623.23
779.881	21723.79
780.215	21665.94
780.55	21602.67
780.884	21365.16
781.218	21414.87
781.552	21358.15
781.886	21300.3
782.22	21209.46
782.554	21128.33
782.888	20977.37
783.222	20905.51
783.556	20823.93
783.889	20729.47
784.223	20616.48
784.557	20439.76
784.89	20526.31
785.224	20515.24
785.557	20247
785.891	20221.46
786.224	20097.4
786.558	20223.27
786.891	20026.44
787.224	20039.09
787.557	19882.94
787.891	19778.76
788.224	19837.97
788.557	19832.54
788.89	19655.6
789.223	19687.91
789.556	19548.26
789.888	19474.59
790.221	19419.45
790.554	19258.55
790.887	19211.09
791.219	19259.9
791.552	19099.91
791.884	19051.32
792.217	19083.64
792.549	18896.75
792.882	18876.18
793.214	18703.53
793.546	18724.32
793.879	18646.13
794.211	18556.19
794.543	18647.72
794.875	18484.1
795.207	18526.59
795.539	18396.88
795.871	18425.57
796.203	18308.52
796.535	18151.46
796.867	18163.66
797.198	18107.84
797.53	18015.42
797.862	18004.57
798.193	17948.53
798.525	17854.97
798.856	17822.43
799.188	17639.61
799.519	17582.43
799.85	17419.95
800.182	17557.35
800.513	17531.81
800.844	17304.25
801.175	17394.42
801.506	17432.83
801.837	17293.4
802.168	17223.35
802.499	17275.32
802.83	17160.3
803.161	16979.29
803.491	17093.63
803.822	17086.63
804.153	16896.58
804.483	16794.66
804.814	16758.5
805.145	16756.24
805.475	16729.35
805.805	16675.79
806.136	16702
806.466	16624.94
806.796	16595.34
807.126	16511.95
807.457	16415.91
807.787	16484.61
808.117	16289.36
808.447	16284.16
808.777	16353.54
809.107	16172.75
809.436	16183.83
809.766	16087.56
810.096	16152.19
810.426	16017.28
810.755	15983.38
811.085	15989.71
811.414	15930.5
811.744	15752.2
812.073	15762.82
812.403	15859.31
812.732	15776.6
813.061	15697.28
813.39	15609.6
813.719	15639.43
814.049	15771.86
814.378	15644.63
814.707	15600.34
815.036	15557.63
815.365	15410.96
815.693	15234.7
816.022	15307.24
816.351	15241.25
816.68	15193.8
817.008	15306.56
817.337	15135.27
817.665	15080.58
817.994	15095.94
818.322	15017.75
818.651	14941.6
818.979	15043.52
819.307	14987.7
819.636	15000.13
819.964	14865.22
820.292	14968.72
820.62	14859.57
820.948	14828.38
821.276	14785.22
821.604	14847.82
821.932	14782.73
822.259	14712
822.587	14748.16
822.915	14798.78
823.243	14873.8
823.57	14756.52
823.898	14740.25
824.225	14746.12
824.553	14679.23
824.88	14707.25
825.207	14785.22
825.535	14680.36
825.862	14739.34
826.189	14673.58
826.516	14697.76
826.843	14787.25
827.17	14761.49
827.497	14722.85
827.824	14737.76
828.151	14780.02
828.478	14726.01
828.805	14745.9
829.131	14673.13
829.458	14706.58
829.785	14547.26
830.111	14686.92
830.438	14733.24
830.764	14665.67
831.09	14681.49
831.417	14602.4
831.743	14721.04
832.069	14674.49
832.395	14510.2
832.722	14661.61
833.048	14560.14
833.374	14606.24
833.7	14528.28
834.026	14602.62
834.351	14530.08
834.677	14582.51
835.003	14522.4
835.329	14531.67
835.654	14448.96
835.98	14473.36
836.306	14394.04
836.631	14386.58
836.956	14372.8
837.282	14445.57
837.607	14366.25
837.932	14251
838.258	14418.67
838.583	14235.85
838.908	14292.35
839.233	14275.63
839.558	14255.97
839.883	14218.23
840.208	14127.61
840.533	14105.24
840.858	14077.44
841.182	14102.75
841.507	14099.81
841.832	13991.57
842.156	13998.12
842.481	13933.49
842.805	13873.38
843.13	13888.74
843.454	13848.97
843.778	13781.86
844.103	13724.23
844.427	13801.74
844.751	13776.88
845.075	13719.71
845.399	13723.78
845.723	13629.77
846.047	13618.02
846.371	13562.43
846.695	13499.6
847.019	13339.83
847.343	13429.55
847.666	13254.19
847.99	13243.34
848.313	13263
848.637	13204.24
848.96	13164.02
849.284	13050.35
849.607	12943.01
849.931	13043.12
850.254	12844.93
850.577	12711.6
850.9	12751.15
851.223	12600.87
851.546	12593.41
851.869	12489.69
852.192	12566.07
852.515	12503.47
852.838	12450.14
853.161	12363.59
853.483	12420.53
853.806	12271.84
854.129	12272.52
854.451	12292.63
854.774	12163.82
855.096	12143.71
855.419	12060.54
855.741	12135.12
856.063	12047.44
856.385	11966.08
856.708	11936.03
857.03	11905.97
857.352	11879.31
857.674	11871.4
857.996	11814.9
858.318	11834.79
858.64	11787.11
858.961	11727.9
859.283	11614.23
859.605	11650.39
859.926	11723.38
860.248	11594.79
860.57	11612.65
860.891	11562.93
861.212	11507.34
861.534	11497.17
861.855	11434.35
862.176	11410.84
862.498	11403.84
862.819	11427.79
863.14	11388.7
863.461	11315.03
863.782	11398.41
864.103	11341.69
864.424	11244.52
864.745	11318.64
865.065	11224.86
865.386	11193.67
865.707	11200.45
866.027	11177.4
866.348	11244.07
866.668	11116.84
866.989	11188.48
867.309	11113.9
867.63	11105.99
867.95	11056.96
868.27	10934.25
868.59	11027.35
868.91	10909.39
869.23	10922.95
869.55	10940.57
869.87	10976.73
870.19	11057.86
870.51	10887.24
870.83	10967.47
871.15	10869.84
871.469	10788.04
871.789	10903.06
872.109	10819.45
872.428	10739.9
872.748	10805.89
873.067	10738.32
873.386	10727.7
873.706	10696.74
874.025	10653.58
874.344	10620.36
874.663	10620.81
874.982	10582.84
875.301	10615.61
875.62	10572.9
875.939	10518.89
876.258	10590.07
876.577	10492.9
876.896	10595.05
877.214	10423.53
877.533	10498.33
877.852	10453.81
878.17	10507.82
878.489	10437.54
878.807	10511.66
879.125	10420.36
879.444	10460.59
879.762	10356.41
880.08	10415.84
880.398	10332
880.716	10318.22
881.034	10331.32
881.352	10331.32
881.67	10229.86
881.988	10246.81
882.306	10191.67
882.624	10177.88
882.941	10124.78
883.259	10135.62
883.577	10193.25
883.894	10148.28
884.212	10005.46
884.529	10056.3
884.846	10047.94
885.164	10033.93
885.481	9943.54
885.798	9961.84
886.115	9956.64
886.432	9941.5
886.75	9906.48
887.067	9922.97
887.383	9808.85
887.7	9852.24
888.017	9761.62
888.334	9769.98
888.651	9708.97
888.967	9756.65
889.284	9710.1
889.6	9672.58
889.917	9607.95
890.233	9668.97
890.55	9533.38
890.866	9569.99
891.182	9524.79
891.498	9541.06
891.815	9472.82
892.131	9432.14
892.447	9346.94
892.763	9377.23
893.079	9395.98
893.395	9407.96
893.71	9337.9
894.026	9293.16
894.342	9290.45
894.657	9258.13
894.973	9217.46
895.289	9200.73
895.604	9198.47
895.92	9112.6
896.235	9023.79
896.55	9055.43
896.865	9016.78
897.181	9017.23
897.496	9019.04
897.811	8866.28
898.126	8920.51
898.441	8884.81
898.756	8843.23
899.071	8790.35
899.386	8777.01
899.7	8750.8
900.015	8722.1
900.33	8619.5
900.644	8667.41
900.959	8635.1
901.273	8622.22
901.588	8509.9
901.902	8487.31
902.216	8495.44
902.531	8485.27
902.845	8421.54
903.159	8385.16
903.473	8332.28
903.787	8385.39
904.101	8302.45
904.415	8309.23
904.729	8271.04
905.042	8186.07
905.356	8139.52
905.67	8222.23
905.984	8150.36
906.297	8161.89
906.611	8052.06
906.924	8030.14
907.237	8033.98
907.551	8046.19
907.864	8121.21
908.177	7970.48
908.491	7910.6
908.804	7848.9
909.117	7785.4
909.43	7783.59
909.743	7784.5
910.056	7685.74
910.368	7694.11
910.681	7609.81
910.994	7666.76
911.307	7611.62
911.619	7559.65
911.932	7567.1
912.244	7464.51
912.557	7505.86
912.869	7377.96
913.181	7382.7
913.494	7366.88
913.806	7324.17
914.118	7352.65
914.43	7266.32
914.742	7299.09
915.054	7306.32
915.366	7152.42
915.678	7183.38
915.99	7111.52
916.302	7079.21
916.613	7043.73
916.925	7056.83
917.236	7003.28
917.548	7001.69
917.859	7018.19
918.171	6944.75
918.482	6861.36
918.794	6876.05
919.105	6838.08
919.416	6822.04
919.727	6838.99
920.038	6742.49
920.349	6765.32
920.66	6804.86
920.971	6688.03
921.282	6707.92
921.593	6593.12
921.903	6640.57
922.214	6568.03
922.525	6577.07
922.835	6541.37
923.146	6516.96
923.456	6507.47
923.767	6481.26
924.077	6403.97
924.387	6406.68
924.697	6376.17
925.008	6316.97
925.318	6294.82
925.628	6306.12
925.938	6266.57
926.248	6185.22
926.558	6181.15
926.867	6209.85
927.177	6155.16
927.487	6156.52
927.796	6068.39
928.106	6108.84
928.416	6005.11
928.725	6039.69
929.034	5936.41
929.344	5944.1
929.653	5961.27
929.962	5872.91
930.271	5805.57
930.581	5830.43
930.89	5798.79
931.199	5750.88
931.508	5805.79
931.817	5786.36
932.125	5774.61
932.434	5704.78
932.743	5693.71
933.051	5658.45
933.36	5623.2
933.669	5604.67
933.977	5556.31
934.286	5587.95
934.594	5598.57
934.902	5531
935.21	5485.12
935.519	5471.79
935.827	5460.04
936.135	5446.71
936.443	5344.79
936.751	5366.48
937.059	5335.75
937.367	5361.06
937.674	5360.38
937.982	5304.79
938.29	5255.3
938.597	5276.09
938.905	5236.77
939.213	5223.21
939.52	5189.99
939.827	5150.22
940.135	5121.97
940.442	5087.39
940.749	5099.15
941.056	5110.44
941.363	5050.56
941.67	5015.08
941.977	4984.57
942.284	4928.53
942.591	4942.31
942.898	4906.16
943.205	4955.42
943.511	4875.42
943.818	4845.82
944.125	4883.56
944.431	4858.93
944.738	4833.16
945.044	4791.81
945.35	4764.01
945.657	4740.51
945.963	4738.48
946.269	4678.14
946.575	4677.69
946.881	4673.85
947.187	4634.98
947.493	4622.77
947.799	4595.43
948.105	4544.81
948.41	4548.2
948.716	4565.6
949.022	4499.39
949.327	4532.38
949.633	4476.11
949.938	4487.86
950.244	4490.8
950.549	4405.6
950.854	4407.19
951.16	4412.84
951.465	4362.44
951.77	4378.26
952.075	4389.11
952.38	4341.65
952.685	4274.31
952.99	4246.74
953.294	4281.09
953.599	4215.1
953.904	4234.76
954.209	4204.48
954.513	4162.9
954.818	4145.72
955.122	4148.66
955.426	4153.18
955.731	4131.71
956.035	4105.73
956.339	4082.68
956.643	4115.44
956.948	4033.41
957.252	4014.88
957.556	4023.24
957.86	3982.56
958.163	3953.64
958.467	3958.84
958.771	3957.25
959.075	3910.93
959.378	3925.84
959.682	3915.9
959.985	3892.85
960.289	3832.29
960.592	3791.38
960.896	3834.32
961.199	3813.98
961.502	3797.48
961.805	3768.33
962.108	3750.25
962.411	3735.57
962.714	3717.49
963.017	3764.04
963.32	3734.66
963.623	3652.86
963.926	3656.92
964.228	3619.41
964.531	3639.07
964.833	3617.38
965.136	3592.07
965.438	3587.77
965.741	3552.75
966.043	3525.85
966.345	3536.47
966.648	3505.06
966.95	3525.4
967.252	3447.44
967.554	3480.88
967.856	3481.79
968.158	3453.77
968.46	3407.44
968.761	3402.92
969.063	3406.53
969.365	3388.23
969.666	3365.63
969.968	3326.08
970.269	3342.36
970.571	3321.11
970.872	3304.84
971.174	3294.22
971.475	3317.27
971.776	3291.96
972.077	3246.31
972.378	3246.99
972.679	3258.52
972.98	3199.31
973.281	3191.63
973.582	3172.42
973.883	3185.52
974.183	3206.09
974.484	3133.77
974.785	3113.66
975.085	3158.18
975.386	3104.85
975.686	3061.46
975.986	3068.69
976.287	3056.94
976.587	3005.19
976.887	3022.14
977.187	3030.27
977.487	2992.08
977.787	3008.58
978.087	3012.19
978.387	2965.19
978.687	2969.48
978.987	2920.9
979.286	2954.12
979.586	2909.82
979.885	2904.63
980.185	2868.47
980.484	2881.12
980.784	2869.15
981.083	2844.97
981.382	2832.09
981.682	2820.34
981.981	2804.06
982.28	2817.85
982.579	2790.05
982.878	2775.14
983.177	2736.5
983.475	2751.18
983.774	2733.56
984.073	2739.89
984.372	2691.53
984.67	2710.06
984.969	2707.57
985.267	2674.58
985.566	2681.13
985.864	2653.33
986.162	2659.89
986.461	2656.27
986.759	2627.57
987.057	2597.29
987.355	2596.84
987.653	2600.68
987.951	2590.51
988.249	2568.59
988.547	2549.38
988.844	2503.73
989.142	2539.66
989.44	2528.82
989.737	2480.01
990.035	2489.95
990.332	2502.6
990.63	2468.48
990.927	2454.24
991.224	2443.85
991.521	2450.85
991.819	2443.17
992.116	2446.11
992.413	2407.69
992.71	2399.33
993.006	2396.39
993.303	2368.37
993.6	2360.46
993.897	2338.31
994.193	2348.71
994.49	2313.23
994.787	2333.34
995.083	2330.63
995.379	2258.54
995.676	2271.65
995.972	2290.86
996.268	2258.77
996.565	2250.41
996.861	2233.68
997.157	2219.45
997.453	2195.27
997.749	2234.59
998.044	2176.28
998.34	2155.27
998.636	2165.44
998.932	2166.12
999.227	2152.78
999.523	2078.66
999.818	2120.24
1000.114	2157.3
1000.409	2092.9
1000.704	2115.04
1001	2085.67
1001.295	2080.92
1001.59	2069.17
1001.885	1997.76
1002.18	2046.34
1002.475	2033.01
1002.77	2021.49
1003.065	2002.73
1003.359	1975.84
1003.654	1971.09
1003.949	1989.62
1004.243	1962.96
1004.538	1946.46
1004.832	1924.31
1005.127	1896.52
1005.421	1912.11
1005.715	1921.15
1006.009	1927.7
1006.304	1884.54
1006.598	1880.7
1006.892	1879.12
1007.186	1847.03
1007.48	1856.52
1007.773	1844.32
1008.067	1823.07
1008.361	1817.65
1008.655	1774.71
1008.948	1787.59
1009.242	1806.35
1009.535	1786.01
1009.829	1781.04
1010.122	1795.96
1010.415	1783.07
1010.708	1743.08
1011.001	1734.04
1011.295	1702.85
1011.588	1714.83
1011.881	1694.94
1012.173	1678.22
1012.466	1702.17
1012.759	1641.16
1013.052	1633.7
1013.344	1666.69
1013.637	1620.82
1013.93	1634.15
1014.222	1607.26
1014.514	1590.54
1014.807	1620.82
1015.099	1567.04
1015.391	1561.84
1015.683	1568.39
1015.976	1551.22
1016.268	1563.65
1016.56	1592.8
1016.851	1541.05
1017.143	1528.17
1017.435	1525.91
1017.727	1460.6
1018.018	1508.05
1018.31	1513.03
1018.602	1494.04
1018.893	1478.45
1019.185	1456.3
1019.476	1467.83
1019.767	1474.16
1020.058	1449.52
1020.35	1408.85
1020.641	1418.11
1020.932	1393.48
1021.223	1387.38
1021.514	1358.23
1021.804	1378.34
1022.095	1355.97
1022.386	1369.53
1022.677	1338.34
1022.967	1342.41
1023.258	1315.52
1023.548	1328.62
1023.839	1340.6
1024.129	1309.41
1024.419	1324.1
1024.709	1290.66
1025	1289.53
1025.29	1282.07
1025.58	1258.57
1025.87	1269.64
1026.16	1252.24
1026.449	1238
1026.739	1218.34
1027.029	1234.84
1027.319	1215.86
1027.608	1226.93
1027.898	1234.16
1028.187	1208.4
1028.477	1198.91
1028.766	1184.67
1029.055	1158.68
1029.344	1174.28
1029.634	1168.18
1029.923	1168.18
1030.212	1142.64
1030.501	1146.03
1030.79	1144.45
1031.078	1132.02
1031.367	1107.39
1031.656	1116.88
1031.945	1068.97
1032.233	1078.46
1032.522	1108.29
1032.81	1080.95
1033.099	1103.09
1033.387	1087.73
1033.675	1075.3
1033.963	1040.5
1034.251	1040.27
1034.54	1040.72
1034.828	1034.62
1035.116	1033.49
1035.403	1012.93
1035.691	1017.22
1035.979	1000.95
1036.267	1025.58
1036.554	973.6
1036.842	1007.05
1037.129	966.6
1037.417	962.98
1037.704	962.98
1037.992	946.94
1038.279	943.1
1038.566	943.77
1038.853	943.77
1039.14	943.77
