Data from hue_120_FLMS001491_00009.txt Node
Date: Tue Feb 07 16:58:52 GMT 2017
User: dcchb
Spectrometer: FLMS00149
Trigger mode: 0
Integration Time (sec): 2.000000E-2
Scans to average: 10
Electric dark correction enabled: true
Nonlinearity correction enabled: false
Boxcar width: 0
XAxis mode: Wavelengths
Number of Pixels in Spectrum: 2048
>>>>>Begin Spectral Data<<<<<
341.393	-24.8
341.776	-24.8
342.16	-24.8
342.543	-62.99
342.927	-60.96
343.31	-63.9
343.693	-53.73
344.077	-60.73
344.46	-77
344.843	-49.21
345.226	-58.02
345.61	-38.36
345.993	-20.96
346.376	13.84
346.759	14.97
347.142	10.45
347.525	52.48
347.908	65.14
348.291	80.28
348.674	89.55
349.057	95.2
349.44	122.54
349.823	126.38
350.206	164.57
350.588	198.02
350.971	205.02
351.354	232.59
351.737	227.62
352.119	260.16
352.502	253.38
352.884	278.92
353.267	297.9
353.65	301.52
354.032	295.42
354.414	305.81
354.797	336.77
355.179	317.79
355.562	320.27
355.944	326.15
356.326	336.77
356.709	345.13
357.091	332.25
357.473	352.82
357.855	348.3
358.238	348.75
358.62	341.97
359.002	344
359.384	346.71
359.766	333.83
360.148	327.51
360.53	348.97
360.912	357.56
361.294	343.78
361.676	320.27
362.057	337.45
362.439	309.88
362.821	338.35
363.203	342.65
363.584	332.03
363.966	331.35
364.348	327.96
364.729	323.21
365.111	305.13
365.493	316.21
365.874	304
366.256	310.56
366.637	345.58
367.019	325.47
367.4	322.08
367.781	320.27
368.163	321.86
368.544	308.07
368.925	304.68
369.306	323.44
369.688	323.21
370.069	319.82
370.45	304.91
370.831	317.79
371.212	322.76
371.593	324.34
371.974	315.98
372.355	335.19
372.736	308.52
373.117	293.61
373.498	304.23
373.879	324.57
374.26	337.9
374.641	307.39
375.021	311.91
375.402	322.99
375.783	322.08
376.163	326.38
376.544	328.64
376.925	319.14
377.305	335.19
377.686	329.31
378.066	352.36
378.447	332.93
378.827	341.74
379.208	332.7
379.588	356.43
379.968	327.73
380.349	329.99
380.729	343.32
381.109	342.19
381.489	333.38
381.87	330.67
382.25	337.9
382.63	337.67
383.01	350.78
383.39	332.7
383.77	348.97
384.15	369.54
384.53	351.23
384.91	350.1
385.29	337
385.67	346.49
386.049	355.08
386.429	360.05
386.809	356.66
387.189	352.36
387.568	347.84
387.948	357.11
388.328	355.75
388.707	365.7
389.087	381.52
389.466	365.7
389.846	366.83
390.225	371.57
390.605	360.5
390.984	369.09
391.363	352.82
391.743	365.47
392.122	370.67
392.501	380.39
392.881	392.81
393.26	394.4
393.639	391.46
394.018	381.29
394.397	391.91
394.776	386.04
395.155	412.02
395.534	356.66
395.913	385.13
396.292	394.17
396.671	413.38
397.05	406.6
397.429	405.47
397.808	408.63
398.186	408.41
398.565	439.37
398.944	403.89
399.323	392.81
399.701	427.39
400.08	402.31
400.458	408.86
400.837	433.49
401.215	410.22
401.594	435.53
401.972	442.3
402.351	417.45
402.729	416.99
403.107	407.73
403.486	435.75
403.864	414.06
404.242	430.33
404.62	440.04
404.999	465.35
405.377	447.28
405.755	454.28
406.133	442.76
406.511	466.48
406.889	442.53
407.267	444.11
407.645	457.67
408.023	465.81
408.401	476.65
408.779	471.23
409.156	446.37
409.534	462.64
409.912	490.89
410.29	478.91
410.667	493.6
411.045	483.66
411.422	475.75
411.8	468.97
412.178	460.38
412.555	468.29
412.933	481.63
413.31	491.57
413.687	488.41
414.065	497.44
414.442	525.24
414.819	496.99
415.197	489.54
415.574	523.88
415.951	502.42
416.328	503.32
416.705	528.86
417.082	520.72
417.46	533.83
417.837	536.09
418.214	539.03
418.591	532.47
418.967	542.19
419.344	541.96
419.721	538.35
420.098	544
420.475	550.32
420.852	550.78
421.228	578.12
421.605	571.79
421.982	554.84
422.358	574.5
422.735	575.18
423.111	576.76
423.488	604.56
423.864	596.65
424.241	618.35
424.617	587.84
424.994	623.32
425.37	604.11
425.746	599.59
426.123	618.8
426.499	619.02
426.875	623.77
427.251	633.03
427.627	617.67
428.003	621.96
428.379	650.43
428.756	656.54
429.132	669.64
429.507	666.93
429.883	673.71
430.259	659.47
430.635	673.03
431.011	666.93
431.387	708.06
431.763	701.73
432.138	693.6
432.514	717.33
432.89	693.82
433.265	704.67
433.641	711.68
434.016	715.07
434.392	734.05
434.767	740.38
435.143	752.35
435.518	746.48
435.894	758.45
436.269	781.05
436.644	746.03
437.02	791
437.395	771.79
437.77	794.84
438.145	818.11
438.52	803.43
438.895	807.94
439.271	815.85
439.646	837.32
440.021	846.36
440.395	859.24
440.77	807.49
441.145	835.06
441.52	871.22
441.895	873.93
442.27	878.23
442.645	864.21
443.019	875.74
443.394	883.88
443.769	898.79
444.143	878.68
444.518	899.69
444.892	922.52
445.267	892.69
445.641	911.9
446.016	926.13
446.39	911.67
446.764	937.88
447.139	927.49
447.513	933.82
447.887	959.13
448.262	946.92
448.636	935.17
449.01	961.39
449.384	947.38
449.758	974.72
450.132	991.67
450.506	992.8
450.88	994.15
451.254	983.53
451.628	1015.85
452.002	1023.98
452.376	1019.01
452.75	1053.14
453.123	1036.64
453.497	1083.42
453.871	1063.98
454.244	1085.23
454.618	1069.41
454.992	1094.49
455.365	1106.47
455.739	1127.26
456.112	1143.08
456.486	1151.66
456.859	1179.69
457.232	1170.65
457.606	1173.81
457.979	1193.47
458.352	1199.12
458.725	1223.3
459.099	1238.89
459.472	1262.85
459.845	1278.67
460.218	1266.92
460.591	1288.84
460.964	1308.72
461.337	1329.74
461.71	1335.84
462.083	1374.94
462.456	1401.38
462.829	1360.02
463.201	1421.71
463.574	1405.67
463.947	1441.37
464.32	1466.91
464.692	1495.61
465.065	1495.16
465.438	1534.48
465.81	1507.81
466.183	1556.4
466.555	1585.55
466.928	1605.66
467.3	1623.29
467.672	1644.31
468.045	1697.86
468.417	1736.51
468.789	1756.62
469.161	1757.07
469.534	1778.54
469.906	1845.88
470.278	1893.57
470.65	1866
471.022	1947.8
471.394	1964.07
471.766	1983.06
472.138	2045.65
472.51	2095.82
472.882	2114.8
473.253	2141.02
473.625	2204.52
473.997	2278.41
474.369	2303.05
474.74	2338.07
475.112	2396.15
475.484	2448.35
475.855	2517.96
476.227	2536.49
476.598	2650.16
476.97	2660.55
477.341	2804.5
477.713	2794.56
478.084	2873.43
478.455	2970.37
478.827	3084.04
479.198	3183.48
479.569	3190.03
479.94	3315.22
480.311	3360.19
480.682	3507.99
481.053	3620.98
481.424	3739.17
481.795	3807.64
482.166	3914.53
482.537	3980.29
482.908	4117.24
483.279	4233.84
483.65	4328.76
484.021	4466.38
484.391	4545.25
484.762	4655.53
485.133	4745.02
485.503	4898.01
485.874	5018.91
486.244	5157.89
486.615	5278.56
486.985	5426.13
487.356	5594.03
487.726	5720.58
488.097	5907.47
488.467	5964.65
488.837	6191.31
489.207	6284.86
489.578	6425.42
489.948	6610.05
490.318	6744.51
490.688	6802.36
491.058	6986.09
491.428	7187.89
491.798	7291.62
492.168	7574.32
492.538	7691.61
492.908	7855.67
493.278	7969.34
493.648	8102.22
494.017	8238.48
494.387	8334.98
494.757	8555.31
495.126	8694.52
495.496	8780.84
495.866	8928.64
496.235	9052.02
496.605	9178.12
496.974	9382.18
497.344	9515.29
497.713	9659.24
498.082	9689.07
498.452	9969.96
498.821	10025.1
499.19	10146.68
499.559	10294.93
499.928	10364.3
500.298	10509.38
500.667	10611.08
501.036	10675.03
501.405	10908.24
501.774	10881.8
502.143	11018.52
502.512	11117.05
502.88	11241.12
503.249	11310.95
503.618	11439.53
503.987	11533.31
504.356	11682.91
504.724	11721.78
505.093	11772.18
505.462	11880.42
505.83	12033.41
506.199	12118.16
506.567	12307.08
506.936	12261.2
507.304	12467.3
507.672	12453.97
508.041	12588.88
508.409	12690.57
508.777	12817.12
509.145	12841.07
509.514	12935.08
509.882	12909.1
510.25	13043.33
510.618	13141.86
510.986	13159.03
511.354	13301.4
511.722	13328.75
512.09	13447.61
512.458	13423.43
512.826	13544.79
513.193	13606.25
513.561	13639.02
513.929	13678.57
514.297	13759.92
514.664	13810.77
515.032	13819.35
515.4	13911.78
515.767	13986.13
516.135	14036.75
516.502	13909.75
516.869	14205.56
517.237	14206.69
517.604	14108.61
517.972	14283.75
518.339	14352
518.706	14270.64
519.073	14400.13
519.44	14326.46
519.808	14491.2
520.175	14481.26
520.542	14669.5
520.909	14635.15
521.276	14651.87
521.643	14690.74
522.009	14756.73
522.376	14782.49
522.743	14843.96
523.11	14943.62
523.477	14952.88
523.843	14984.52
524.21	15108.36
524.577	15164.63
524.943	15065.65
525.31	15101.13
525.676	15222.71
526.043	15179.32
526.409	15259.54
526.776	15360.78
527.142	15310.61
527.508	15377.05
527.874	15409.37
528.241	15381.57
528.607	15355.13
528.973	15487.78
529.339	15388.35
529.705	15390.39
530.071	15541.79
530.437	15472.64
530.803	15488.91
531.169	15546.09
531.535	15469.03
531.901	15444.62
532.267	15531.17
532.632	15508.58
532.998	15452.08
533.364	15477.62
533.73	15426.32
534.095	15473.77
534.461	15455.7
534.826	15437.62
535.192	15363.49
535.557	15450.95
535.923	15424.96
536.288	15368.24
536.653	15371.63
537.019	15298.86
537.384	15384.06
537.749	15238.98
538.114	15276.72
538.479	15270.84
538.845	15250.73
539.21	15182.71
539.575	15085.31
539.94	15112.88
540.305	15137.74
540.67	15044.41
541.034	15064.75
541.399	14998.31
541.764	15029.72
542.129	14969.61
542.494	14895.71
542.858	14918.08
543.223	14850.29
543.587	14890.74
543.952	14786.56
544.316	14761.02
544.681	14617.75
545.045	14656.39
545.41	14641.03
545.774	14603.29
546.138	14571.42
546.503	14596.51
546.867	14489.17
547.231	14509.96
547.595	14511.54
547.959	14429.96
548.324	14328.49
548.688	14363.75
549.052	14276.52
549.416	14200.14
549.779	14197.88
550.143	14194.71
550.507	14216.63
550.871	14180.93
551.235	14118.1
551.599	14133.47
551.962	13978.45
552.326	14075.39
552.689	14013.25
553.053	13883.99
553.417	13939.8
553.78	13997.43
554.143	13967.15
554.507	13891.89
554.87	13879.24
555.234	13982.06
555.597	13834.72
555.96	13896.19
556.323	13778.9
556.686	13860.03
557.05	13925.34
557.413	13800.82
557.776	13764.67
558.139	13838.34
558.502	13781.16
558.865	13733.25
559.228	13765.8
559.59	13787.72
559.953	13754.27
560.316	13840.82
560.679	13780.03
561.041	13772.35
561.404	13704.55
561.767	13842.4
562.129	13755.18
562.492	13777.32
562.854	13703.42
563.217	13812.57
563.579	13825.46
563.941	13803.76
564.304	13845.34
564.666	13854.16
565.028	13849.41
565.39	13895.51
565.753	13949.97
566.115	13855.74
566.477	13848.05
566.839	13932.12
567.201	13953.81
567.563	13862.97
567.925	13992.68
568.287	13961.72
568.648	13992
569.01	13961.72
569.372	14074.49
569.734	14004.66
570.095	14010.08
570.457	14015.06
570.819	14133.7
571.18	13995.17
571.542	14060.48
571.903	14040.37
572.265	14088.5
572.626	14117.43
572.987	14149.29
573.349	14111.32
573.71	14156.52
574.071	14196.75
574.432	14216.18
574.794	14303.18
575.155	14255.05
575.516	14162.85
575.877	14232
576.238	14223.19
576.599	14264.31
576.96	14158.1
577.32	14162.17
577.681	14302.05
578.042	14245.56
578.403	14238.55
578.763	14241.26
579.124	14239.23
579.485	14294.6
579.845	14287.36
580.206	14196.97
580.566	14210.3
580.927	14278.55
581.287	14372.79
581.648	14234.94
582.008	14384.31
582.368	14226.12
582.728	14213.24
583.089	14173.7
583.449	14170.53
583.809	14222.28
584.169	14257.99
584.529	14178.44
584.889	14328.49
585.249	14266.8
585.609	14178.89
585.969	14275.16
586.329	14168.72
586.688	14128.27
587.048	14184.09
587.408	14066.58
587.768	14102.74
588.127	14103.87
588.487	14088.05
588.846	14161.27
589.206	13977.54
589.565	14029.74
589.925	14074.26
590.284	14079.46
590.643	14047.14
591.003	14084.21
591.362	14104.54
591.721	14005.11
592.08	14053.25
592.44	14069.52
592.799	13940.48
593.158	14032.46
593.517	14015.96
593.876	14029.07
594.235	14011.89
594.593	14016.41
594.952	14046.47
595.311	14003.3
595.67	13934.38
596.029	14048.27
596.387	13980.03
596.746	14078.56
597.104	13990.88
597.463	13952.68
597.822	13960.14
598.18	13870.65
598.538	13936.64
598.897	14011.44
599.255	13886.02
599.613	14035.39
599.972	13996.75
600.33	14012.57
600.688	13987.49
601.046	13967.6
601.404	14009.41
601.762	13995.62
602.12	14002.17
602.478	14000.14
602.836	14059.12
603.194	13970.31
603.552	13851.22
603.91	13898.9
604.268	13938.45
604.625	13855.06
604.983	13907.04
605.341	13872.46
605.698	13976.19
606.056	13908.84
606.413	13968.28
606.771	14016.19
607.128	14037.2
607.485	13946.13
607.843	14012.12
608.2	14094.15
608.557	14084.66
608.914	13960.14
609.272	14150.64
609.629	14077.88
609.986	14050.53
610.343	13994.49
610.7	14075.39
611.057	14126.46
611.414	14096.18
611.771	14097.54
612.127	14151.32
612.484	14095.73
612.841	14098.67
613.198	14073.36
613.554	14068.84
613.911	14218.44
614.267	14118.56
614.624	14203.3
614.98	14152
615.337	14217.99
615.693	14150.19
616.05	14321.49
616.406	14328.95
616.762	14216.18
617.118	14240.59
617.475	14310.19
617.831	14330.08
618.187	14323.07
618.543	14267.48
618.899	14473.35
619.255	14382.96
619.611	14301.15
619.967	14441.26
620.323	14480.13
620.678	14379.11
621.034	14252.56
621.39	14305.44
621.746	14247.82
622.101	14419.11
622.457	14384.54
622.812	14306.12
623.168	14347.25
623.523	14378.21
623.879	14439
624.234	14282.84
624.589	14432.67
624.945	14355.39
625.3	14368.27
625.655	14373.92
626.01	14448.72
626.365	14389.06
626.72	14345.89
627.075	14432.9
627.43	14379.11
627.785	14328.27
628.14	14366.23
628.495	14325.78
628.85	14300.92
629.205	14358.32
629.559	14286.01
629.914	14298.21
630.269	14290.75
630.623	14296.18
630.978	14277.65
631.332	14302.05
631.687	14391.99
632.041	14328.49
632.396	14247.14
632.75	14185.45
633.104	14229.29
633.459	14183.64
633.813	14070.42
634.167	14177.31
634.521	14084.66
634.875	14177.76
635.229	14134.83
635.583	14076.07
635.937	14032.91
636.291	14017.32
636.645	13994.04
636.999	14034.72
637.352	14046.69
637.706	13951.33
638.06	13973.7
638.413	14004.89
638.767	13975.06
639.121	13982.51
639.474	13908.84
639.828	13868.39
640.181	13901.39
640.534	13832.91
640.888	13788.39
641.241	13800.6
641.594	13783.42
641.947	13873.14
642.301	13833.82
642.654	13894.15
643.007	13811.22
643.36	13742.07
643.713	13680.37
644.066	13806.25
644.419	13688.06
644.771	13613.26
645.124	13507.95
645.477	13448.52
645.83	13427.5
646.182	13303.44
646.535	13246.04
646.888	13446.26
647.24	13331.91
647.593	13345.69
647.945	13301.63
648.298	13250.78
648.65	13324
649.002	13219.14
649.355	13265.02
649.707	13302.53
650.059	13375.75
650.411	13447.39
650.763	13622.3
651.115	13665.23
651.467	13562.19
651.819	13593.37
652.171	13652.8
652.523	13572.81
652.875	13542.3
653.227	13570.32
653.578	13633.14
653.93	13653.26
654.282	13559.47
654.633	13505.92
654.985	13574.84
655.337	13565.12
655.688	13562.64
656.039	13664.1
656.391	13513.83
656.742	13551.11
657.094	13491
657.445	13593.15
657.796	13580.49
658.147	13560.15
658.498	13538.46
658.849	13610.77
659.2	13524.22
659.551	13503.88
659.902	13597.21
660.253	13628.85
660.604	13604.22
660.955	13579.13
661.306	13622.52
661.656	13629.75
662.007	13551.34
662.358	13606.7
662.708	13614.84
663.059	13638.34
663.409	13546.14
663.76	13559.7
664.11	13592.69
664.461	13632.01
664.811	13653.48
665.161	13677.66
665.511	13648.96
665.862	13621.85
666.212	13626.82
666.562	13740.71
666.912	13653.26
667.262	13566.03
667.612	13609.64
667.962	13693.93
668.312	13606.93
668.662	13636.76
669.011	13642.64
669.361	13640.15
669.711	13633.37
670.06	13627.72
670.41	13652.58
670.76	13585.46
671.109	13609.19
671.459	13636.31
671.808	13524.22
672.157	13615.97
672.507	13528.06
672.856	13510.66
673.205	13506.82
673.554	13508.85
673.904	13481.51
674.253	13641.28
674.602	13505.01
674.951	13352.25
675.3	13338.01
675.649	13518.35
675.998	13392.02
676.346	13443.77
676.695	13527.16
677.044	13410.55
677.393	13401.06
677.741	13401.29
678.09	13309.31
678.438	13336.65
678.787	13347.5
679.135	13361.97
679.484	13247.39
679.832	13274.74
680.181	13225.7
680.529	13260.27
680.877	13245.58
681.225	13249.2
681.573	13210.33
681.922	13213.95
682.27	13151.12
682.618	13041.52
682.966	13088.53
683.314	13091.01
683.661	13026.15
684.009	13045.59
684.357	12992.48
684.705	12927.17
685.053	12948.19
685.4	12975.31
685.748	12834.97
686.095	12853.28
686.443	12739.16
686.79	12747.07
687.138	12822.09
687.485	12831.36
687.832	12681.98
688.18	12787.29
688.527	12653.96
688.874	12689.44
689.221	12512.95
689.568	12561.99
689.915	12481.54
690.262	12521.99
690.609	12472.72
690.956	12454.42
691.303	12464.36
691.65	12338.26
691.997	12322.9
692.344	12237.93
692.69	12272.05
693.037	12296.68
693.383	12107.76
693.73	12112.28
694.077	12151.83
694.423	12065.05
694.769	11921.1
695.116	11936.47
695.462	11918.84
695.808	11846.52
696.155	11839.07
696.501	11821.89
696.847	11805.4
697.193	11675
697.539	11685.62
697.885	11608.34
698.231	11562.01
698.577	11613.76
698.923	11536.7
699.269	11498.29
699.614	11369.7
699.96	11369.25
700.306	11363.6
700.651	11376.93
700.997	11296.93
701.342	11283.15
701.688	11246.09
702.033	11186.88
702.379	11181.23
702.724	11041.8
703.069	11092.42
703.415	10966.1
703.76	11014.23
704.105	10926.55
704.45	11011.74
704.795	10909.15
705.14	10856.95
705.485	10768.13
705.83	10827.79
706.175	10717.51
706.52	10723.16
706.865	10644.3
707.209	10671.87
707.554	10662.6
707.899	10675.03
708.243	10589.16
708.588	10541.25
708.932	10476.17
709.277	10475.49
709.621	10478.65
709.966	10417.64
710.31	10427.35
710.654	10376.28
710.998	10432.32
711.342	10319.33
711.687	10292.67
712.031	10313.46
712.375	10241.82
712.719	10205.89
713.063	10181.03
713.407	10253.35
713.75	10150.98
714.094	10127.47
714.438	10101.49
714.782	10127.7
715.125	10060.81
715.469	10170.18
715.812	10047.7
716.156	10057.42
716.499	10087.02
716.843	9967.93
717.186	10026.69
717.53	9953.02
717.873	10041.6
718.216	9984.65
718.559	9887.03
718.902	9884.09
719.246	9975.84
719.589	9908.5
719.932	9847.26
720.275	9875.5
720.617	9781.04
720.96	9778.1
721.303	9780.82
721.646	9755.96
721.989	9711.44
722.331	9757.31
722.674	9780.36
723.016	9697.43
723.359	9706.47
723.701	9747.82
724.044	9663.08
724.386	9674.6
724.729	9699.24
725.071	9650.65
725.413	9614.27
725.755	9586.7
726.097	9608.84
726.439	9594.15
726.782	9577.43
727.124	9676.41
727.465	9567.49
727.807	9701.95
728.149	9612.91
728.491	9512.57
728.833	9505.12
729.175	9558.9
729.516	9526.81
729.858	9570.88
730.199	9566.81
730.541	9583.99
730.882	9496.08
731.224	9561.84
731.565	9494.5
731.906	9570.65
732.248	9493.37
732.589	9443.2
732.93	9469.41
733.271	9487.26
733.612	9490.65
733.953	9484.33
734.294	9490.65
734.635	9452.69
734.976	9477.32
735.317	9465.8
735.658	9444.55
735.999	9556.64
736.339	9510.54
736.68	9539.47
737.021	9514.61
737.361	9504.67
737.702	9611.33
738.042	9552.12
738.383	9563.87
738.723	9578.11
739.063	9554.16
739.404	9619.69
739.744	9607.71
740.084	9546.25
740.424	9613.82
740.764	9577.43
741.104	9645.45
741.444	9609.3
741.784	9566.13
742.124	9685.23
742.464	9678.22
742.804	9673.93
743.143	9661.27
743.483	9740.59
743.823	9779.23
744.162	9765.68
744.502	9829.85
744.841	9807.71
745.181	9822.17
745.52	9864.66
745.86	10001.15
746.199	9933.58
746.538	10031.21
746.877	10107.14
747.216	10080.02
747.556	10145.55
747.895	10218.54
748.234	10233.01
748.573	10231.43
748.911	10366.79
749.25	10465.77
749.589	10392.55
749.928	10519.78
750.267	10670.28
750.605	10647.91
750.944	10810.62
751.283	10861.69
751.621	10958.86
751.96	10994.8
752.298	11131.97
752.636	11211.51
752.975	11309.14
753.313	11344.39
753.651	11559.75
753.989	11587.77
754.327	11755.91
754.666	11837.49
755.004	11975.79
755.342	12234.09
755.679	12284.71
756.017	12362.22
756.355	12586.84
756.693	12679.5
757.031	12888.08
757.368	12984.35
757.706	13142.99
758.044	13293.72
758.381	13563.77
758.719	13619.36
759.056	13876.3
759.394	14042.85
759.731	14134.83
760.068	14324.65
760.405	14460.47
760.743	14674.02
761.08	14956.73
761.417	14964.41
761.754	15161.47
762.091	15413.66
762.428	15575.01
762.765	15677.38
763.102	15844.84
763.438	16032.63
763.775	16224.94
764.112	16468.55
764.449	16593.29
764.785	16834.64
765.122	16884.81
765.458	17089.1
765.795	17212.26
766.131	17523.21
766.467	17645.69
766.804	17741.96
767.14	17856.99
767.476	18055.17
767.812	18077.77
768.148	18272.57
768.485	18381.72
768.821	18559.12
769.157	18636.18
769.492	18855.15
769.828	18904.42
770.164	18979.67
770.5	19160.23
770.836	19248.59
771.171	19356.61
771.507	19433.67
771.842	19560.45
772.178	19641.57
772.513	19699.88
772.849	19870.27
773.184	19888.12
773.519	19989.36
773.855	20025.97
774.19	20073.2
774.525	20169.24
774.86	20272.52
775.195	20412.63
775.53	20326.98
775.865	20336.47
776.2	20236.36
776.535	20439.52
776.87	20471.16
777.205	20465.96
777.539	20432.06
777.874	20673.86
778.209	20513.19
778.543	20531.04
778.878	20562.68
779.212	20738.49
779.547	20618.5
779.881	20828.44
780.215	20687.2
780.55	20740.98
780.884	20593.19
781.218	20748.21
781.552	20779.4
781.886	20680.19
782.22	20771.26
782.554	20722.22
782.888	20669.34
783.222	20500.99
783.556	20604.26
783.889	20574.88
784.223	20545.5
784.557	20535.56
784.89	20638.84
785.224	20453.08
785.557	20408.33
785.891	20440.2
786.224	20488.11
786.558	20585.5
786.891	20271.84
787.224	20368.33
787.557	20335.57
787.891	20410.82
788.224	20376.7
788.557	20332.63
788.89	20424.38
789.223	20342.35
789.556	20220.54
789.888	20207.66
790.221	20258.96
790.554	20028.46
790.887	20032.07
791.219	20049.7
791.552	19913.88
791.884	19881.57
792.217	19927.89
792.549	19939.19
792.882	19826.2
793.214	19734.9
793.546	19739.42
793.879	19594.57
794.211	19536.94
794.543	19554.34
794.875	19530.84
795.207	19655.36
795.539	19564.51
795.871	19495.36
796.203	19436.83
796.535	19273.67
796.867	19327.46
797.198	19301.92
797.53	19292.88
797.862	19070.74
798.193	19154.58
798.525	19157.97
798.856	19153.23
799.188	18949.16
799.519	18960.24
799.85	18850.18
800.182	18823.74
800.513	18892.67
800.844	18682.05
801.175	18713.01
801.506	18745.33
801.837	18714.82
802.168	18636.4
802.499	18631.88
802.83	18535.84
803.161	18533.58
803.491	18557.08
803.822	18496.97
804.153	18478.89
804.483	18269.63
804.814	18249.75
805.145	18184.44
805.475	18216.98
805.805	18147.6
806.136	18134.04
806.466	18185.12
806.796	18043.2
807.126	17936.99
807.457	17992.13
807.787	17886.82
808.117	17863.09
808.447	17807.95
808.777	17831.9
809.107	17683.43
809.436	17712.36
809.766	17652.02
810.096	17697.67
810.426	17532.02
810.755	17550.1
811.085	17522.76
811.414	17531.35
811.744	17388.98
812.073	17326.15
812.403	17339.94
812.732	17279.38
813.061	17219.04
813.39	17149.66
813.719	17231.02
814.049	17261.98
814.378	17193.28
814.707	17155.31
815.036	17089.32
815.365	17081.42
815.693	16883
816.022	16920.52
816.351	16948.99
816.68	16855.88
817.008	16875.54
817.337	16742.89
817.665	16697.02
817.994	16754.19
818.322	16809.56
818.651	16621.31
818.979	16605.95
819.307	16699.28
819.636	16563.01
819.964	16511.49
820.292	16598.49
820.62	16469.23
820.948	16493.63
821.276	16583.58
821.604	16489.79
821.932	16602.78
822.259	16569.56
822.587	16507.42
822.915	16372.73
823.243	16571.15
823.57	16471.04
823.898	16480.98
824.225	16396.24
824.553	16368.89
824.88	16436.01
825.207	16541.32
825.535	16409.34
825.862	16540.41
826.189	16407.76
826.516	16562.78
826.843	16483.24
827.17	16573.63
827.497	16525.27
827.824	16549
828.151	16543.58
828.478	16496.35
828.805	16619.51
829.131	16515.55
829.458	16491.37
829.785	16410.02
830.111	16478.27
830.438	16467.19
830.764	16435.1
831.09	16515.55
831.417	16432.17
831.743	16452.96
832.069	16534.09
832.395	16408.21
832.722	16404.82
833.048	16316.92
833.374	16364.6
833.7	16305.39
834.026	16331.15
834.351	16385.16
834.677	16366.63
835.003	16359.63
835.329	16342.45
835.654	16336.35
835.98	16270.36
836.306	16301.1
836.631	16180.42
836.956	16288.22
837.282	16254.32
837.607	16185.17
837.932	16164.38
838.258	16165.73
838.583	16164.38
838.908	15946.53
839.233	16091.84
839.558	15917.83
839.883	15968.22
840.208	15871.96
840.533	15890.03
840.858	15923.25
841.182	15915.34
841.507	15908.56
841.832	15816.36
842.156	15805.29
842.481	15747.67
842.805	15766.87
843.13	15713.77
843.454	15691.17
843.778	15560.78
844.103	15571.4
844.427	15523.04
844.751	15591.28
845.075	15483.49
845.399	15456.37
845.723	15415.24
846.047	15436.49
846.371	15292.08
846.695	15277.17
847.019	15214.57
847.343	15127.57
847.666	15065.2
847.99	14968.48
848.313	14950.17
848.637	14857.07
848.96	14857.29
849.284	14766
849.607	14712.44
849.931	14692.78
850.254	14597.41
850.577	14464.31
850.9	14419.56
851.223	14489.62
851.546	14434.03
851.869	14192.45
852.192	14295.5
852.515	14093.02
852.838	14078.56
853.161	14016.86
853.483	14009.41
853.806	13873.82
854.129	13905.68
854.451	13807.15
854.774	13798.56
855.096	13813.7
855.419	13735.06
855.741	13670.43
856.063	13563.54
856.385	13523.54
856.708	13521.51
857.03	13459.59
857.352	13549.98
857.674	13448.74
857.996	13370.33
858.318	13369.87
858.64	13356.09
858.961	13275.87
859.283	13234.74
859.605	13137.11
859.926	13192.48
860.248	13143.44
860.57	13127.85
860.891	13126.49
861.212	13032.48
861.534	12982.99
861.855	12940.51
862.176	12976.21
862.498	13036.32
862.819	12921.52
863.14	12881.75
863.461	12801.53
863.782	12817.12
864.103	12898.7
864.424	12794.52
864.745	12867.97
865.065	12729.89
865.386	12654.41
865.707	12673.17
866.027	12670.91
866.348	12618.03
866.668	12668.88
866.989	12612.83
867.309	12514.98
867.63	12552.72
867.95	12533.51
868.27	12451.93
868.59	12497.13
868.91	12428.88
869.23	12423.01
869.55	12440.41
869.87	12411.03
870.19	12446.73
870.51	12409.45
870.83	12363.57
871.15	12365.61
871.469	12301.43
871.789	12362.9
872.109	12362.44
872.428	12180.53
872.748	12300.75
873.067	12230.47
873.386	12243.12
873.706	12256.68
874.025	12093.98
874.344	12177.82
874.663	12053.52
874.982	12110.25
875.301	12056.91
875.62	12046.29
875.939	12062.34
876.258	12043.13
876.577	11937.14
876.896	11974.66
877.214	11857.15
877.533	11926.3
877.852	11896.24
878.17	11927.65
878.489	11859.18
878.807	11885.17
879.125	11891.27
879.444	11878.84
879.762	11836.81
880.08	11827.99
880.398	11741.89
880.716	11761.78
881.034	11731.27
881.352	11689.01
881.67	11637.49
881.988	11621.45
882.306	11554.78
882.624	11608.79
882.941	11493.54
883.259	11526.76
883.577	11455.35
883.894	11511.17
884.212	11466.2
884.529	11383.71
884.846	11353.66
885.164	11405.86
885.481	11407.89
885.798	11303.04
886.115	11210.38
886.432	11185.07
886.75	11204.73
887.067	11238.63
887.383	11160.44
887.7	11190.27
888.017	11131.97
888.334	11079.99
888.651	11133.78
888.967	11110.72
889.284	11047.9
889.6	10974.91
889.917	10854.01
890.233	10877.96
890.55	10853.33
890.866	10862.6
891.182	10807
891.498	10828.47
891.815	10754.35
892.131	10709.61
892.447	10717.74
892.763	10638.87
893.079	10634.13
893.395	10545.32
893.71	10521.14
894.026	10493.57
894.342	10452.44
894.657	10442.72
894.973	10408.37
895.289	10391.65
895.604	10386.68
895.92	10330.18
896.235	10295.38
896.55	10276.62
896.865	10218.09
897.181	10251.99
897.496	10135.38
897.811	10091.99
898.126	10075.72
898.441	10051.32
898.756	10028.95
899.071	9949.85
899.386	9923.41
899.7	9869.4
900.015	9850.64
900.33	9793.02
900.644	9754.6
900.959	9738.11
901.273	9797.54
901.588	9675.51
901.902	9682.29
902.216	9553.03
902.531	9582.63
902.845	9548.28
903.159	9579.01
903.473	9423.31
903.787	9540.14
904.101	9359.36
904.415	9395.74
904.729	9329.08
905.042	9312.81
905.356	9257.21
905.67	9192.81
905.984	9200.04
906.297	9199.81
906.611	9090.89
906.924	9128.18
907.237	9027.84
907.551	9083.21
907.864	8999.59
908.177	8947.62
908.491	8954.85
908.804	8839.82
909.117	8788.98
909.43	8790.56
909.743	8664.46
910.056	8692.03
910.368	8718.7
910.681	8662.88
910.994	8663.78
911.307	8603.67
911.619	8558.48
911.932	8524.13
912.244	8444.81
912.557	8518.02
912.869	8392.38
913.181	8364.13
913.494	8275.77
913.806	8286.84
914.118	8278.48
914.43	8268.31
914.742	8212.5
915.054	8203.46
915.366	8146.28
915.678	8086.4
915.99	8059.05
916.302	8061.09
916.613	7990.35
916.925	8004.14
917.236	7979.51
917.548	7846.4
917.859	7902.45
918.171	7824.71
918.482	7796.91
918.794	7809.12
919.105	7713.53
919.416	7714.43
919.727	7686.41
920.038	7617.26
920.349	7584.49
920.66	7576.58
920.971	7616.81
921.282	7555.79
921.593	7562.57
921.903	7414.1
922.214	7390.6
922.525	7388.34
922.835	7386.3
923.146	7322.58
923.456	7355.12
923.767	7299.07
924.077	7206.42
924.387	7222.24
924.697	7149.7
925.008	7120.55
925.318	7119.64
925.628	7091.62
925.938	7091.4
926.248	7004.84
926.558	7004.39
926.867	6954.45
927.177	6946.09
927.487	6887.56
927.796	6805.75
928.106	6793.78
928.416	6799.88
928.725	6813.66
929.034	6770.27
929.344	6744.06
929.653	6734.57
929.962	6631.97
930.271	6675.36
930.581	6600.11
930.89	6563.5
931.199	6527.79
931.508	6510.85
931.817	6507.91
932.125	6491.64
932.434	6432.66
932.743	6447.12
933.051	6381.36
933.36	6371.41
933.669	6295.48
933.977	6337.52
934.286	6316.95
934.594	6251.19
934.902	6206.45
935.21	6219.1
935.519	6194.47
935.827	6174.81
936.135	6169.61
936.443	6062.72
936.751	6082.16
937.059	6081.7
937.367	6067.47
937.674	6007.36
937.982	5971.65
938.29	5996.51
938.597	5989.05
938.905	5855.27
939.213	5866.57
939.52	5812.11
939.827	5882.84
940.135	5780.47
940.442	5712.67
940.749	5800.13
941.056	5748.83
941.363	5719.68
941.67	5699.79
941.977	5648.95
942.284	5601.04
942.591	5629.74
942.898	5563.53
943.205	5587.93
943.511	5501.38
943.818	5545.9
944.125	5509.29
944.431	5443.3
944.738	5463.19
945.044	5420.93
945.35	5363.76
945.657	5356.53
945.963	5339.8
946.269	5374.15
946.575	5323.76
946.881	5267.49
947.187	5254.16
947.493	5223.87
947.799	5195.85
948.105	5204.67
948.41	5189.98
948.716	5136.64
949.022	5121.05
949.327	5143.88
949.633	5089.19
949.938	5071.56
950.244	5027.27
950.549	4986.59
950.854	4992.02
951.16	5023.43
951.465	4967.61
951.77	4949.3
952.075	4935.97
952.38	4885.35
952.685	4919.02
952.99	4841.51
953.294	4841.74
953.599	4808.07
953.904	4768.07
954.209	4747.05
954.513	4753.15
954.818	4714.28
955.122	4731.68
955.426	4659.82
955.731	4696.43
956.035	4597
956.339	4626.38
956.643	4590.44
956.948	4572.14
957.252	4559.48
957.556	4520.62
957.86	4541.63
958.163	4529.65
958.467	4462.99
958.771	4435.87
959.075	4403.1
959.378	4405.82
959.682	4445.59
959.985	4354.97
960.289	4345.48
960.592	4337.8
960.896	4334.18
961.199	4268.19
961.502	4313.62
961.805	4281.53
962.108	4254.18
962.411	4245.59
962.714	4231.36
963.017	4169.89
963.32	4200.85
963.623	4169.44
963.926	4150.91
964.228	4149.78
964.531	4102.77
964.833	4068.65
965.136	4081.08
965.438	4048.76
965.741	4046.96
966.043	4016.45
966.345	3997.47
966.648	3973.96
966.95	3966.28
967.252	3928.77
967.554	3969.67
967.856	3900.52
968.158	3864.59
968.46	3858.26
968.761	3854.87
969.063	3858.71
969.365	3853.51
969.666	3802.22
969.968	3796.11
970.269	3776.68
970.571	3773.52
970.872	3736.91
971.174	3710.92
971.475	3714.31
971.776	3723.35
972.077	3711.37
972.378	3681.32
972.679	3663.69
972.98	3649.9
973.281	3625.95
973.582	3590.02
973.883	3580.98
974.183	3622.33
974.484	3573.07
974.785	3514.09
975.085	3539.17
975.386	3562
975.686	3461.21
975.986	3446.97
976.287	3461.89
976.587	3399.52
976.887	3444.94
977.187	3450.14
977.487	3406.52
977.787	3360.19
978.087	3381.21
978.387	3342.34
978.687	3308.9
978.987	3319.74
979.286	3264.6
979.586	3313.87
979.885	3285.62
980.185	3270.48
980.484	3239.07
980.784	3185.96
981.083	3229.12
981.382	3207.2
981.682	3218.05
981.981	3185.74
982.28	3152.06
982.579	3178.73
982.878	3140.99
983.177	3119.75
983.475	3090.82
983.774	3102.35
984.073	3063.25
984.372	3056.47
984.67	3041.11
984.969	3045.4
985.267	3012.18
985.566	3008.34
985.864	2998.85
986.162	2993.42
986.461	2975.12
986.759	2952.75
987.057	2911.84
987.355	2907.32
987.653	2900.09
987.951	2864.84
988.249	2900.32
988.547	2838.4
988.844	2852.41
989.142	2856.93
989.44	2824.84
989.737	2807.89
990.035	2815.12
990.332	2791.17
990.63	2773.32
990.927	2780.1
991.224	2765.86
991.521	2783.03
991.819	2714.11
992.116	2685.41
992.413	2683.83
992.71	2692.64
993.006	2652.87
993.303	2647.67
993.6	2644.73
993.897	2637.28
994.193	2642.02
994.49	2590.72
994.787	2595.92
995.083	2562.47
995.379	2587.33
995.676	2594.79
995.972	2551.85
996.268	2521.35
996.565	2543.04
996.861	2522.7
997.157	2489.71
997.453	2510.05
997.749	2465.53
998.044	2442.7
998.34	2429.82
998.636	2423.5
998.932	2427.34
999.227	2392.54
999.523	2420.78
999.818	2381.46
1000.114	2392.31
1000.409	2348.24
1000.704	2323.39
1001	2355.02
1001.295	2289.49
1001.59	2324.52
1001.885	2308.47
1002.18	2255.14
1002.475	2286.78
1002.77	2240
1003.065	2225.76
1003.359	2242.94
1003.654	2210.62
1003.949	2196.16
1004.243	2201.35
1004.538	2212.43
1004.832	2168.36
1005.127	2193.9
1005.421	2118.42
1005.715	2141.24
1006.009	2127.01
1006.304	2095.14
1006.598	2067.57
1006.892	2066.67
1007.186	2056.27
1007.48	2068.93
1007.773	2052.88
1008.067	2021.47
1008.361	2033
1008.655	2014.47
1008.948	2006.56
1009.242	1995.71
1009.535	1994.13
1009.829	1966.56
1010.122	1946.67
1010.415	1959.55
1010.708	1937.63
1011.001	1913.23
1011.295	1906.22
1011.588	1926.11
1011.881	1872.1
1012.173	1874.36
1012.466	1887.46
1012.759	1862.83
1013.052	1823.74
1013.344	1835.71
1013.637	1820.12
1013.93	1777.64
1014.222	1812.66
1014.514	1801.14
1014.807	1788.71
1015.099	1744.19
1015.391	1745.55
1015.683	1742.61
1015.976	1754.59
1016.268	1749.84
1016.56	1734.93
1016.851	1693.35
1017.143	1680.46
1017.435	1694.48
1017.727	1665.55
1018.018	1680.69
1018.31	1650.63
1018.602	1625.55
1018.893	1624.19
1019.185	1626.45
1019.476	1600.92
1019.767	1599.34
1020.058	1575.83
1020.35	1584.65
1020.641	1545.78
1020.932	1529.96
1021.223	1554.14
1021.514	1546.91
1021.804	1530.86
1022.095	1479.34
1022.386	1502.84
1022.677	1503.52
1022.967	1469.4
1023.258	1477.76
1023.548	1476.85
1023.839	1468.27
1024.129	1465.1
1024.419	1423.97
1024.709	1423.3
1025	1420.81
1025.29	1424.65
1025.58	1402.28
1025.87	1389.17
1026.16	1372.68
1026.449	1388.04
1026.739	1354.6
1027.029	1342.17
1027.319	1359.79
1027.608	1340.81
1027.898	1335.84
1028.187	1308.95
1028.477	1301.94
1028.766	1308.27
1029.055	1301.04
1029.344	1304.88
1029.634	1279.8
1029.923	1277.31
1030.212	1264.88
1030.501	1219.01
1030.79	1241.61
1031.078	1227.37
1031.367	1245.22
1031.656	1202.06
1031.945	1202.51
1032.233	1192.79
1032.522	1194.15
1032.81	1192.57
1033.099	1160.03
1033.387	1202.06
1033.675	1147.37
1033.963	1153.7
1034.251	1158.44
1034.54	1137.88
1034.828	1106.47
1035.116	1122.74
1035.403	1115.73
1035.691	1110.76
1035.979	1105.11
1036.267	1103.98
1036.554	1053.36
1036.842	1055.17
1037.129	1070.76
1037.417	1059.46
1037.704	1086.13
1037.992	1049.29
1038.279	1038.67
1038.566	1035.51
1038.853	1035.51
1039.14	1035.51
