Data from White_reflection_standard_Reflection_00001.txt Node
Date: Mon Feb 06 14:42:23 GMT 2017
User: dcchb
Spectrometer: FLMS00149
Trigger mode: 0
Integration Time (sec): 2.000000E-2
Scans to average: 10
Electric dark correction enabled: true
Nonlinearity correction enabled: false
Boxcar width: 0
XAxis mode: Wavelengths
Number of Pixels in Spectrum: 2048
>>>>>Begin Spectral Data<<<<<
341.393	-82.92
341.776	-82.92
342.16	-82.92
342.543	-32.71
342.927	-2324.24
343.31	-197.79
343.693	93.26
344.077	160.95
344.46	-101.64
344.843	-406.79
345.226	1506.37
345.61	-85.25
345.993	103.04
346.376	-803.82
346.759	-67.06
347.142	67.46
347.525	98.28
347.908	402.55
348.291	219.82
348.674	51.04
349.057	-103.47
349.44	-63.58
349.823	-77.98
350.206	86.95
350.588	83.93
350.971	77.93
351.354	107.2
351.737	97.55
352.119	79.18
352.502	85.03
352.884	108.26
353.267	104.21
353.65	54.53
354.032	91.69
354.414	124.42
354.797	86.01
355.179	113.06
355.562	88.28
355.944	107.36
356.326	94.98
356.709	89.12
357.091	87.5
357.473	78.88
357.855	111.69
358.238	90.81
358.62	75.83
359.002	106.5
359.384	92.95
359.766	89.23
360.148	97.09
360.53	84.29
360.912	99.84
361.294	105.46
361.676	82.02
362.057	95.99
362.439	104.32
362.821	67.17
363.203	86.54
363.584	94.3
363.966	77.5
364.348	83.71
364.729	70.71
365.111	107.19
365.493	95.91
365.874	90.16
366.256	83.88
366.637	79.68
367.019	86.42
367.4	98.99
367.781	98.39
368.163	78.4
368.544	93.63
368.925	81.39
369.306	108.79
369.688	96.55
370.069	95.28
370.45	94.9
370.831	92.43
371.212	100.2
371.593	92.74
371.974	72.45
372.355	71.31
372.736	100.11
373.117	101.33
373.498	95.21
373.879	79.66
374.26	85.6
374.641	72.38
375.021	95.27
375.402	84.06
375.783	82.11
376.163	93.36
376.544	93.88
376.925	102.25
377.305	87.6
377.686	91.64
378.066	96.39
378.447	95.76
378.827	89.5
379.208	93.85
379.588	86.48
379.968	92.87
380.349	90.68
380.729	91.34
381.109	94.5
381.489	86.61
381.87	90.57
382.25	93.75
382.63	91.47
383.01	94.64
383.39	95.85
383.77	90.18
384.15	87.44
384.53	92.01
384.91	94.6
385.29	90.69
385.67	88.09
386.049	88.54
386.429	85.58
386.809	93.19
387.189	95.39
387.568	89.71
387.948	94.33
388.328	94.5
388.707	95.02
389.087	86.85
389.466	99.36
389.846	89.72
390.225	86.59
390.605	87.61
390.984	95.03
391.363	93.18
391.743	95.39
392.122	90.91
392.501	96.03
392.881	94.62
393.26	92.16
393.639	94.1
394.018	89.55
394.397	94.95
394.776	91.14
395.155	92.2
395.534	94.51
395.913	90.27
396.292	94.2
396.671	98.43
397.05	92.61
397.429	92.36
397.808	95.37
398.186	90.22
398.565	94.08
398.944	92.54
399.323	87.63
399.701	90.79
400.08	89.63
400.458	97.91
400.837	96.14
401.215	93.92
401.594	92.97
401.972	91.58
402.351	91.52
402.729	94.74
403.107	89.64
403.486	92.42
403.864	89.68
404.242	92.83
404.62	94.28
404.999	90.92
405.377	92.4
405.755	94.51
406.133	92.8
406.511	91.51
406.889	92.4
407.267	93.74
407.645	93.29
408.023	92.52
408.401	92.94
408.779	94.18
409.156	92.89
409.534	91.93
409.912	92.69
410.29	91.34
410.667	93.02
411.045	93.58
411.422	93.49
411.8	93.87
412.178	92.13
412.555	95.78
412.933	94.58
413.31	94.74
413.687	91.69
414.065	94.2
414.442	91.17
414.819	91.98
415.197	93.99
415.574	93.14
415.951	91.9
416.328	94
416.705	92.93
417.082	90.1
417.46	92.73
417.837	93.92
418.214	95.32
418.591	91.39
418.967	92.37
419.344	91.91
419.721	93.74
420.098	93.87
420.475	95.46
420.852	94.12
421.228	92.55
421.605	92.42
421.982	93.16
422.358	94.36
422.735	92.85
423.111	93.17
423.488	92.48
423.864	93.84
424.241	92.85
424.617	93.84
424.994	93.05
425.37	91.28
425.746	93.15
426.123	94.25
426.499	94.17
426.875	93.39
427.251	92.04
427.627	93.6
428.003	91.65
428.379	92.74
428.756	95.14
429.132	92.39
429.507	92.99
429.883	93.13
430.259	92.57
430.635	93.9
431.011	92.95
431.387	92.68
431.763	93.24
432.138	94.43
432.514	94.76
432.89	92.56
433.265	93.09
433.641	93.66
434.016	94.39
434.392	94.11
434.767	93.71
435.143	93.91
435.518	93.64
435.894	92.91
436.269	94.31
436.644	94.53
437.02	94.24
437.395	94.57
437.77	94.66
438.145	93.11
438.52	93.79
438.895	93.43
439.271	94.18
439.646	93.55
440.021	94.96
440.395	93.1
440.77	95.16
441.145	93.12
441.52	92.7
441.895	93.09
442.27	93.72
442.645	91.6
443.019	92.83
443.394	93.3
443.769	93.68
444.143	93.08
444.518	92.21
444.892	93.94
445.267	94.06
445.641	93.63
446.016	92.33
446.39	93.06
446.764	94.2
447.139	93.17
447.513	92.84
447.887	92.17
448.262	94.31
448.636	93.41
449.01	93.48
449.384	94.62
449.758	92.91
450.132	93.15
450.506	93.54
450.88	92.85
451.254	92.45
451.628	93.35
452.002	93.68
452.376	93.97
452.75	93.65
453.123	94.24
453.497	93.33
453.871	94.19
454.244	93.3
454.618	93.87
454.992	94.39
455.365	93.25
455.739	92.45
456.112	92.87
456.486	94.37
456.859	94.61
457.232	92.87
457.606	92.37
457.979	93.33
458.352	93.6
458.725	92.15
459.099	93.32
459.472	93.3
459.845	93.5
460.218	93.91
460.591	94.19
460.964	93.6
461.337	92.28
461.71	93.31
462.083	92.97
462.456	92.77
462.829	93.64
463.201	92.92
463.574	93.38
463.947	93.31
464.32	92.77
464.692	92.25
465.065	92.53
465.438	92.83
465.81	93.37
466.183	93.58
466.555	93.48
466.928	93.97
467.3	92.97
467.672	92.77
468.045	93.04
468.417	93.69
468.789	93.09
469.161	92.9
469.534	93.09
469.906	94.46
470.278	92.79
470.65	93.22
471.022	92.01
471.394	93.09
471.766	92.77
472.138	93.85
472.51	93.45
472.882	92.77
473.253	92.91
473.625	92.76
473.997	92.84
474.369	92.83
474.74	93.61
475.112	93.81
475.484	93.27
475.855	92.21
476.227	92.86
476.598	94.1
476.97	92.93
477.341	93.52
477.713	92.99
478.084	93.5
478.455	92.96
478.827	92.3
479.198	93.57
479.569	92.99
479.94	93.66
480.311	93.78
480.682	92.77
481.053	94.03
481.424	92.97
481.795	93.07
482.166	93.41
482.537	92.86
482.908	92.92
483.279	92.77
483.65	93.5
484.021	93.03
484.391	94.29
484.762	93.94
485.133	92.86
485.503	92.87
485.874	93.33
486.244	93.65
486.615	93.27
486.985	93.03
487.356	93.54
487.726	93.13
488.097	93.67
488.467	93.38
488.837	93.79
489.207	93.64
489.578	93.51
489.948	93.62
490.318	92.82
490.688	93.33
491.058	92.97
491.428	93.49
491.798	93.55
492.168	93.25
492.538	93.31
492.908	93.62
493.278	94.23
493.648	93.27
494.017	93.59
494.387	93.46
494.757	93.57
495.126	93.43
495.496	93.37
495.866	92.95
496.235	93.79
496.605	92.9
496.974	93.7
497.344	93.75
497.713	93.45
498.082	94.17
498.452	93.56
498.821	93.16
499.19	93.05
499.559	93.1
499.928	93.27
500.298	93.81
500.667	93.48
501.036	93.36
501.405	93.15
501.774	93.26
502.143	92.86
502.512	93.19
502.88	93.62
503.249	93.64
503.618	93.41
503.987	93.69
504.356	93.13
504.724	93.91
505.093	93.08
505.462	93.15
505.83	93.4
506.199	93.58
506.567	93.17
506.936	93.45
507.304	94.04
507.672	93.45
508.041	94.06
508.409	93.53
508.777	93.56
509.145	93.39
509.514	93.28
509.882	93.29
510.25	93.62
510.618	93.35
510.986	93.4
511.354	93.41
511.722	93.7
512.09	93.17
512.458	93.42
512.826	93.22
513.193	93.42
513.561	93.42
513.929	93.43
514.297	93.45
514.664	93.31
515.032	93.16
515.4	93.38
515.767	93.95
516.135	93.57
516.502	93.11
516.869	93.45
517.237	93.4
517.604	92.88
517.972	93.32
518.339	93.26
518.706	93.25
519.073	93.36
519.44	93.72
519.808	93.74
520.175	93.68
520.542	93.45
520.909	93.77
521.276	93.86
521.643	93.6
522.009	93.5
522.376	94
522.743	93.98
523.11	93.84
523.477	93.87
523.843	93.54
524.21	93.97
524.577	94
524.943	93.67
525.31	93.72
525.676	93.97
526.043	93.76
526.409	93.7
526.776	93.82
527.142	93.78
527.508	93.69
527.874	93.73
528.241	93.88
528.607	93.71
528.973	94.11
529.339	93.92
529.705	93.88
530.071	93.83
530.437	93.8
530.803	94
531.169	93.92
531.535	93.84
531.901	94.27
532.267	94.48
532.632	94.05
532.998	93.9
533.364	94.34
533.73	93.93
534.095	94.25
534.461	94.04
534.826	94.44
535.192	94
535.557	94.15
535.923	94.39
536.288	94.39
536.653	94.43
537.019	94.25
537.384	94.95
537.749	94.7
538.114	94.51
538.479	94.37
538.845	94.98
539.21	94.84
539.575	94.87
539.94	94.85
540.305	94.97
540.67	94.98
541.034	94.74
541.399	94.79
541.764	94.88
542.129	94.93
542.494	95.05
542.858	94.83
543.223	95
543.587	95.09
543.952	94.95
544.316	95.47
544.681	94.83
545.045	95.2
545.41	95.5
545.774	95.27
546.138	95.54
546.503	95.37
546.867	95.39
547.231	95.44
547.595	95.31
547.959	95.71
548.324	95.26
548.688	95.44
549.052	95.59
549.416	95.68
549.779	95.72
550.143	95.36
550.507	95.76
550.871	95.62
551.235	95.77
551.599	96.08
551.962	95.7
552.326	95.58
552.689	96.09
553.053	95.79
553.417	96.11
553.78	96.09
554.143	95.86
554.507	95.85
554.87	95.8
555.234	96.09
555.597	96.13
555.96	96.18
556.323	96.46
556.686	96.32
557.05	96.13
557.413	96.21
557.776	96.4
558.139	96.45
558.502	96.41
558.865	96.46
559.228	96.49
559.59	96.37
559.953	96.5
560.316	96.63
560.679	96.6
561.041	96.51
561.404	96.49
561.767	96.69
562.129	96.6
562.492	96.78
562.854	96.62
563.217	96.61
563.579	96.77
563.941	96.77
564.304	96.87
564.666	96.83
565.028	96.69
565.39	97
565.753	96.85
566.115	96.91
566.477	96.77
566.839	96.86
567.201	96.96
567.563	96.91
567.925	97.01
568.287	97.08
568.648	96.97
569.01	97.04
569.372	97.11
569.734	97.14
570.095	96.97
570.457	97.07
570.819	97.16
571.18	97.11
571.542	97.02
571.903	97.09
572.265	97.24
572.626	97.14
572.987	97.19
573.349	97.17
573.71	97.06
574.071	97.15
574.432	97
574.794	97.17
575.155	97.13
575.516	97.16
575.877	97.31
576.238	97.23
576.599	97.3
576.96	97.09
577.32	97.32
577.681	97.43
578.042	97.14
578.403	97.24
578.763	97.2
579.124	97.36
579.485	97.29
579.845	97.41
580.206	97.34
580.566	97.38
580.927	97.4
581.287	97.41
581.648	97.27
582.008	97.17
582.368	97.28
582.728	97.27
583.089	97.26
583.449	97.34
583.809	97.24
584.169	97.36
584.529	97.33
584.889	97.3
585.249	97.25
585.609	97.18
585.969	97.33
586.329	97.22
586.688	97.25
587.048	97.32
587.408	97.17
587.768	97.17
588.127	97.28
588.487	97.23
588.846	97.28
589.206	97.36
589.565	97.22
589.925	97.22
590.284	97.27
590.643	97.25
591.003	97.28
591.362	97.28
591.721	97.37
592.08	97.33
592.44	97.37
592.799	97.36
593.158	97.35
593.517	97.28
593.876	97.25
594.235	97.44
594.593	97.35
594.952	97.35
595.311	97.36
595.67	97.23
596.029	97.27
596.387	97.35
596.746	97.42
597.104	97.36
597.463	97.27
597.822	97.24
598.18	97.3
598.538	97.35
598.897	97.37
599.255	97.27
599.613	97.34
599.972	97.28
600.33	97.3
600.688	97.34
601.046	97.41
601.404	97.26
601.762	97.24
602.12	97.34
602.478	97.29
602.836	97.47
603.194	97.36
603.552	97.41
603.91	97.43
604.268	97.39
604.625	97.3
604.983	97.45
605.341	97.45
605.698	97.31
606.056	97.32
606.413	97.51
606.771	97.32
607.128	97.28
607.485	97.33
607.843	97.47
608.2	97.36
608.557	97.32
608.914	97.36
609.272	97.45
609.629	97.45
609.986	97.36
610.343	97.32
610.7	97.38
611.057	97.42
611.414	97.36
611.771	97.39
612.127	97.32
612.484	97.41
612.841	97.48
613.198	97.49
613.554	97.46
613.911	97.45
614.267	97.52
614.624	97.53
614.98	97.48
615.337	97.33
615.693	97.31
616.05	97.49
616.406	97.38
616.762	97.44
617.118	97.41
617.475	97.57
617.831	97.58
618.187	97.52
618.543	97.47
618.899	97.4
619.255	97.51
619.611	97.44
619.967	97.54
620.323	97.36
620.678	97.35
621.034	97.4
621.39	97.43
621.746	97.48
622.101	97.34
622.457	97.52
622.812	97.4
623.168	97.4
623.523	97.39
623.879	97.33
624.234	97.55
624.589	97.51
624.945	97.46
625.3	97.54
625.655	97.42
626.01	97.45
626.365	97.43
626.72	97.45
627.075	97.59
627.43	97.45
627.785	97.56
628.14	97.44
628.495	97.48
628.85	97.45
629.205	97.5
629.559	97.4
629.914	97.47
630.269	97.43
630.623	97.59
630.978	97.53
631.332	97.45
631.687	97.51
632.041	97.49
632.396	97.47
632.75	97.47
633.104	97.31
633.459	97.36
633.813	97.44
634.167	97.59
634.521	97.55
634.875	97.38
635.229	97.53
635.583	97.49
635.937	97.45
636.291	97.38
636.645	97.45
636.999	97.31
637.352	97.4
637.706	97.24
638.06	97.4
638.413	97.49
638.767	97.36
639.121	97.5
639.474	97.35
639.828	97.42
640.181	97.39
640.534	97.4
640.888	97.41
641.241	97.41
641.594	97.51
641.947	97.37
642.301	97.35
642.654	97.49
643.007	97.28
643.36	97.51
643.713	97.42
644.066	97.48
644.419	97.32
644.771	97.38
645.124	97.24
645.477	97.34
645.83	97.33
646.182	97.21
646.535	97.33
646.888	97.27
647.24	97.38
647.593	97.42
647.945	97.23
648.298	97.29
648.65	97.26
649.002	97.25
649.355	97.09
649.707	97.12
650.059	97.31
650.411	97.2
650.763	97.32
651.115	97.29
651.467	97.4
651.819	97.34
652.171	97.36
652.523	97.27
652.875	97.3
653.227	97.23
653.578	97.33
653.93	97.35
654.282	97.33
654.633	97.31
654.985	97.2
655.337	97.33
655.688	97.3
656.039	97.22
656.391	97.32
656.742	97.41
657.094	97.34
657.445	97.25
657.796	97.15
658.147	97.26
658.498	97.11
658.849	97.26
659.2	97.26
659.551	97.26
659.902	97.29
660.253	97.35
660.604	97.31
660.955	97.25
661.306	97.11
661.656	97.34
662.007	97.19
662.358	97.34
662.708	97.34
663.059	97.34
663.409	97.29
663.76	97.18
664.11	97.31
664.461	97.2
664.811	97.16
665.161	97.12
665.511	97.24
665.862	97.17
666.212	97.15
666.562	97.16
666.912	97.18
667.262	97.23
667.612	97.18
667.962	97.26
668.312	97.19
668.662	97.26
669.011	97.27
669.361	97.28
669.711	97.19
670.06	97.33
670.41	97.31
670.76	97.23
671.109	97.36
671.459	97.18
671.808	97.29
672.157	97.26
672.507	97.11
672.856	97.29
673.205	97.3
673.554	97.14
673.904	97.1
674.253	97.21
674.602	97.33
674.951	97.37
675.3	97.05
675.649	97.22
675.998	97.14
676.346	97.21
676.695	97.31
677.044	97.19
677.393	97.29
677.741	97.13
678.09	97.24
678.438	97.3
678.787	97.23
679.135	97.18
679.484	97.07
679.832	97.24
680.181	97.3
680.529	97.09
680.877	97.19
681.225	97.35
681.573	97.34
681.922	97.21
682.27	97.06
682.618	97.04
682.966	97.2
683.314	97.13
683.661	97.07
684.009	97.16
684.357	97.26
684.705	96.95
685.053	97.14
685.4	97.1
685.748	97.15
686.095	97.11
686.443	97.1
686.79	96.98
687.138	96.98
687.485	97.23
687.832	97.07
688.18	97.19
688.527	96.92
688.874	97.01
689.221	96.87
689.568	96.97
689.915	97.09
690.262	96.83
690.609	96.95
690.956	97.03
691.303	96.92
691.65	96.96
691.997	96.97
692.344	96.78
692.69	96.91
693.037	96.82
693.383	97.03
693.73	96.77
694.077	96.92
694.423	96.76
694.769	96.85
695.116	96.9
695.462	96.82
695.808	96.79
696.155	96.88
696.501	96.8
696.847	96.88
697.193	97.02
697.539	96.85
697.885	96.74
698.231	96.62
698.577	96.83
698.923	96.74
699.269	96.6
699.614	96.8
699.96	96.71
700.306	96.64
700.651	96.64
700.997	96.46
701.342	96.58
701.688	96.55
702.033	96.41
702.379	96.59
702.724	96.54
703.069	96.52
703.415	96.29
703.76	96.45
704.105	96.48
704.45	96.39
704.795	96.12
705.14	96.37
705.485	96.3
705.83	96.37
706.175	96.51
706.52	96.33
706.865	96.25
707.209	96.27
707.554	96.37
707.899	96.08
708.243	96.22
708.588	96.26
708.932	96.07
709.277	96.18
709.621	96.21
709.966	96.04
710.31	96.32
710.654	96.1
710.998	96.08
711.342	96.09
711.687	96
712.031	96.05
712.375	96.08
712.719	96.09
713.063	96.22
713.407	96.1
713.75	95.91
714.094	95.94
714.438	95.75
714.782	96.01
715.125	95.99
715.469	95.8
715.812	96.05
716.156	95.64
716.499	95.75
716.843	95.82
717.186	95.94
717.53	95.76
717.873	95.63
718.216	95.72
718.559	95.59
718.902	95.79
719.246	95.76
719.589	95.59
719.932	95.3
720.275	95.73
720.617	95.78
720.96	95.43
721.303	95.68
721.646	95.15
721.989	95.26
722.331	95.46
722.674	95.52
723.016	95.28
723.359	95.32
723.701	95.62
724.044	95.57
724.386	95.31
724.729	95.54
725.071	95.2
725.413	95.32
725.755	95.16
726.097	95.22
726.439	95.26
726.782	95.1
727.124	95.36
727.465	94.91
727.807	95.17
728.149	95.26
728.491	95.34
728.833	95.08
729.175	95.08
729.516	94.98
729.858	95.05
730.199	94.87
730.541	94.91
730.882	94.88
731.224	95.14
731.565	95.25
731.906	94.84
732.248	95.05
732.589	94.87
732.93	94.85
733.271	94.9
733.612	94.98
733.953	94.91
734.294	94.88
734.635	94.82
734.976	95.01
735.317	94.74
735.658	94.78
735.999	94.59
736.339	94.84
736.68	94.58
737.021	94.88
737.361	94.78
737.702	95.03
738.042	94.75
738.383	94.91
738.723	95.11
739.063	94.4
739.404	94.88
739.744	94.9
740.084	94.64
740.424	94.77
740.764	94.64
741.104	94.4
741.444	94.78
741.784	94.7
742.124	94.66
742.464	94.48
742.804	94.49
743.143	94.58
743.483	94.83
743.823	94.43
744.162	94.29
744.502	94.67
744.841	94.63
745.181	94.31
745.52	94.1
745.86	94.65
746.199	94.6
746.538	94.62
746.877	94.47
747.216	94.71
747.556	94.29
747.895	94.22
748.234	94.39
748.573	94.44
748.911	94.33
749.25	94.42
749.589	94.3
749.928	94.51
750.267	94.44
750.605	94.35
750.944	94.59
751.283	94.55
751.621	94.27
751.96	94.19
752.298	94.44
752.636	94.57
752.975	94.06
753.313	94.27
753.651	94.18
753.989	94.53
754.327	94.3
754.666	94.45
755.004	94.11
755.342	93.99
755.679	94.1
756.017	94.31
756.355	93.82
756.693	94.59
757.031	94.25
757.368	94.2
757.706	94.34
758.044	93.81
758.381	94.22
758.719	94.14
759.056	93.83
759.394	93.93
759.731	94.3
760.068	94.41
760.405	94.46
760.743	94.04
761.08	94.06
761.417	94.11
761.754	94.32
762.091	94.24
762.428	94.28
762.765	94.1
763.102	94.04
763.438	94.38
763.775	94.72
764.112	93.67
764.449	93.9
764.785	93.74
765.122	94.2
765.458	93.91
765.795	93.85
766.131	93.8
766.467	94.06
766.804	94.27
767.14	93.74
767.476	94.05
767.812	93.89
768.148	93.91
768.485	93.98
768.821	93.6
769.157	93.8
769.492	93.65
769.828	93.79
770.164	94.1
770.5	93.9
770.836	93.86
771.171	93.75
771.507	93.89
771.842	93.95
772.178	93.98
772.513	93.86
772.849	94
773.184	93.77
773.519	94.26
773.855	94.04
774.19	93.78
774.525	93.8
774.86	93.93
775.195	93.84
775.53	93.74
775.865	93.34
776.2	93.58
776.535	93.84
776.87	93.8
777.205	93.79
777.539	93.79
777.874	94.21
778.209	94.08
778.543	94.04
778.878	94.31
779.212	93.85
779.547	93.9
779.881	93.91
780.215	93.72
780.55	93.7
780.884	94.21
781.218	93.83
781.552	93.77
781.886	93.96
782.22	94.12
782.554	93.68
782.888	93.9
783.222	94.21
783.556	94.16
783.889	94.35
784.223	93.77
784.557	94.13
784.89	93.69
785.224	93.86
785.557	93.98
785.891	93.94
786.224	94.3
786.558	94.07
786.891	93.66
787.224	94.02
787.557	93.76
787.891	93.98
788.224	94.03
788.557	94.02
788.89	93.84
789.223	93.43
789.556	93.86
789.888	94.03
790.221	93.61
790.554	93.86
790.887	93.91
791.219	94.04
791.552	93.71
791.884	93.98
792.217	93.56
792.549	93.67
792.882	93.97
793.214	93.44
793.546	94.01
793.879	93.71
794.211	93.64
794.543	93.79
794.875	94.26
795.207	94.27
795.539	93.9
795.871	93.71
796.203	94.34
796.535	94.11
796.867	93.92
797.198	93.41
797.53	93.36
797.862	93.41
798.193	93.55
798.525	93.88
798.856	93.48
799.188	93.99
799.519	93.25
799.85	94.1
800.182	93.62
800.513	93.95
800.844	93.59
801.175	93.63
801.506	93.87
801.837	93.79
802.168	93.95
802.499	93.81
802.83	93.93
803.161	93.42
803.491	93.74
803.822	94.01
804.153	93.73
804.483	93.68
804.814	93.49
805.145	93.6
805.475	93.61
805.805	93.28
806.136	93.98
806.466	93.56
806.796	94.1
807.126	93.35
807.457	93.87
807.787	93.87
808.117	93.77
808.447	93.71
808.777	93.93
809.107	94.11
809.436	93.79
809.766	93.96
810.096	94.18
810.426	94.1
810.755	94.06
811.085	94.15
811.414	93.29
811.744	93.61
812.073	94.01
812.403	93.43
812.732	93.6
813.061	94.08
813.39	93.39
813.719	93.94
814.049	94.04
814.378	94.19
814.707	93.73
815.036	93.8
815.365	94.11
815.693	93.42
816.022	93.27
816.351	93.65
816.68	93.65
817.008	93.3
817.337	93.72
817.665	94.03
817.994	93.76
818.322	94.08
818.651	94.29
818.979	94.14
819.307	93.33
819.636	94.02
819.964	93.85
820.292	93.86
820.62	94.23
820.948	93.51
821.276	94
821.604	94.19
821.932	94.13
822.259	93.9
822.587	93.75
822.915	93.71
823.243	94.22
823.57	93.68
823.898	93.51
824.225	94.35
824.553	94.14
824.88	93.61
825.207	94.12
825.535	93.86
825.862	93.62
826.189	93.93
826.516	93.51
826.843	93.5
827.17	93.65
827.497	93.59
827.824	93.53
828.151	93.66
828.478	93.76
828.805	93.92
829.131	94.12
829.458	94.04
829.785	94.13
830.111	93.95
830.438	93.95
830.764	94.14
831.09	94
831.417	93.56
831.743	93.77
832.069	94.14
832.395	93.94
832.722	94.08
833.048	93.82
833.374	93.53
833.7	93.88
834.026	94.29
834.351	94.1
834.677	93.74
835.003	93.83
835.329	93.86
835.654	93.54
835.98	93.79
836.306	94.33
836.631	93.71
836.956	93.63
837.282	94.03
837.607	94.15
837.932	93.81
838.258	93.34
838.583	94.06
838.908	93.09
839.233	94.34
839.558	94.13
839.883	93.53
840.208	93.92
840.533	93.68
840.858	94.33
841.182	93.9
841.507	93.9
841.832	94.28
842.156	93.87
842.481	93.57
842.805	93.26
843.13	93.75
843.454	94.13
843.778	93.88
844.103	93.79
844.427	93.59
844.751	94.04
845.075	93.94
845.399	93.88
845.723	94.23
846.047	94.44
846.371	93.59
846.695	94.1
847.019	93.79
847.343	94
847.666	93.95
847.99	93.44
848.313	93.34
848.637	94.04
848.96	93.5
849.284	93.62
849.607	94.08
849.931	93.73
850.254	93.77
850.577	93.81
850.9	93.72
851.223	93.94
851.546	94.19
851.869	94.09
852.192	93.64
852.515	93.98
852.838	93.92
853.161	94.32
853.483	93.3
853.806	94.28
854.129	93.82
854.451	93.8
854.774	93.68
855.096	93.81
855.419	93.48
855.741	93.69
856.063	94.52
856.385	93.77
856.708	94.25
857.03	94.06
857.352	93.7
857.674	93.87
857.996	93.87
858.318	93.69
858.64	94.38
858.961	93.74
859.283	94.07
859.605	94.45
859.926	94.08
860.248	94.05
860.57	93.68
860.891	93.94
861.212	93.75
861.534	93.8
861.855	94.38
862.176	93.51
862.498	94.05
862.819	93.8
863.14	93.82
863.461	94.35
863.782	94
864.103	94.36
864.424	94.01
864.745	93.98
865.065	94.02
865.386	93.32
865.707	93.88
866.027	93.96
866.348	93.11
866.668	93.67
866.989	93.71
867.309	94.03
867.63	94.04
867.95	93.62
868.27	93.47
868.59	94.22
868.91	93.02
869.23	93.68
869.55	94.05
869.87	93.98
870.19	93.52
870.51	93.89
870.83	94.46
871.15	93.58
871.469	93.55
871.789	93.9
872.109	93.91
872.428	94.63
872.748	93.82
873.067	93.99
873.386	94.03
873.706	93.38
874.025	93.52
874.344	93.81
874.663	94.28
874.982	93.79
875.301	93.25
875.62	93.47
875.939	94.46
876.258	93.21
876.577	93.49
876.896	94.28
877.214	93.75
877.533	94.3
877.852	93.87
878.17	93.94
878.489	93.59
878.807	93.2
879.125	93.51
879.444	93.4
879.762	93.89
880.08	93.65
880.398	93.63
880.716	93.62
881.034	93.93
881.352	94.38
881.67	93.5
881.988	94.07
882.306	93.72
882.624	93.42
882.941	93.17
883.259	93.62
883.577	93.67
883.894	94.47
884.212	93.86
884.529	93.84
884.846	93.54
885.164	94.09
885.481	93.78
885.798	93.32
886.115	93.68
886.432	94.14
886.75	93.71
887.067	93.55
887.383	93.91
887.7	94.21
888.017	93.68
888.334	93.62
888.651	92.83
888.967	93.53
889.284	93.5
889.6	93.62
889.917	93.25
890.233	93.83
890.55	94.11
890.866	93.93
891.182	93.55
891.498	93.53
891.815	93.65
892.131	93.87
892.447	93.63
892.763	93.45
893.079	93.42
893.395	93.75
893.71	93.88
894.026	93.08
894.342	93.03
894.657	93.95
894.973	94.13
895.289	93.81
895.604	94.06
895.92	93.58
896.235	93.6
896.55	93.67
896.865	92.82
897.181	93.74
897.496	94.24
897.811	93.29
898.126	93.59
898.441	94.38
898.756	94.03
899.071	93.82
899.386	93.89
899.7	93.53
900.015	93.92
900.33	94.11
900.644	93.39
900.959	93.83
901.273	94.08
901.588	93.97
901.902	93.43
902.216	94.07
902.531	94.05
902.845	93.14
903.159	93.75
903.473	93.65
903.787	94.39
904.101	94.82
904.415	94.06
904.729	93.99
905.042	94.21
905.356	93.8
905.67	93.73
905.984	93.51
906.297	93.07
906.611	94.25
906.924	93.83
907.237	94.19
907.551	94.89
907.864	93.54
908.177	93.99
908.491	94.14
908.804	93.53
909.117	94
909.43	94.44
909.743	93.82
910.056	94.14
910.368	93.18
910.681	93.96
910.994	93.79
911.307	93.42
911.619	93.97
911.932	93.68
912.244	94.04
912.557	93.93
912.869	94.08
913.181	93.88
913.494	93.34
913.806	94.58
914.118	93.77
914.43	93.56
914.742	93.35
915.054	94.39
915.366	93.86
915.678	93.75
915.99	94.08
916.302	93.62
916.613	92.76
916.925	93.98
917.236	93.82
917.548	94.11
917.859	93.04
918.171	94.09
918.482	93.79
918.794	93.67
919.105	93.06
919.416	93.96
919.727	93.38
920.038	94.18
920.349	93.16
920.66	93.76
920.971	93.34
921.282	93.83
921.593	93.68
921.903	94.88
922.214	93.36
922.525	93.97
922.835	94
923.146	93.89
923.456	93.18
923.767	93.43
924.077	93.72
924.387	94.27
924.697	93.91
925.008	94.08
925.318	93.88
925.628	94.5
925.938	92.66
926.248	93.63
926.558	93.8
926.867	93.95
927.177	93.71
927.487	94.1
927.796	94.19
928.106	92.95
928.416	93.56
928.725	93.4
929.034	93.46
929.344	93.16
929.653	93.2
929.962	94.28
930.271	94.47
930.581	93.87
930.89	93.86
931.199	93.75
931.508	93.84
931.817	93.73
932.125	93.25
932.434	93.75
932.743	94.03
933.051	93.79
933.36	93
933.669	93.83
933.977	94.26
934.286	93.67
934.594	94.62
934.902	93.94
935.21	92.94
935.519	92.71
935.827	93.25
936.135	92.95
936.443	93.83
936.751	94.99
937.059	94.29
937.367	94.04
937.674	94.49
937.982	94.7
938.29	93.88
938.597	93.91
938.905	94.51
939.213	94.49
939.52	92.89
939.827	93.95
940.135	93.19
940.442	94.28
940.749	93.67
941.056	94.1
941.363	94.22
941.67	94.34
941.977	92.91
942.284	94.34
942.591	94.41
942.898	93.64
943.205	93.92
943.511	95.13
943.818	94.35
944.125	94.08
944.431	93.77
944.738	93.77
945.044	94.15
945.35	93.45
945.657	93.61
945.963	94.05
946.269	94.41
946.575	95.28
946.881	94.72
947.187	92.93
947.493	93.96
947.799	94.67
948.105	94.28
948.41	94.29
948.716	93.73
949.022	94.42
949.327	93.6
949.633	93.86
949.938	92.63
950.244	93.69
950.549	93.11
950.854	94.01
951.16	94.28
951.465	93.64
951.77	94.7
952.075	93.37
952.38	93.13
952.685	93.55
952.99	93.46
953.294	93.74
953.599	94.11
953.904	93.98
954.209	93.25
954.513	94.49
954.818	93.43
955.122	93.1
955.426	92.85
955.731	94.32
956.035	94.38
956.339	93.86
956.643	94.6
956.948	94.58
957.252	94.01
957.556	93.63
957.86	94.26
958.163	94.72
958.467	94.94
958.771	93.53
959.075	94.25
959.378	93.39
959.682	93.63
959.985	93.37
960.289	94.67
960.592	93.02
960.896	94.33
961.199	92.71
961.502	94.12
961.805	94.4
962.108	93.12
962.411	92.92
962.714	94
963.017	94.57
963.32	92.73
963.623	93.5
963.926	93.62
964.228	93.4
964.531	92.63
964.833	94.04
965.136	93.85
965.438	92.34
965.741	92.68
966.043	93.91
966.345	94.59
966.648	94.01
966.95	93.88
967.252	94.2
967.554	94.44
967.856	93.55
968.158	93.07
968.46	92.76
968.761	94.31
969.063	94.47
969.365	93.93
969.666	93.43
969.968	93.26
970.269	93.69
970.571	93.75
970.872	94.56
971.174	93.27
971.475	93.4
971.776	94.12
972.077	93.86
972.378	93.6
972.679	94.64
972.98	93.44
973.281	94.62
973.582	94.45
973.883	92.94
974.183	94.32
974.484	94.21
974.785	92.67
975.085	94.8
975.386	93.48
975.686	94.26
975.986	94.46
976.287	93.64
976.587	95.69
976.887	95.12
977.187	93.41
977.487	94.26
977.787	94.42
978.087	93.84
978.387	93.54
978.687	94.88
978.987	94.11
979.286	94.57
979.586	93.29
979.885	94.38
980.185	94.04
980.484	93.31
980.784	94.31
981.083	93.66
981.382	96.2
981.682	93.35
981.981	93.08
982.28	93.49
982.579	93.85
982.878	94.09
983.177	94.83
983.475	92.38
983.774	93.96
984.073	94.54
984.372	94.11
984.67	94.11
984.969	94.18
985.267	95.03
985.566	93.78
985.864	94.5
986.162	93.46
986.461	93.79
986.759	94.55
987.057	95.08
987.355	93.31
987.653	93.64
987.951	93.78
988.249	94.86
988.547	95.79
988.844	94
989.142	94.39
989.44	93.97
989.737	93.98
990.035	95.17
990.332	94.25
990.63	95.24
990.927	91.86
991.224	95.23
991.521	94.18
991.819	94.04
992.116	94.34
992.413	93.28
992.71	95.16
993.006	93.81
993.303	93.95
993.6	93.77
993.897	94.98
994.193	93.82
994.49	93.76
994.787	93.43
995.083	95.38
995.379	93.58
995.676	95.11
995.972	93.63
996.268	93.06
996.565	93.98
996.861	94.51
997.157	93.22
997.453	93.59
997.749	95.57
998.044	93.71
998.34	95.24
998.636	95.25
998.932	93.63
999.227	93.48
999.523	92.56
999.818	93.35
1000.114	92.29
1000.409	94.04
1000.704	93.95
1001	93.34
1001.295	94.86
1001.59	93.29
1001.885	93.98
1002.18	91.98
1002.475	93.73
1002.77	93.75
1003.065	93.36
1003.359	93.83
1003.654	94.29
1003.949	94.19
1004.243	95.03
1004.538	94.3
1004.832	93.63
1005.127	93.59
1005.421	93.63
1005.715	94.93
1006.009	93.9
1006.304	92.84
1006.598	94.22
1006.892	92.21
1007.186	93.72
1007.48	93.03
1007.773	92.18
1008.067	93.5
1008.361	94.61
1008.655	93.44
1008.948	92.87
1009.242	96.43
1009.535	92.28
1009.829	94.71
1010.122	94.03
1010.415	93.09
1010.708	94.32
1011.001	93.6
1011.295	91.99
1011.588	95.57
1011.881	94.86
1012.173	95.25
1012.466	94.48
1012.759	95.22
1013.052	92
1013.344	93.94
1013.637	95.05
1013.93	92.8
1014.222	94.18
1014.514	95
1014.807	95.15
1015.099	93.06
1015.391	92.46
1015.683	95.19
1015.976	92.03
1016.268	92.59
1016.56	94.21
1016.851	95.08
1017.143	93.06
1017.435	94.17
1017.727	94.1
1018.018	93.09
1018.31	92.22
1018.602	92.27
1018.893	92.6
1019.185	94.76
1019.476	94.38
1019.767	94.27
1020.058	92.38
1020.35	94.73
1020.641	93.31
1020.932	94.9
1021.223	94.19
1021.514	91.12
1021.804	92.72
1022.095	94.04
1022.386	93.75
1022.677	94.63
1022.967	94.37
1023.258	93.47
1023.548	93.44
1023.839	92.36
1024.129	95.78
1024.419	96.86
1024.709	92.65
1025	95.2
1025.29	91.08
1025.58	91.6
1025.87	91.49
1026.16	94.07
1026.449	95.33
1026.739	95.64
1027.029	95.41
1027.319	95.28
1027.608	93.42
1027.898	94.66
1028.187	93.12
1028.477	96.9
1028.766	94.85
1029.055	95.94
1029.344	96.06
1029.634	94.03
1029.923	94.8
1030.212	95.1
1030.501	94.67
1030.79	93.79
1031.078	91.86
1031.367	94.14
1031.656	94.94
1031.945	96.06
1032.233	91.25
1032.522	92.31
1032.81	95.26
1033.099	95.33
1033.387	90.69
1033.675	92.97
1033.963	94.07
1034.251	93.97
1034.54	93.07
1034.828	97.62
1035.116	92.97
1035.403	97.43
1035.691	92.73
1035.979	93.51
1036.267	91.66
1036.554	91.1
1036.842	92.6
1037.129	93.45
1037.417	91.29
1037.704	93.57
1037.992	90.8
1038.279	93.86
1038.566	91.5
1038.853	91.5
1039.14	91.5
