Data from White_reflection_standard_Reflection_00013.txt Node
Date: Mon Feb 06 14:43:19 GMT 2017
User: dcchb
Spectrometer: FLMS00149
Trigger mode: 0
Integration Time (sec): 2.000000E-2
Scans to average: 10
Electric dark correction enabled: true
Nonlinearity correction enabled: false
Boxcar width: 0
XAxis mode: Wavelengths
Number of Pixels in Spectrum: 2048
>>>>>Begin Spectral Data<<<<<
341.393	-27.06
341.776	-27.06
342.16	-27.06
342.543	-4.32
342.927	683.84
343.31	-738.49
343.693	11.2
344.077	242.86
344.46	73.15
344.843	359.73
345.226	312.74
345.61	-49.88
345.993	96.77
346.376	-1009.92
346.759	50.81
347.142	109.31
347.525	239.42
347.908	350.91
348.291	-68.28
348.674	70.05
349.057	357.8
349.44	137.59
349.823	71.75
350.206	47.85
350.588	94.47
350.971	90.98
351.354	84.19
351.737	96.68
352.119	83.89
352.502	92.54
352.884	103.15
353.267	92.81
353.65	86.1
354.032	106.36
354.414	122.92
354.797	89.21
355.179	89.58
355.562	67.37
355.944	101.93
356.326	79.44
356.709	89.14
357.091	99.5
357.473	105.3
357.855	102.53
358.238	77.29
358.62	88.31
359.002	111.49
359.384	80.32
359.766	106.3
360.148	86
360.53	85.37
360.912	101.9
361.294	101.14
361.676	96.9
362.057	90.84
362.439	78.29
362.821	80.34
363.203	87.93
363.584	87.85
363.966	87.25
364.348	85.16
364.729	80.14
365.111	94.44
365.493	92.23
365.874	107.15
366.256	94.08
366.637	82.45
367.019	88.6
367.4	86.9
367.781	89.71
368.163	93.11
368.544	100.41
368.925	82.08
369.306	94.03
369.688	85.4
370.069	92.44
370.45	86.7
370.831	98.73
371.212	92.26
371.593	99.73
371.974	89.37
372.355	89.68
372.736	95.48
373.117	90.31
373.498	96.07
373.879	92.75
374.26	89.82
374.641	85.33
375.021	99.62
375.402	80
375.783	97.82
376.163	99.55
376.544	97.81
376.925	99.4
377.305	87.02
377.686	77.92
378.066	96.48
378.447	93.83
378.827	81.34
379.208	99.29
379.588	84.59
379.968	96.76
380.349	85.59
380.729	93.46
381.109	93.77
381.489	86.74
381.87	91.08
382.25	97.11
382.63	95.87
383.01	99.02
383.39	91.04
383.77	92.22
384.15	83.18
384.53	87.91
384.91	93.6
385.29	97.58
385.67	90.71
386.049	89.22
386.429	84.79
386.809	90.96
387.189	93.49
387.568	97.29
387.948	92.94
388.328	97.53
388.707	97.02
389.087	91.48
389.466	95.47
389.846	86.27
390.225	91.67
390.605	93.69
390.984	92.07
391.363	96.4
391.743	93.51
392.122	96.32
392.501	90.39
392.881	88.26
393.26	90.71
393.639	93.21
394.018	91.23
394.397	95.29
394.776	93.62
395.155	91.8
395.534	94.79
395.913	89.97
396.292	89.78
396.671	95.33
397.05	90.7
397.429	92.92
397.808	94.38
398.186	91.64
398.565	91.97
398.944	92.88
399.323	92.37
399.701	91.39
400.08	93.5
400.458	92.84
400.837	94.32
401.215	96.28
401.594	93.06
401.972	92.96
402.351	89.46
402.729	91.04
403.107	89.37
403.486	93.85
403.864	93.96
404.242	95.4
404.62	94.53
404.999	92.65
405.377	91.62
405.755	97.28
406.133	93.28
406.511	94.7
406.889	95.77
407.267	94.49
407.645	93.97
408.023	90.83
408.401	92.61
408.779	93.67
409.156	90.2
409.534	93.51
409.912	91.9
410.29	92.1
410.667	94.29
411.045	91.89
411.422	92.4
411.8	93.33
412.178	95.5
412.555	94.06
412.933	93.57
413.31	94.54
413.687	93.44
414.065	96.26
414.442	93.6
414.819	91.78
415.197	94.96
415.574	94.45
415.951	93.03
416.328	92.9
416.705	92.83
417.082	91.57
417.46	93.47
417.837	95.23
418.214	94.73
418.591	93.87
418.967	91.16
419.344	91.51
419.721	93.51
420.098	93.19
420.475	96.53
420.852	93.06
421.228	92.1
421.605	91.7
421.982	94.02
422.358	93.86
422.735	95.15
423.111	95.48
423.488	92.69
423.864	94.83
424.241	91.11
424.617	94.01
424.994	92.5
425.37	91.9
425.746	93.32
426.123	94.89
426.499	93.62
426.875	95.22
427.251	91.67
427.627	94.51
428.003	93.47
428.379	94.85
428.756	94.17
429.132	92.71
429.507	93.17
429.883	93.76
430.259	92.35
430.635	93.06
431.011	92.81
431.387	92.56
431.763	92.99
432.138	93.45
432.514	94.85
432.89	91.98
433.265	93.02
433.641	92.09
434.016	93.2
434.392	93.11
434.767	93.41
435.143	93.7
435.518	93.65
435.894	92.47
436.269	93.27
436.644	94.56
437.02	92.92
437.395	93.88
437.77	93.61
438.145	93.26
438.52	92.86
438.895	92.54
439.271	93.98
439.646	93.48
440.021	93.73
440.395	94.34
440.77	95.02
441.145	93.57
441.52	93.07
441.895	93.8
442.27	93.29
442.645	93.06
443.019	93.08
443.394	93.11
443.769	92.72
444.143	93.32
444.518	91.64
444.892	94.04
445.267	91.93
445.641	93.44
446.016	93.85
446.39	93.64
446.764	94.61
447.139	93.59
447.513	92.12
447.887	92.61
448.262	95.01
448.636	93.69
449.01	93.1
449.384	94.18
449.758	92.73
450.132	93.26
450.506	93.73
450.88	93.66
451.254	93.98
451.628	91.51
452.002	93.62
452.376	93.17
452.75	94.34
453.123	93.69
453.497	94.67
453.871	94.08
454.244	93.84
454.618	94.46
454.992	93.02
455.365	93.38
455.739	92.72
456.112	93.43
456.486	93.62
456.859	94.46
457.232	93.03
457.606	93.77
457.979	93.08
458.352	93.05
458.725	92.81
459.099	94.29
459.472	93.36
459.845	93.71
460.218	93.01
460.591	94.4
460.964	93.61
461.337	91.97
461.71	92.67
462.083	93.18
462.456	93.41
462.829	93.83
463.201	93.41
463.574	93.14
463.947	93.54
464.32	93.01
464.692	92.84
465.065	93.57
465.438	93.32
465.81	92.69
466.183	93.88
466.555	93.37
466.928	92.74
467.3	93
467.672	93.04
468.045	93.31
468.417	93.85
468.789	93.17
469.161	93.12
469.534	92.82
469.906	94.43
470.278	93.23
470.65	93.24
471.022	92.06
471.394	92.91
471.766	92.73
472.138	93.77
472.51	92.55
472.882	94.01
473.253	93.74
473.625	93.1
473.997	93.07
474.369	92.92
474.74	94.3
475.112	93.58
475.484	93.36
475.855	92.51
476.227	92.42
476.598	94.33
476.97	92.75
477.341	93.14
477.713	92.82
478.084	92.75
478.455	93.4
478.827	92.67
479.198	92.67
479.569	93.62
479.94	93.28
480.311	93.83
480.682	92.7
481.053	93.14
481.424	92.63
481.795	92.75
482.166	93.45
482.537	92.55
482.908	93.46
483.279	92.92
483.65	93.52
484.021	93.28
484.391	93.25
484.762	94.05
485.133	93.22
485.503	93.47
485.874	92.81
486.244	93.42
486.615	92.97
486.985	93.57
487.356	93.28
487.726	93.55
488.097	93.43
488.467	93.51
488.837	93.64
489.207	94.08
489.578	92.97
489.948	93.7
490.318	92.92
490.688	93.23
491.058	92.85
491.428	93.55
491.798	93.37
492.168	93.25
492.538	93.13
492.908	94.03
493.278	94.04
493.648	93.22
494.017	93.44
494.387	93.36
494.757	93.97
495.126	93.13
495.496	93.58
495.866	93.42
496.235	93.51
496.605	93.21
496.974	93.49
497.344	93.54
497.713	93.39
498.082	93.97
498.452	93.44
498.821	93
499.19	93.78
499.559	93.09
499.928	93.18
500.298	93.49
500.667	93.71
501.036	93.56
501.405	93.43
501.774	93.45
502.143	93.13
502.512	93.29
502.88	93.51
503.249	93.46
503.618	93.69
503.987	93.51
504.356	93.12
504.724	93.36
505.093	93.14
505.462	93.26
505.83	93.51
506.199	93.47
506.567	93.26
506.936	93.86
507.304	93.7
507.672	93.61
508.041	93.32
508.409	93.3
508.777	93.74
509.145	93.55
509.514	93.31
509.882	93.19
510.25	93.6
510.618	93.34
510.986	93.48
511.354	93.5
511.722	93.65
512.09	93.39
512.458	93.59
512.826	93.44
513.193	93.46
513.561	93.53
513.929	93.06
514.297	93.4
514.664	93.26
515.032	93.4
515.4	93.42
515.767	93.58
516.135	93.85
516.502	93.2
516.869	93.05
517.237	93.34
517.604	93.25
517.972	93.38
518.339	93.28
518.706	93.43
519.073	93.55
519.44	93.79
519.808	93.7
520.175	93.39
520.542	93.97
520.909	93.45
521.276	93.73
521.643	93.54
522.009	93.38
522.376	93.54
522.743	93.52
523.11	93.77
523.477	93.64
523.843	93.69
524.21	93.59
524.577	93.8
524.943	93.81
525.31	93.89
525.676	93.58
526.043	93.77
526.409	93.96
526.776	93.75
527.142	93.77
527.508	93.57
527.874	93.77
528.241	93.92
528.607	93.96
528.973	93.63
529.339	93.78
529.705	93.83
530.071	93.84
530.437	94.09
530.803	94
531.169	93.72
531.535	94.04
531.901	94.37
532.267	94.19
532.632	93.81
532.998	94.09
533.364	94.31
533.73	94.3
534.095	94.38
534.461	93.99
534.826	94.27
535.192	94.24
535.557	94.19
535.923	94.28
536.288	94.17
536.653	94.62
537.019	94.22
537.384	94.96
537.749	94.84
538.114	94.52
538.479	94.13
538.845	94.8
539.21	94.69
539.575	94.6
539.94	94.65
540.305	94.61
540.67	94.77
541.034	94.91
541.399	94.79
541.764	94.88
542.129	95.11
542.494	95.32
542.858	94.88
543.223	94.86
543.587	95.12
543.952	94.97
544.316	95.23
544.681	94.95
545.045	95.06
545.41	95.41
545.774	95.36
546.138	95.13
546.503	95.2
546.867	95.36
547.231	95.14
547.595	95.28
547.959	95.57
548.324	95.45
548.688	95.57
549.052	95.59
549.416	95.65
549.779	95.76
550.143	95.56
550.507	95.87
550.871	95.59
551.235	95.6
551.599	95.85
551.962	95.71
552.326	95.86
552.689	96.16
553.053	95.59
553.417	95.87
553.78	96.02
554.143	95.75
554.507	96.17
554.87	96.06
555.234	95.95
555.597	96.03
555.96	96.14
556.323	96.33
556.686	96.22
557.05	96.15
557.413	96.19
557.776	96.31
558.139	96.37
558.502	96.25
558.865	96.32
559.228	96.25
559.59	96.54
559.953	96.46
560.316	96.52
560.679	96.52
561.041	96.53
561.404	96.49
561.767	96.71
562.129	96.57
562.492	96.8
562.854	96.61
563.217	96.72
563.579	96.79
563.941	96.74
564.304	96.58
564.666	96.84
565.028	96.73
565.39	96.81
565.753	96.88
566.115	96.82
566.477	96.78
566.839	96.87
567.201	96.99
567.563	96.86
567.925	97.03
568.287	96.88
568.648	97.04
569.01	96.99
569.372	97.12
569.734	97.02
570.095	96.98
570.457	97.01
570.819	97.11
571.18	96.95
571.542	97.02
571.903	97.06
572.265	97.17
572.626	97.19
572.987	97.24
573.349	96.93
573.71	97.23
574.071	97.22
574.432	97.01
574.794	97.18
575.155	97.13
575.516	97.05
575.877	97.24
576.238	97.21
576.599	97.23
576.96	97.01
577.32	97.2
577.681	97.26
578.042	97.14
578.403	97.24
578.763	97.2
579.124	97.4
579.485	97.22
579.845	97.31
580.206	97.39
580.566	97.3
580.927	97.31
581.287	97.22
581.648	97.26
582.008	97.16
582.368	97.15
582.728	97.37
583.089	97.37
583.449	97.41
583.809	97.17
584.169	97.36
584.529	97.23
584.889	97.26
585.249	97.32
585.609	97.29
585.969	97.3
586.329	97.29
586.688	97.23
587.048	97.34
587.408	97.2
587.768	97.17
588.127	97.23
588.487	97.22
588.846	97.26
589.206	97.33
589.565	97.25
589.925	97.18
590.284	97.26
590.643	97.29
591.003	97.19
591.362	97.24
591.721	97.37
592.08	97.28
592.44	97.36
592.799	97.25
593.158	97.27
593.517	97.35
593.876	97.22
594.235	97.37
594.593	97.29
594.952	97.29
595.311	97.28
595.67	97.21
596.029	97.36
596.387	97.3
596.746	97.44
597.104	97.32
597.463	97.43
597.822	97.27
598.18	97.34
598.538	97.29
598.897	97.36
599.255	97.19
599.613	97.2
599.972	97.3
600.33	97.34
600.688	97.39
601.046	97.45
601.404	97.33
601.762	97.36
602.12	97.44
602.478	97.29
602.836	97.55
603.194	97.38
603.552	97.38
603.91	97.5
604.268	97.32
604.625	97.32
604.983	97.5
605.341	97.48
605.698	97.36
606.056	97.41
606.413	97.35
606.771	97.38
607.128	97.28
607.485	97.28
607.843	97.37
608.2	97.32
608.557	97.43
608.914	97.38
609.272	97.45
609.629	97.48
609.986	97.34
610.343	97.26
610.7	97.48
611.057	97.42
611.414	97.35
611.771	97.24
612.127	97.29
612.484	97.38
612.841	97.29
613.198	97.45
613.554	97.42
613.911	97.46
614.267	97.5
614.624	97.45
614.98	97.5
615.337	97.38
615.693	97.44
616.05	97.42
616.406	97.48
616.762	97.53
617.118	97.44
617.475	97.5
617.831	97.5
618.187	97.54
618.543	97.44
618.899	97.39
619.255	97.48
619.611	97.51
619.967	97.48
620.323	97.49
620.678	97.5
621.034	97.4
621.39	97.4
621.746	97.45
622.101	97.29
622.457	97.41
622.812	97.45
623.168	97.41
623.523	97.53
623.879	97.39
624.234	97.46
624.589	97.46
624.945	97.51
625.3	97.48
625.655	97.53
626.01	97.38
626.365	97.51
626.72	97.5
627.075	97.48
627.43	97.49
627.785	97.4
628.14	97.61
628.495	97.46
628.85	97.53
629.205	97.47
629.559	97.39
629.914	97.54
630.269	97.45
630.623	97.49
630.978	97.52
631.332	97.35
631.687	97.38
632.041	97.51
632.396	97.55
632.75	97.47
633.104	97.29
633.459	97.38
633.813	97.46
634.167	97.44
634.521	97.39
634.875	97.4
635.229	97.47
635.583	97.33
635.937	97.49
636.291	97.31
636.645	97.44
636.999	97.4
637.352	97.36
637.706	97.21
638.06	97.36
638.413	97.39
638.767	97.31
639.121	97.42
639.474	97.4
639.828	97.35
640.181	97.43
640.534	97.33
640.888	97.37
641.241	97.42
641.594	97.4
641.947	97.41
642.301	97.35
642.654	97.35
643.007	97.31
643.36	97.38
643.713	97.36
644.066	97.32
644.419	97.16
644.771	97.28
645.124	97.3
645.477	97.34
645.83	97.24
646.182	97.29
646.535	97.24
646.888	97.24
647.24	97.34
647.593	97.33
647.945	97.26
648.298	97.14
648.65	97.16
649.002	97.21
649.355	97.14
649.707	97.23
650.059	97.21
650.411	97.14
650.763	97.3
651.115	97.22
651.467	97.17
651.819	97.27
652.171	97.26
652.523	97.29
652.875	97.21
653.227	97.3
653.578	97.32
653.93	97.3
654.282	97.25
654.633	97.31
654.985	97.21
655.337	97.31
655.688	97.34
656.039	97.27
656.391	97.35
656.742	97.44
657.094	97.5
657.445	97.31
657.796	97.22
658.147	97.25
658.498	97.19
658.849	97.25
659.2	97.3
659.551	97.18
659.902	97.13
660.253	97.13
660.604	97.3
660.955	97.18
661.306	97.19
661.656	97.34
662.007	97.15
662.358	97.29
662.708	97.25
663.059	97.31
663.409	97.16
663.76	97.27
664.11	97.19
664.461	97.18
664.811	97.23
665.161	97.11
665.511	97.21
665.862	97.24
666.212	97.17
666.562	97.15
666.912	97.31
667.262	97.21
667.612	97.08
667.962	97.12
668.312	97.27
668.662	97.17
669.011	97.27
669.361	97.36
669.711	97.21
670.06	97.16
670.41	97.31
670.76	97.19
671.109	97.14
671.459	97.16
671.808	97.24
672.157	97.21
672.507	97.03
672.856	97.23
673.205	97.11
673.554	97.27
673.904	97.1
674.253	97.22
674.602	97.3
674.951	97.2
675.3	96.99
675.649	97.2
675.998	97.16
676.346	97.23
676.695	97.25
677.044	97.17
677.393	97.19
677.741	97.11
678.09	97.23
678.438	97.2
678.787	97.33
679.135	97.26
679.484	97.16
679.832	97.19
680.181	97.24
680.529	97.11
680.877	97.19
681.225	97.33
681.573	97.29
681.922	97.05
682.27	97.05
682.618	97.04
682.966	97.08
683.314	97.14
683.661	97.18
684.009	97.23
684.357	97.16
684.705	97.16
685.053	97.09
685.4	97.16
685.748	97.1
686.095	96.99
686.443	97.15
686.79	97
687.138	97.13
687.485	97.12
687.832	97.04
688.18	97.09
688.527	97.05
688.874	97.01
689.221	96.88
689.568	96.97
689.915	96.88
690.262	96.94
690.609	97.11
690.956	96.75
691.303	96.78
691.65	96.82
691.997	96.91
692.344	96.83
692.69	96.76
693.037	96.91
693.383	96.89
693.73	96.8
694.077	96.87
694.423	96.77
694.769	96.78
695.116	96.93
695.462	96.66
695.808	96.83
696.155	96.76
696.501	96.77
696.847	96.82
697.193	96.61
697.539	96.84
697.885	96.71
698.231	96.54
698.577	96.74
698.923	96.69
699.269	96.53
699.614	96.6
699.96	96.72
700.306	96.45
700.651	96.55
700.997	96.35
701.342	96.4
701.688	96.51
702.033	96.49
702.379	96.51
702.724	96.32
703.069	96.51
703.415	96.34
703.76	96.37
704.105	96.33
704.45	96.26
704.795	96.2
705.14	96.39
705.485	96.3
705.83	96.27
706.175	96.44
706.52	96.44
706.865	96.29
707.209	96.39
707.554	96.23
707.899	96.24
708.243	96.17
708.588	96.17
708.932	96.29
709.277	96.03
709.621	96.05
709.966	95.95
710.31	96.35
710.654	96.08
710.998	96.13
711.342	96.19
711.687	95.91
712.031	96.03
712.375	96.15
712.719	96.09
713.063	96.09
713.407	95.95
713.75	95.84
714.094	95.93
714.438	95.71
714.782	95.93
715.125	95.59
715.469	95.9
715.812	95.82
716.156	95.57
716.499	96
716.843	95.81
717.186	95.95
717.53	95.59
717.873	95.58
718.216	95.8
718.559	95.7
718.902	95.44
719.246	95.59
719.589	95.38
719.932	95.47
720.275	95.61
720.617	95.48
720.96	95.35
721.303	95.56
721.646	95.24
721.989	95.22
722.331	95.46
722.674	95.43
723.016	95.49
723.359	95.29
723.701	95.28
724.044	95.34
724.386	95.34
724.729	95.25
725.071	95.36
725.413	95.4
725.755	95.45
726.097	95.29
726.439	95.15
726.782	95.19
727.124	95.44
727.465	95
727.807	94.84
728.149	95.31
728.491	95.33
728.833	95.22
729.175	95.14
729.516	95.11
729.858	95.11
730.199	95.29
730.541	94.93
730.882	94.96
731.224	94.93
731.565	94.88
731.906	94.78
732.248	95.05
732.589	94.78
732.93	94.88
733.271	94.72
733.612	94.69
733.953	94.8
734.294	94.81
734.635	94.66
734.976	95.02
735.317	94.64
735.658	94.7
735.999	94.63
736.339	94.84
736.68	94.62
737.021	94.83
737.361	94.74
737.702	94.65
738.042	94.77
738.383	94.76
738.723	94.77
739.063	94.5
739.404	94.49
739.744	94.84
740.084	94.73
740.424	94.88
740.764	94.68
741.104	94.37
741.444	94.62
741.784	94.65
742.124	94.83
742.464	94.43
742.804	94.28
743.143	94.79
743.483	94.79
743.823	94.43
744.162	94.42
744.502	94.48
744.841	94.33
745.181	94.21
745.52	94.28
745.86	94.5
746.199	94.45
746.538	94.2
746.877	94.37
747.216	94.65
747.556	94.31
747.895	94.34
748.234	94.27
748.573	94.19
748.911	94.39
749.25	94.4
749.589	94.5
749.928	94.3
750.267	94.44
750.605	94.13
750.944	94.43
751.283	94.47
751.621	94.23
751.96	93.71
752.298	94.58
752.636	94.37
752.975	93.91
753.313	94.11
753.651	94.13
753.989	94.65
754.327	94.06
754.666	94.39
755.004	94.42
755.342	94.3
755.679	94.16
756.017	94.59
756.355	93.9
756.693	94.28
757.031	94.21
757.368	94.26
757.706	93.97
758.044	94.01
758.381	94.21
758.719	94.23
759.056	94.08
759.394	94.2
759.731	93.95
760.068	94.24
760.405	94.32
760.743	94.2
761.08	93.94
761.417	94.18
761.754	94.17
762.091	93.88
762.428	94.21
762.765	93.97
763.102	94.11
763.438	94.2
763.775	94.44
764.112	93.96
764.449	93.83
764.785	94.01
765.122	93.76
765.458	94.05
765.795	94.11
766.131	94.2
766.467	93.78
766.804	94.58
767.14	93.55
767.476	94.03
767.812	93.82
768.148	94.09
768.485	93.78
768.821	93.57
769.157	93.59
769.492	93.67
769.828	93.74
770.164	93.92
770.5	93.82
770.836	93.99
771.171	93.93
771.507	94.24
771.842	94.07
772.178	94.07
772.513	93.86
772.849	93.92
773.184	93.8
773.519	93.97
773.855	94.13
774.19	94.15
774.525	93.77
774.86	93.86
775.195	93.68
775.53	93.91
775.865	93.62
776.2	93.99
776.535	93.98
776.87	94.01
777.205	93.83
777.539	93.71
777.874	93.81
778.209	94.17
778.543	93.27
778.878	93.83
779.212	93.84
779.547	94.32
779.881	93.81
780.215	94.08
780.55	93.68
780.884	93.83
781.218	93.65
781.552	93.79
781.886	93.93
782.22	94.09
782.554	93.55
782.888	94.01
783.222	93.9
783.556	94.05
783.889	94.4
784.223	93.7
784.557	93.83
784.89	93.93
785.224	93.9
785.557	93.78
785.891	93.85
786.224	93.88
786.558	93.95
786.891	94.2
787.224	94.1
787.557	94.09
787.891	94.1
788.224	94.16
788.557	93.79
788.89	93.57
789.223	93.67
789.556	93.53
789.888	93.63
790.221	93.68
790.554	93.78
790.887	93.92
791.219	93.91
791.552	93.8
791.884	93.76
792.217	93.6
792.549	93.12
792.882	93.93
793.214	93.5
793.546	93.71
793.879	93.77
794.211	93.1
794.543	93.93
794.875	93.75
795.207	93.85
795.539	93.82
795.871	94.15
796.203	93.96
796.535	94.11
796.867	94.27
797.198	93.5
797.53	93.59
797.862	93.52
798.193	93.67
798.525	94.03
798.856	93.68
799.188	93.59
799.519	93.76
799.85	94.08
800.182	93.63
800.513	93.92
800.844	93.69
801.175	93.97
801.506	93.68
801.837	93.97
802.168	93.67
802.499	93.97
802.83	94
803.161	93.84
803.491	94.01
803.822	93.68
804.153	93.41
804.483	93.3
804.814	94.15
805.145	93.55
805.475	93.66
805.805	93.7
806.136	94
806.466	93.66
806.796	93.72
807.126	93.54
807.457	94.01
807.787	93.8
808.117	93.74
808.447	93.33
808.777	93.22
809.107	93.74
809.436	93.46
809.766	93.29
810.096	94.32
810.426	93.57
810.755	93.96
811.085	94.34
811.414	93.68
811.744	93.82
812.073	93.91
812.403	93.68
812.732	93.63
813.061	93.34
813.39	93.63
813.719	93.31
814.049	93.5
814.378	94.13
814.707	93.76
815.036	93.31
815.365	93.91
815.693	93.36
816.022	93.32
816.351	93.68
816.68	93.99
817.008	92.77
817.337	93.55
817.665	93.98
817.994	93.32
818.322	93.97
818.651	93.65
818.979	94.01
819.307	93.4
819.636	93.47
819.964	93.65
820.292	93.39
820.62	94.2
820.948	93.54
821.276	93.52
821.604	93.91
821.932	93.66
822.259	93.73
822.587	93.78
822.915	93.75
823.243	93.85
823.57	93.48
823.898	93.85
824.225	94.04
824.553	93.98
824.88	94
825.207	94.02
825.535	94.19
825.862	93.89
826.189	93.92
826.516	93.79
826.843	93.84
827.17	93.98
827.497	93.62
827.824	93.19
828.151	93.68
828.478	93.94
828.805	93.55
829.131	94.46
829.458	93.77
829.785	93.73
830.111	94.03
830.438	93.78
830.764	94.14
831.09	94.38
831.417	94.09
831.743	93.56
832.069	94.23
832.395	94.29
832.722	94.3
833.048	94.3
833.374	93.7
833.7	93.64
834.026	93.82
834.351	93.97
834.677	93.93
835.003	93.87
835.329	93.87
835.654	93.66
835.98	93.86
836.306	94.07
836.631	93.54
836.956	93.64
837.282	93.81
837.607	93.36
837.932	93.8
838.258	93.88
838.583	93.83
838.908	93.13
839.233	93.66
839.558	93.83
839.883	93.74
840.208	94.31
840.533	93.58
840.858	93.98
841.182	93.29
841.507	93.35
841.832	94.19
842.156	93.73
842.481	94.46
842.805	93.43
843.13	93.66
843.454	94.08
843.778	93.95
844.103	94
844.427	93.3
844.751	93.67
845.075	93.82
845.399	93.6
845.723	93.97
846.047	94.16
846.371	94.21
846.695	94.04
847.019	94.06
847.343	93.8
847.666	93.61
847.99	93.53
848.313	93.75
848.637	93.63
848.96	93.29
849.284	94.5
849.607	93.67
849.931	93.95
850.254	93.25
850.577	93.72
850.9	93.78
851.223	94.14
851.546	93.7
851.869	94.25
852.192	93.73
852.515	94.14
852.838	94.31
853.161	93.58
853.483	94.33
853.806	93.96
854.129	93.54
854.451	93.57
854.774	93.59
855.096	93.77
855.419	93.52
855.741	93.99
856.063	93.79
856.385	94.24
856.708	94.23
857.03	94.16
857.352	94.09
857.674	94.01
857.996	94.1
858.318	93.98
858.64	94.12
858.961	94.37
859.283	94.03
859.605	94.16
859.926	94.14
860.248	93.86
860.57	94.29
860.891	93.49
861.212	93.72
861.534	93.47
861.855	94.02
862.176	93.08
862.498	93.9
862.819	93.79
863.14	94.17
863.461	94.53
863.782	93.14
864.103	94.52
864.424	94.14
864.745	94.13
865.065	93.61
865.386	93.31
865.707	93.87
866.027	93.76
866.348	93.71
866.668	93.35
866.989	93.76
867.309	94.33
867.63	94.26
867.95	93.59
868.27	93.06
868.59	94.35
868.91	93.61
869.23	93.23
869.55	94.21
869.87	93.91
870.19	93.52
870.51	94.16
870.83	93.91
871.15	94.03
871.469	93.54
871.789	94.25
872.109	94.54
872.428	94.82
872.748	93.95
873.067	93.94
873.386	93.86
873.706	93.8
874.025	93.68
874.344	93.9
874.663	94.16
874.982	93.59
875.301	93.55
875.62	93.57
875.939	93.95
876.258	93.16
876.577	93.33
876.896	93.66
877.214	93.54
877.533	94.38
877.852	93.65
878.17	93.79
878.489	94.06
878.807	93.42
879.125	93.61
879.444	93.46
879.762	93.47
880.08	93.86
880.398	93.67
880.716	93.59
881.034	93.26
881.352	94.23
881.67	93.23
881.988	93.67
882.306	93.76
882.624	93.21
882.941	93.03
883.259	93.99
883.577	93.28
883.894	93.45
884.212	93.82
884.529	93.08
884.846	93.21
885.164	94.46
885.481	94.43
885.798	93.56
886.115	93.99
886.432	94
886.75	93.41
887.067	94.16
887.383	93.52
887.7	93.75
888.017	93.42
888.334	93.03
888.651	92.95
888.967	93.7
889.284	94.09
889.6	93.93
889.917	93.43
890.233	94.27
890.55	93.87
890.866	94.04
891.182	93.31
891.498	94.31
891.815	93.93
892.131	94.19
892.447	93.52
892.763	93.25
893.079	93.87
893.395	93.42
893.71	94.12
894.026	94.27
894.342	93.28
894.657	93.8
894.973	94.06
895.289	93.86
895.604	93.07
895.92	93.67
896.235	93.47
896.55	93.43
896.865	93.5
897.181	93.74
897.496	93.96
897.811	93.52
898.126	93.84
898.441	94.17
898.756	93.6
899.071	93.35
899.386	93.49
899.7	93.58
900.015	93.87
900.33	93.92
900.644	93.53
900.959	93.82
901.273	93.84
901.588	95.19
901.902	93.69
902.216	93.41
902.531	93.7
902.845	93.42
903.159	93.13
903.473	94.17
903.787	93.76
904.101	94.27
904.415	94.45
904.729	94.13
905.042	94.02
905.356	94.06
905.67	93.64
905.984	94.32
906.297	93.73
906.611	93.98
906.924	93.98
907.237	93.73
907.551	94.58
907.864	94.5
908.177	94.28
908.491	94.11
908.804	93.81
909.117	94.53
909.43	93.84
909.743	93.55
910.056	94.04
910.368	93.84
910.681	94.03
910.994	93.51
911.307	93.84
911.619	93.81
911.932	93.66
912.244	94.1
912.557	93.35
912.869	94.16
913.181	94.14
913.494	94.35
913.806	94.1
914.118	94.26
914.43	93.64
914.742	94.37
915.054	94.02
915.366	93.28
915.678	94.68
915.99	94.37
916.302	93.51
916.613	93.95
916.925	93.78
917.236	93.88
917.548	94.19
917.859	93.09
918.171	93.98
918.482	94.32
918.794	93.94
919.105	93.65
919.416	93.54
919.727	93.65
920.038	94.01
920.349	93.37
920.66	93.59
920.971	93.17
921.282	94.17
921.593	93.61
921.903	94.19
922.214	92.98
922.525	94.19
922.835	93.84
923.146	93.93
923.456	93.16
923.767	93.73
924.077	92.9
924.387	93.46
924.697	94.2
925.008	93.99
925.318	93.59
925.628	94.93
925.938	93.25
926.248	93.33
926.558	94.01
926.867	93.84
927.177	93.03
927.487	93.81
927.796	93.79
928.106	93.82
928.416	93.92
928.725	93.62
929.034	93.66
929.344	93.38
929.653	94.13
929.962	93.71
930.271	93.86
930.581	93.81
930.89	94.06
931.199	93.42
931.508	93.55
931.817	93.52
932.125	93.89
932.434	94.2
932.743	93.52
933.051	93.81
933.36	93.5
933.669	93.63
933.977	94.02
934.286	93.5
934.594	94.32
934.902	93.1
935.21	93.75
935.519	93.15
935.827	93.78
936.135	94.5
936.443	93.82
936.751	94.18
937.059	93.62
937.367	94.05
937.674	94.54
937.982	94.68
938.29	94.59
938.597	93.95
938.905	95.01
939.213	93.84
939.52	93.52
939.827	93.98
940.135	93.5
940.442	93.16
940.749	93.17
941.056	94.47
941.363	94.14
941.67	94.56
941.977	93.77
942.284	94.2
942.591	94.44
942.898	94.19
943.205	93.05
943.511	94.4
943.818	94.34
944.125	93.36
944.431	93.63
944.738	93.38
945.044	93.8
945.35	93.41
945.657	94.01
945.963	94.16
946.269	93.69
946.575	93.99
946.881	93.44
947.187	93.54
947.493	93.22
947.799	94.52
948.105	95.41
948.41	94.42
948.716	92.93
949.022	94.19
949.327	95.27
949.633	94.41
949.938	93.34
950.244	93.94
950.549	93.29
950.854	94.28
951.16	94.01
951.465	93.13
951.77	93.87
952.075	93.05
952.38	93.42
952.685	94.36
952.99	94.02
953.294	95.32
953.599	94.37
953.904	94.1
954.209	93.47
954.513	93.49
954.818	93.56
955.122	93.58
955.426	92.93
955.731	94.13
956.035	94.11
956.339	94.15
956.643	93.77
956.948	94.76
957.252	93.23
957.556	93.2
957.86	95.43
958.163	94.12
958.467	94.85
958.771	93.91
959.075	93.89
959.378	93.7
959.682	94.41
959.985	93.6
960.289	94.79
960.592	94.25
960.896	93.72
961.199	93.73
961.502	94.84
961.805	94.31
962.108	94.48
962.411	94.01
962.714	94.13
963.017	94.45
963.32	93.73
963.623	93.66
963.926	93.5
964.228	93.58
964.531	92.49
964.833	93.72
965.136	94.66
965.438	93.26
965.741	93.99
966.043	93.63
966.345	94.33
966.648	93.49
966.95	94.47
967.252	94.7
967.554	94.7
967.856	93.36
968.158	93.89
968.46	93.48
968.761	94.94
969.063	93.49
969.365	94.11
969.666	94.9
969.968	93.59
970.269	93.55
970.571	93.3
970.872	93.73
971.174	94.3
971.475	94.98
971.776	94.54
972.077	93.61
972.378	94.35
972.679	93.95
972.98	94.26
973.281	95.73
973.582	94.11
973.883	92.75
974.183	94.32
974.484	93.2
974.785	92.69
975.085	93.96
975.386	94.19
975.686	94.61
975.986	94.58
976.287	95
976.587	94.33
976.887	93.98
977.187	93.55
977.487	93.59
977.787	94.37
978.087	94.95
978.387	93.48
978.687	95.45
978.987	95.38
979.286	94.59
979.586	93.37
979.885	95.03
980.185	93.97
980.484	92.67
980.784	94.01
981.083	94.16
981.382	94.91
981.682	92.41
981.981	93.35
982.28	93.63
982.579	93.54
982.878	94.11
983.177	93.81
983.475	93.6
983.774	93.63
984.073	94.72
984.372	94.45
984.67	94.69
984.969	93.13
985.267	94.44
985.566	93.59
985.864	94.63
986.162	94.63
986.461	94.88
986.759	93.74
987.057	95.19
987.355	93.52
987.653	94.01
987.951	94.73
988.249	92.56
988.547	95.6
988.844	95.01
989.142	93.71
989.44	93.34
989.737	94.88
990.035	92.6
990.332	94.76
990.63	92.97
990.927	92.88
991.224	95.18
991.521	94.44
991.819	95
992.116	93.12
992.413	93.21
992.71	95.38
993.006	93.44
993.303	94.74
993.6	94.14
993.897	94.23
994.193	94.24
994.49	94.08
994.787	93.25
995.083	94.23
995.379	93.19
995.676	94.2
995.972	93.67
996.268	94.3
996.565	92.55
996.861	94.28
997.157	92.79
997.453	93.16
997.749	95.15
998.044	94.8
998.34	96.7
998.636	94.89
998.932	94.02
999.227	94.64
999.523	94.15
999.818	94.68
1000.114	93.19
1000.409	95.4
1000.704	94.01
1001	93.15
1001.295	94.6
1001.59	93.76
1001.885	94.09
1002.18	92.71
1002.475	93.97
1002.77	94.69
1003.065	94.81
1003.359	93.07
1003.654	95
1003.949	95.39
1004.243	94.02
1004.538	93.89
1004.832	95.1
1005.127	93.18
1005.421	94.72
1005.715	94.69
1006.009	95.34
1006.304	94.46
1006.598	95.68
1006.892	92.08
1007.186	94.64
1007.48	95.17
1007.773	94.32
1008.067	95.29
1008.361	94.69
1008.655	95.07
1008.948	94.47
1009.242	95.42
1009.535	93.22
1009.829	94.5
1010.122	93.21
1010.415	93.81
1010.708	95.31
1011.001	95.81
1011.295	93.46
1011.588	93.94
1011.881	93.73
1012.173	94.48
1012.466	95.32
1012.759	96.52
1013.052	92.39
1013.344	93.57
1013.637	94.19
1013.93	91.44
1014.222	94.31
1014.514	94.39
1014.807	94.5
1015.099	94.69
1015.391	92.48
1015.683	94.71
1015.976	93.69
1016.268	92.96
1016.56	93.92
1016.851	93.5
1017.143	94.95
1017.435	94.23
1017.727	94.36
1018.018	93.59
1018.31	93.5
1018.602	94.06
1018.893	93.76
1019.185	95.33
1019.476	94.81
1019.767	93.06
1020.058	94.37
1020.35	96.29
1020.641	93.66
1020.932	96.67
1021.223	93.1
1021.514	94.96
1021.804	93.29
1022.095	94.89
1022.386	94.22
1022.677	94.07
1022.967	95.54
1023.258	94.84
1023.548	96.09
1023.839	92.51
1024.129	95.57
1024.419	97
1024.709	95.28
1025	95.16
1025.29	91.99
1025.58	92.12
1025.87	94.95
1026.16	92.45
1026.449	94.33
1026.739	96.43
1027.029	94.04
1027.319	95.55
1027.608	93.66
1027.898	95.3
1028.187	92.27
1028.477	94.56
1028.766	94.78
1029.055	95.94
1029.344	95.44
1029.634	94.45
1029.923	95.95
1030.212	96.2
1030.501	93.82
1030.79	93.83
1031.078	96.36
1031.367	96.17
1031.656	97.09
1031.945	95.57
1032.233	96.62
1032.522	92.78
1032.81	95.01
1033.099	96.23
1033.387	93.73
1033.675	98.1
1033.963	94.41
1034.251	93.95
1034.54	95.97
1034.828	94.4
1035.116	93.87
1035.403	98.93
1035.691	94.68
1035.979	93.06
1036.267	93.65
1036.554	93.18
1036.842	97.12
1037.129	93.92
1037.417	93.67
1037.704	92.44
1037.992	93.92
1038.279	93.49
1038.566	95.26
1038.853	95.26
1039.14	95.26
