Data from White_reflection_standard_Reflection_00004.txt Node
Date: Mon Feb 06 14:42:24 GMT 2017
User: dcchb
Spectrometer: FLMS00149
Trigger mode: 0
Integration Time (sec): 2.000000E-2
Scans to average: 10
Electric dark correction enabled: true
Nonlinearity correction enabled: false
Boxcar width: 0
XAxis mode: Wavelengths
Number of Pixels in Spectrum: 2048
>>>>>Begin Spectral Data<<<<<
341.393	-111.58
341.776	-111.58
342.16	-111.58
342.543	-5.06
342.927	578.79
343.31	-296.85
343.693	37.49
344.077	-8.57
344.46	-104.38
344.843	913.57
345.226	328.03
345.61	0.24
345.993	-30.1
346.376	132.06
346.759	53.61
347.142	76.46
347.525	154.35
347.908	545.82
348.291	-847.14
348.674	49.49
349.057	464.16
349.44	149.27
349.823	-39.49
350.206	68
350.588	103.3
350.971	100.58
351.354	84.91
351.737	86.98
352.119	118.64
352.502	109.43
352.884	94.34
353.267	118.15
353.65	77.19
354.032	90.62
354.414	116.44
354.797	84.68
355.179	113.92
355.562	88.05
355.944	77.12
356.326	94.59
356.709	94.93
357.091	114.51
357.473	86.28
357.855	105.56
358.238	88.57
358.62	78.93
359.002	85.4
359.384	98.26
359.766	86.65
360.148	86.82
360.53	75.48
360.912	96.33
361.294	98.98
361.676	95.98
362.057	91.43
362.439	90.92
362.821	68.1
363.203	98.03
363.584	97.29
363.966	85.16
364.348	91.48
364.729	84.55
365.111	101.85
365.493	79.51
365.874	93.24
366.256	71.23
366.637	82.85
367.019	91.78
367.4	88.35
367.781	91.38
368.163	77.49
368.544	94.24
368.925	88.27
369.306	104.28
369.688	87.27
370.069	96.78
370.45	88.45
370.831	101.82
371.212	95.88
371.593	81.8
371.974	99.44
372.355	83.83
372.736	96.5
373.117	83.93
373.498	86.22
373.879	83.99
374.26	94.39
374.641	84.59
375.021	85.67
375.402	81.43
375.783	90.09
376.163	105.14
376.544	91.81
376.925	96.15
377.305	77.93
377.686	91.61
378.066	87.07
378.447	88.28
378.827	88.01
379.208	94.22
379.588	90.46
379.968	94.32
380.349	86.59
380.729	98.42
381.109	89.79
381.489	87.2
381.87	84.7
382.25	103.71
382.63	89.96
383.01	89.57
383.39	88.57
383.77	98.47
384.15	85.31
384.53	89.31
384.91	95.92
385.29	92.87
385.67	89.98
386.049	93.41
386.429	82.68
386.809	88.75
387.189	92.41
387.568	100.82
387.948	97.99
388.328	93.39
388.707	99.53
389.087	91.94
389.466	94.48
389.846	91.76
390.225	89.83
390.605	88
390.984	92.3
391.363	94.31
391.743	93.17
392.122	91.98
392.501	92.28
392.881	89.79
393.26	87.08
393.639	89.91
394.018	94.56
394.397	96.18
394.776	100.35
395.155	90.7
395.534	95.75
395.913	89.79
396.292	93.5
396.671	94.81
397.05	96.03
397.429	93.84
397.808	93.96
398.186	89.66
398.565	89.87
398.944	95.74
399.323	91.3
399.701	89.86
400.08	93.7
400.458	92.56
400.837	95.81
401.215	92.03
401.594	91.08
401.972	91.22
402.351	90.25
402.729	92.16
403.107	92.73
403.486	91.32
403.864	90.04
404.242	95.23
404.62	94.25
404.999	90.01
405.377	92.02
405.755	95.98
406.133	95.38
406.511	92.24
406.889	95.53
407.267	92.32
407.645	94.09
408.023	93.84
408.401	92.06
408.779	97.07
409.156	93.79
409.534	94.92
409.912	92.57
410.29	92.79
410.667	95.33
411.045	95.18
411.422	95.17
411.8	94.91
412.178	95.58
412.555	92.24
412.933	95.27
413.31	94.93
413.687	91.13
414.065	95.91
414.442	92.35
414.819	93.83
415.197	94.64
415.574	93.23
415.951	94.08
416.328	95.03
416.705	90.78
417.082	92.61
417.46	92.1
417.837	94.86
418.214	93.47
418.591	92.14
418.967	90.51
419.344	90.16
419.721	93.55
420.098	94.87
420.475	95.08
420.852	92.77
421.228	91.78
421.605	94.43
421.982	93.43
422.358	93.77
422.735	93.53
423.111	93.66
423.488	94.07
423.864	92.23
424.241	91.99
424.617	95.36
424.994	92.6
425.37	91.7
425.746	91.83
426.123	94.16
426.499	92.08
426.875	94.61
427.251	93.87
427.627	94.61
428.003	91.81
428.379	93.81
428.756	92.87
429.132	90.98
429.507	93.4
429.883	92.36
430.259	93.67
430.635	94.05
431.011	93.82
431.387	93.78
431.763	92.82
432.138	93.78
432.514	94.75
432.89	93.1
433.265	93.96
433.641	92.98
434.016	94.24
434.392	91.87
434.767	94.39
435.143	95.42
435.518	93.58
435.894	91.7
436.269	93.5
436.644	94.74
437.02	93.18
437.395	95.09
437.77	92.85
438.145	93.47
438.52	94.1
438.895	93.3
439.271	94.08
439.646	93.58
440.021	94.86
440.395	93.18
440.77	92.77
441.145	93.55
441.52	91.75
441.895	94.5
442.27	93.33
442.645	92.59
443.019	93.41
443.394	94.8
443.769	94.01
444.143	92.66
444.518	93.02
444.892	93.41
445.267	92.97
445.641	92.9
446.016	92.07
446.39	93.18
446.764	93.26
447.139	93.55
447.513	92.13
447.887	92.47
448.262	94.55
448.636	92.78
449.01	95.08
449.384	93.72
449.758	92.19
450.132	93.72
450.506	92.36
450.88	92.81
451.254	93.76
451.628	93.18
452.002	93.81
452.376	93.43
452.75	93.74
453.123	94.11
453.497	93.32
453.871	94.78
454.244	93
454.618	93.38
454.992	93.67
455.365	93.37
455.739	93.95
456.112	93.47
456.486	93.11
456.859	93.81
457.232	93.18
457.606	91.65
457.979	93.63
458.352	93.95
458.725	92.2
459.099	94.05
459.472	93.23
459.845	94.1
460.218	93.4
460.591	93.25
460.964	93.24
461.337	92.62
461.71	93.21
462.083	93.81
462.456	92.56
462.829	92.96
463.201	93.82
463.574	93.64
463.947	93.22
464.32	93.69
464.692	92.62
465.065	93.33
465.438	93.1
465.81	93.42
466.183	93.74
466.555	93.33
466.928	92.99
467.3	94.24
467.672	93.32
468.045	93.23
468.417	94.59
468.789	93.48
469.161	92.23
469.534	93.09
469.906	93.37
470.278	92.9
470.65	92.74
471.022	93.47
471.394	93.43
471.766	92.96
472.138	93.5
472.51	93.51
472.882	93.08
473.253	93.53
473.625	92.82
473.997	92.99
474.369	92.81
474.74	93.65
475.112	94.1
475.484	93.6
475.855	92.18
476.227	93
476.598	93.71
476.97	92.5
477.341	93.3
477.713	93.14
478.084	93.4
478.455	92.95
478.827	93.21
479.198	93.43
479.569	93.47
479.94	93.25
480.311	93.41
480.682	93.04
481.053	93.41
481.424	92.83
481.795	93.49
482.166	93.9
482.537	92.38
482.908	93.01
483.279	93.37
483.65	93.48
484.021	94.09
484.391	93.6
484.762	94.1
485.133	92.95
485.503	93.06
485.874	93.4
486.244	93.18
486.615	93.38
486.985	93.33
487.356	93.27
487.726	93.04
488.097	93.38
488.467	93.38
488.837	93.49
489.207	93.67
489.578	93.51
489.948	93.44
490.318	92.9
490.688	93.3
491.058	93.41
491.428	94.13
491.798	93.73
492.168	93.17
492.538	93.28
492.908	93.62
493.278	93.54
493.648	93.29
494.017	93.61
494.387	93.07
494.757	93.62
495.126	93.26
495.496	93.55
495.866	93.41
496.235	93.79
496.605	93.63
496.974	93.65
497.344	94.04
497.713	93.28
498.082	94.01
498.452	93.14
498.821	93.31
499.19	93.66
499.559	93.21
499.928	93.34
500.298	93.33
500.667	93.92
501.036	93.83
501.405	93.26
501.774	93.66
502.143	93.42
502.512	93.46
502.88	93.39
503.249	93.43
503.618	93.52
503.987	93.63
504.356	93.55
504.724	93.39
505.093	93.26
505.462	93.45
505.83	93.52
506.199	93.08
506.567	93.22
506.936	93.7
507.304	93.55
507.672	93.71
508.041	93.39
508.409	93.64
508.777	93.49
509.145	93.42
509.514	93.29
509.882	93.21
510.25	93.67
510.618	93.5
510.986	93.73
511.354	93.18
511.722	93.7
512.09	93.29
512.458	93.61
512.826	93.11
513.193	93.09
513.561	93.45
513.929	93.34
514.297	93.69
514.664	93.3
515.032	93.51
515.4	93.5
515.767	93.96
516.135	93.81
516.502	93.33
516.869	93.41
517.237	93.33
517.604	93.55
517.972	93.54
518.339	93.49
518.706	93.27
519.073	93.63
519.44	93.78
519.808	93.62
520.175	94.01
520.542	93.42
520.909	93.45
521.276	93.56
521.643	93.41
522.009	93.69
522.376	93.8
522.743	93.64
523.11	93.96
523.477	93.87
523.843	93.76
524.21	93.84
524.577	93.81
524.943	93.98
525.31	94.19
525.676	93.63
526.043	93.63
526.409	93.8
526.776	94.22
527.142	93.86
527.508	93.68
527.874	93.91
528.241	93.79
528.607	93.64
528.973	94.25
529.339	93.96
529.705	93.71
530.071	93.91
530.437	94.09
530.803	93.86
531.169	93.9
531.535	94.04
531.901	94.27
532.267	94.01
532.632	93.87
532.998	94.14
533.364	94.41
533.73	94.3
534.095	94.34
534.461	93.9
534.826	94.33
535.192	94.36
535.557	94.38
535.923	94.21
536.288	94.63
536.653	94.35
537.019	94.47
537.384	95.04
537.749	94.55
538.114	94.6
538.479	94.44
538.845	94.6
539.21	94.75
539.575	94.79
539.94	94.85
540.305	94.88
540.67	94.86
541.034	94.64
541.399	94.61
541.764	95.11
542.129	95
542.494	95.23
542.858	94.94
543.223	94.94
543.587	95.28
543.952	95
544.316	95.36
544.681	94.87
545.045	95.07
545.41	95.42
545.774	95.26
546.138	95.34
546.503	95.44
546.867	95.4
547.231	95.25
547.595	95.26
547.959	95.59
548.324	95.52
548.688	95.39
549.052	95.55
549.416	95.62
549.779	95.63
550.143	95.52
550.507	95.86
550.871	95.67
551.235	95.81
551.599	95.99
551.962	95.81
552.326	95.68
552.689	96.04
553.053	95.72
553.417	96.04
553.78	95.97
554.143	95.86
554.507	95.83
554.87	96.04
555.234	96.02
555.597	96.02
555.96	96.19
556.323	96.19
556.686	96.2
557.05	96.16
557.413	96.26
557.776	96.45
558.139	96.41
558.502	96.39
558.865	96.4
559.228	96.47
559.59	96.36
559.953	96.56
560.316	96.63
560.679	96.33
561.041	96.55
561.404	96.53
561.767	96.66
562.129	96.67
562.492	96.71
562.854	96.71
563.217	96.78
563.579	96.78
563.941	96.76
564.304	96.76
564.666	96.8
565.028	96.64
565.39	96.92
565.753	97.03
566.115	96.79
566.477	96.81
566.839	96.9
567.201	97.11
567.563	96.78
567.925	96.96
568.287	97.12
568.648	97.03
569.01	97.1
569.372	97.06
569.734	97.02
570.095	96.95
570.457	97.09
570.819	97.1
571.18	97.05
571.542	97.13
571.903	97.22
572.265	97.12
572.626	97.1
572.987	97.12
573.349	97.09
573.71	97.26
574.071	97.1
574.432	97.06
574.794	97.22
575.155	97.26
575.516	97.11
575.877	97.19
576.238	97.27
576.599	97.29
576.96	97.13
577.32	97.3
577.681	97.39
578.042	97.12
578.403	97.25
578.763	97.24
579.124	97.37
579.485	97.25
579.845	97.4
580.206	97.39
580.566	97.28
580.927	97.39
581.287	97.21
581.648	97.23
582.008	97.14
582.368	97.27
582.728	97.43
583.089	97.35
583.449	97.24
583.809	97.3
584.169	97.31
584.529	97.28
584.889	97.32
585.249	97.34
585.609	97.22
585.969	97.29
586.329	97.21
586.688	97.33
587.048	97.36
587.408	97.2
587.768	97.21
588.127	97.31
588.487	97.24
588.846	97.23
589.206	97.37
589.565	97.2
589.925	97.22
590.284	97.19
590.643	97.36
591.003	97.15
591.362	97.24
591.721	97.42
592.08	97.26
592.44	97.36
592.799	97.24
593.158	97.28
593.517	97.42
593.876	97.25
594.235	97.35
594.593	97.32
594.952	97.35
595.311	97.29
595.67	97.23
596.029	97.24
596.387	97.32
596.746	97.44
597.104	97.23
597.463	97.33
597.822	97.31
598.18	97.35
598.538	97.29
598.897	97.37
599.255	97.32
599.613	97.35
599.972	97.28
600.33	97.3
600.688	97.38
601.046	97.26
601.404	97.33
601.762	97.23
602.12	97.36
602.478	97.31
602.836	97.58
603.194	97.37
603.552	97.29
603.91	97.43
604.268	97.34
604.625	97.39
604.983	97.36
605.341	97.38
605.698	97.25
606.056	97.42
606.413	97.47
606.771	97.42
607.128	97.32
607.485	97.41
607.843	97.48
608.2	97.24
608.557	97.4
608.914	97.44
609.272	97.4
609.629	97.37
609.986	97.36
610.343	97.31
610.7	97.41
611.057	97.49
611.414	97.35
611.771	97.37
612.127	97.39
612.484	97.36
612.841	97.35
613.198	97.39
613.554	97.51
613.911	97.43
614.267	97.42
614.624	97.44
614.98	97.48
615.337	97.5
615.693	97.41
616.05	97.53
616.406	97.42
616.762	97.57
617.118	97.48
617.475	97.54
617.831	97.58
618.187	97.54
618.543	97.51
618.899	97.38
619.255	97.39
619.611	97.49
619.967	97.62
620.323	97.36
620.678	97.39
621.034	97.48
621.39	97.47
621.746	97.54
622.101	97.41
622.457	97.55
622.812	97.51
623.168	97.45
623.523	97.4
623.879	97.38
624.234	97.55
624.589	97.51
624.945	97.56
625.3	97.55
625.655	97.44
626.01	97.36
626.365	97.48
626.72	97.52
627.075	97.64
627.43	97.47
627.785	97.6
628.14	97.59
628.495	97.51
628.85	97.46
629.205	97.42
629.559	97.54
629.914	97.41
630.269	97.45
630.623	97.59
630.978	97.53
631.332	97.42
631.687	97.48
632.041	97.45
632.396	97.5
632.75	97.5
633.104	97.37
633.459	97.41
633.813	97.48
634.167	97.51
634.521	97.46
634.875	97.44
635.229	97.46
635.583	97.4
635.937	97.46
636.291	97.37
636.645	97.38
636.999	97.47
637.352	97.4
637.706	97.37
638.06	97.34
638.413	97.45
638.767	97.39
639.121	97.41
639.474	97.36
639.828	97.42
640.181	97.41
640.534	97.4
640.888	97.37
641.241	97.4
641.594	97.43
641.947	97.39
642.301	97.34
642.654	97.43
643.007	97.38
643.36	97.44
643.713	97.46
644.066	97.45
644.419	97.27
644.771	97.23
645.124	97.33
645.477	97.31
645.83	97.33
646.182	97.28
646.535	97.17
646.888	97.23
647.24	97.35
647.593	97.41
647.945	97.26
648.298	97.26
648.65	97.27
649.002	97.19
649.355	97.24
649.707	97.35
650.059	97.22
650.411	97.29
650.763	97.32
651.115	97.32
651.467	97.32
651.819	97.33
652.171	97.35
652.523	97.25
652.875	97.3
653.227	97.35
653.578	97.34
653.93	97.36
654.282	97.34
654.633	97.36
654.985	97.24
655.337	97.5
655.688	97.5
656.039	97.24
656.391	97.34
656.742	97.43
657.094	97.35
657.445	97.28
657.796	97.19
658.147	97.28
658.498	97.16
658.849	97.26
659.2	97.24
659.551	97.15
659.902	97.26
660.253	97.25
660.604	97.24
660.955	97.2
661.306	97.25
661.656	97.36
662.007	97.2
662.358	97.27
662.708	97.27
663.059	97.37
663.409	97.26
663.76	97.25
664.11	97.24
664.461	97.27
664.811	97.25
665.161	97.19
665.511	97.3
665.862	97.29
666.212	97.22
666.562	97.24
666.912	97.29
667.262	97.33
667.612	97.13
667.962	97.2
668.312	97.23
668.662	97.38
669.011	97.31
669.361	97.35
669.711	97.14
670.06	97.26
670.41	97.23
670.76	97.25
671.109	97.26
671.459	97.15
671.808	97.17
672.157	97.31
672.507	97.11
672.856	97.24
673.205	97.2
673.554	97.46
673.904	97.26
674.253	97.23
674.602	97.27
674.951	97.3
675.3	97.09
675.649	97.3
675.998	97.25
676.346	97.14
676.695	97.25
677.044	97.25
677.393	97.3
677.741	97.28
678.09	97.26
678.438	97.38
678.787	97.23
679.135	97.3
679.484	97.18
679.832	97.22
680.181	97.19
680.529	97.1
680.877	97.14
681.225	97.38
681.573	97.15
681.922	97.1
682.27	97.15
682.618	96.95
682.966	97.14
683.314	97.11
683.661	97.36
684.009	97.13
684.357	97.12
684.705	97.07
685.053	97.18
685.4	97.13
685.748	97.2
686.095	97.05
686.443	97.11
686.79	96.93
687.138	97.06
687.485	97.33
687.832	96.97
688.18	97
688.527	96.97
688.874	96.96
689.221	96.88
689.568	96.98
689.915	96.96
690.262	96.88
690.609	96.94
690.956	96.93
691.303	96.77
691.65	96.98
691.997	96.94
692.344	96.89
692.69	96.79
693.037	96.83
693.383	96.98
693.73	96.84
694.077	96.78
694.423	96.8
694.769	96.83
695.116	96.9
695.462	96.8
695.808	96.84
696.155	96.87
696.501	96.72
696.847	96.82
697.193	96.72
697.539	96.89
697.885	96.72
698.231	96.58
698.577	96.79
698.923	96.69
699.269	96.49
699.614	96.7
699.96	96.74
700.306	96.65
700.651	96.67
700.997	96.33
701.342	96.66
701.688	96.62
702.033	96.48
702.379	96.74
702.724	96.49
703.069	96.4
703.415	96.39
703.76	96.41
704.105	96.42
704.45	96.2
704.795	96.32
705.14	96.33
705.485	96.3
705.83	96.36
706.175	96.44
706.52	96.45
706.865	96.27
707.209	96.3
707.554	96.47
707.899	96.09
708.243	96.26
708.588	96.25
708.932	96.16
709.277	96.18
709.621	96.12
709.966	96.1
710.31	96.36
710.654	96.12
710.998	96.02
711.342	95.9
711.687	95.9
712.031	96.21
712.375	96.01
712.719	95.96
713.063	96.17
713.407	95.94
713.75	96.09
714.094	95.87
714.438	95.74
714.782	95.95
715.125	95.86
715.469	95.89
715.812	95.85
716.156	95.46
716.499	96.01
716.843	96.08
717.186	95.86
717.53	95.7
717.873	95.55
718.216	95.66
718.559	95.57
718.902	95.65
719.246	95.77
719.589	95.46
719.932	95.57
720.275	95.45
720.617	95.52
720.96	95.42
721.303	95.62
721.646	95.25
721.989	95.37
722.331	95.59
722.674	95.45
723.016	95.43
723.359	95.36
723.701	95.5
724.044	95.47
724.386	95.19
724.729	95.2
725.071	95.29
725.413	95.15
725.755	95.07
726.097	95.19
726.439	95.2
726.782	94.92
727.124	95.44
727.465	95.03
727.807	95.08
728.149	95.27
728.491	95.06
728.833	95.3
729.175	95.02
729.516	95.1
729.858	95.07
730.199	95.08
730.541	94.84
730.882	95.24
731.224	95.12
731.565	95.09
731.906	95.04
732.248	94.84
732.589	94.95
732.93	94.93
733.271	94.82
733.612	94.93
733.953	94.7
734.294	94.75
734.635	94.8
734.976	94.78
735.317	94.89
735.658	94.77
735.999	94.5
736.339	94.85
736.68	94.7
737.021	94.53
737.361	94.79
737.702	94.75
738.042	95.08
738.383	94.87
738.723	95.05
739.063	94.53
739.404	94.34
739.744	95.24
740.084	94.66
740.424	94.75
740.764	94.78
741.104	94.51
741.444	94.55
741.784	94.78
742.124	94.8
742.464	94.42
742.804	94.46
743.143	95.25
743.483	94.76
743.823	94.53
744.162	94.16
744.502	94.64
744.841	94.49
745.181	94.64
745.52	94.33
745.86	94.68
746.199	94.75
746.538	94.35
746.877	94.23
747.216	94.34
747.556	94.29
747.895	94.6
748.234	94.42
748.573	94.6
748.911	94.51
749.25	94.23
749.589	94.66
749.928	94.29
750.267	94.75
750.605	94.53
750.944	94.5
751.283	94.97
751.621	94.38
751.96	94.08
752.298	94.33
752.636	93.98
752.975	94.28
753.313	94.21
753.651	94.37
753.989	94.14
754.327	94.22
754.666	94.61
755.004	94.4
755.342	94.19
755.679	94.21
756.017	94.41
756.355	93.77
756.693	94.24
757.031	94.27
757.368	94.49
757.706	94.02
758.044	94.08
758.381	94.28
758.719	94.16
759.056	93.98
759.394	94.01
759.731	94.06
760.068	94.29
760.405	93.92
760.743	94.04
761.08	94.08
761.417	94.15
761.754	93.99
762.091	94.03
762.428	94.09
762.765	93.7
763.102	93.85
763.438	94.42
763.775	94.25
764.112	93.97
764.449	93.91
764.785	93.96
765.122	94.05
765.458	94.03
765.795	93.75
766.131	94.12
766.467	93.72
766.804	94.08
767.14	93.76
767.476	93.72
767.812	93.84
768.148	94.18
768.485	93.94
768.821	93.79
769.157	93.41
769.492	93.82
769.828	93.85
770.164	94.02
770.5	93.8
770.836	94.23
771.171	93.82
771.507	93.82
771.842	94.15
772.178	94.51
772.513	93.74
772.849	93.77
773.184	93.75
773.519	94.19
773.855	94.41
774.19	94.03
774.525	93.63
774.86	93.73
775.195	93.8
775.53	93.92
775.865	93.89
776.2	93.84
776.535	93.98
776.87	93.98
777.205	93.9
777.539	94.05
777.874	93.72
778.209	94.01
778.543	93.72
778.878	93.86
779.212	94.03
779.547	94.04
779.881	94.06
780.215	93.78
780.55	93.66
780.884	93.94
781.218	93.68
781.552	94
781.886	94
782.22	93.98
782.554	93.41
782.888	94.11
783.222	94.04
783.556	93.85
783.889	94.21
784.223	94.03
784.557	93.53
784.89	93.98
785.224	94.07
785.557	93.8
785.891	94.04
786.224	94.22
786.558	94.07
786.891	93.67
787.224	94.14
787.557	93.81
787.891	94.36
788.224	94.3
788.557	93.57
788.89	93.54
789.223	94
789.556	93.72
789.888	93.8
790.221	93.6
790.554	93.62
790.887	94.23
791.219	93.59
791.552	93.5
791.884	93.79
792.217	93.65
792.549	93.97
792.882	93.79
793.214	93.41
793.546	93.42
793.879	93.83
794.211	93.32
794.543	94.4
794.875	93.88
795.207	93.62
795.539	93.58
795.871	93.69
796.203	94.23
796.535	94.13
796.867	93.55
797.198	93.62
797.53	93.63
797.862	93.14
798.193	93.04
798.525	94.06
798.856	93.98
799.188	93.56
799.519	93.35
799.85	94.45
800.182	93.68
800.513	93.55
800.844	94.16
801.175	93.96
801.506	93.65
801.837	93.84
802.168	94.23
802.499	94.12
802.83	93.98
803.161	94.02
803.491	93.83
803.822	93.93
804.153	93.45
804.483	93.59
804.814	93.6
805.145	93.83
805.475	93.5
805.805	93.25
806.136	93.98
806.466	94.07
806.796	93.86
807.126	93.58
807.457	93.36
807.787	94.09
808.117	94.23
808.447	93.49
808.777	93.56
809.107	93.66
809.436	93.78
809.766	93.51
810.096	94.16
810.426	93.73
810.755	94.21
811.085	93.8
811.414	93.47
811.744	93.62
812.073	93.87
812.403	93.74
812.732	93.35
813.061	93.68
813.39	93.2
813.719	93.38
814.049	93.98
814.378	93.98
814.707	93.55
815.036	94.17
815.365	93.5
815.693	93.64
816.022	93.32
816.351	93.95
816.68	93.92
817.008	93.46
817.337	93.31
817.665	93.9
817.994	93.87
818.322	93.58
818.651	94.21
818.979	93.71
819.307	93.83
819.636	93.34
819.964	93.38
820.292	93.87
820.62	93.92
820.948	93.13
821.276	93.82
821.604	93.9
821.932	94.23
822.259	93.39
822.587	93.92
822.915	93.77
823.243	93.51
823.57	93.61
823.898	93.76
824.225	94.21
824.553	94.14
824.88	93.45
825.207	94.03
825.535	94.19
825.862	93.61
826.189	93.7
826.516	93.27
826.843	93.91
827.17	93.93
827.497	93.74
827.824	93.47
828.151	93.94
828.478	93.79
828.805	94.29
829.131	93.75
829.458	93.44
829.785	93.94
830.111	94.2
830.438	93.61
830.764	93.87
831.09	93.56
831.417	93.7
831.743	93.53
832.069	94.09
832.395	93.59
832.722	94.49
833.048	94.1
833.374	94.08
833.7	93.89
834.026	93.75
834.351	94.19
834.677	94.28
835.003	93.89
835.329	93.4
835.654	93.26
835.98	93.77
836.306	94.4
836.631	93.58
836.956	93.71
837.282	93.7
837.607	93.52
837.932	93.77
838.258	93.38
838.583	93.93
838.908	93.39
839.233	93.92
839.558	94.03
839.883	93.66
840.208	94.03
840.533	93.73
840.858	94.16
841.182	93.85
841.507	93.91
841.832	94.14
842.156	93.97
842.481	94.15
842.805	93.06
843.13	93.35
843.454	93.83
843.778	93.27
844.103	94.09
844.427	93.52
844.751	94.02
845.075	93.88
845.399	93.97
845.723	94.35
846.047	94.16
846.371	93.51
846.695	93.99
847.019	94.06
847.343	93.52
847.666	93.76
847.99	93.56
848.313	94.01
848.637	93.94
848.96	93.89
849.284	94.01
849.607	93.8
849.931	93.58
850.254	93.34
850.577	94.18
850.9	93.63
851.223	94.14
851.546	93.92
851.869	94.6
852.192	93.91
852.515	94.32
852.838	94.24
853.161	93.83
853.483	93.88
853.806	94.37
854.129	93.87
854.451	93.61
854.774	93.67
855.096	93.93
855.419	93.49
855.741	94.21
856.063	94.09
856.385	93.61
856.708	94.47
857.03	94.17
857.352	94.14
857.674	94.19
857.996	94.24
858.318	93.56
858.64	94.14
858.961	93.91
859.283	94.31
859.605	93.85
859.926	94.13
860.248	93.99
860.57	93.82
860.891	93.77
861.212	93.64
861.534	93.31
861.855	94.08
862.176	94.08
862.498	93.61
862.819	94.28
863.14	94.23
863.461	94.26
863.782	93.75
864.103	94.22
864.424	93.87
864.745	93.74
865.065	94.23
865.386	93.41
865.707	94.18
866.027	93.8
866.348	93.44
866.668	93.4
866.989	93.58
867.309	93.78
867.63	94.09
867.95	93.78
868.27	93.85
868.59	94.18
868.91	93.42
869.23	93.11
869.55	93.87
869.87	93.87
870.19	93.36
870.51	93.96
870.83	93.68
871.15	93.8
871.469	93.5
871.789	93.89
872.109	94.26
872.428	94.68
872.748	94.3
873.067	93.76
873.386	93.67
873.706	93.4
874.025	93.41
874.344	93.65
874.663	93.95
874.982	93.72
875.301	92.93
875.62	93.28
875.939	94.13
876.258	93.72
876.577	92.84
876.896	93.82
877.214	94.05
877.533	93.98
877.852	93.61
878.17	94.06
878.489	94.08
878.807	93.57
879.125	93.35
879.444	93.65
879.762	94.13
880.08	93.53
880.398	93.86
880.716	93.82
881.034	93.99
881.352	93.98
881.67	93.56
881.988	93.82
882.306	93.86
882.624	93.09
882.941	93.33
883.259	93.91
883.577	93.94
883.894	93.74
884.212	93.68
884.529	93.61
884.846	93.09
885.164	94.64
885.481	94.11
885.798	93.47
886.115	93.53
886.432	93.68
886.75	93.84
887.067	93.63
887.383	93.31
887.7	93.52
888.017	93.56
888.334	93.06
888.651	92.89
888.967	94.06
889.284	93.69
889.6	93.71
889.917	93.36
890.233	94.34
890.55	93.7
890.866	93.67
891.182	93.86
891.498	94.06
891.815	93.74
892.131	94.18
892.447	93
892.763	93.76
893.079	93.57
893.395	93.33
893.71	93.6
894.026	93.16
894.342	92.92
894.657	94.04
894.973	93.64
895.289	93.89
895.604	93.52
895.92	93.71
896.235	93.74
896.55	93.41
896.865	93.53
897.181	93.64
897.496	93.99
897.811	93.61
898.126	93.25
898.441	94.13
898.756	94.1
899.071	93.88
899.386	93.66
899.7	93.47
900.015	93.77
900.33	93.69
900.644	93.05
900.959	93.84
901.273	93.59
901.588	94.11
901.902	93.72
902.216	93.46
902.531	94.54
902.845	93.27
903.159	93.8
903.473	93.31
903.787	94.44
904.101	94.47
904.415	94.27
904.729	93.58
905.042	94.05
905.356	94
905.67	94.07
905.984	94.58
906.297	93.41
906.611	94.24
906.924	93.96
907.237	94.21
907.551	94.22
907.864	94.6
908.177	94.56
908.491	94.42
908.804	94
909.117	93.42
909.43	94.23
909.743	93.6
910.056	94.23
910.368	93.06
910.681	94.01
910.994	93.56
911.307	93.82
911.619	93.62
911.932	93.98
912.244	93.79
912.557	93.5
912.869	93.72
913.181	94.19
913.494	93.73
913.806	94.08
914.118	93.96
914.43	93.92
914.742	93.62
915.054	94.25
915.366	94.06
915.678	94.45
915.99	94.14
916.302	93.32
916.613	93.57
916.925	93.81
917.236	93.3
917.548	94.74
917.859	93.42
918.171	94.95
918.482	93.47
918.794	93.14
919.105	94.03
919.416	93.69
919.727	93.56
920.038	93.96
920.349	93.49
920.66	93.68
920.971	93.32
921.282	94.01
921.593	93.53
921.903	94.62
922.214	93.5
922.525	94.39
922.835	93.69
923.146	93.29
923.456	93.47
923.767	93.51
924.077	93.66
924.387	94.52
924.697	94.22
925.008	94.46
925.318	94.33
925.628	94.5
925.938	93.46
926.248	93.61
926.558	93.38
926.867	93.65
927.177	93.95
927.487	94.1
927.796	93.94
928.106	93.02
928.416	93.91
928.725	94.31
929.034	93.39
929.344	93.53
929.653	93.99
929.962	93.39
930.271	94.76
930.581	94
930.89	94.55
931.199	93.99
931.508	93.07
931.817	93.95
932.125	94.02
932.434	93.91
932.743	93.49
933.051	93.36
933.36	93.02
933.669	93.33
933.977	93.9
934.286	94.43
934.594	94.27
934.902	93.12
935.21	92.81
935.519	93.52
935.827	93.41
936.135	93.19
936.443	93.89
936.751	93.56
937.059	93.68
937.367	93.58
937.674	94.59
937.982	95.23
938.29	94.28
938.597	93.91
938.905	94.94
939.213	94.11
939.52	92.84
939.827	94.12
940.135	92.97
940.442	94.27
940.749	93.6
941.056	94.09
941.363	94.11
941.67	94.33
941.977	94.14
942.284	94.51
942.591	94.52
942.898	93.78
943.205	93.89
943.511	94.2
943.818	93.95
944.125	93.85
944.431	93.54
944.738	94.87
945.044	94.35
945.35	93.67
945.657	94.32
945.963	93.8
946.269	94.51
946.575	94.22
946.881	93.88
947.187	93.83
947.493	93.55
947.799	94.78
948.105	94.14
948.41	94.06
948.716	93.59
949.022	95.05
949.327	94.47
949.633	94.45
949.938	93.24
950.244	94.58
950.549	93.09
950.854	94.34
951.16	93.93
951.465	93.9
951.77	94.64
952.075	94.2
952.38	93.41
952.685	94.75
952.99	94.46
953.294	94.74
953.599	93.68
953.904	93.07
954.209	93.95
954.513	93.44
954.818	93.93
955.122	93.98
955.426	93.22
955.731	93.82
956.035	94.28
956.339	93.12
956.643	93.52
956.948	94.99
957.252	93.88
957.556	92.32
957.86	94.87
958.163	93.65
958.467	94.06
958.771	93.45
959.075	94.55
959.378	93.11
959.682	93.32
959.985	92.69
960.289	95.22
960.592	93.88
960.896	93.86
961.199	93.57
961.502	94.27
961.805	94.34
962.108	93.86
962.411	93.2
962.714	94.33
963.017	94.29
963.32	92.95
963.623	94.33
963.926	93.32
964.228	93.03
964.531	92.84
964.833	93.85
965.136	94.98
965.438	93.22
965.741	93.99
966.043	93.22
966.345	94.12
966.648	93.73
966.95	93.4
967.252	94.28
967.554	95.06
967.856	93.86
968.158	92.78
968.46	93.37
968.761	94.22
969.063	95.09
969.365	92.89
969.666	94.29
969.968	93.28
970.269	94.54
970.571	93.06
970.872	94.33
971.174	94.01
971.475	94.39
971.776	93.92
972.077	93.8
972.378	93.71
972.679	93.77
972.98	94.46
973.281	94.8
973.582	93.62
973.883	94.14
974.183	94.6
974.484	93.78
974.785	92.18
975.085	94.4
975.386	93.15
975.686	94.38
975.986	93.92
976.287	94.81
976.587	94.78
976.887	93.13
977.187	93.98
977.487	94.35
977.787	94.85
978.087	94.93
978.387	93.4
978.687	95.26
978.987	95.01
979.286	95.35
979.586	93.54
979.885	94.75
980.185	94.71
980.484	94.16
980.784	94.16
981.083	94.6
981.382	94.96
981.682	92.65
981.981	93.33
982.28	93.49
982.579	94.47
982.878	93.98
983.177	94.61
983.475	93.4
983.774	94.96
984.073	94.09
984.372	93.24
984.67	94.82
984.969	94.58
985.267	94.71
985.566	93.98
985.864	94.81
986.162	93.38
986.461	94.46
986.759	95.68
987.057	94.21
987.355	92.07
987.653	93.32
987.951	93.65
988.249	93.11
988.547	94.04
988.844	95.1
989.142	95.51
989.44	93.44
989.737	93.36
990.035	92.89
990.332	94.38
990.63	94.22
990.927	94.18
991.224	94.78
991.521	94.73
991.819	93.77
992.116	94.16
992.413	93.42
992.71	94.19
993.006	92.94
993.303	94.12
993.6	93.54
993.897	95.07
994.193	93.03
994.49	92.57
994.787	93.77
995.083	95.45
995.379	92.94
995.676	93.95
995.972	94.46
996.268	93.62
996.565	93.44
996.861	94.24
997.157	93.26
997.453	94.11
997.749	94.71
998.044	93.78
998.34	95.72
998.636	94.72
998.932	92.93
999.227	93.22
999.523	91.9
999.818	92.75
1000.114	92.33
1000.409	95.47
1000.704	93.91
1001	92.4
1001.295	93.72
1001.59	93.86
1001.885	93.85
1002.18	91.62
1002.475	92.57
1002.77	92.73
1003.065	93.83
1003.359	92.59
1003.654	95.74
1003.949	94.96
1004.243	94.56
1004.538	94.94
1004.832	94.28
1005.127	94.16
1005.421	94.73
1005.715	94.95
1006.009	93.11
1006.304	94.11
1006.598	94.86
1006.892	91.97
1007.186	93.32
1007.48	94.6
1007.773	94.35
1008.067	94.94
1008.361	94.54
1008.655	93.09
1008.948	94.29
1009.242	94.66
1009.535	91.81
1009.829	93.61
1010.122	94.5
1010.415	93.01
1010.708	95.29
1011.001	93.19
1011.295	93.92
1011.588	93.22
1011.881	93.52
1012.173	95.24
1012.466	92.4
1012.759	94.61
1013.052	93.22
1013.344	93.84
1013.637	94.21
1013.93	92.26
1014.222	96.42
1014.514	93.64
1014.807	95.13
1015.099	94.67
1015.391	92.78
1015.683	93.87
1015.976	94.86
1016.268	90.76
1016.56	93.19
1016.851	96.44
1017.143	97.09
1017.435	93.56
1017.727	93.89
1018.018	93.29
1018.31	91.45
1018.602	92.88
1018.893	94.95
1019.185	94.45
1019.476	95.44
1019.767	93.78
1020.058	93.34
1020.35	93.09
1020.641	92.66
1020.932	95.14
1021.223	94.54
1021.514	94.37
1021.804	91.28
1022.095	94.7
1022.386	92.79
1022.677	95.16
1022.967	95.04
1023.258	95.74
1023.548	93.83
1023.839	91.3
1024.129	94.42
1024.419	97.76
1024.709	92.93
1025	94.69
1025.29	92.28
1025.58	92.1
1025.87	91.61
1026.16	93.9
1026.449	95.56
1026.739	95.6
1027.029	94.9
1027.319	92.04
1027.608	95.32
1027.898	93.5
1028.187	92.89
1028.477	95.7
1028.766	93.98
1029.055	96.02
1029.344	96.18
1029.634	94.95
1029.923	95.58
1030.212	96.08
1030.501	94.45
1030.79	93.38
1031.078	93.41
1031.367	94.72
1031.656	93.96
1031.945	96.41
1032.233	94.36
1032.522	91.97
1032.81	93.68
1033.099	94.97
1033.387	91.22
1033.675	94.19
1033.963	91.88
1034.251	93.11
1034.54	95.13
1034.828	96.79
1035.116	94.34
1035.403	98.13
1035.691	94.26
1035.979	91.89
1036.267	92.32
1036.554	93.64
1036.842	97.22
1037.129	93.41
1037.417	90.15
1037.704	91.55
1037.992	93.61
1038.279	93
1038.566	94.96
1038.853	94.96
1039.14	94.96
