Data from white_paper_FLMS001491_0001.txt Node
Date: Mon Feb 06 14:43:19 GMT 2017
User: dcchb
Spectrometer: FLMS00149
Trigger mode: 0
Integration Time (sec): 2.000000E-2
Scans to average: 10
Electric dark correction enabled: true
Nonlinearity correction enabled: false
Boxcar width: 0
XAxis mode: Wavelengths
Number of Pixels in Spectrum: 2048
>>>>>Begin Spectral Data<<<<<
341.393	-5.27
341.776	-5.27
342.16	-5.27
342.543	-44.14
342.927	-66.74
343.31	-58.6
343.693	-64.7
344.077	-45.72
344.46	-60.18
344.843	-71.48
345.226	-54.08
345.61	-44.59
345.993	-11.6
346.376	14.39
346.759	16.2
347.142	30.44
347.525	18.46
347.908	56.2
348.291	75.86
348.674	86.93
349.057	112.47
349.44	157.89
349.823	163.77
350.206	203.09
350.588	257.55
350.971	296.87
351.354	277.66
351.737	289.87
352.119	324.67
352.502	326.93
352.884	359.02
353.267	350.2
353.65	351.33
354.032	358.11
354.414	388.85
354.797	382.97
355.179	395.17
355.562	386.81
355.944	400.82
356.326	402.86
356.709	419.13
357.091	427.26
357.473	420.94
357.855	445.34
358.238	425.68
358.62	427.26
359.002	448.05
359.384	444.89
359.766	433.82
360.148	445.79
360.53	432.69
360.912	436.53
361.294	452.8
361.676	425
362.057	434.72
362.439	431.1
362.821	448.51
363.203	435.62
363.584	453.25
363.966	428.17
364.348	455.74
364.729	461.84
365.111	445.79
365.493	428.62
365.874	440.14
366.256	454.61
366.637	429.97
367.019	430.2
367.4	448.73
367.781	437.66
368.163	451.22
368.544	450.09
368.925	477.2
369.306	474.04
369.688	480.14
370.069	464.1
370.45	468.62
370.831	465.91
371.212	472.69
371.593	482.18
371.974	483.98
372.355	500.71
372.736	495.06
373.117	475.85
373.498	479.92
373.879	503.42
374.26	480.82
374.641	469.3
375.021	480.82
375.402	518.33
375.783	491.67
376.163	559.91
376.544	563.76
376.925	543.64
377.305	546.13
377.686	535.73
378.066	551.55
378.447	565.34
378.827	571.67
379.208	562.85
379.588	548.16
379.968	578.45
380.349	571.21
380.729	568.5
381.109	607.6
381.489	583.87
381.87	596.07
382.25	597.2
382.63	624.55
383.01	621.16
383.39	665.22
383.77	642.62
384.15	637.43
384.53	626.35
384.91	641.95
385.29	688.72
385.67	680.82
386.049	684.21
386.429	692.57
386.809	699.35
387.189	722.4
387.568	710.87
387.948	726.24
388.328	718.55
388.707	736.86
389.087	750.19
389.466	725.56
389.846	763.3
390.225	767.82
390.605	784.09
390.984	785.45
391.363	803.75
391.743	795.16
392.122	806.24
392.501	805.78
392.881	834.26
393.26	835.39
393.639	858.89
394.018	882.84
394.397	878.78
394.776	868.83
395.155	876.74
395.534	914.93
395.913	909.51
396.292	922.17
396.671	912.22
397.05	918.1
397.429	951.32
397.808	949.73
398.186	961.94
398.565	990.19
398.944	987.25
399.323	997.87
399.701	1021.6
400.08	1022.95
400.458	1042.61
400.837	1031.54
401.215	1055.95
401.594	1070.41
401.972	1058.66
402.351	1127.81
402.729	1107.7
403.107	1113.12
403.486	1133.68
403.864	1132.55
404.242	1165.55
404.62	1164.87
404.999	1189.05
405.377	1198.54
405.755	1227.69
406.133	1258.2
406.511	1242.83
406.889	1230.18
407.267	1252.78
407.645	1300.01
408.023	1320.8
408.401	1373
408.779	1337.75
409.156	1360.8
409.534	1369.38
409.912	1381.36
410.29	1416.84
410.667	1438.54
411.045	1472.21
411.422	1468.59
411.8	1495.48
412.178	1511.75
412.555	1533.9
412.933	1584.52
413.31	1614.35
413.687	1592.2
414.065	1603.5
414.442	1653.67
414.819	1631.98
415.197	1695.03
415.574	1720.11
415.951	1757.85
416.328	1729.83
416.705	1750.84
417.082	1784.52
417.46	1794.46
417.837	1838.53
418.214	1828.81
418.591	1878.75
418.967	1868.35
419.344	1894.12
419.721	1936.38
420.098	1925.75
420.475	1968.01
420.852	1963.95
421.228	1982.25
421.605	1996.26
421.982	2036.03
422.358	2046.88
422.735	2071.29
423.111	2101.12
423.488	2127.56
423.864	2180.66
424.241	2168.23
424.617	2213.66
424.994	2281.45
425.37	2266.99
425.746	2250.27
426.123	2309.02
426.499	2339.3
426.875	2346.31
427.251	2400.32
427.627	2448.9
428.003	2474.67
428.379	2479.41
428.756	2545.17
429.132	2540.43
429.507	2612.29
429.883	2647.32
430.259	2661.33
430.635	2709.46
431.011	2706.75
431.387	2789.46
431.763	2810.93
432.138	2851.38
432.514	2881.44
432.89	2914.88
433.265	3009.57
433.641	3038.27
434.016	3036.23
434.392	3118.49
434.767	3172.73
435.143	3167.53
435.518	3184.93
435.894	3218.6
436.269	3266.74
436.644	3324.59
437.02	3386.96
437.395	3388.99
437.77	3439.84
438.145	3474.19
438.52	3503.34
438.895	3523
439.271	3520.51
439.646	3631.25
440.021	3636.67
440.395	3667.63
440.77	3658.82
441.145	3732.71
441.52	3782.88
441.895	3792.37
442.27	3843.67
442.645	3833.5
443.019	3919.15
443.394	3880.28
443.769	3973.16
444.143	3952.14
444.518	4016.32
444.892	4008.41
445.267	4075.08
445.641	4146.04
446.016	4089.31
446.39	4129.09
446.764	4176.54
447.139	4175.64
447.513	4231.91
447.887	4242.53
448.262	4280.27
448.636	4299.7
449.01	4365.46
449.384	4391
449.758	4421.51
450.132	4485.46
450.506	4550.09
450.88	4555.29
451.254	4568.17
451.628	4627.15
452.002	4694.5
452.376	4737.88
452.75	4798.9
453.123	4804.77
453.497	4887.03
453.871	4929.97
454.244	5022.17
454.618	5084.77
454.992	5151.66
455.365	5171.77
455.739	5288.6
456.112	5333.57
456.486	5400.69
456.859	5468.26
457.232	5552.33
457.606	5585.77
457.979	5674.13
458.352	5751.87
458.725	5887.68
459.099	5842.49
459.472	5944.18
459.845	6065.98
460.218	6091.52
460.591	6150.5
460.964	6171.97
461.337	6327.9
461.71	6428.69
462.083	6558.4
462.456	6568.8
462.829	6598.85
463.201	6686.08
463.574	6729.7
463.947	6773.54
464.32	6969.01
464.692	7073.87
465.065	7078.84
465.438	7256.24
465.81	7254.65
466.183	7392.96
466.555	7572.84
466.928	7589.79
467.3	7576.91
467.672	7771.7
468.045	7975.99
468.417	7979.38
468.789	8064.58
469.161	8145.93
469.534	8255.08
469.906	8447.39
470.278	8551.57
470.65	8663.2
471.022	8786.37
471.394	8971.22
471.766	9072.69
472.138	9199.46
472.51	9348.84
472.882	9516.29
473.253	9589.06
473.625	9734.14
473.997	9963.96
474.369	10011.42
474.74	10119.66
475.112	10327.57
475.484	10476.49
475.855	10688.01
476.227	10758.74
476.598	11082.8
476.97	11114.21
477.341	11415.22
477.713	11619.06
478.084	11710.81
478.455	11993.96
478.827	12076
479.198	12507.17
479.569	12442.31
479.94	12843.43
480.311	12924.34
480.682	13253.14
481.053	13514.83
481.424	13810.64
481.795	13979
482.166	14094.7
482.537	14336.5
482.908	14614.23
483.279	14703.05
483.65	15034.56
484.021	15380.54
484.391	15441.78
484.762	15674.77
485.133	15818.27
485.503	16006.06
485.874	16483.34
486.244	16578.93
486.615	16888.75
486.985	17101.85
487.356	17463.43
487.726	17509.07
488.097	17938.44
488.467	17914.49
488.837	18377.3
489.207	18546.11
489.578	18837.4
489.948	19021.35
490.318	19298.86
490.688	19323.04
491.058	19567.55
491.428	19980.42
491.798	20039.4
492.168	20593.96
492.538	20624.25
492.908	20924.35
493.278	21110.56
493.648	21175.64
494.017	21591.68
494.387	21707.38
494.757	21861.5
495.126	22046.58
495.496	22204.54
495.866	22386.01
496.235	22548.94
496.605	22772.21
496.974	22947.12
497.344	23217.17
497.713	23311.86
498.082	23602.92
498.452	23832.75
498.821	23802.92
499.19	24017.15
499.559	24245.17
499.928	24365.84
500.298	24612.16
500.667	24871.82
501.036	24824.14
501.405	25146.84
501.774	25123.79
502.143	25312.48
502.512	25415.08
502.88	25664.57
503.249	25748.18
503.618	25978
503.987	26195.62
504.356	26398.11
504.724	26588.16
505.093	26633.58
505.462	26818.89
505.83	26987.24
506.199	27230.4
506.567	27553.1
506.936	27503.16
507.304	27868.8
507.672	28091.62
508.041	28185.63
508.409	28383.59
508.777	28551.72
509.145	28781.55
509.514	28899.51
509.882	29075.1
510.25	29190.8
510.618	29410.91
510.986	29611.13
511.354	29864.91
511.722	30060.83
512.09	30452.01
512.458	30327.27
512.826	30691.55
513.193	30817.2
513.561	30953.69
513.929	31255.6
514.297	31593.9
514.664	31770.17
515.032	31942.37
515.4	32068.01
515.767	32266.43
516.135	32527.44
516.502	32391.85
516.869	33018.72
517.237	33230.02
517.604	33156.8
517.972	33526.28
518.339	33809.44
518.706	33900.28
519.073	34041.97
519.44	34430.89
519.808	34711.33
520.175	34798.79
520.542	35307.48
520.909	35314.93
521.276	35428.15
521.643	35867.46
522.009	36117.4
522.376	36377.96
522.743	36651.85
523.11	36995.79
523.477	37159.63
523.843	37586.29
524.21	37866.73
524.577	38087.74
524.943	38251.35
525.31	38480.95
525.676	38911.22
526.043	39087.72
526.409	39358.44
526.776	39703.74
527.142	39872.78
527.508	40001.59
527.874	40409.94
528.241	40644.51
528.607	40847.89
528.973	41212.18
529.339	41166.98
529.705	41684.71
530.071	41877.02
530.437	42060.97
530.803	42280.63
531.169	42667.06
531.535	42569.88
531.901	42763.32
532.267	42925.35
532.632	43190.43
532.998	43459.8
533.364	43553.59
533.73	43767.37
534.095	44093.46
534.461	44066.34
534.826	44464.97
535.192	44529.38
535.557	44867.45
535.923	44762.82
536.288	45108.57
536.653	45332.3
537.019	45229.47
537.384	45533.65
537.749	45514.89
538.114	45739.74
538.479	45924.15
538.845	46153.07
539.21	46092.28
539.575	46276.23
539.94	46424.92
540.305	46782.65
540.67	46664.47
541.034	46780.62
541.399	47196.43
541.764	47222.87
542.129	47379.93
542.494	47400.94
542.858	47651.33
543.223	47637.32
543.587	47938.33
543.952	47948.5
544.316	48275.5
544.681	48200.47
545.045	48347.81
545.41	48506.9
545.774	48635.94
546.138	48657.63
546.503	48848.81
546.867	48912.54
547.231	49148.02
547.595	49187.34
547.959	49372.87
548.324	49310.05
548.688	49532.64
549.052	49577.38
549.416	49719.53
549.779	49800.43
550.143	49986.86
550.507	50215.78
550.871	50287.42
551.235	50312.5
551.599	50520.18
551.962	50687.64
552.326	50752.49
552.689	51022.32
553.053	50883.79
553.417	51030
553.78	51568.97
554.143	51338.01
554.507	51470.44
554.87	51566.48
555.234	51869.3
555.597	51716.08
555.96	51959.02
556.323	52108.62
556.686	52196.07
557.05	52297.99
557.413	52516.06
557.776	52659.56
558.139	52893.45
558.502	52893.45
558.865	53018.87
559.228	53203.28
559.59	53261.58
559.953	53375.02
560.316	53618.63
560.679	53681.68
561.041	53921.22
561.404	53993.54
561.767	54198.96
562.129	54084.83
562.492	54427.65
562.854	54358.95
563.217	54458.84
563.579	54618.38
563.941	54753.97
564.304	54978.6
564.666	55086.39
565.028	55137.91
565.39	55227.63
565.753	55421.07
566.115	55473.5
566.477	55601.63
566.839	55704.68
567.201	55866.26
567.563	55876.65
567.925	56090.21
568.287	56073.03
568.648	56169.53
569.01	56334.49
569.372	56409.07
569.734	56423.98
570.095	56584.66
570.457	56702.39
570.819	56762.28
571.18	56771.09
571.542	56957.98
571.903	56976.96
572.265	57056.96
572.626	57227.13
572.987	57252.89
573.349	57322.26
573.71	57376.73
574.071	57423.28
574.432	57545.76
574.794	57690.84
575.155	57694.68
575.516	57603.16
575.877	57769.71
576.238	57862.59
576.599	57868.24
576.96	57906.43
577.32	57945.3
577.681	58025.52
578.042	58037.05
578.403	58127.67
578.763	58152.75
579.124	58158.63
579.485	58267.1
579.845	58383.93
580.206	58344.84
580.566	58321.33
580.927	58348.45
581.287	58463.93
581.648	58322.46
582.008	58506.87
582.368	58404.95
582.728	58537.6
583.089	58479.97
583.449	58499.18
583.809	58469.58
584.169	58459.64
584.529	58501.67
584.889	58650.82
585.249	58541.21
585.609	58514.55
585.969	58624.83
586.329	58532.4
586.688	58586.64
587.048	58591.38
587.408	58592.97
587.768	58589.8
588.127	58539.41
588.487	58486.53
588.846	58727.2
589.206	58498.05
589.565	58570.82
589.925	58676.58
590.284	58638.16
590.643	58597.26
591.003	58752.51
591.362	58759.74
591.721	58688.33
592.08	58642.46
592.44	58749.35
592.799	58737.37
593.158	58721.78
593.517	58778.27
593.876	58789.12
594.235	58726.29
594.593	58740.76
594.952	58794.32
595.311	58769.46
595.67	58733.75
596.029	58945.27
596.387	58886.74
596.746	58972.84
597.104	58780.08
597.463	58868.66
597.822	58927.65
598.18	58822.79
598.538	58834.31
598.897	58994.54
599.255	58789.34
599.613	59131.26
599.972	58955.44
600.33	59055.55
600.688	58943.24
601.046	59058.04
601.404	59141.88
601.762	59085.61
602.12	59113.4
602.478	59151.37
602.836	59196.79
603.194	59125.38
603.552	59115.44
603.91	59057.36
604.268	59233.85
604.625	59125.15
604.983	59279.95
605.341	59114.31
605.698	59299.61
606.056	59286.73
606.413	59296.9
606.771	59390.01
607.128	59433.85
607.485	59341.19
607.843	59278.14
608.2	59479.5
608.557	59532.38
608.914	59445.6
609.272	59587.97
609.629	59588.87
609.986	59692.6
610.343	59539.15
610.7	59742.09
611.057	59690.34
611.414	59650.11
611.771	59654.18
612.127	59771.47
612.484	59740.96
612.841	59873.84
613.198	59746.38
613.554	59772.37
613.911	59924.23
614.267	59886.26
614.624	59827.51
614.98	59906.83
615.337	60006.94
615.693	60004
616.05	59961.29
616.406	60040.84
616.762	60008.52
617.118	60011.46
617.475	60079.71
617.831	60139.59
618.187	60122.64
618.543	60113.15
618.899	60219.36
619.255	60216.88
619.611	60123.32
619.967	60230.89
620.323	60246.48
620.678	60168.29
621.034	60156.77
621.39	60182.53
621.746	60147.27
622.101	60401.28
622.457	60166.48
622.812	60254.39
623.168	60328.29
623.523	60316.31
623.879	60354.73
624.234	60210.32
624.589	60301.62
624.945	60256.42
625.3	60279.47
625.655	60247.84
626.01	60283.09
626.365	60322.41
626.72	60244
627.075	60189.31
627.43	60194.73
627.785	60184.79
628.14	60215.07
628.495	60230.89
628.85	60175.97
629.205	60093.49
629.559	60206.48
629.914	60119.48
630.269	60094.39
630.623	60101.85
630.978	60093.04
631.332	60138.69
631.687	60166.03
632.041	59951.35
632.396	60056.43
632.75	59996.77
633.104	59985.24
633.459	59912.03
633.813	59865.02
634.167	59893.5
634.521	59860.28
634.875	59880.16
635.229	59791.58
635.583	59714.07
635.937	59708.64
636.291	59726.27
636.645	59705.25
636.999	59591.13
637.352	59676.1
637.706	59535.09
638.06	59588.42
638.413	59536.67
638.767	59559.27
639.121	59516.1
639.474	59385.94
639.828	59405.15
640.181	59437.46
640.534	59458.93
640.888	59354.3
641.241	59234.76
641.594	59264.13
641.947	59303.23
642.301	59163.35
642.654	59291.25
643.007	59234.3
643.36	59260.52
643.713	59141.65
644.066	59224.36
644.419	59001.54
644.771	58882.9
645.124	58575.11
645.477	58514.77
645.83	58421.44
646.182	58267.1
646.535	58209.7
646.888	58317.49
647.24	58141
647.593	58311.62
647.945	58211.28
648.298	58089.02
648.65	58037.05
649.002	58025.3
649.355	58188.23
649.707	58019.19
650.059	58079.76
650.411	58348.23
650.763	58411.27
651.115	58598.61
651.467	58569.69
651.819	58524.49
652.171	58406.98
652.523	58413.99
652.875	58500.76
653.227	58340.99
653.578	58430.94
653.93	58426.19
654.282	58297.15
654.633	58290.83
654.985	58261.9
655.337	58195.69
655.688	58246.53
656.039	58290.83
656.391	58102.13
656.742	58103.03
657.094	58147.78
657.445	58261.22
657.796	58111.62
658.147	58089.7
658.498	58057.39
658.849	58119.53
659.2	58006.09
659.551	57921.34
659.902	58077.5
660.253	57994.11
660.604	58033.88
660.955	57806.77
661.306	57990.49
661.656	57844.74
662.007	57908.46
662.358	57856.94
662.708	57889.71
663.059	57866.2
663.409	57741.69
663.76	57850.16
664.11	57811.29
664.461	57849.48
664.811	57807
665.161	57822.14
665.511	57729.48
665.862	57792.99
666.212	57866.43
666.562	57824.62
666.912	57719.99
667.262	57744.4
667.612	57688.36
667.962	57715.7
668.312	57578.98
668.662	57778.3
669.011	57732.2
669.361	57632.54
669.711	57682.03
670.06	57581.47
670.41	57540.34
670.76	57517.74
671.109	57638.19
671.459	57510.51
671.808	57497.85
672.157	57562.48
672.507	57374.01
672.856	57387.8
673.205	57482.03
673.554	57473.67
673.904	57389.15
674.253	57518.64
674.602	57410.62
674.951	57046.57
675.3	56914.37
675.649	57320.68
675.998	57311.87
676.346	57320.91
676.695	57380.79
677.044	57197.75
677.393	57240.91
677.741	57265.09
678.09	57085.89
678.438	57157.52
678.787	57253.34
679.135	57159.56
679.484	56936.29
679.832	57129.05
680.181	56911.43
680.529	56990.75
680.877	56923.63
681.225	56824.88
681.573	57031.65
681.922	56825.55
682.27	56751.21
682.618	56770.87
682.966	56651.55
683.314	56768.61
683.661	56578.78
684.009	56505.34
684.357	56457.2
684.705	56402.74
685.053	56333.36
685.4	56382.63
685.748	56288.84
686.095	56256.3
686.443	56138.11
686.79	56058.12
687.138	56214.27
687.485	56134.5
687.832	55971.34
688.18	56061.05
688.527	55857.67
688.874	55758.69
689.221	55720.72
689.568	55691.57
689.915	55681.18
690.262	55594.85
690.609	55545.59
690.956	55439.15
691.303	55440.73
691.65	55223.56
691.997	55254.07
692.344	55144.92
692.69	55114.19
693.037	55124.36
693.383	54845.94
693.73	54914.87
694.077	54804.36
694.423	54778.83
694.769	54683.24
695.116	54620.41
695.462	54547.2
695.808	54457.25
696.155	54528.89
696.501	54243.25
696.847	54320.76
697.193	54064.27
697.539	54114.89
697.885	53922.35
698.231	53871.96
698.577	53859.98
698.923	53819.98
699.269	53672.42
699.614	53459.99
699.96	53539.54
700.306	53511.74
700.651	53401.01
700.997	53284.18
701.342	53185.42
701.688	53178.64
702.033	53076.27
702.379	53006.67
702.724	52987.01
703.069	52984.52
703.415	52622.73
703.76	52549.73
704.105	52620.69
704.45	52604.65
704.795	52435.16
705.14	52247.6
705.485	52366.24
705.83	52093.25
706.175	52190.65
706.52	52130.31
706.865	51930.09
707.209	51881.05
707.554	51779.13
707.899	51855.06
708.243	51723.99
708.588	51623.43
708.932	51395.19
709.277	51303.89
709.621	51372.59
709.966	51131.01
710.31	51169.66
710.654	50882.21
710.998	51150
711.342	51030.23
711.687	50831.14
712.031	50705.49
712.375	50613.97
712.719	50592.72
713.063	50633.85
713.407	50742.78
713.75	50414.87
714.094	50416.68
714.438	50284.71
714.782	50339.4
715.125	50037.94
715.469	50138.72
715.812	49936.02
716.156	49822.12
716.499	49780.99
716.843	49835.68
717.186	49652.41
717.53	49731.73
717.873	49727.89
718.216	49674.1
718.559	49382.13
718.902	49212.42
719.246	49306.2
719.589	49144.63
719.932	48983.5
720.275	49000.9
720.617	48971.52
720.96	48809.95
721.303	48909.15
721.646	48975.59
721.989	48635.26
722.331	48747.57
722.674	48713.68
723.016	48603.85
723.359	48536.73
723.701	48491.99
724.044	48172.9
724.386	48118.89
724.729	48150.3
725.071	48213.8
725.413	48124.99
725.755	48019.01
726.097	47828.5
726.439	47644.55
726.782	47731.56
727.124	47860.14
727.465	47565.91
727.807	47542.86
728.149	47507.83
728.491	47417.44
728.833	47414.73
729.175	47209.08
729.516	47125.7
729.858	47056.55
730.199	47041.18
730.541	47134.28
730.882	46991.46
731.224	47075.08
731.565	46835.99
731.906	46854.52
732.248	46807.74
732.589	46601.87
732.93	46506.5
733.271	46605.48
733.612	46463.57
733.953	46532.04
734.294	46269.45
734.635	46186.29
734.976	46320.97
735.317	46139.96
735.658	46047.76
735.999	46107.87
736.339	45973.64
736.68	46011.83
737.021	45866.52
737.361	45693.42
737.702	45819.52
738.042	45660.2
738.383	45600.99
738.723	45752.85
739.063	45611.39
739.404	45629.92
739.744	45345.4
740.084	45180.21
740.424	45212.75
740.764	45142.47
741.104	45280.09
741.444	45058.86
741.784	44855.47
742.124	44944.06
742.464	44932.99
742.804	44753.78
743.143	44797.62
743.483	44824.29
743.823	44543.39
744.162	44484.41
744.502	44590.4
744.841	44471.08
745.181	44488.93
745.52	44277.86
745.86	44271.99
746.199	44197.41
746.538	44124.87
746.877	44226.56
747.216	44129.16
747.556	43945.89
747.895	44106.34
748.234	43829.29
748.573	43739.34
748.911	43640.59
749.25	43653.47
749.589	43380.26
749.928	43410.99
750.267	43405.34
750.605	43301.84
750.944	43171.45
751.283	42999.7
751.621	43209.64
751.96	42912.02
752.298	42876.09
752.636	42836.77
752.975	42581.63
753.313	42550.45
753.651	42698.92
753.989	42339.83
754.327	42311.81
754.666	42096
755.004	42074.3
755.342	42158.37
755.679	42124.7
756.017	41789.57
756.355	41928.54
756.693	41727.19
757.031	41806.06
757.368	41518.84
757.706	41528.33
758.044	41305.74
758.381	41238.17
758.719	41114.1
759.056	41222.8
759.394	40979.64
759.731	40728.12
760.068	40741.01
760.405	40510.05
760.743	40492.2
761.08	40504.63
761.417	40223.96
761.754	40130.4
762.091	40085.66
762.428	39864.87
762.765	39885.66
763.102	39847.7
763.438	39646.34
763.775	39447.25
764.112	39365
764.449	39355.96
764.785	39145.34
765.122	38983.76
765.458	38763.2
765.795	38925.91
766.131	38786.03
766.467	38547.84
766.804	38380.39
767.14	38341.97
767.476	38319.37
767.812	38059.95
768.148	38078.02
768.485	37888.65
768.821	37600.75
769.157	37627.64
769.492	37414.54
769.828	37444.59
770.164	37143.59
770.5	37119.18
770.836	37016.58
771.171	36850.49
771.507	36747.89
771.842	36408.24
772.178	36368.24
772.513	36245.08
772.849	36283.04
773.184	36111.3
773.519	36185.87
773.855	35941.81
774.19	35711.53
774.525	35641.25
774.86	35657.07
775.195	35535.27
775.53	35300.7
775.865	35174.15
776.2	34882.18
776.535	34684.89
776.87	34662.52
777.205	34706.59
777.539	34456.88
777.874	34636.98
778.209	34310.89
778.543	34200.84
778.878	33934.18
779.212	33976.44
779.547	33768.53
779.881	33712.26
780.215	33525.38
780.55	33481.76
780.884	33376.68
781.218	33292.16
781.552	33204.25
781.886	32913.87
782.22	32899.86
782.554	32771.5
782.888	32485.18
783.222	32408.34
783.556	32276.59
783.889	32123.15
784.223	31898.3
784.557	31958.64
784.89	32021.46
785.224	31721.81
785.557	31641.81
785.891	31562.72
786.224	31429.16
786.558	31403.85
786.891	31101.26
787.224	30947.82
787.557	30983.97
787.891	30887.48
788.224	30784.88
788.557	30791.89
788.89	30551.89
789.223	30588.96
789.556	30365.68
789.888	30282.3
790.221	30342.41
790.554	30046.82
790.887	29891.12
791.219	29812.48
791.552	29823.1
791.884	29700.62
792.217	29545.82
792.549	29493.62
792.882	29263.79
793.214	29183.79
793.546	29152.84
793.879	28900.64
794.211	28908.55
794.543	28880.07
794.875	28803.24
795.207	28842.11
795.539	28624.04
795.871	28683.47
796.203	28366.87
796.535	28264.72
796.867	28142.47
797.198	28070.38
797.53	28026.99
797.862	27842.14
798.193	27880.55
798.525	27725.98
798.856	27702.25
799.188	27442.6
799.519	27344.3
799.85	27355.59
800.182	27330.06
800.513	27297.74
800.844	26995.83
801.175	27168.71
801.506	27073.12
801.837	26873.57
802.168	26848.71
802.499	26722.39
802.83	26567.59
803.161	26521.27
803.491	26496.18
803.822	26418.22
804.153	26373.02
804.483	26157.43
804.814	26109.53
805.145	25995.4
805.475	26045.35
805.805	25895.29
806.136	25849.87
806.466	25876.31
806.796	25902.3
807.126	25534.17
807.457	25568.52
807.787	25508.41
808.117	25370.11
808.447	25305.48
808.777	25450.11
809.107	25252.82
809.436	25175.31
809.766	25078.14
810.096	24976
810.426	24794.98
810.755	24988.42
811.085	24873.63
811.414	24776.23
811.744	24591.15
812.073	24693.97
812.403	24705.49
812.732	24391.6
813.061	24518.15
813.39	24277.71
813.719	24267.31
814.049	24358.84
814.378	24305.96
814.707	24047.66
815.036	24124.27
815.365	23970.82
815.693	23729.93
816.022	23789.13
816.351	23706.2
816.68	23616.03
817.008	23710.49
817.337	23445.41
817.665	23463.95
817.994	23500.1
818.322	23343.27
818.651	23354.57
818.979	23117.06
819.307	23279.09
819.636	23153.44
819.964	22966.78
820.292	23141.47
820.62	23079.77
820.948	22925.43
821.276	23124.07
821.604	22929.27
821.932	23121.13
822.259	23097.18
822.587	22977.63
822.915	22842.27
823.243	23082.03
823.57	22839.78
823.898	22967.01
824.225	22776.73
824.553	22918.65
824.88	22882.72
825.207	23021.92
825.535	22835.04
825.862	22995.03
826.189	22833
826.516	23040.68
826.843	22965.2
827.17	22893.11
827.497	22925.2
827.824	22911.42
828.151	22909.84
828.478	22950.96
828.805	22967.91
829.131	22906.45
829.458	22781.03
829.785	22769.95
830.111	22729.28
830.438	22949.16
830.764	22727.47
831.09	22847.69
831.417	22683.4
831.743	22800.46
832.069	22743.51
832.395	22687.92
832.722	22754.59
833.048	22691.08
833.374	22659.22
833.7	22500.13
834.026	22588.26
834.351	22718.43
834.677	22616.51
835.003	22668.71
835.329	22533.57
835.654	22501.03
835.98	22565.66
836.306	22375.16
836.631	22373.58
836.956	22460.81
837.282	22304.88
837.607	22238.89
837.932	22133.13
838.258	22212.23
838.583	22245.22
838.908	22100.37
839.233	22017.66
839.558	22101.95
839.883	22072.8
840.208	21929.3
840.533	21991.89
840.858	21889.07
841.182	21894.72
841.507	21751.67
841.832	21763.2
842.156	21758
842.481	21755.29
842.805	21680.94
843.13	21571.79
843.454	21491.12
843.778	21472.81
844.103	21422.64
844.427	21391.68
844.751	21374.28
845.075	21310.56
845.399	21231.91
845.723	21202.08
846.047	21211.8
846.371	20986.72
846.695	20912.83
847.019	20766.39
847.343	20715.54
847.666	20689.78
847.99	20511.71
848.313	20594.42
848.637	20360.75
848.96	20321.43
849.284	20245.05
849.607	20185.61
849.931	20096.12
850.254	19870.59
850.577	19822.46
850.9	19765.51
851.223	19688.45
851.546	19629.24
851.869	19498.63
852.192	19562.8
852.515	19308.57
852.838	19249.59
853.161	19335.24
853.483	19233.1
853.806	19157.39
854.129	19055.02
854.451	19054.8
854.774	18855.7
855.096	18838.53
855.419	18861.35
855.741	18788.59
856.063	18784.07
856.385	18728.02
856.708	18542.49
857.03	18594.47
857.352	18472.89
857.674	18397.86
857.996	18404.64
858.318	18264.76
858.64	18384.3
858.961	18216.17
859.283	18248.94
859.605	17985.67
859.926	18063.64
860.248	17956.75
860.57	17949.29
860.891	17958.78
861.212	17904.09
861.534	17852.79
861.855	17818.9
862.176	17853.92
862.498	17830.42
862.819	17761.04
863.14	17674.27
863.461	17589.52
863.782	17573.93
864.103	17638.11
864.424	17499.81
864.745	17561.5
865.065	17483.76
865.386	17322.19
865.707	17385.23
866.027	17415.06
866.348	17346.82
866.668	17286.25
866.989	17116.09
867.309	17175.3
867.63	17205.58
867.95	17225.24
868.27	17080.38
868.59	17051.01
868.91	17160.38
869.23	16985.25
869.55	16920.84
869.87	17090.1
870.19	16901.41
870.51	16874.06
870.83	16969.43
871.15	16932.37
871.469	16801.52
871.789	16828.64
872.109	16743.67
872.428	16673.84
872.748	16832.93
873.067	16754.74
873.386	16852.59
873.706	16561.3
874.025	16548.42
874.344	16551.13
874.663	16574.63
874.982	16441.76
875.301	16489.44
875.62	16539.61
875.939	16408.76
876.258	16413.28
876.577	16258.94
876.896	16284.92
877.214	16317.01
877.533	16243.34
877.852	16312.27
878.17	16282.67
878.489	16250.58
878.807	16201.31
879.125	16086.96
879.444	16165.15
879.762	16159.28
880.08	16144.82
880.398	15949.11
880.716	16046.97
881.034	15905.27
881.352	16005.38
881.67	15857.82
881.988	15823.69
882.306	15811.27
882.624	15764.26
882.941	15671.38
883.259	15687.88
883.577	15682.68
883.894	15618.95
884.212	15590.93
884.529	15655.34
884.846	15483.59
885.164	15526.3
885.481	15556.13
885.798	15480.43
886.115	15369.47
886.432	15383.48
886.75	15346.42
887.067	15293.99
887.383	15163.82
887.7	15222.35
888.017	15089.7
888.334	15136.93
888.651	15086.76
888.967	15009.48
889.284	15055.13
889.6	14942.81
889.917	14814.46
890.233	14875.47
890.55	14802.48
890.866	14852.87
891.182	14743.27
891.498	14733.78
891.815	14654.69
892.131	14636.83
892.447	14532.2
892.763	14498.98
893.079	14506.67
893.395	14452.88
893.71	14420.12
894.026	14320.46
894.342	14280.23
894.657	14256.96
894.973	14220.57
895.289	14134.02
895.604	14220.57
895.92	14030.97
896.235	14061.03
896.55	14122.72
896.865	13994.36
897.181	13899.45
897.496	13986.23
897.811	13817.87
898.126	13771.54
898.441	13618.55
898.756	13640.93
899.071	13647.71
899.386	13644.32
899.7	13457.43
900.015	13441.38
900.33	13411.78
900.644	13314.16
900.959	13328.39
901.273	13267.83
901.588	13134.05
901.902	13098.79
902.216	13188.96
902.531	13047.04
902.845	13056.99
903.159	12967.95
903.473	12890.66
903.787	12796.88
904.101	12760.05
904.415	12809.54
904.729	12747.39
905.042	12690.22
905.356	12646.6
905.67	12591.01
905.984	12625.13
906.297	12536.1
906.611	12472.37
906.924	12416.1
907.237	12440.96
907.551	12343.11
907.864	12279.38
908.177	12233.51
908.491	12184.69
908.804	12148.76
909.117	12010.24
909.43	11994.42
909.743	12056.34
910.056	11928.2
910.368	11888.43
910.681	11791.94
910.994	11743.8
911.307	11718.27
911.619	11641.88
911.932	11651.83
912.244	11533.86
912.557	11525.05
912.869	11501.55
913.181	11448.44
913.494	11405.05
913.806	11251.84
914.118	11342.23
914.43	11155.79
914.742	11175.91
915.054	11097.49
915.366	11017.72
915.678	11083.48
915.99	10974.56
916.302	10934.78
916.613	10843.26
916.925	10831.06
917.236	10798.97
917.548	10776.6
917.859	10711.51
918.171	10704.96
918.482	10641.91
918.794	10567.56
919.105	10577.73
919.416	10413.89
919.727	10470.84
920.038	10429.49
920.349	10387.68
920.66	10257.51
920.971	10282.6
921.282	10266.55
921.593	10142.94
921.903	10064.07
922.214	9998.54
922.525	10022.49
922.835	9935.04
923.146	9895.94
923.456	9915.37
923.767	9835.83
924.077	9796.96
924.387	9737.3
924.697	9731.88
925.008	9792.21
925.318	9676.96
925.628	9668.6
925.938	9529.4
926.248	9531.66
926.558	9508.38
926.867	9413.92
927.177	9431.09
927.487	9328.05
927.796	9253.02
928.106	9269.74
928.416	9265
928.725	9137.54
929.034	9148.16
929.344	9143.87
929.653	9097.77
929.962	9012.12
930.271	9044.21
930.581	8855.06
930.89	8955.63
931.199	8886.93
931.508	8800.6
931.817	8839.24
932.125	8849.64
932.434	8742.75
932.743	8676.99
933.051	8626.82
933.36	8573.49
933.669	8529.65
933.977	8560.38
934.286	8493.72
934.594	8506.37
934.902	8360.39
935.21	8338.47
935.519	8402.65
935.827	8320.16
936.135	8282.65
936.443	8208.08
936.751	8123.56
937.059	8121.98
937.367	8095.54
937.674	8086.04
937.982	8031.36
938.29	8012.15
938.597	8000.85
938.905	7906.84
939.213	7870
939.52	7846.5
939.827	7877.24
940.135	7722.44
940.442	7737.58
940.749	7779.61
941.056	7712.49
941.363	7640.63
941.67	7614.42
941.977	7540.3
942.284	7509.56
942.591	7495.78
942.898	7472.05
943.205	7482.44
943.511	7388.66
943.818	7379.4
944.125	7296.01
944.431	7325.39
944.738	7216.24
945.044	7167.42
945.35	7182.79
945.657	7105.96
945.963	7114.09
946.269	7078.84
946.575	7096.01
946.881	7077.94
947.187	6990.03
947.493	6994.55
947.799	6955.23
948.105	6903.02
948.41	6873.19
948.716	6873.42
949.022	6831.39
949.327	6809.47
949.633	6777.6
949.938	6744.61
950.244	6754.55
950.549	6689.47
950.854	6615.57
951.16	6582.81
951.465	6575.58
951.77	6562.24
952.075	6484.5
952.38	6511.85
952.685	6456.71
952.99	6406.99
953.294	6404.28
953.599	6358.63
953.904	6364.28
954.209	6329.03
954.513	6282.48
954.818	6264.85
955.122	6263.95
955.426	6234.34
955.731	6155.02
956.035	6183.27
956.339	6096.04
956.643	6102.82
956.948	6028.02
957.252	6011.97
957.556	6059.66
957.86	5995.25
958.163	5974.46
958.467	5926.55
958.771	5863.96
959.075	5864.18
959.378	5847.69
959.682	5817.86
959.985	5818.08
960.289	5743.06
960.592	5761.36
960.896	5788.03
961.199	5691.31
961.502	5697.86
961.805	5651.31
962.108	5579.67
962.411	5597.97
962.714	5601.36
963.017	5540.12
963.32	5530.86
963.623	5454.48
963.926	5484.08
964.228	5430.07
964.531	5374.48
964.833	5401.37
965.136	5360.92
965.438	5336.06
965.741	5353.91
966.043	5364.99
966.345	5241.83
966.648	5284.31
966.95	5227.14
967.252	5210.64
967.554	5169.74
967.856	5169.74
968.158	5125.9
968.46	5117.31
968.761	5073.69
969.063	5098.1
969.365	5049.06
969.666	5017.88
969.968	5010.65
970.269	4942.17
970.571	4952.57
970.872	4881.61
971.174	4913.25
971.475	4901.04
971.776	4872.57
972.077	4845.45
972.378	4756.87
972.679	4786.24
972.98	4768.84
973.281	4744.66
973.582	4770.88
973.883	4740.6
974.183	4701.95
974.484	4659.24
974.785	4636.42
975.085	4646.59
975.386	4674.83
975.686	4573.14
975.986	4511.45
976.287	4502.18
976.587	4534.27
976.887	4474.16
977.187	4438.91
977.487	4436.65
977.787	4407.95
978.087	4375.41
978.387	4367.27
978.687	4380.83
978.987	4398.46
979.286	4322.98
979.586	4311.45
979.885	4275.52
980.185	4283.21
980.484	4240.04
980.784	4224.23
981.083	4195.53
981.382	4204.79
981.682	4184
981.981	4148.75
982.28	4123.21
982.579	4102.42
982.878	4137.22
983.177	4133.61
983.475	4065.59
983.774	4021.97
984.073	3997.56
984.372	3983.78
984.67	3994.63
984.969	3977
985.267	3958.24
985.566	3913.95
985.864	3907.17
986.162	3895.65
986.461	3849.32
986.759	3886.38
987.057	3810
987.355	3815.2
987.653	3804.58
987.951	3773.84
988.249	3750.79
988.547	3795.76
988.844	3718.02
989.142	3721.19
989.44	3646.61
989.737	3675.76
990.035	3648.42
990.332	3636.44
990.63	3640.06
990.927	3587.63
991.224	3591.93
991.521	3563.45
991.819	3583.34
992.116	3543.11
992.413	3518.71
992.71	3477.13
993.006	3467.41
993.303	3484.13
993.6	3480.29
993.897	3460.86
994.193	3435.32
994.49	3438.94
994.787	3386.28
995.083	3351.48
995.379	3337.02
995.676	3297.7
995.972	3313.74
996.268	3309.45
996.565	3262.67
996.861	3253.86
997.157	3212.05
997.453	3214.99
997.749	3211.37
998.044	3187.42
998.34	3185.16
998.636	3204.82
998.932	3136.57
999.227	3141.54
999.523	3100.64
999.818	3118.72
1000.114	3062
1000.409	3110.13
1000.704	3000.08
1001	2994.88
1001.295	3028.55
1001.59	2983.58
1001.885	2963.69
1002.18	2969.79
1002.475	2928.89
1002.77	2935.45
1003.065	2881.44
1003.359	2891.83
1003.654	2870.59
1003.949	2851.15
1004.243	2819.74
1004.538	2797.82
1004.832	2824.26
1005.127	2786.52
1005.421	2759.4
1005.715	2745.85
1006.009	2768.9
1006.304	2735
1006.598	2694.1
1006.892	2699.97
1007.186	2654.55
1007.48	2632.4
1007.773	2633.76
1008.067	2623.36
1008.361	2588.34
1008.655	2591.95
1008.948	2589.24
1009.242	2598.51
1009.535	2562.35
1009.829	2541.78
1010.122	2526.19
1010.415	2514.21
1010.708	2453.88
1011.001	2486.19
1011.295	2437.15
1011.588	2445.74
1011.881	2420.2
1012.173	2416.81
1012.466	2417.49
1012.759	2365.97
1013.052	2403.26
1013.344	2345.86
1013.637	2347.44
1013.93	2315.12
1014.222	2304.28
1014.514	2316.25
1014.807	2278.97
1015.099	2272.19
1015.391	2242.81
1015.683	2250.49
1015.976	2242.36
1016.268	2175.69
1016.56	2206.43
1016.851	2185.86
1017.143	2150.16
1017.435	2170.49
1017.727	2161.45
1018.018	2126.88
1018.31	2076.71
1018.602	2096.15
1018.893	2060.21
1019.185	2088.46
1019.476	2048.69
1019.767	2021.35
1020.058	2031.51
1020.35	2005.3
1020.641	1989.93
1020.932	1996.71
1021.223	1950.16
1021.514	1936.15
1021.804	1915.59
1022.095	1950.61
1022.386	1926.21
1022.677	1925.98
1022.967	1901.12
1023.258	1849.37
1023.548	1836.49
1023.839	1850.5
1024.129	1833.1
1024.419	1805.31
1024.709	1812.54
1025	1795.36
1025.29	1782.26
1025.58	1732.31
1025.87	1741.8
1026.16	1726.89
1026.449	1712.88
1026.739	1763.95
1027.029	1739.32
1027.319	1707.46
1027.608	1651.41
1027.898	1684.86
1028.187	1676.5
1028.477	1653.67
1028.766	1623.39
1029.055	1621.13
1029.344	1626.78
1029.634	1587.68
1029.923	1576.39
1030.212	1576.39
1030.501	1571.87
1030.79	1538.42
1031.078	1529.38
1031.367	1530.96
1031.656	1543.39
1031.945	1524.64
1032.233	1507.91
1032.522	1479.89
1032.81	1485.54
1033.099	1460.23
1033.387	1441.93
1033.675	1447.57
1033.963	1440.34
1034.251	1446.9
1034.54	1426.56
1034.828	1424.52
1035.116	1413.23
1035.403	1374.58
1035.691	1341.14
1035.979	1353.57
1036.267	1357.18
1036.554	1331.19
1036.842	1334.13
1037.129	1334.13
1037.417	1328.26
1037.704	1285.09
1037.992	1285.77
1038.279	1289.16
1038.566	1290.74
1038.853	1290.74
1039.14	1290.74
