Data from White_reflection_standard_Reflection_00019.txt Node
Date: Mon Feb 06 14:43:21 GMT 2017
User: dcchb
Spectrometer: FLMS00149
Trigger mode: 0
Integration Time (sec): 2.000000E-2
Scans to average: 10
Electric dark correction enabled: true
Nonlinearity correction enabled: false
Boxcar width: 0
XAxis mode: Wavelengths
Number of Pixels in Spectrum: 2048
>>>>>Begin Spectral Data<<<<<
341.393	-12.74
341.776	-12.74
342.16	-12.74
342.543	-27.59
342.927	-460.61
343.31	47.95
343.693	66.72
344.077	-220.95
344.46	278.36
344.843	336.65
345.226	331.21
345.61	14.59
345.993	79.77
346.376	-238.17
346.759	72.32
347.142	14.08
347.525	38.67
347.908	130.91
348.291	-10.57
348.674	36.88
349.057	263.58
349.44	192.41
349.823	-68.52
350.206	72.93
350.588	91.73
350.971	103.38
351.354	76.21
351.737	94.05
352.119	60.26
352.502	104.31
352.884	85.79
353.267	108.68
353.65	82.65
354.032	103.03
354.414	98.3
354.797	75.57
355.179	108.38
355.562	96.54
355.944	106.01
356.326	92.11
356.709	100.74
357.091	96.24
357.473	89.86
357.855	103.82
358.238	82.83
358.62	94.79
359.002	96.24
359.384	101.52
359.766	80.49
360.148	93.87
360.53	74.53
360.912	84.36
361.294	112.25
361.676	89.99
362.057	78.19
362.439	79.1
362.821	72.12
363.203	81.64
363.584	90.28
363.966	85.25
364.348	89.87
364.729	84.95
365.111	107.09
365.493	95.03
365.874	90.35
366.256	81.5
366.637	81.44
367.019	82.25
367.4	107.48
367.781	90.97
368.163	81.29
368.544	93
368.925	96.52
369.306	105.13
369.688	82.67
370.069	102.12
370.45	98.63
370.831	86.64
371.212	77.89
371.593	84.55
371.974	90.01
372.355	84.48
372.736	89.13
373.117	99.32
373.498	94.07
373.879	84.73
374.26	93.94
374.641	74.66
375.021	104.47
375.402	81.4
375.783	91.36
376.163	93.69
376.544	96.26
376.925	92.31
377.305	82.28
377.686	88.83
378.066	90.91
378.447	86.25
378.827	91.05
379.208	93.08
379.588	86.91
379.968	97.41
380.349	85.94
380.729	92.35
381.109	89.27
381.489	89.77
381.87	94.87
382.25	97.64
382.63	91.36
383.01	96.38
383.39	93.37
383.77	97.23
384.15	86.94
384.53	88.72
384.91	88.62
385.29	99.61
385.67	91.77
386.049	91.2
386.429	89.23
386.809	94.52
387.189	95.2
387.568	90.98
387.948	93.3
388.328	92.34
388.707	98.62
389.087	87.62
389.466	99.1
389.846	85.91
390.225	91.64
390.605	89
390.984	90.29
391.363	95.44
391.743	94.84
392.122	96.13
392.501	92
392.881	89.78
393.26	87.22
393.639	93.37
394.018	94.15
394.397	94.21
394.776	95.53
395.155	91.23
395.534	95.88
395.913	86.85
396.292	88.58
396.671	95.4
397.05	96.55
397.429	95.01
397.808	92.11
398.186	89.25
398.565	93.33
398.944	94.17
399.323	94.41
399.701	89.8
400.08	92.15
400.458	91.86
400.837	96.85
401.215	94.35
401.594	91.81
401.972	90.66
402.351	90.45
402.729	95.58
403.107	95.46
403.486	94.87
403.864	90.9
404.242	98.14
404.62	94.75
404.999	89.83
405.377	91.04
405.755	94.87
406.133	93.29
406.511	93.08
406.889	94.14
407.267	92.97
407.645	93.66
408.023	93.54
408.401	93.6
408.779	93
409.156	93.33
409.534	92.63
409.912	89.82
410.29	94.3
410.667	94.99
411.045	91.7
411.422	91.94
411.8	91.99
412.178	94.93
412.555	93.31
412.933	92.26
413.31	92.67
413.687	91.44
414.065	93.48
414.442	92.37
414.819	94.47
415.197	93.79
415.574	93.58
415.951	93.46
416.328	94.6
416.705	92.86
417.082	91.47
417.46	91.18
417.837	93.13
418.214	95.41
418.591	92.6
418.967	90.52
419.344	91.18
419.721	93.04
420.098	94.27
420.475	92.89
420.852	94.61
421.228	92.08
421.605	93.45
421.982	92.51
422.358	92.1
422.735	95.23
423.111	94.63
423.488	93.47
423.864	93.36
424.241	92.16
424.617	94.28
424.994	91.56
425.37	93.15
425.746	93.2
426.123	93.74
426.499	92.99
426.875	93.87
427.251	92.76
427.627	93.06
428.003	92.23
428.379	94.17
428.756	93.42
429.132	93.99
429.507	92.83
429.883	91.61
430.259	93.58
430.635	93.16
431.011	92.86
431.387	93.48
431.763	93.62
432.138	93.71
432.514	95.2
432.89	93.85
433.265	94.46
433.641	93.73
434.016	95.08
434.392	93.41
434.767	93.75
435.143	93.75
435.518	93.03
435.894	92.23
436.269	93.22
436.644	93.86
437.02	92.03
437.395	95.68
437.77	95.14
438.145	93.23
438.52	92.63
438.895	92.54
439.271	92.55
439.646	93.18
440.021	93.88
440.395	93.84
440.77	94.26
441.145	93.63
441.52	92.43
441.895	93.47
442.27	94.15
442.645	92.47
443.019	92.8
443.394	93.5
443.769	92.56
444.143	92.96
444.518	92.55
444.892	94.82
445.267	94.02
445.641	94.17
446.016	92.67
446.39	92.79
446.764	93.21
447.139	92.44
447.513	93.84
447.887	92.54
448.262	94.6
448.636	93.07
449.01	93.57
449.384	94.25
449.758	93.08
450.132	93.12
450.506	92.8
450.88	92.44
451.254	93.42
451.628	92.72
452.002	94
452.376	93.01
452.75	94.27
453.123	94.1
453.497	94.17
453.871	94.1
454.244	94
454.618	93.49
454.992	94.22
455.365	92.31
455.739	92.37
456.112	92.9
456.486	93.16
456.859	94.3
457.232	93.61
457.606	94.16
457.979	93.36
458.352	94.49
458.725	93.15
459.099	93.34
459.472	93.93
459.845	93.29
460.218	93.3
460.591	94.42
460.964	94.11
461.337	93.27
461.71	93.23
462.083	93.6
462.456	93.36
462.829	93.51
463.201	94.37
463.574	92.38
463.947	94.12
464.32	92.72
464.692	93.01
465.065	92.99
465.438	92.97
465.81	93.29
466.183	93.55
466.555	93.21
466.928	93.2
467.3	92.91
467.672	92.6
468.045	93.15
468.417	94.14
468.789	93.9
469.161	93.19
469.534	92.87
469.906	93.76
470.278	93.36
470.65	93.19
471.022	92.18
471.394	93.22
471.766	92.66
472.138	94.09
472.51	93.22
472.882	93.05
473.253	93.19
473.625	93.06
473.997	92.76
474.369	92.99
474.74	93.3
475.112	93.94
475.484	93.67
475.855	92.02
476.227	92.68
476.598	93.24
476.97	92.64
477.341	93.25
477.713	93.16
478.084	92.93
478.455	93.44
478.827	93.27
479.198	93.61
479.569	93.7
479.94	92.92
480.311	93.54
480.682	92.84
481.053	93.52
481.424	92.64
481.795	93.25
482.166	93.31
482.537	93.02
482.908	93.16
483.279	92.52
483.65	93.31
484.021	93.69
484.391	94.21
484.762	93.73
485.133	93.22
485.503	93.36
485.874	92.96
486.244	93.22
486.615	93.1
486.985	93.22
487.356	93.5
487.726	93.16
488.097	93.4
488.467	93.59
488.837	93.2
489.207	93.59
489.578	93.14
489.948	93.62
490.318	93.11
490.688	93.44
491.058	93.35
491.428	93.19
491.798	93.18
492.168	93.37
492.538	93.32
492.908	93.43
493.278	93.95
493.648	92.84
494.017	93.43
494.387	93.46
494.757	93.86
495.126	93.52
495.496	92.77
495.866	92.9
496.235	93.32
496.605	93.36
496.974	94.01
497.344	94.02
497.713	93.3
498.082	94.18
498.452	93.35
498.821	93.35
499.19	93.86
499.559	93.56
499.928	93.26
500.298	93.98
500.667	93.73
501.036	93.73
501.405	93.15
501.774	93.29
502.143	93.51
502.512	93.47
502.88	93.65
503.249	93.12
503.618	93.17
503.987	93.22
504.356	93.18
504.724	93.75
505.093	93.31
505.462	93.29
505.83	93.34
506.199	93.3
506.567	93.36
506.936	93.45
507.304	93.82
507.672	93.64
508.041	93.58
508.409	93.49
508.777	93.23
509.145	93.28
509.514	93.24
509.882	93.14
510.25	93.54
510.618	93.18
510.986	93.37
511.354	93.86
511.722	93.03
512.09	93.24
512.458	93.55
512.826	93.09
513.193	93.14
513.561	93.41
513.929	93.39
514.297	93.27
514.664	93.36
515.032	93.48
515.4	93.36
515.767	93.76
516.135	93.47
516.502	93.6
516.869	93.39
517.237	93.49
517.604	93.29
517.972	93.16
518.339	93.42
518.706	92.9
519.073	93.44
519.44	94.08
519.808	93.71
520.175	93.48
520.542	93.78
520.909	93.53
521.276	93.62
521.643	93.67
522.009	93.45
522.376	93.94
522.743	93.66
523.11	93.72
523.477	93.81
523.843	93.77
524.21	93.92
524.577	93.81
524.943	93.62
525.31	93.68
525.676	93.91
526.043	93.73
526.409	93.84
526.776	93.79
527.142	93.63
527.508	93.43
527.874	93.93
528.241	93.96
528.607	93.93
528.973	93.84
529.339	93.71
529.705	93.93
530.071	93.9
530.437	93.94
530.803	93.85
531.169	93.93
531.535	93.78
531.901	94.13
532.267	94.1
532.632	94.08
532.998	93.85
533.364	94.28
533.73	94.33
534.095	94.09
534.461	94.15
534.826	94.18
535.192	93.75
535.557	94.24
535.923	94.14
536.288	94.15
536.653	94.64
537.019	94.43
537.384	94.69
537.749	94.86
538.114	94.32
538.479	94.37
538.845	94.76
539.21	94.53
539.575	94.77
539.94	94.65
540.305	94.83
540.67	94.73
541.034	94.67
541.399	94.77
541.764	94.74
542.129	94.83
542.494	95.04
542.858	95.09
543.223	94.6
543.587	95.08
543.952	94.79
544.316	95.24
544.681	94.8
545.045	95.12
545.41	95.29
545.774	95.21
546.138	95.62
546.503	95.58
546.867	95.28
547.231	95.16
547.595	95.4
547.959	95.27
548.324	95.61
548.688	95.52
549.052	95.3
549.416	95.65
549.779	95.73
550.143	95.38
550.507	95.84
550.871	95.67
551.235	95.49
551.599	96
551.962	95.7
552.326	95.68
552.689	96.01
553.053	95.9
553.417	96
553.78	95.93
554.143	95.79
554.507	96
554.87	95.92
555.234	96.01
555.597	96.01
555.96	96.14
556.323	96.44
556.686	96.32
557.05	96.14
557.413	96.07
557.776	96.37
558.139	96.25
558.502	96.21
558.865	96.35
559.228	96.43
559.59	96.41
559.953	96.59
560.316	96.55
560.679	96.41
561.041	96.43
561.404	96.55
561.767	96.69
562.129	96.61
562.492	96.77
562.854	96.8
563.217	96.53
563.579	96.82
563.941	96.63
564.304	96.75
564.666	96.84
565.028	96.67
565.39	96.83
565.753	96.87
566.115	96.97
566.477	96.79
566.839	96.89
567.201	96.96
567.563	96.86
567.925	97.09
568.287	97.01
568.648	97.09
569.01	97.02
569.372	97.06
569.734	97.03
570.095	96.96
570.457	96.98
570.819	97.11
571.18	97.08
571.542	97.05
571.903	97.17
572.265	97.11
572.626	97.1
572.987	97.15
573.349	97.07
573.71	97.26
574.071	97.12
574.432	96.96
574.794	97.16
575.155	97.18
575.516	97.05
575.877	97.25
576.238	97.25
576.599	97.24
576.96	97.11
577.32	97.22
577.681	97.42
578.042	97.06
578.403	97.25
578.763	97.21
579.124	97.5
579.485	97.24
579.845	97.37
580.206	97.45
580.566	97.18
580.927	97.32
581.287	97.21
581.648	97.17
582.008	97.24
582.368	97.24
582.728	97.33
583.089	97.28
583.449	97.28
583.809	97.14
584.169	97.37
584.529	97.26
584.889	97.22
585.249	97.34
585.609	97.27
585.969	97.29
586.329	97.26
586.688	97.27
587.048	97.27
587.408	97.24
587.768	97.22
588.127	97.32
588.487	97.24
588.846	97.32
589.206	97.34
589.565	97.19
589.925	97.1
590.284	97.26
590.643	97.38
591.003	97.13
591.362	97.21
591.721	97.37
592.08	97.34
592.44	97.32
592.799	97.25
593.158	97.26
593.517	97.39
593.876	97.31
594.235	97.4
594.593	97.35
594.952	97.35
595.311	97.4
595.67	97.18
596.029	97.23
596.387	97.31
596.746	97.37
597.104	97.33
597.463	97.38
597.822	97.29
598.18	97.33
598.538	97.26
598.897	97.35
599.255	97.21
599.613	97.31
599.972	97.27
600.33	97.31
600.688	97.42
601.046	97.37
601.404	97.29
601.762	97.23
602.12	97.36
602.478	97.42
602.836	97.48
603.194	97.33
603.552	97.22
603.91	97.38
604.268	97.33
604.625	97.29
604.983	97.42
605.341	97.48
605.698	97.37
606.056	97.31
606.413	97.44
606.771	97.34
607.128	97.35
607.485	97.29
607.843	97.51
608.2	97.3
608.557	97.54
608.914	97.38
609.272	97.45
609.629	97.41
609.986	97.23
610.343	97.29
610.7	97.46
611.057	97.42
611.414	97.4
611.771	97.23
612.127	97.37
612.484	97.51
612.841	97.43
613.198	97.44
613.554	97.43
613.911	97.38
614.267	97.44
614.624	97.45
614.98	97.51
615.337	97.38
615.693	97.38
616.05	97.46
616.406	97.35
616.762	97.47
617.118	97.47
617.475	97.43
617.831	97.56
618.187	97.52
618.543	97.39
618.899	97.4
619.255	97.56
619.611	97.47
619.967	97.52
620.323	97.44
620.678	97.48
621.034	97.38
621.39	97.42
621.746	97.44
622.101	97.36
622.457	97.43
622.812	97.46
623.168	97.42
623.523	97.57
623.879	97.41
624.234	97.51
624.589	97.48
624.945	97.53
625.3	97.56
625.655	97.49
626.01	97.47
626.365	97.54
626.72	97.39
627.075	97.56
627.43	97.52
627.785	97.52
628.14	97.5
628.495	97.49
628.85	97.44
629.205	97.37
629.559	97.37
629.914	97.44
630.269	97.41
630.623	97.53
630.978	97.42
631.332	97.28
631.687	97.47
632.041	97.47
632.396	97.5
632.75	97.49
633.104	97.27
633.459	97.38
633.813	97.47
634.167	97.33
634.521	97.36
634.875	97.41
635.229	97.42
635.583	97.44
635.937	97.41
636.291	97.33
636.645	97.48
636.999	97.38
637.352	97.27
637.706	97.27
638.06	97.41
638.413	97.47
638.767	97.36
639.121	97.35
639.474	97.32
639.828	97.42
640.181	97.45
640.534	97.32
640.888	97.4
641.241	97.43
641.594	97.33
641.947	97.34
642.301	97.35
642.654	97.36
643.007	97.28
643.36	97.51
643.713	97.37
644.066	97.44
644.419	97.25
644.771	97.38
645.124	97.4
645.477	97.27
645.83	97.29
646.182	97.22
646.535	97.29
646.888	97.39
647.24	97.34
647.593	97.29
647.945	97.19
648.298	97.24
648.65	97.19
649.002	97.24
649.355	97.16
649.707	97.32
650.059	97.23
650.411	97.32
650.763	97.28
651.115	97.31
651.467	97.21
651.819	97.19
652.171	97.33
652.523	97.26
652.875	97.26
653.227	97.2
653.578	97.26
653.93	97.29
654.282	97.28
654.633	97.38
654.985	97.21
655.337	97.4
655.688	97.39
656.039	97.17
656.391	97.37
656.742	97.29
657.094	97.42
657.445	97.27
657.796	97.17
658.147	97.34
658.498	97.25
658.849	97.31
659.2	97.12
659.551	97.25
659.902	97.28
660.253	97.33
660.604	97.31
660.955	97.17
661.306	97.21
661.656	97.2
662.007	97.25
662.358	97.19
662.708	97.22
663.059	97.28
663.409	97.19
663.76	97.19
664.11	97.26
664.461	97.19
664.811	97.11
665.161	97.1
665.511	97.17
665.862	97.23
666.212	97.26
666.562	97.17
666.912	97.24
667.262	97.29
667.612	97.19
667.962	97.21
668.312	97.2
668.662	97.26
669.011	97.24
669.361	97.28
669.711	97.18
670.06	97.17
670.41	97.18
670.76	97.29
671.109	97.21
671.459	97.27
671.808	97.2
672.157	97.27
672.507	97.02
672.856	97.28
673.205	97.1
673.554	97.2
673.904	97.11
674.253	97.12
674.602	97.22
674.951	97.24
675.3	97.01
675.649	97.16
675.998	97.22
676.346	97.16
676.695	97.22
677.044	97.27
677.393	97.28
677.741	97.2
678.09	97.23
678.438	97.29
678.787	97.15
679.135	97.26
679.484	97.15
679.832	97.18
680.181	97.33
680.529	97.2
680.877	97.17
681.225	97.32
681.573	97.22
681.922	97.18
682.27	97.08
682.618	97.11
682.966	97.22
683.314	97.19
683.661	97.29
684.009	97.17
684.357	97.09
684.705	97.04
685.053	97.09
685.4	97.16
685.748	97.04
686.095	97.18
686.443	97.15
686.79	97.03
687.138	97.16
687.485	97.1
687.832	97.07
688.18	97.12
688.527	97.05
688.874	97
689.221	96.84
689.568	97.02
689.915	96.95
690.262	96.99
690.609	97.04
690.956	96.88
691.303	96.89
691.65	96.9
691.997	96.9
692.344	96.86
692.69	96.92
693.037	96.9
693.383	97.06
693.73	96.82
694.077	96.93
694.423	96.74
694.769	96.87
695.116	96.94
695.462	96.76
695.808	97.01
696.155	96.77
696.501	96.79
696.847	96.79
697.193	96.91
697.539	96.81
697.885	96.72
698.231	96.54
698.577	96.7
698.923	96.76
699.269	96.49
699.614	96.59
699.96	96.38
700.306	96.6
700.651	96.5
700.997	96.36
701.342	96.6
701.688	96.48
702.033	96.56
702.379	96.6
702.724	96.46
703.069	96.49
703.415	96.18
703.76	96.38
704.105	96.41
704.45	96.35
704.795	96.08
705.14	96.09
705.485	96.5
705.83	96.33
706.175	96.4
706.52	96.36
706.865	96.14
707.209	96.18
707.554	96.3
707.899	96.27
708.243	96.25
708.588	96.17
708.932	96.14
709.277	95.97
709.621	96.1
709.966	96.11
710.31	96.29
710.654	96.08
710.998	95.9
711.342	95.95
711.687	95.86
712.031	95.98
712.375	96.02
712.719	96.03
713.063	96.01
713.407	95.89
713.75	96.26
714.094	95.84
714.438	95.81
714.782	96.1
715.125	95.84
715.469	95.76
715.812	95.89
716.156	95.41
716.499	95.68
716.843	95.96
717.186	95.72
717.53	95.74
717.873	95.51
718.216	95.6
718.559	95.62
718.902	95.74
719.246	95.6
719.589	95.66
719.932	95.38
720.275	95.56
720.617	95.39
720.96	95.41
721.303	95.61
721.646	95.3
721.989	95.37
722.331	95.3
722.674	95.38
723.016	95.3
723.359	95.42
723.701	95.41
724.044	95.46
724.386	95.45
724.729	95.34
725.071	95.3
725.413	95.46
725.755	95.01
726.097	95.22
726.439	95.12
726.782	94.94
727.124	95.58
727.465	94.97
727.807	95.1
728.149	95.26
728.491	94.97
728.833	95.22
729.175	95.08
729.516	95.14
729.858	95.24
730.199	94.89
730.541	95.1
730.882	95.1
731.224	94.92
731.565	94.76
731.906	94.7
732.248	94.96
732.589	94.89
732.93	95.1
733.271	94.88
733.612	94.81
733.953	94.86
734.294	94.84
734.635	94.96
734.976	94.57
735.317	94.73
735.658	94.89
735.999	94.58
736.339	94.69
736.68	94.65
737.021	94.58
737.361	94.85
737.702	94.71
738.042	94.92
738.383	94.91
738.723	95.03
739.063	94.5
739.404	94.47
739.744	94.95
740.084	94.71
740.424	94.91
740.764	94.87
741.104	94.46
741.444	94.78
741.784	94.6
742.124	94.82
742.464	94.74
742.804	94.33
743.143	94.77
743.483	94.9
743.823	94.52
744.162	94.43
744.502	94.59
744.841	94.63
745.181	94.34
745.52	93.89
745.86	94.59
746.199	94.52
746.538	94.44
746.877	94.17
747.216	94.33
747.556	94.37
747.895	94.51
748.234	94.48
748.573	94.62
748.911	94.46
749.25	94.58
749.589	94.39
749.928	94.33
750.267	94.46
750.605	94.54
750.944	94.45
751.283	94.51
751.621	94.17
751.96	94.22
752.298	94.36
752.636	94.27
752.975	93.98
753.313	94.26
753.651	94.21
753.989	94.4
754.327	94.21
754.666	94.17
755.004	93.92
755.342	94.01
755.679	94.01
756.017	94.47
756.355	93.99
756.693	94.4
757.031	94.5
757.368	94.33
757.706	94.15
758.044	94.33
758.381	94.23
758.719	94.22
759.056	94.23
759.394	94.01
759.731	94.18
760.068	94.51
760.405	94.02
760.743	94.28
761.08	94.23
761.417	94.38
761.754	94.26
762.091	93.85
762.428	94.07
762.765	93.97
763.102	93.85
763.438	94.32
763.775	94.34
764.112	93.75
764.449	93.95
764.785	93.93
765.122	93.45
765.458	94.07
765.795	93.76
766.131	94.06
766.467	93.6
766.804	94.04
767.14	93.89
767.476	93.88
767.812	93.89
768.148	94.11
768.485	94.02
768.821	93.55
769.157	93.87
769.492	93.92
769.828	93.39
770.164	93.89
770.5	93.71
770.836	94.12
771.171	93.8
771.507	94.02
771.842	93.91
772.178	94.07
772.513	94.05
772.849	93.9
773.184	93.88
773.519	93.88
773.855	94.05
774.19	94.1
774.525	94
774.86	93.99
775.195	93.9
775.53	93.93
775.865	93.75
776.2	93.71
776.535	93.5
776.87	94.05
777.205	93.71
777.539	93.99
777.874	93.91
778.209	94.12
778.543	93.88
778.878	94.36
779.212	93.81
779.547	93.9
779.881	94.06
780.215	93.78
780.55	93.64
780.884	93.46
781.218	93.61
781.552	93.77
781.886	93.97
782.22	94.17
782.554	93.27
782.888	94.34
783.222	94.29
783.556	93.74
783.889	94
784.223	93.73
784.557	93.78
784.89	93.97
785.224	93.89
785.557	93.83
785.891	94.12
786.224	94.16
786.558	94.29
786.891	93.64
787.224	93.75
787.557	94.1
787.891	94.4
788.224	94.26
788.557	94.07
788.89	93.96
789.223	93.42
789.556	93.79
789.888	94.03
790.221	93.37
790.554	93.71
790.887	94.09
791.219	94.06
791.552	93.74
791.884	93.56
792.217	93.36
792.549	93.82
792.882	94.23
793.214	93.44
793.546	93.63
793.879	93.6
794.211	93.4
794.543	93.96
794.875	93.97
795.207	93.94
795.539	93.73
795.871	93.82
796.203	93.93
796.535	93.94
796.867	94.04
797.198	93.71
797.53	93.93
797.862	93.56
798.193	93.6
798.525	94.13
798.856	93.71
799.188	93.94
799.519	93.34
799.85	94.28
800.182	93.67
800.513	93.7
800.844	93.91
801.175	93.33
801.506	93.97
801.837	94.07
802.168	93.91
802.499	94
802.83	93.7
803.161	94.05
803.491	94.09
803.822	93.76
804.153	93.91
804.483	93.55
804.814	93.9
805.145	93.73
805.475	93.86
805.805	93.29
806.136	93.7
806.466	93.86
806.796	94.05
807.126	93.27
807.457	93.71
807.787	94.1
808.117	93.76
808.447	93.69
808.777	93.65
809.107	93.31
809.436	93.48
809.766	93.73
810.096	94.4
810.426	93.18
810.755	93.8
811.085	93.94
811.414	93.66
811.744	93.78
812.073	94.09
812.403	93.12
812.732	93.61
813.061	94.07
813.39	93.4
813.719	93.79
814.049	93.83
814.378	94.08
814.707	93.95
815.036	93.75
815.365	93.75
815.693	93.17
816.022	93.54
816.351	94.01
816.68	93.91
817.008	93.49
817.337	93.46
817.665	93.83
817.994	93.55
818.322	93.63
818.651	93.81
818.979	93.63
819.307	93.59
819.636	93.78
819.964	93.28
820.292	93.94
820.62	93.99
820.948	93.97
821.276	93.87
821.604	93.84
821.932	93.88
822.259	93.66
822.587	94.03
822.915	93.74
823.243	93.78
823.57	93.71
823.898	93.7
824.225	94.07
824.553	93.8
824.88	93.74
825.207	93.89
825.535	93.95
825.862	93.84
826.189	94.23
826.516	93.62
826.843	93.97
827.17	93.75
827.497	93.71
827.824	93.51
828.151	93.55
828.478	94.17
828.805	94.2
829.131	93.8
829.458	93.59
829.785	93.95
830.111	93.64
830.438	93.7
830.764	94.02
831.09	94.17
831.417	94.12
831.743	93.71
832.069	94.02
832.395	93.8
832.722	94.45
833.048	93.54
833.374	94.01
833.7	93.83
834.026	93.83
834.351	93.92
834.677	93.95
835.003	93.77
835.329	93.74
835.654	93.47
835.98	93.72
836.306	94.2
836.631	93.61
836.956	93.47
837.282	93.66
837.607	93.8
837.932	94
838.258	93.69
838.583	93.71
838.908	93.38
839.233	94.13
839.558	94.03
839.883	93.63
840.208	93.88
840.533	93.41
840.858	94.56
841.182	93.7
841.507	94.18
841.832	93.99
842.156	93.77
842.481	94.18
842.805	93.81
843.13	93.45
843.454	94.51
843.778	93.82
844.103	93.87
844.427	93.36
844.751	93.47
845.075	93.73
845.399	93.56
845.723	94.01
846.047	93.64
846.371	93.5
846.695	94.4
847.019	93.93
847.343	94.18
847.666	93.96
847.99	93.88
848.313	94.11
848.637	93.8
848.96	93.77
849.284	94.34
849.607	93.89
849.931	93.75
850.254	93.35
850.577	93.89
850.9	93.9
851.223	94.03
851.546	94.11
851.869	94.52
852.192	94.02
852.515	94.49
852.838	94.28
853.161	94.28
853.483	93.91
853.806	94.38
854.129	93.7
854.451	93.34
854.774	93.41
855.096	94.09
855.419	93.33
855.741	93.84
856.063	93.86
856.385	93.91
856.708	94.37
857.03	93.97
857.352	93.87
857.674	93.95
857.996	93.53
858.318	93.9
858.64	94.5
858.961	93.51
859.283	93.91
859.605	94.84
859.926	94.09
860.248	94.14
860.57	94.07
860.891	93.3
861.212	94.48
861.534	93.77
861.855	94.14
862.176	94.67
862.498	93.86
862.819	94.56
863.14	94.23
863.461	94.51
863.782	93.81
864.103	94.3
864.424	94.26
864.745	94.15
865.065	94.08
865.386	93.17
865.707	94.22
866.027	93.91
866.348	93.37
866.668	93.58
866.989	93.94
867.309	94.52
867.63	94.2
867.95	94.13
868.27	93.68
868.59	94.23
868.91	93.41
869.23	93.32
869.55	94.11
869.87	93.8
870.19	93.75
870.51	94.37
870.83	94.24
871.15	94.13
871.469	93.45
871.789	93.92
872.109	94.47
872.428	94.58
872.748	93.8
873.067	94.18
873.386	94.06
873.706	93.72
874.025	93.5
874.344	93.87
874.663	93.72
874.982	94.6
875.301	93.31
875.62	93.3
875.939	94.33
876.258	93.53
876.577	93.65
876.896	94
877.214	93.67
877.533	93.97
877.852	93.74
878.17	94
878.489	93.8
878.807	93.56
879.125	93.42
879.444	93.28
879.762	94.03
880.08	93.24
880.398	93.92
880.716	93.86
881.034	93.27
881.352	93.95
881.67	93.31
881.988	93.62
882.306	93.76
882.624	93.54
882.941	93.07
883.259	93.97
883.577	93.74
883.894	94.24
884.212	93.74
884.529	93.83
884.846	92.84
885.164	94.17
885.481	93.69
885.798	93.79
886.115	93.94
886.432	94.03
886.75	93.81
887.067	93.41
887.383	93.97
887.7	94.05
888.017	93.79
888.334	93.62
888.651	93.14
888.967	94.71
889.284	93.74
889.6	93.78
889.917	93.29
890.233	93.59
890.55	93.53
890.866	94.14
891.182	94.08
891.498	94.19
891.815	93.65
892.131	94.2
892.447	93.22
892.763	93.78
893.079	93.33
893.395	93.69
893.71	94.43
894.026	93.49
894.342	93.32
894.657	93.93
894.973	93.68
895.289	93.81
895.604	93.29
895.92	93.01
896.235	94.11
896.55	93.77
896.865	93.61
897.181	93.6
897.496	94.65
897.811	93.82
898.126	93.97
898.441	94.55
898.756	94.06
899.071	93.75
899.386	94.44
899.7	93.72
900.015	94.09
900.33	93.33
900.644	93.95
900.959	93.49
901.273	93.93
901.588	94.17
901.902	93.13
902.216	93.91
902.531	94.41
902.845	93.57
903.159	93.66
903.473	93.6
903.787	94.83
904.101	93.9
904.415	94.4
904.729	93.78
905.042	94.27
905.356	93.91
905.67	94.03
905.984	94.01
906.297	93.88
906.611	93.5
906.924	93.75
907.237	93.76
907.551	94.33
907.864	94.76
908.177	94.37
908.491	94.21
908.804	93.84
909.117	94.2
909.43	94
909.743	93.5
910.056	94.37
910.368	93.55
910.681	94.23
910.994	93.72
911.307	94.08
911.619	93.73
911.932	93.49
912.244	94.24
912.557	94.2
912.869	93.85
913.181	94.47
913.494	93.88
913.806	93.89
914.118	94.73
914.43	94.68
914.742	93.87
915.054	94.4
915.366	93.72
915.678	94.25
915.99	94.13
916.302	92.91
916.613	94.25
916.925	93.89
917.236	93.25
917.548	93.36
917.859	93.19
918.171	94.26
918.482	94.39
918.794	93.74
919.105	93.65
919.416	93.6
919.727	93.27
920.038	94.02
920.349	93.61
920.66	93.99
920.971	93.54
921.282	93.71
921.593	93.66
921.903	93.93
922.214	93.51
922.525	94.66
922.835	94.6
923.146	94.44
923.456	93.36
923.767	93.44
924.077	93.45
924.387	93.72
924.697	94
925.008	94.29
925.318	94.04
925.628	94.64
925.938	93.15
926.248	92.89
926.558	93.29
926.867	93.57
927.177	93.67
927.487	94.01
927.796	94.48
928.106	93.4
928.416	94.16
928.725	94.19
929.034	93.86
929.344	94.26
929.653	93.39
929.962	94.28
930.271	94.41
930.581	93.78
930.89	93.62
931.199	93.38
931.508	93.55
931.817	94.33
932.125	94.31
932.434	93.88
932.743	93.74
933.051	93.78
933.36	93.53
933.669	93.41
933.977	93.59
934.286	94.32
934.594	94.51
934.902	93.81
935.21	92.96
935.519	93.23
935.827	93.46
936.135	93.86
936.443	93.62
936.751	93.74
937.059	94.15
937.367	93.81
937.674	93.66
937.982	94.28
938.29	93.76
938.597	93.06
938.905	95.11
939.213	93.8
939.52	93.86
939.827	94.26
940.135	92.82
940.442	94.17
940.749	93.46
941.056	93.68
941.363	93.53
941.67	94.22
941.977	93.23
942.284	94.1
942.591	95.16
942.898	94.26
943.205	94.13
943.511	93.19
943.818	95.26
944.125	93.13
944.431	94.22
944.738	94.06
945.044	94.43
945.35	95.21
945.657	94.1
945.963	94.57
946.269	93.16
946.575	94.69
946.881	94.08
947.187	94.75
947.493	93.3
947.799	93.75
948.105	94.95
948.41	94.29
948.716	93.98
949.022	94.17
949.327	94.72
949.633	94.38
949.938	92.95
950.244	93.64
950.549	93.11
950.854	94.62
951.16	94.29
951.465	93.49
951.77	94.71
952.075	93.9
952.38	93.14
952.685	94.29
952.99	93.92
953.294	94.38
953.599	94.24
953.904	94.26
954.209	92.09
954.513	94.22
954.818	93.94
955.122	93.8
955.426	93.94
955.731	94.11
956.035	94.54
956.339	93.39
956.643	94.58
956.948	95.29
957.252	94.33
957.556	93.27
957.86	95.64
958.163	93.7
958.467	95.94
958.771	92.83
959.075	94.87
959.378	93.68
959.682	93.91
959.985	92.72
960.289	95.12
960.592	93.52
960.896	93.42
961.199	93.72
961.502	93.73
961.805	94.51
962.108	93.56
962.411	94.15
962.714	93.76
963.017	93.64
963.32	93
963.623	94
963.926	93.85
964.228	93.64
964.531	93.31
964.833	93.31
965.136	93.83
965.438	94.03
965.741	92.8
966.043	94.79
966.345	93.76
966.648	93.57
966.95	93.62
967.252	94.51
967.554	93.74
967.856	94.12
968.158	92.7
968.46	93.09
968.761	94.5
969.063	93.94
969.365	93.26
969.666	94.44
969.968	93.25
970.269	94.65
970.571	94.36
970.872	94.51
971.174	94.15
971.475	94.99
971.776	94.15
972.077	94.19
972.378	94.01
972.679	95.02
972.98	95.08
973.281	94.38
973.582	92.96
973.883	94.4
974.183	93.42
974.484	93.23
974.785	93.37
975.085	92.99
975.386	93.74
975.686	94.48
975.986	94.57
976.287	94.18
976.587	94.4
976.887	94.74
977.187	93.64
977.487	94.05
977.787	94.87
978.087	94.02
978.387	93.26
978.687	95.14
978.987	94.44
979.286	94.84
979.586	93.55
979.885	94.1
980.185	93.35
980.484	93.51
980.784	94.61
981.083	94.35
981.382	95.17
981.682	92.91
981.981	93.81
982.28	93.43
982.579	93.95
982.878	93.43
983.177	94.5
983.475	92.58
983.774	94.2
984.073	94.36
984.372	93.73
984.67	94.94
984.969	95.14
985.267	93.79
985.566	93.47
985.864	94.13
986.162	93.85
986.461	93.43
986.759	94.65
987.057	94.22
987.355	93.99
987.653	93.07
987.951	94.3
988.249	93.29
988.547	95.2
988.844	94.31
989.142	94.41
989.44	93.7
989.737	94.61
990.035	93.92
990.332	94.75
990.63	93.35
990.927	93.47
991.224	95.04
991.521	95.51
991.819	93.75
992.116	94.85
992.413	93.94
992.71	94.41
993.006	94.82
993.303	94.75
993.6	94.35
993.897	94.11
994.193	93.43
994.49	93.61
994.787	94.48
995.083	95.16
995.379	93.78
995.676	93.02
995.972	94.63
996.268	93.17
996.565	93.48
996.861	94.73
997.157	93.03
997.453	91.76
997.749	96.02
998.044	93.77
998.34	95.26
998.636	94
998.932	93.43
999.227	94.05
999.523	92.71
999.818	94.49
1000.114	93.39
1000.409	95.01
1000.704	94.61
1001	93.51
1001.295	94.05
1001.59	92.55
1001.885	93.36
1002.18	92.31
1002.475	92.47
1002.77	93.08
1003.065	93.69
1003.359	93.39
1003.654	95.05
1003.949	94.76
1004.243	94.63
1004.538	94.67
1004.832	93.28
1005.127	93.53
1005.421	94.77
1005.715	94.76
1006.009	94.99
1006.304	93.82
1006.598	95.66
1006.892	91.51
1007.186	93.32
1007.48	94.47
1007.773	92.91
1008.067	94.96
1008.361	93.19
1008.655	94.53
1008.948	94.97
1009.242	95.47
1009.535	92.31
1009.829	94.83
1010.122	95.43
1010.415	93.33
1010.708	93.86
1011.001	93.89
1011.295	93.63
1011.588	93.11
1011.881	93.15
1012.173	95.11
1012.466	92.44
1012.759	93.67
1013.052	92.14
1013.344	95.44
1013.637	93.22
1013.93	92.26
1014.222	93.85
1014.514	94.38
1014.807	94.74
1015.099	93.1
1015.391	93.74
1015.683	96.49
1015.976	93.87
1016.268	93.2
1016.56	95.32
1016.851	92.56
1017.143	94.52
1017.435	93.63
1017.727	92.87
1018.018	92.5
1018.31	92.99
1018.602	93.49
1018.893	93.65
1019.185	95.46
1019.476	95.11
1019.767	95.59
1020.058	91.94
1020.35	94.74
1020.641	95.69
1020.932	92.95
1021.223	93.67
1021.514	93.22
1021.804	92.87
1022.095	94.12
1022.386	94.11
1022.677	95.72
1022.967	94.58
1023.258	94.2
1023.548	94.85
1023.839	92
1024.129	94.52
1024.419	96.49
1024.709	92.8
1025	97.04
1025.29	93.91
1025.58	94.05
1025.87	93.47
1026.16	94.38
1026.449	95.07
1026.739	97.52
1027.029	94.68
1027.319	93.25
1027.608	93.52
1027.898	92.38
1028.187	93.11
1028.477	96.05
1028.766	95.44
1029.055	96.08
1029.344	94.5
1029.634	94.02
1029.923	96.79
1030.212	95.82
1030.501	94.38
1030.79	93.44
1031.078	93.08
1031.367	97.66
1031.656	95.75
1031.945	93.65
1032.233	94.17
1032.522	93.31
1032.81	93.71
1033.099	96.52
1033.387	92.43
1033.675	91.29
1033.963	92.08
1034.251	93.37
1034.54	95.36
1034.828	96.07
1035.116	95.57
1035.403	98.18
1035.691	95.06
1035.979	94.59
1036.267	92.11
1036.554	90.45
1036.842	95.27
1037.129	89.55
1037.417	93
1037.704	93.96
1037.992	94.16
1038.279	91.35
1038.566	95.6
1038.853	95.6
1039.14	95.6
