Data from White_reflection_standard_Reflection_00003.txt Node
Date: Mon Feb 06 14:42:24 GMT 2017
User: dcchb
Spectrometer: FLMS00149
Trigger mode: 0
Integration Time (sec): 2.000000E-2
Scans to average: 10
Electric dark correction enabled: true
Nonlinearity correction enabled: false
Boxcar width: 0
XAxis mode: Wavelengths
Number of Pixels in Spectrum: 2048
>>>>>Begin Spectral Data<<<<<
341.393	-114.62
341.776	-114.62
342.16	-114.62
342.543	-6.71
342.927	-1236.36
343.31	-320.5
343.693	155.69
344.077	50.29
344.46	554.52
344.843	-640.72
345.226	371.97
345.61	-56.46
345.993	137.51
346.376	-567.94
346.759	-52.14
347.142	117.95
347.525	114.29
347.908	730.18
348.291	-637.89
348.674	49.29
349.057	-578.03
349.44	206.43
349.823	-29.37
350.206	96.2
350.588	102.24
350.971	91.68
351.354	101.3
351.737	111.9
352.119	100.6
352.502	88.53
352.884	96.72
353.267	115.49
353.65	92.48
354.032	95.51
354.414	135.94
354.797	79.39
355.179	134.03
355.562	54.84
355.944	96.04
356.326	88.06
356.709	97.29
357.091	98.32
357.473	93.32
357.855	118.64
358.238	100.89
358.62	86.84
359.002	98.34
359.384	74.14
359.766	88.75
360.148	111.35
360.53	75.88
360.912	99.58
361.294	99.41
361.676	93.39
362.057	99.38
362.439	100.56
362.821	69.05
363.203	93.31
363.584	98.52
363.966	92.58
364.348	94.96
364.729	83.46
365.111	119.13
365.493	93.31
365.874	81.93
366.256	80.77
366.637	80.64
367.019	94.87
367.4	90.46
367.781	93.83
368.163	78
368.544	100.97
368.925	82.9
369.306	94.95
369.688	92.52
370.069	89.83
370.45	89.72
370.831	100.97
371.212	90.14
371.593	95.35
371.974	94.61
372.355	78.87
372.736	93.12
373.117	100.54
373.498	91.41
373.879	89.26
374.26	92.67
374.641	88.65
375.021	102.2
375.402	94.83
375.783	87.96
376.163	93
376.544	96.73
376.925	104.45
377.305	80.35
377.686	89.5
378.066	95.67
378.447	88.41
378.827	88.14
379.208	91.88
379.588	87.12
379.968	95.64
380.349	92.29
380.729	93.26
381.109	90.2
381.489	86.26
381.87	97.63
382.25	94.1
382.63	92.46
383.01	95.34
383.39	87.57
383.77	96.07
384.15	88.65
384.53	84.44
384.91	96.14
385.29	99.56
385.67	91.87
386.049	96.25
386.429	85.2
386.809	93.84
387.189	94.5
387.568	95.68
387.948	96.04
388.328	91.25
388.707	100.41
389.087	90.77
389.466	93.19
389.846	82.62
390.225	94.01
390.605	92.03
390.984	87.62
391.363	95.35
391.743	94.48
392.122	95.73
392.501	92.99
392.881	89.89
393.26	90.46
393.639	93.22
394.018	91.38
394.397	98.16
394.776	95.35
395.155	90.12
395.534	91.3
395.913	90.68
396.292	91.97
396.671	98.24
397.05	92.5
397.429	91.99
397.808	87.58
398.186	92.42
398.565	92.4
398.944	97.44
399.323	93.57
399.701	90.97
400.08	92.36
400.458	95.98
400.837	96.99
401.215	96.84
401.594	92.79
401.972	91.58
402.351	90.14
402.729	94.31
403.107	92.32
403.486	93.04
403.864	88.75
404.242	93.53
404.62	93.34
404.999	91
405.377	88.3
405.755	94.35
406.133	95.5
406.511	92.73
406.889	97.81
407.267	92.97
407.645	95.68
408.023	92.79
408.401	94.49
408.779	93.8
409.156	94.07
409.534	94.41
409.912	92.54
410.29	92.99
410.667	95.65
411.045	94.1
411.422	94.31
411.8	92.22
412.178	93.77
412.555	93.5
412.933	94.33
413.31	93.35
413.687	92.03
414.065	95.97
414.442	90.46
414.819	92.57
415.197	96.71
415.574	93.71
415.951	95.12
416.328	91.37
416.705	93.01
417.082	93.62
417.46	93.01
417.837	94.64
418.214	94
418.591	93.97
418.967	91.73
419.344	92.53
419.721	93.95
420.098	94.24
420.475	96.26
420.852	95.23
421.228	92.09
421.605	93
421.982	93.08
422.358	93.17
422.735	94.05
423.111	93.22
423.488	92.81
423.864	95.13
424.241	93.27
424.617	95.1
424.994	92.45
425.37	93.03
425.746	94.3
426.123	96.49
426.499	93.28
426.875	93
427.251	93.26
427.627	94.66
428.003	93.36
428.379	93.41
428.756	93.22
429.132	92.31
429.507	93.92
429.883	92.76
430.259	92.24
430.635	92.21
431.011	94.39
431.387	93.1
431.763	94.35
432.138	94.95
432.514	93.44
432.89	93.24
433.265	95.09
433.641	93.02
434.016	94.92
434.392	93.33
434.767	94.8
435.143	94.29
435.518	94.61
435.894	92.05
436.269	93.33
436.644	94.03
437.02	93.04
437.395	95.05
437.77	95.22
438.145	92.91
438.52	93.23
438.895	93.24
439.271	94.58
439.646	94.5
440.021	94.47
440.395	95.01
440.77	93.43
441.145	93.37
441.52	92.92
441.895	94.12
442.27	93.55
442.645	91.21
443.019	93.74
443.394	93.94
443.769	93.79
444.143	94.01
444.518	92.89
444.892	92.2
445.267	93.38
445.641	93.03
446.016	93.83
446.39	94.17
446.764	93.74
447.139	93.19
447.513	93.97
447.887	92.62
448.262	94.86
448.636	94.01
449.01	92.79
449.384	93.68
449.758	92.63
450.132	93.06
450.506	94.83
450.88	92.26
451.254	92.54
451.628	92.85
452.002	94.85
452.376	93.19
452.75	94.51
453.123	94.89
453.497	93.51
453.871	93.56
454.244	93.42
454.618	93.61
454.992	94.66
455.365	93.8
455.739	92.41
456.112	93
456.486	93.61
456.859	94.68
457.232	93.7
457.606	92.92
457.979	93.79
458.352	93.06
458.725	92.87
459.099	93.46
459.472	93.68
459.845	93.38
460.218	93.62
460.591	94.49
460.964	94.03
461.337	92.95
461.71	92.98
462.083	93.61
462.456	93.02
462.829	93.11
463.201	93.57
463.574	93.4
463.947	93.26
464.32	94.1
464.692	93.46
465.065	92.89
465.438	93.19
465.81	93.37
466.183	93.9
466.555	93.14
466.928	93.58
467.3	93.64
467.672	93.37
468.045	93.3
468.417	94.1
468.789	93.47
469.161	93.04
469.534	93.19
469.906	94.5
470.278	93.2
470.65	93
471.022	92.62
471.394	93.36
471.766	92.1
472.138	93.62
472.51	92.62
472.882	93.37
473.253	93.47
473.625	93.16
473.997	93.16
474.369	93.44
474.74	93.17
475.112	93.51
475.484	93.15
475.855	92.62
476.227	92.96
476.598	93.3
476.97	92.92
477.341	92.93
477.713	93.17
478.084	92.72
478.455	93.35
478.827	92.79
479.198	92.69
479.569	93.96
479.94	93.22
480.311	93.9
480.682	93.08
481.053	93.05
481.424	92.53
481.795	93.66
482.166	93.49
482.537	93.01
482.908	92.82
483.279	93.23
483.65	93.13
484.021	93.25
484.391	94.15
484.762	94.17
485.133	92.82
485.503	93.37
485.874	93.08
486.244	93.65
486.615	93.28
486.985	93.55
487.356	93.05
487.726	93.49
488.097	93.26
488.467	93.84
488.837	93.14
489.207	93.8
489.578	93.22
489.948	93.62
490.318	93.22
490.688	93.82
491.058	93.79
491.428	93.74
491.798	93.34
492.168	92.78
492.538	93.24
492.908	93.35
493.278	94.45
493.648	93.23
494.017	93.53
494.387	93.47
494.757	94.05
495.126	93.33
495.496	93.09
495.866	93.42
496.235	93.61
496.605	93.04
496.974	93.34
497.344	94.25
497.713	93.19
498.082	94.15
498.452	93.65
498.821	93.06
499.19	93.54
499.559	93.05
499.928	93.57
500.298	93.34
500.667	93.97
501.036	93.88
501.405	93.25
501.774	93.3
502.143	93.46
502.512	93.31
502.88	93.33
503.249	93.36
503.618	93.45
503.987	93.19
504.356	93.32
504.724	93.05
505.093	93.49
505.462	93.12
505.83	93.34
506.199	93.39
506.567	93.4
506.936	93.68
507.304	93.66
507.672	93.51
508.041	93.62
508.409	93.35
508.777	93.61
509.145	93.22
509.514	93.2
509.882	93.17
510.25	93.72
510.618	93.79
510.986	93.53
511.354	93.36
511.722	93.68
512.09	93.43
512.458	93.49
512.826	93.39
513.193	93.61
513.561	93.43
513.929	93.54
514.297	93.48
514.664	93.43
515.032	93.29
515.4	93.6
515.767	93.78
516.135	93.88
516.502	92.99
516.869	93.6
517.237	93.63
517.604	93.1
517.972	93.49
518.339	93.65
518.706	93.34
519.073	93.25
519.44	94.05
519.808	93.48
520.175	93.71
520.542	93.62
520.909	93.57
521.276	93.5
521.643	93.83
522.009	93.56
522.376	93.96
522.743	93.94
523.11	93.64
523.477	93.5
523.843	93.66
524.21	93.72
524.577	94.02
524.943	93.92
525.31	93.88
525.676	93.63
526.043	93.55
526.409	93.99
526.776	93.99
527.142	93.58
527.508	93.75
527.874	94.01
528.241	94.16
528.607	94.08
528.973	94.27
529.339	93.84
529.705	94.13
530.071	93.71
530.437	94.04
530.803	94.03
531.169	94.03
531.535	94.03
531.901	94.16
532.267	94.06
532.632	94.01
532.998	94.06
533.364	94.28
533.73	94.29
534.095	94.36
534.461	94.05
534.826	94.31
535.192	94.01
535.557	94.38
535.923	94.24
536.288	94.44
536.653	94.56
537.019	94.39
537.384	95.07
537.749	94.63
538.114	94.47
538.479	94.44
538.845	94.77
539.21	94.59
539.575	94.89
539.94	94.75
540.305	94.91
540.67	94.84
541.034	94.69
541.399	94.58
541.764	94.99
542.129	95
542.494	94.99
542.858	94.85
543.223	94.9
543.587	95.26
543.952	94.99
544.316	95.1
544.681	95.03
545.045	95.37
545.41	95.32
545.774	95.15
546.138	95.47
546.503	95.24
546.867	95.29
547.231	95.42
547.595	95.4
547.959	95.61
548.324	95.25
548.688	95.63
549.052	95.51
549.416	95.86
549.779	95.81
550.143	95.4
550.507	95.98
550.871	95.66
551.235	95.73
551.599	95.75
551.962	95.85
552.326	95.87
552.689	96.03
553.053	95.85
553.417	95.76
553.78	95.93
554.143	95.9
554.507	95.93
554.87	95.93
555.234	96.11
555.597	96.03
555.96	96.34
556.323	96.29
556.686	96.34
557.05	96.26
557.413	96.17
557.776	96.36
558.139	96.42
558.502	96.39
558.865	96.39
559.228	96.49
559.59	96.54
559.953	96.6
560.316	96.51
560.679	96.51
561.041	96.54
561.404	96.51
561.767	96.73
562.129	96.68
562.492	96.71
562.854	96.6
563.217	96.7
563.579	96.75
563.941	96.86
564.304	96.77
564.666	96.8
565.028	96.77
565.39	96.88
565.753	96.92
566.115	96.88
566.477	96.78
566.839	96.92
567.201	96.95
567.563	96.83
567.925	97.09
568.287	97.08
568.648	97.06
569.01	96.91
569.372	97.07
569.734	97.05
570.095	96.95
570.457	97.11
570.819	97.09
571.18	97.03
571.542	97.12
571.903	97.14
572.265	97.16
572.626	97.2
572.987	97.16
573.349	97.02
573.71	97.1
574.071	97.21
574.432	97.08
574.794	97.06
575.155	97.22
575.516	97.12
575.877	97.3
576.238	97.27
576.599	97.17
576.96	97.04
577.32	97.28
577.681	97.34
578.042	97.13
578.403	97.22
578.763	97.26
579.124	97.36
579.485	97.29
579.845	97.33
580.206	97.4
580.566	97.26
580.927	97.36
581.287	97.25
581.648	97.22
582.008	97.24
582.368	97.35
582.728	97.36
583.089	97.34
583.449	97.32
583.809	97.27
584.169	97.26
584.529	97.14
584.889	97.28
585.249	97.33
585.609	97.17
585.969	97.27
586.329	97.36
586.688	97.34
587.048	97.33
587.408	97.29
587.768	97.23
588.127	97.32
588.487	97.22
588.846	97.3
589.206	97.34
589.565	97.17
589.925	97.19
590.284	97.29
590.643	97.41
591.003	97.23
591.362	97.3
591.721	97.39
592.08	97.36
592.44	97.35
592.799	97.21
593.158	97.33
593.517	97.38
593.876	97.35
594.235	97.44
594.593	97.4
594.952	97.34
595.311	97.36
595.67	97.18
596.029	97.24
596.387	97.39
596.746	97.46
597.104	97.32
597.463	97.47
597.822	97.33
598.18	97.41
598.538	97.29
598.897	97.39
599.255	97.3
599.613	97.37
599.972	97.32
600.33	97.36
600.688	97.39
601.046	97.45
601.404	97.44
601.762	97.26
602.12	97.39
602.478	97.46
602.836	97.43
603.194	97.3
603.552	97.51
603.91	97.45
604.268	97.43
604.625	97.32
604.983	97.41
605.341	97.54
605.698	97.29
606.056	97.31
606.413	97.38
606.771	97.28
607.128	97.41
607.485	97.34
607.843	97.39
608.2	97.41
608.557	97.45
608.914	97.39
609.272	97.44
609.629	97.45
609.986	97.4
610.343	97.29
610.7	97.37
611.057	97.33
611.414	97.38
611.771	97.27
612.127	97.35
612.484	97.39
612.841	97.38
613.198	97.49
613.554	97.44
613.911	97.39
614.267	97.52
614.624	97.51
614.98	97.51
615.337	97.41
615.693	97.41
616.05	97.45
616.406	97.46
616.762	97.65
617.118	97.48
617.475	97.55
617.831	97.43
618.187	97.48
618.543	97.43
618.899	97.49
619.255	97.53
619.611	97.47
619.967	97.52
620.323	97.51
620.678	97.43
621.034	97.48
621.39	97.41
621.746	97.52
622.101	97.43
622.457	97.48
622.812	97.51
623.168	97.37
623.523	97.44
623.879	97.42
624.234	97.42
624.589	97.45
624.945	97.51
625.3	97.51
625.655	97.48
626.01	97.44
626.365	97.51
626.72	97.38
627.075	97.45
627.43	97.46
627.785	97.53
628.14	97.53
628.495	97.44
628.85	97.54
629.205	97.44
629.559	97.4
629.914	97.48
630.269	97.35
630.623	97.56
630.978	97.39
631.332	97.4
631.687	97.44
632.041	97.53
632.396	97.52
632.75	97.47
633.104	97.43
633.459	97.42
633.813	97.42
634.167	97.34
634.521	97.41
634.875	97.45
635.229	97.47
635.583	97.38
635.937	97.48
636.291	97.42
636.645	97.42
636.999	97.32
637.352	97.37
637.706	97.32
638.06	97.42
638.413	97.52
638.767	97.36
639.121	97.49
639.474	97.32
639.828	97.41
640.181	97.46
640.534	97.41
640.888	97.41
641.241	97.35
641.594	97.33
641.947	97.39
642.301	97.31
642.654	97.48
643.007	97.34
643.36	97.51
643.713	97.36
644.066	97.43
644.419	97.23
644.771	97.39
645.124	97.25
645.477	97.35
645.83	97.33
646.182	97.31
646.535	97.34
646.888	97.29
647.24	97.34
647.593	97.34
647.945	97.25
648.298	97.22
648.65	97.19
649.002	97.19
649.355	97.11
649.707	97.27
650.059	97.32
650.411	97.28
650.763	97.24
651.115	97.29
651.467	97.28
651.819	97.27
652.171	97.42
652.523	97.32
652.875	97.24
653.227	97.18
653.578	97.32
653.93	97.29
654.282	97.39
654.633	97.35
654.985	97.18
655.337	97.33
655.688	97.42
656.039	97.27
656.391	97.25
656.742	97.44
657.094	97.38
657.445	97.33
657.796	97.13
658.147	97.24
658.498	97.13
658.849	97.28
659.2	97.34
659.551	97.32
659.902	97.39
660.253	97.26
660.604	97.33
660.955	97.22
661.306	97.4
661.656	97.28
662.007	97.13
662.358	97.23
662.708	97.26
663.059	97.19
663.409	97.21
663.76	97.17
664.11	97.22
664.461	97.17
664.811	97.23
665.161	97.11
665.511	97.18
665.862	97.22
666.212	97.22
666.562	97.11
666.912	97.22
667.262	97.33
667.612	97.15
667.962	97.25
668.312	97.3
668.662	97.3
669.011	97.33
669.361	97.3
669.711	97.15
670.06	97.19
670.41	97.22
670.76	97.18
671.109	97.27
671.459	97.2
671.808	97.1
672.157	97.27
672.507	97.13
672.856	97.36
673.205	97.29
673.554	97.4
673.904	97.14
674.253	97.16
674.602	97.22
674.951	97.31
675.3	97.12
675.649	97.15
675.998	97.23
676.346	97.18
676.695	97.41
677.044	97.22
677.393	97.23
677.741	97.32
678.09	97.32
678.438	97.31
678.787	97.23
679.135	97.2
679.484	97.22
679.832	97.18
680.181	97.2
680.529	97.16
680.877	97.3
681.225	97.35
681.573	97.23
681.922	97.1
682.27	97.19
682.618	97.06
682.966	97.32
683.314	97.11
683.661	97.21
684.009	97.29
684.357	97.23
684.705	97.07
685.053	97.07
685.4	97.21
685.748	97.2
686.095	97.06
686.443	97.11
686.79	96.94
687.138	97.07
687.485	97.24
687.832	97.06
688.18	97.14
688.527	97.03
688.874	96.99
689.221	96.82
689.568	97.04
689.915	97.11
690.262	96.98
690.609	97.09
690.956	96.86
691.303	96.96
691.65	97.06
691.997	96.84
692.344	96.9
692.69	96.93
693.037	96.86
693.383	97.19
693.73	96.79
694.077	96.82
694.423	96.92
694.769	96.88
695.116	96.82
695.462	96.77
695.808	96.88
696.155	96.76
696.501	96.8
696.847	96.88
697.193	96.88
697.539	96.71
697.885	96.78
698.231	96.7
698.577	96.69
698.923	96.88
699.269	96.59
699.614	96.69
699.96	96.74
700.306	96.62
700.651	96.67
700.997	96.34
701.342	96.63
701.688	96.62
702.033	96.65
702.379	96.65
702.724	96.51
703.069	96.48
703.415	96.48
703.76	96.44
704.105	96.48
704.45	96.34
704.795	96.3
705.14	96.36
705.485	96.42
705.83	96.3
706.175	96.34
706.52	96.38
706.865	96.23
707.209	96.42
707.554	96.41
707.899	96.33
708.243	96.3
708.588	96.33
708.932	96.21
709.277	96.17
709.621	96.08
709.966	96.24
710.31	96.38
710.654	96.1
710.998	96.08
711.342	95.94
711.687	96.02
712.031	95.84
712.375	95.87
712.719	96.14
713.063	96.04
713.407	96.04
713.75	96.01
714.094	95.99
714.438	95.89
714.782	95.98
715.125	95.97
715.469	95.89
715.812	95.88
716.156	95.71
716.499	95.95
716.843	95.76
717.186	95.76
717.53	95.87
717.873	95.53
718.216	95.68
718.559	95.81
718.902	95.81
719.246	95.54
719.589	95.49
719.932	95.38
720.275	95.43
720.617	95.55
720.96	95.34
721.303	95.62
721.646	95.31
721.989	95.2
722.331	95.45
722.674	95.41
723.016	95.28
723.359	95.39
723.701	95.29
724.044	95.36
724.386	95.48
724.729	95.56
725.071	94.94
725.413	95.26
725.755	95.26
726.097	95.57
726.439	95.35
726.782	95.16
727.124	95.31
727.465	95
727.807	95.34
728.149	95.38
728.491	95.31
728.833	95.17
729.175	95.13
729.516	95.06
729.858	94.78
730.199	94.96
730.541	94.82
730.882	95.07
731.224	95.06
731.565	94.92
731.906	94.99
732.248	95.1
732.589	94.78
732.93	94.8
733.271	95.1
733.612	94.87
733.953	94.71
734.294	94.78
734.635	94.73
734.976	94.93
735.317	94.64
735.658	94.79
735.999	94.57
736.339	95.02
736.68	94.71
737.021	94.65
737.361	94.83
737.702	94.8
738.042	95.25
738.383	94.8
738.723	94.83
739.063	94.66
739.404	94.57
739.744	94.66
740.084	94.8
740.424	94.84
740.764	94.93
741.104	94.6
741.444	94.73
741.784	94.83
742.124	94.78
742.464	94.46
742.804	94.39
743.143	94.97
743.483	94.67
743.823	94.29
744.162	94.39
744.502	94.72
744.841	94.5
745.181	94.39
745.52	94.2
745.86	94.71
746.199	94.54
746.538	94.32
746.877	94.46
747.216	94.62
747.556	94.57
747.895	94.55
748.234	94.31
748.573	94.54
748.911	94.6
749.25	94.16
749.589	94.35
749.928	94.2
750.267	94.67
750.605	94.43
750.944	94.18
751.283	94.4
751.621	94.12
751.96	94.17
752.298	94.35
752.636	94.48
752.975	94.05
753.313	94.06
753.651	94.38
753.989	94.41
754.327	94.03
754.666	94.63
755.004	94.16
755.342	94.42
755.679	93.86
756.017	94.18
756.355	93.93
756.693	94.46
757.031	94.3
757.368	94.72
757.706	94.09
758.044	93.86
758.381	94.2
758.719	94.26
759.056	93.95
759.394	94.27
759.731	94.22
760.068	94.21
760.405	94.02
760.743	94.37
761.08	94.24
761.417	94.14
761.754	93.95
762.091	93.98
762.428	94.18
762.765	93.7
763.102	94.11
763.438	94.09
763.775	94.31
764.112	93.75
764.449	93.91
764.785	93.98
765.122	93.97
765.458	93.6
765.795	93.88
766.131	93.9
766.467	93.75
766.804	94.27
767.14	93.69
767.476	93.88
767.812	94.08
768.148	93.81
768.485	93.99
768.821	93.62
769.157	93.64
769.492	93.51
769.828	93.73
770.164	94.08
770.5	93.97
770.836	93.92
771.171	93.6
771.507	93.82
771.842	94.02
772.178	94.09
772.513	93.83
772.849	93.91
773.184	94.1
773.519	94.13
773.855	94.24
774.19	94.27
774.525	93.59
774.86	93.8
775.195	93.94
775.53	93.78
775.865	93.68
776.2	93.69
776.535	93.9
776.87	93.54
777.205	93.86
777.539	94.27
777.874	93.87
778.209	94.03
778.543	93.61
778.878	93.93
779.212	93.78
779.547	94.01
779.881	93.81
780.215	93.9
780.55	93.71
780.884	93.61
781.218	93.79
781.552	94.11
781.886	94.08
782.22	93.99
782.554	93.59
782.888	93.68
783.222	94.04
783.556	94.03
783.889	93.93
784.223	93.62
784.557	93.86
784.89	93.88
785.224	94.07
785.557	94.06
785.891	94.21
786.224	94.47
786.558	93.93
786.891	93.74
787.224	94.05
787.557	94.37
787.891	94.24
788.224	94.28
788.557	94.08
788.89	93.9
789.223	93.84
789.556	93.53
789.888	94.07
790.221	93.37
790.554	94
790.887	94.06
791.219	93.95
791.552	93.78
791.884	93.82
792.217	93.58
792.549	93.28
792.882	93.84
793.214	93.55
793.546	93.81
793.879	94.04
794.211	93.65
794.543	93.71
794.875	93.96
795.207	93.94
795.539	93.97
795.871	93.74
796.203	93.62
796.535	93.88
796.867	93.93
797.198	93.58
797.53	94.03
797.862	93.34
798.193	93.49
798.525	94.23
798.856	93.84
799.188	94.07
799.519	93.55
799.85	94.03
800.182	93.57
800.513	94.05
800.844	93.87
801.175	93.47
801.506	94.14
801.837	93.71
802.168	93.7
802.499	93.85
802.83	93.69
803.161	93.98
803.491	93.71
803.822	93.89
804.153	93.85
804.483	93.47
804.814	94.11
805.145	93.83
805.475	93.23
805.805	93.34
806.136	93.82
806.466	93.34
806.796	93.81
807.126	93.27
807.457	94.11
807.787	94.09
808.117	93.87
808.447	93.95
808.777	93.83
809.107	93.78
809.436	93.93
809.766	93.42
810.096	94.11
810.426	93.93
810.755	94.46
811.085	93.86
811.414	93.34
811.744	93.95
812.073	93.82
812.403	93.88
812.732	93.47
813.061	93.98
813.39	93.46
813.719	93.72
814.049	93.38
814.378	93.91
814.707	93.91
815.036	93.9
815.365	94.17
815.693	93.39
816.022	93.8
816.351	93.95
816.68	93.63
817.008	93.62
817.337	93.58
817.665	93.58
817.994	93.49
818.322	93.71
818.651	94.43
818.979	93.72
819.307	93.74
819.636	94
819.964	93.84
820.292	94.02
820.62	94.25
820.948	93.75
821.276	93.62
821.604	93.82
821.932	94.02
822.259	93.89
822.587	94.03
822.915	93.69
823.243	93.61
823.57	93.77
823.898	93.87
824.225	94.07
824.553	94.17
824.88	93.73
825.207	94.08
825.535	93.95
825.862	93.62
826.189	93.83
826.516	93.41
826.843	93.91
827.17	94.25
827.497	93.51
827.824	93.5
828.151	93.74
828.478	93.89
828.805	93.7
829.131	93.65
829.458	93.43
829.785	93.68
830.111	94.07
830.438	93.43
830.764	94.08
831.09	93.85
831.417	93.83
831.743	93.88
832.069	94.12
832.395	93.89
832.722	94.17
833.048	93.75
833.374	93.84
833.7	93.9
834.026	94.41
834.351	94.22
834.677	94.31
835.003	93.87
835.329	93.84
835.654	93.53
835.98	93.92
836.306	94.06
836.631	93.65
836.956	93.61
837.282	93.93
837.607	93.64
837.932	93.72
838.258	93.56
838.583	93.52
838.908	93.37
839.233	94.05
839.558	94.04
839.883	93.74
840.208	93.89
840.533	93.45
840.858	94.43
841.182	93.9
841.507	93.52
841.832	93.88
842.156	93.49
842.481	93.94
842.805	93.47
843.13	93.48
843.454	94.36
843.778	93.63
844.103	94.04
844.427	93.64
844.751	93.86
845.075	94.15
845.399	93.41
845.723	94.06
846.047	94.24
846.371	94.07
846.695	94.08
847.019	93.84
847.343	94.04
847.666	93.96
847.99	93.43
848.313	94.42
848.637	93.31
848.96	94.04
849.284	93.86
849.607	93.79
849.931	93.57
850.254	93.06
850.577	94.11
850.9	93.63
851.223	93.89
851.546	93.81
851.869	94.23
852.192	94.09
852.515	93.92
852.838	94.18
853.161	94.16
853.483	93.65
853.806	93.96
854.129	93.49
854.451	93.57
854.774	93.8
855.096	93.6
855.419	93.45
855.741	94.38
856.063	93.64
856.385	94.07
856.708	94.36
857.03	93.89
857.352	94.26
857.674	93.82
857.996	94.08
858.318	94.02
858.64	94.36
858.961	93.92
859.283	93.64
859.605	94.25
859.926	94.18
860.248	93.43
860.57	93.59
860.891	94
861.212	94.27
861.534	93.07
861.855	94.28
862.176	94.07
862.498	93.46
862.819	94.93
863.14	94.02
863.461	94.39
863.782	93.77
864.103	94.31
864.424	94.15
864.745	94.11
865.065	94
865.386	93.29
865.707	93.92
866.027	94.07
866.348	93.42
866.668	93.17
866.989	94.02
867.309	94.44
867.63	93.96
867.95	94.04
868.27	93.49
868.59	94.04
868.91	93.83
869.23	92.99
869.55	93.88
869.87	93.83
870.19	94.22
870.51	94.06
870.83	94.14
871.15	94.22
871.469	93.33
871.789	94.12
872.109	94
872.428	93.95
872.748	93.86
873.067	94.1
873.386	93.95
873.706	93.46
874.025	93.71
874.344	93.84
874.663	93.74
874.982	94.32
875.301	93.49
875.62	93.37
875.939	94.16
876.258	93.52
876.577	93.25
876.896	94.1
877.214	93.99
877.533	94.08
877.852	94.46
878.17	93.54
878.489	93.95
878.807	93.1
879.125	93.27
879.444	94.08
879.762	94.66
880.08	94.03
880.398	93.69
880.716	94.19
881.034	93.8
881.352	94.25
881.67	93.53
881.988	93.92
882.306	94
882.624	93.6
882.941	92.81
883.259	94.24
883.577	93.73
883.894	94.23
884.212	93.85
884.529	93.66
884.846	93.59
885.164	94.07
885.481	93.95
885.798	93.14
886.115	94.04
886.432	93.88
886.75	94.05
887.067	93.5
887.383	94.27
887.7	94.38
888.017	93.92
888.334	93.47
888.651	93.04
888.967	93.99
889.284	93.83
889.6	93.71
889.917	93.5
890.233	93.34
890.55	93.69
890.866	93.61
891.182	93.78
891.498	94.02
891.815	93.85
892.131	94.11
892.447	92.67
892.763	94.27
893.079	93.33
893.395	93.78
893.71	94.16
894.026	93.82
894.342	93.64
894.657	93.72
894.973	94.43
895.289	93.66
895.604	94.22
895.92	93.2
896.235	93.95
896.55	94.27
896.865	93.94
897.181	93.09
897.496	94.82
897.811	94.1
898.126	93.08
898.441	94.34
898.756	93.21
899.071	93.94
899.386	93.69
899.7	93.64
900.015	93.98
900.33	93.93
900.644	93.72
900.959	93.71
901.273	93.8
901.588	94.12
901.902	93.6
902.216	93.66
902.531	94.38
902.845	93.38
903.159	94.07
903.473	93.3
903.787	93.91
904.101	94.77
904.415	94.26
904.729	93.85
905.042	94.19
905.356	94.18
905.67	93.93
905.984	94.05
906.297	93.45
906.611	94.12
906.924	93.71
907.237	93.57
907.551	94.5
907.864	95.24
908.177	94.24
908.491	94.34
908.804	93.79
909.117	94.29
909.43	93.96
909.743	93.7
910.056	93.8
910.368	93.78
910.681	94.16
910.994	93.89
911.307	94.01
911.619	93.98
911.932	94.32
912.244	94.04
912.557	93.57
912.869	94.44
913.181	93.81
913.494	93.78
913.806	94.09
914.118	94.21
914.43	93.96
914.742	92.92
915.054	94.28
915.366	93.67
915.678	94.05
915.99	94.11
916.302	93.75
916.613	94.2
916.925	93.35
917.236	93.65
917.548	93.97
917.859	93.04
918.171	93.43
918.482	93.74
918.794	93.4
919.105	93.71
919.416	94.12
919.727	93.93
920.038	94.02
920.349	93.41
920.66	93.6
920.971	93.4
921.282	93.56
921.593	93.68
921.903	93.97
922.214	93.12
922.525	94.68
922.835	93.34
923.146	93.67
923.456	93.08
923.767	93.07
924.077	93.4
924.387	94.52
924.697	93.65
925.008	94.36
925.318	94.33
925.628	94.19
925.938	93.21
926.248	93.15
926.558	94.27
926.867	92.5
927.177	93.5
927.487	93.97
927.796	94.4
928.106	93.23
928.416	93.85
928.725	94.13
929.034	93.06
929.344	94
929.653	93.58
929.962	94.31
930.271	94.89
930.581	93.86
930.89	93.95
931.199	93.55
931.508	92.96
931.817	93.55
932.125	93.87
932.434	93.75
932.743	94.24
933.051	93.84
933.36	93.33
933.669	93.06
933.977	93.59
934.286	94.57
934.594	94.25
934.902	93.4
935.21	93.13
935.519	92.97
935.827	94.06
936.135	93.88
936.443	94.01
936.751	94.2
937.059	93.98
937.367	94.14
937.674	94.69
937.982	94.52
938.29	93.93
938.597	93.69
938.905	94.53
939.213	93.58
939.52	92.52
939.827	94.25
940.135	94.16
940.442	93.78
940.749	93.8
941.056	94.19
941.363	94.05
941.67	94.81
941.977	93.28
942.284	94.36
942.591	94.19
942.898	93.26
943.205	93.48
943.511	93.89
943.818	94.09
944.125	93.86
944.431	93.87
944.738	93.85
945.044	94.24
945.35	94.16
945.657	93.94
945.963	93.52
946.269	93.51
946.575	94.94
946.881	94.27
947.187	93.11
947.493	93.32
947.799	94.48
948.105	95.15
948.41	94.79
948.716	93.37
949.022	94.08
949.327	94.63
949.633	94.62
949.938	94.04
950.244	93.45
950.549	93.6
950.854	94.08
951.16	94.15
951.465	93.72
951.77	94.06
952.075	93.13
952.38	93.59
952.685	94.18
952.99	94.1
953.294	94.72
953.599	94.89
953.904	92.95
954.209	93.24
954.513	94.08
954.818	94.27
955.122	93.61
955.426	92.92
955.731	93.74
956.035	95.55
956.339	93.98
956.643	93.74
956.948	95.35
957.252	93.54
957.556	94.53
957.86	95.33
958.163	94.06
958.467	94.81
958.771	94.07
959.075	94.9
959.378	94.33
959.682	94.3
959.985	92.82
960.289	95.55
960.592	94.78
960.896	94.52
961.199	92.91
961.502	94.47
961.805	94.67
962.108	93.11
962.411	93.5
962.714	94.69
963.017	93.66
963.32	93.96
963.623	93.92
963.926	93.65
964.228	93.71
964.531	92.71
964.833	93.7
965.136	94.04
965.438	93.02
965.741	93.54
966.043	93.41
966.345	94.36
966.648	93.21
966.95	94.39
967.252	94.71
967.554	94.3
967.856	93.21
968.158	92.69
968.46	93.54
968.761	95.34
969.063	94.59
969.365	93.35
969.666	94.07
969.968	93.19
970.269	93.99
970.571	94.15
970.872	94.82
971.174	95.05
971.475	95.58
971.776	94.32
972.077	94.03
972.378	94.09
972.679	93.58
972.98	93.44
973.281	93.9
973.582	93.79
973.883	93.96
974.183	94.22
974.484	93.36
974.785	93.07
975.085	93.61
975.386	93.31
975.686	94.51
975.986	93.33
976.287	95.1
976.587	94.7
976.887	93.97
977.187	93.64
977.487	94.1
977.787	94.6
978.087	95.23
978.387	93.91
978.687	94.62
978.987	93.9
979.286	94.81
979.586	93.2
979.885	94.23
980.185	94.16
980.484	94.62
980.784	93.44
981.083	94.21
981.382	94.88
981.682	92.95
981.981	93.46
982.28	93.58
982.579	94.11
982.878	92.9
983.177	94.28
983.475	92.73
983.774	94.56
984.073	95.59
984.372	93.75
984.67	93.32
984.969	94.6
985.267	95.13
985.566	94.19
985.864	94.07
986.162	94.41
986.461	94.54
986.759	94.36
987.057	95.05
987.355	93.97
987.653	94.44
987.951	94.58
988.249	94.03
988.547	95.76
988.844	94.65
989.142	94.91
989.44	93.87
989.737	95.21
990.035	93.78
990.332	94.15
990.63	94.25
990.927	92.53
991.224	93.79
991.521	94.42
991.819	94.01
992.116	94.49
992.413	93.87
992.71	94.15
993.006	93.14
993.303	94.43
993.6	94.63
993.897	93.85
994.193	95.15
994.49	93.86
994.787	94.28
995.083	95.28
995.379	93.21
995.676	94.25
995.972	94.63
996.268	93.44
996.565	94.28
996.861	94.68
997.157	94.47
997.453	93.86
997.749	95.11
998.044	93.18
998.34	94.27
998.636	94.48
998.932	93.25
999.227	93.4
999.523	93
999.818	93.76
1000.114	92.98
1000.409	95.48
1000.704	94.16
1001	93.77
1001.295	94.13
1001.59	94.49
1001.885	93.33
1002.18	92.16
1002.475	93.05
1002.77	95.27
1003.065	94.27
1003.359	93.67
1003.654	93.74
1003.949	95.78
1004.243	95.91
1004.538	94.88
1004.832	93.43
1005.127	95.31
1005.421	93.16
1005.715	95.12
1006.009	94.41
1006.304	93.72
1006.598	95.67
1006.892	92.65
1007.186	94.63
1007.48	93.95
1007.773	92.74
1008.067	92.59
1008.361	94.95
1008.655	94.26
1008.948	93.73
1009.242	94.91
1009.535	92.66
1009.829	94.76
1010.122	94.07
1010.415	94.57
1010.708	94.93
1011.001	94.62
1011.295	94.07
1011.588	93.13
1011.881	93.67
1012.173	94.43
1012.466	92.69
1012.759	96.33
1013.052	93.67
1013.344	93.77
1013.637	96.37
1013.93	91.76
1014.222	95.57
1014.514	94.15
1014.807	95.69
1015.099	93.06
1015.391	94.38
1015.683	94.62
1015.976	93.89
1016.268	92.19
1016.56	92.38
1016.851	94.55
1017.143	95.73
1017.435	94.36
1017.727	95.29
1018.018	93.19
1018.31	93.29
1018.602	94.31
1018.893	94.75
1019.185	94.54
1019.476	93.8
1019.767	95.16
1020.058	93.09
1020.35	94.91
1020.641	93.64
1020.932	95.95
1021.223	93.98
1021.514	93.35
1021.804	90.78
1022.095	95.8
1022.386	93.46
1022.677	95.35
1022.967	94.68
1023.258	96.85
1023.548	94.28
1023.839	91.81
1024.129	93.88
1024.419	97.09
1024.709	93.75
1025	94.99
1025.29	92.81
1025.58	92.99
1025.87	93.63
1026.16	95.87
1026.449	95.16
1026.739	96.98
1027.029	94.32
1027.319	95.78
1027.608	93.63
1027.898	95.88
1028.187	92.81
1028.477	94.87
1028.766	96.63
1029.055	95.98
1029.344	96.56
1029.634	94.99
1029.923	97.46
1030.212	94.95
1030.501	94.78
1030.79	94.17
1031.078	93.92
1031.367	94.88
1031.656	94.98
1031.945	92.82
1032.233	92.01
1032.522	94
1032.81	94.51
1033.099	95.04
1033.387	92.7
1033.675	93.64
1033.963	94.61
1034.251	94.22
1034.54	95.13
1034.828	94.63
1035.116	95.2
1035.403	99.47
1035.691	94.48
1035.979	95.52
1036.267	92.09
1036.554	90.8
1036.842	94.13
1037.129	92.71
1037.417	92.63
1037.704	93.15
1037.992	94.07
1038.279	95.73
1038.566	92.76
1038.853	92.76
1039.14	92.76
