Data from White_reflection_standard_Reflection_00005.txt Node
Date: Mon Feb 06 14:42:24 GMT 2017
User: dcchb
Spectrometer: FLMS00149
Trigger mode: 0
Integration Time (sec): 2.000000E-2
Scans to average: 10
Electric dark correction enabled: true
Nonlinearity correction enabled: false
Boxcar width: 0
XAxis mode: Wavelengths
Number of Pixels in Spectrum: 2048
>>>>>Begin Spectral Data<<<<<
341.393	68.6
341.776	68.6
342.16	68.6
342.543	-10.62
342.927	882.83
343.31	-386.75
343.693	-11.29
344.077	120
344.46	14.79
344.843	-467.87
345.226	401.27
345.61	29.66
345.993	41.6
346.376	215.27
346.759	15.28
347.142	132.89
347.525	40.6
347.908	242.18
348.291	-277.53
348.674	78.09
349.057	-329.48
349.44	150.54
349.823	-93.21
350.206	111.03
350.588	98.9
350.971	99.21
351.354	103.59
351.737	85.82
352.119	109.74
352.502	83.5
352.884	90.73
353.267	99.69
353.65	92.72
354.032	112.16
354.414	109.52
354.797	89.58
355.179	96.78
355.562	78.97
355.944	85.15
356.326	77.87
356.709	83.16
357.091	98.69
357.473	94.07
357.855	106.14
358.238	108.77
358.62	77.85
359.002	89.19
359.384	85.16
359.766	103.85
360.148	103.18
360.53	68.96
360.912	105.09
361.294	93.49
361.676	85.33
362.057	98.24
362.439	79.38
362.821	73.25
363.203	99.92
363.584	83.84
363.966	74.78
364.348	81.55
364.729	97.67
365.111	104.03
365.493	92.14
365.874	107.91
366.256	84.3
366.637	80.42
367.019	91.16
367.4	93.37
367.781	82.05
368.163	75.05
368.544	91.96
368.925	87.45
369.306	101.84
369.688	88.37
370.069	89.4
370.45	79.03
370.831	89.33
371.212	94.64
371.593	94.4
371.974	95.35
372.355	84.1
372.736	90.98
373.117	93.82
373.498	97.49
373.879	80.81
374.26	88.06
374.641	81.45
375.021	103.59
375.402	88.43
375.783	91.62
376.163	97.02
376.544	94.31
376.925	96.48
377.305	82.29
377.686	88.02
378.066	91.08
378.447	94
378.827	86.98
379.208	87.42
379.588	82.71
379.968	92.26
380.349	89.27
380.729	89.96
381.109	90.64
381.489	88.73
381.87	89.97
382.25	95.01
382.63	98.99
383.01	96.15
383.39	90.88
383.77	86.95
384.15	83.48
384.53	83.36
384.91	94.62
385.29	97.25
385.67	86.5
386.049	90.53
386.429	85.75
386.809	93.07
387.189	96.86
387.568	94.69
387.948	94.6
388.328	92.99
388.707	97.78
389.087	88.96
389.466	92.92
389.846	86.61
390.225	89.44
390.605	89.37
390.984	95.52
391.363	97.29
391.743	96.37
392.122	90.97
392.501	88.91
392.881	89.89
393.26	93.38
393.639	90.46
394.018	93.24
394.397	92.78
394.776	94.2
395.155	89.11
395.534	92.87
395.913	90.79
396.292	91.76
396.671	98.48
397.05	89.45
397.429	92.34
397.808	90.56
398.186	92.82
398.565	93.47
398.944	92.03
399.323	89.14
399.701	90.2
400.08	92.83
400.458	93.43
400.837	94.27
401.215	93.82
401.594	95.52
401.972	93.55
402.351	91.19
402.729	92.97
403.107	92.35
403.486	93.45
403.864	90.53
404.242	94.35
404.62	93.32
404.999	92.56
405.377	91.88
405.755	95.62
406.133	95.46
406.511	92.35
406.889	93.02
407.267	91.19
407.645	95.34
408.023	95.09
408.401	91.87
408.779	92.43
409.156	93.63
409.534	93.59
409.912	92.86
410.29	91.34
410.667	94.61
411.045	94.3
411.422	95.74
411.8	93.74
412.178	92.43
412.555	93.85
412.933	94.51
413.31	94.91
413.687	92.35
414.065	95.65
414.442	93.19
414.819	93.58
415.197	95.01
415.574	94.12
415.951	92.29
416.328	91.15
416.705	93.52
417.082	91.3
417.46	94.91
417.837	94.34
418.214	93.98
418.591	92.89
418.967	90.62
419.344	93.5
419.721	92.33
420.098	95.75
420.475	95.47
420.852	94.41
421.228	91.37
421.605	92.99
421.982	95.76
422.358	90.9
422.735	94.01
423.111	94.49
423.488	92.95
423.864	94.41
424.241	93.95
424.617	92.05
424.994	92.71
425.37	92.34
425.746	92.56
426.123	93.14
426.499	93.14
426.875	93.81
427.251	92.44
427.627	94.47
428.003	93.47
428.379	93.5
428.756	93.29
429.132	91.17
429.507	92.96
429.883	92.52
430.259	93.17
430.635	94.27
431.011	92.49
431.387	94.04
431.763	94.84
432.138	94.22
432.514	93.94
432.89	92.15
433.265	93.01
433.641	93.24
434.016	95.35
434.392	93.84
434.767	91.73
435.143	94.66
435.518	93.68
435.894	91.75
436.269	92.49
436.644	94.42
437.02	92.94
437.395	95.29
437.77	94.52
438.145	94.09
438.52	92.93
438.895	92.82
439.271	95.25
439.646	93.12
440.021	93.3
440.395	93.4
440.77	93.1
441.145	93.68
441.52	91.44
441.895	93.41
442.27	94.4
442.645	91.4
443.019	92.92
443.394	94.05
443.769	93.52
444.143	92.44
444.518	92.79
444.892	94.02
445.267	93.45
445.641	94.5
446.016	93.36
446.39	93.58
446.764	93.47
447.139	92.84
447.513	94
447.887	92.93
448.262	95.32
448.636	92.95
449.01	93.72
449.384	93.49
449.758	93.28
450.132	93.83
450.506	92.51
450.88	92.95
451.254	93.67
451.628	91.89
452.002	93.62
452.376	92.68
452.75	94.32
453.123	94.96
453.497	93.98
453.871	93.53
454.244	93.33
454.618	94.24
454.992	94.69
455.365	93.33
455.739	92.08
456.112	93.63
456.486	92.68
456.859	94.66
457.232	93.07
457.606	93.12
457.979	93.03
458.352	94.26
458.725	93.79
459.099	93.53
459.472	94.58
459.845	93.88
460.218	93.14
460.591	93.14
460.964	93.87
461.337	92.93
461.71	92.58
462.083	93.82
462.456	92.82
462.829	92.38
463.201	93.75
463.574	92.96
463.947	93.55
464.32	94.05
464.692	92.05
465.065	93.03
465.438	93.13
465.81	93.04
466.183	93.93
466.555	92.51
466.928	92.87
467.3	93.89
467.672	93.43
468.045	93.7
468.417	93.75
468.789	93.45
469.161	93.53
469.534	92.74
469.906	93.62
470.278	93.2
470.65	92.83
471.022	92.49
471.394	93.58
471.766	92.98
472.138	93.85
472.51	93.56
472.882	93.08
473.253	93.77
473.625	92.72
473.997	93.07
474.369	93.17
474.74	93.68
475.112	93.81
475.484	93.3
475.855	92.55
476.227	92.64
476.598	93.61
476.97	92.43
477.341	92.94
477.713	93.2
478.084	93.09
478.455	93.38
478.827	92.95
479.198	93.23
479.569	93.78
479.94	92.47
480.311	93.1
480.682	92.43
481.053	93
481.424	93.16
481.795	93.33
482.166	93.63
482.537	92.81
482.908	93.1
483.279	92.98
483.65	93.54
484.021	93.5
484.391	93.58
484.762	94.17
485.133	92.92
485.503	93.29
485.874	93.58
486.244	93.48
486.615	93.52
486.985	93.43
487.356	93.3
487.726	93.41
488.097	93.43
488.467	94.02
488.837	93.68
489.207	94.17
489.578	93.66
489.948	93.24
490.318	93.18
490.688	93.47
491.058	92.96
491.428	93.69
491.798	93.32
492.168	93.23
492.538	93.34
492.908	93.22
493.278	93.79
493.648	93.07
494.017	93.66
494.387	93.17
494.757	93.84
495.126	93.27
495.496	93.41
495.866	93.23
496.235	93.77
496.605	93.47
496.974	93.53
497.344	94.08
497.713	93.19
498.082	94.04
498.452	93.6
498.821	93.33
499.19	93.27
499.559	93.15
499.928	93.79
500.298	93.15
500.667	93.9
501.036	93.77
501.405	93.1
501.774	92.99
502.143	93.46
502.512	93.48
502.88	93.71
503.249	93.26
503.618	93.37
503.987	93.88
504.356	93.28
504.724	93.6
505.093	93.16
505.462	93.19
505.83	93.26
506.199	93.41
506.567	93.42
506.936	93.29
507.304	93.88
507.672	93.37
508.041	93.52
508.409	93.71
508.777	93.56
509.145	93.55
509.514	93.31
509.882	93.01
510.25	93.45
510.618	93.49
510.986	93.42
511.354	93.52
511.722	93.59
512.09	93.17
512.458	93.26
512.826	92.94
513.193	93.42
513.561	93.45
513.929	93.45
514.297	93.36
514.664	93.57
515.032	93.21
515.4	93.53
515.767	93.75
516.135	94.14
516.502	93.58
516.869	93.44
517.237	93.34
517.604	93.22
517.972	93.12
518.339	93.58
518.706	92.97
519.073	93.44
519.44	93.92
519.808	93.72
520.175	93.54
520.542	93.67
520.909	93.81
521.276	93.97
521.643	93.45
522.009	93.43
522.376	93.72
522.743	93.98
523.11	93.8
523.477	93.37
523.843	93.8
524.21	93.85
524.577	94.09
524.943	93.87
525.31	94.04
525.676	93.66
526.043	93.63
526.409	94.06
526.776	93.95
527.142	93.73
527.508	93.74
527.874	93.75
528.241	93.85
528.607	93.87
528.973	93.95
529.339	93.8
529.705	93.8
530.071	93.78
530.437	94.03
530.803	93.81
531.169	93.73
531.535	93.9
531.901	94.32
532.267	94.09
532.632	93.95
532.998	93.96
533.364	94.38
533.73	94.46
534.095	94.22
534.461	93.93
534.826	94.57
535.192	94.23
535.557	94.17
535.923	94.19
536.288	94.4
536.653	94.36
537.019	94.53
537.384	95.19
537.749	94.62
538.114	94.38
538.479	94.39
538.845	94.7
539.21	94.86
539.575	94.8
539.94	94.91
540.305	94.88
540.67	94.9
541.034	94.78
541.399	95.02
541.764	94.79
542.129	94.76
542.494	95.09
542.858	95.32
543.223	94.82
543.587	94.98
543.952	95.12
544.316	95.22
544.681	94.89
545.045	95.13
545.41	95.48
545.774	95.24
546.138	95.41
546.503	95.37
546.867	95.26
547.231	95.17
547.595	95.47
547.959	95.49
548.324	95.58
548.688	95.55
549.052	95.3
549.416	95.61
549.779	95.81
550.143	95.5
550.507	95.95
550.871	95.71
551.235	95.68
551.599	95.94
551.962	95.64
552.326	95.83
552.689	95.99
553.053	95.78
553.417	95.97
553.78	96.05
554.143	95.85
554.507	95.98
554.87	96.05
555.234	96.13
555.597	96.11
555.96	96.31
556.323	96.37
556.686	96.29
557.05	96.16
557.413	96.2
557.776	96.39
558.139	96.39
558.502	96.37
558.865	96.48
559.228	96.36
559.59	96.49
559.953	96.56
560.316	96.69
560.679	96.58
561.041	96.56
561.404	96.59
561.767	96.57
562.129	96.6
562.492	96.77
562.854	96.54
563.217	96.63
563.579	96.75
563.941	96.61
564.304	96.78
564.666	96.84
565.028	96.69
565.39	96.85
565.753	96.78
566.115	96.76
566.477	96.69
566.839	97.06
567.201	96.91
567.563	96.79
567.925	97.01
568.287	97.09
568.648	97.03
569.01	96.93
569.372	97.22
569.734	97.06
570.095	97.02
570.457	97.06
570.819	97.1
571.18	97.17
571.542	97.12
571.903	97.19
572.265	97.08
572.626	97.09
572.987	97.2
573.349	97.07
573.71	97.18
574.071	97.19
574.432	97.04
574.794	97.13
575.155	97.22
575.516	97.14
575.877	97.23
576.238	97.23
576.599	97.3
576.96	97.09
577.32	97.24
577.681	97.33
578.042	97.16
578.403	97.19
578.763	97.35
579.124	97.47
579.485	97.3
579.845	97.29
580.206	97.4
580.566	97.21
580.927	97.31
581.287	97.35
581.648	97.21
582.008	97.17
582.368	97.25
582.728	97.44
583.089	97.26
583.449	97.29
583.809	97.23
584.169	97.41
584.529	97.26
584.889	97.38
585.249	97.39
585.609	97.28
585.969	97.38
586.329	97.32
586.688	97.21
587.048	97.42
587.408	97.23
587.768	97.25
588.127	97.25
588.487	97.23
588.846	97.31
589.206	97.42
589.565	97.2
589.925	97.24
590.284	97.21
590.643	97.33
591.003	97.17
591.362	97.3
591.721	97.47
592.08	97.25
592.44	97.23
592.799	97.21
593.158	97.26
593.517	97.3
593.876	97.17
594.235	97.41
594.593	97.3
594.952	97.37
595.311	97.24
595.67	97.29
596.029	97.27
596.387	97.27
596.746	97.4
597.104	97.38
597.463	97.42
597.822	97.25
598.18	97.35
598.538	97.31
598.897	97.42
599.255	97.24
599.613	97.31
599.972	97.29
600.33	97.39
600.688	97.34
601.046	97.29
601.404	97.46
601.762	97.28
602.12	97.44
602.478	97.42
602.836	97.53
603.194	97.34
603.552	97.41
603.91	97.39
604.268	97.38
604.625	97.37
604.983	97.55
605.341	97.42
605.698	97.32
606.056	97.31
606.413	97.34
606.771	97.27
607.128	97.33
607.485	97.32
607.843	97.37
608.2	97.43
608.557	97.45
608.914	97.46
609.272	97.36
609.629	97.39
609.986	97.41
610.343	97.36
610.7	97.39
611.057	97.49
611.414	97.41
611.771	97.35
612.127	97.36
612.484	97.38
612.841	97.37
613.198	97.43
613.554	97.32
613.911	97.4
614.267	97.44
614.624	97.48
614.98	97.49
615.337	97.39
615.693	97.4
616.05	97.49
616.406	97.43
616.762	97.59
617.118	97.57
617.475	97.49
617.831	97.56
618.187	97.51
618.543	97.45
618.899	97.41
619.255	97.47
619.611	97.48
619.967	97.53
620.323	97.5
620.678	97.39
621.034	97.45
621.39	97.3
621.746	97.42
622.101	97.41
622.457	97.5
622.812	97.38
623.168	97.51
623.523	97.38
623.879	97.43
624.234	97.46
624.589	97.44
624.945	97.52
625.3	97.53
625.655	97.5
626.01	97.35
626.365	97.52
626.72	97.41
627.075	97.6
627.43	97.47
627.785	97.58
628.14	97.53
628.495	97.58
628.85	97.5
629.205	97.46
629.559	97.56
629.914	97.49
630.269	97.35
630.623	97.51
630.978	97.54
631.332	97.48
631.687	97.44
632.041	97.51
632.396	97.52
632.75	97.55
633.104	97.35
633.459	97.43
633.813	97.5
634.167	97.4
634.521	97.48
634.875	97.49
635.229	97.47
635.583	97.42
635.937	97.44
636.291	97.45
636.645	97.38
636.999	97.34
637.352	97.34
637.706	97.24
638.06	97.4
638.413	97.42
638.767	97.42
639.121	97.43
639.474	97.36
639.828	97.41
640.181	97.45
640.534	97.37
640.888	97.34
641.241	97.39
641.594	97.4
641.947	97.34
642.301	97.37
642.654	97.36
643.007	97.35
643.36	97.41
643.713	97.5
644.066	97.47
644.419	97.33
644.771	97.28
645.124	97.35
645.477	97.23
645.83	97.34
646.182	97.2
646.535	97.26
646.888	97.25
647.24	97.38
647.593	97.32
647.945	97.22
648.298	97.23
648.65	97.28
649.002	97.25
649.355	97.19
649.707	97.23
650.059	97.26
650.411	97.22
650.763	97.37
651.115	97.34
651.467	97.32
651.819	97.3
652.171	97.21
652.523	97.32
652.875	97.26
653.227	97.29
653.578	97.36
653.93	97.32
654.282	97.17
654.633	97.3
654.985	97.16
655.337	97.44
655.688	97.29
656.039	97.2
656.391	97.39
656.742	97.46
657.094	97.33
657.445	97.32
657.796	97.25
658.147	97.25
658.498	97.26
658.849	97.26
659.2	97.27
659.551	97.17
659.902	97.2
660.253	97.25
660.604	97.38
660.955	97.18
661.306	97.32
661.656	97.33
662.007	97.21
662.358	97.27
662.708	97.34
663.059	97.13
663.409	97.3
663.76	97.15
664.11	97.31
664.461	97.38
664.811	97.1
665.161	97.21
665.511	97.26
665.862	97.32
666.212	97.23
666.562	97.22
666.912	97.32
667.262	97.27
667.612	97.23
667.962	97.28
668.312	97.21
668.662	97.23
669.011	97.29
669.361	97.37
669.711	97.21
670.06	97.39
670.41	97.24
670.76	97.27
671.109	97.14
671.459	97.18
671.808	97.19
672.157	97.28
672.507	97.09
672.856	97.27
673.205	97.23
673.554	97.4
673.904	97.14
674.253	97.16
674.602	97.16
674.951	97.3
675.3	97.08
675.649	97.3
675.998	97.19
676.346	97.14
676.695	97.26
677.044	97.28
677.393	97.22
677.741	97.24
678.09	97.14
678.438	97.25
678.787	97.28
679.135	97.2
679.484	97.22
679.832	97.15
680.181	97.17
680.529	97.21
680.877	97.27
681.225	97.43
681.573	97.16
681.922	97.12
682.27	97.05
682.618	97.11
682.966	97.16
683.314	97.12
683.661	97.17
684.009	97.25
684.357	97.24
684.705	96.95
685.053	97.17
685.4	97.18
685.748	97.2
686.095	97.12
686.443	97.14
686.79	97.11
687.138	97.06
687.485	97.24
687.832	97.03
688.18	97.25
688.527	97.06
688.874	96.98
689.221	96.91
689.568	96.99
689.915	97.01
690.262	97.07
690.609	96.99
690.956	96.94
691.303	96.9
691.65	96.94
691.997	97.03
692.344	96.75
692.69	96.9
693.037	96.81
693.383	97.11
693.73	96.78
694.077	96.68
694.423	96.85
694.769	96.83
695.116	96.97
695.462	96.75
695.808	96.82
696.155	96.82
696.501	96.8
696.847	96.83
697.193	96.82
697.539	96.84
697.885	96.79
698.231	96.55
698.577	96.72
698.923	96.86
699.269	96.57
699.614	96.74
699.96	96.67
700.306	96.73
700.651	96.5
700.997	96.49
701.342	96.75
701.688	96.82
702.033	96.44
702.379	96.59
702.724	96.41
703.069	96.42
703.415	96.36
703.76	96.29
704.105	96.53
704.45	96.3
704.795	96.15
705.14	96.33
705.485	96.37
705.83	96.27
706.175	96.35
706.52	96.49
706.865	96.39
707.209	96.27
707.554	96.42
707.899	96.39
708.243	96.3
708.588	96.38
708.932	96.29
709.277	96.23
709.621	96.21
709.966	95.96
710.31	96.33
710.654	95.95
710.998	96.05
711.342	96.03
711.687	95.97
712.031	95.93
712.375	96
712.719	96.05
713.063	96.22
713.407	96.06
713.75	96.09
714.094	95.95
714.438	95.81
714.782	95.99
715.125	95.95
715.469	95.96
715.812	95.97
716.156	95.63
716.499	96.02
716.843	95.91
717.186	95.81
717.53	95.69
717.873	95.57
718.216	95.71
718.559	95.77
718.902	95.75
719.246	95.67
719.589	95.48
719.932	95.33
720.275	95.96
720.617	95.59
720.96	95.48
721.303	95.53
721.646	95.02
721.989	95.3
722.331	95.42
722.674	95.56
723.016	95.22
723.359	95.46
723.701	95.42
724.044	95.38
724.386	95.2
724.729	95.55
725.071	95.5
725.413	95.21
725.755	95.38
726.097	95.27
726.439	95.06
726.782	94.86
727.124	95.4
727.465	94.97
727.807	95.12
728.149	95.22
728.491	95.13
728.833	95.26
729.175	95.25
729.516	95.12
729.858	94.86
730.199	95.09
730.541	95.01
730.882	95.19
731.224	94.91
731.565	95.07
731.906	94.97
732.248	94.96
732.589	94.74
732.93	95.22
733.271	95.16
733.612	94.93
733.953	94.86
734.294	95.12
734.635	94.89
734.976	95.09
735.317	94.72
735.658	95.03
735.999	94.68
736.339	94.83
736.68	94.52
737.021	94.62
737.361	94.88
737.702	95.04
738.042	94.79
738.383	94.75
738.723	95.01
739.063	94.39
739.404	94.57
739.744	94.87
740.084	94.67
740.424	94.89
740.764	94.55
741.104	94.51
741.444	94.78
741.784	94.9
742.124	94.53
742.464	94.34
742.804	94.37
743.143	94.77
743.483	94.84
743.823	94.63
744.162	94.34
744.502	94.5
744.841	94.29
745.181	94.32
745.52	94.33
745.86	94.77
746.199	94.51
746.538	94.33
746.877	94.54
747.216	94.63
747.556	94.36
747.895	94.56
748.234	94.45
748.573	94.53
748.911	94.53
749.25	94.37
749.589	94.57
749.928	94.47
750.267	94.16
750.605	94.43
750.944	94.37
751.283	94.57
751.621	94.09
751.96	93.99
752.298	94.51
752.636	94.23
752.975	94.13
753.313	94.27
753.651	94.18
753.989	94.37
754.327	94.1
754.666	94.33
755.004	94.07
755.342	94.23
755.679	94.17
756.017	94.28
756.355	93.96
756.693	94.37
757.031	94.37
757.368	94.28
757.706	94.37
758.044	94.33
758.381	94.01
758.719	94.18
759.056	94.03
759.394	94.25
759.731	94.27
760.068	94.28
760.405	93.87
760.743	94.31
761.08	94.19
761.417	94.02
761.754	94.37
762.091	93.98
762.428	94.21
762.765	93.87
763.102	94.1
763.438	94.13
763.775	94.49
764.112	93.85
764.449	93.86
764.785	94.26
765.122	93.8
765.458	93.8
765.795	93.57
766.131	94.08
766.467	93.81
766.804	94.58
767.14	93.61
767.476	93.73
767.812	93.75
768.148	93.96
768.485	93.87
768.821	93.75
769.157	93.71
769.492	93.66
769.828	93.78
770.164	94.04
770.5	93.83
770.836	94.06
771.171	93.87
771.507	93.93
771.842	93.89
772.178	94.14
772.513	93.43
772.849	94.04
773.184	93.92
773.519	93.99
773.855	93.85
774.19	93.92
774.525	93.67
774.86	93.79
775.195	93.7
775.53	93.66
775.865	93.82
776.2	93.66
776.535	94.03
776.87	94.16
777.205	93.77
777.539	94.01
777.874	93.89
778.209	93.66
778.543	93.5
778.878	94.05
779.212	94.26
779.547	93.96
779.881	93.93
780.215	94.03
780.55	93.79
780.884	93.47
781.218	93.48
781.552	93.78
781.886	94.02
782.22	94.05
782.554	93.58
782.888	94.1
783.222	94.19
783.556	93.95
783.889	94.03
784.223	93.67
784.557	93.98
784.89	93.88
785.224	94.13
785.557	93.78
785.891	93.82
786.224	93.97
786.558	94.12
786.891	93.69
787.224	93.82
787.557	94.16
787.891	94.13
788.224	94.15
788.557	93.77
788.89	93.48
789.223	93.76
789.556	93.75
789.888	94.03
790.221	93.56
790.554	93.63
790.887	94.09
791.219	94.09
791.552	93.49
791.884	94.06
792.217	93.87
792.549	93.87
792.882	93.9
793.214	93.5
793.546	93.75
793.879	93.73
794.211	93.37
794.543	93.94
794.875	93.69
795.207	93.7
795.539	93.63
795.871	93.76
796.203	93.69
796.535	93.77
796.867	94.23
797.198	93.63
797.53	93.58
797.862	93.09
798.193	93.61
798.525	93.75
798.856	93.9
799.188	94.15
799.519	93.5
799.85	94.04
800.182	93.56
800.513	93.85
800.844	93.84
801.175	93.66
801.506	93.93
801.837	93.84
802.168	93.82
802.499	93.88
802.83	93.85
803.161	93.43
803.491	93.84
803.822	94.01
804.153	93.88
804.483	93.32
804.814	94.06
805.145	93.61
805.475	93.98
805.805	93.35
806.136	93.55
806.466	93.56
806.796	93.86
807.126	93.45
807.457	93.62
807.787	93.54
808.117	93.78
808.447	93.2
808.777	93.79
809.107	94.01
809.436	93.49
809.766	93.55
810.096	94.23
810.426	93.7
810.755	94.18
811.085	93.86
811.414	93.54
811.744	94.31
812.073	93.81
812.403	93.2
812.732	93.85
813.061	94.09
813.39	93.78
813.719	93.58
814.049	94.09
814.378	94.14
814.707	93.5
815.036	93.65
815.365	94.15
815.693	93.2
816.022	93.44
816.351	93.92
816.68	93.49
817.008	93.27
817.337	93.56
817.665	93.78
817.994	93.57
818.322	93.8
818.651	93.8
818.979	93.45
819.307	93.67
819.636	93.64
819.964	93.78
820.292	93.76
820.62	94.33
820.948	93.73
821.276	94.22
821.604	94.02
821.932	93.51
822.259	93.81
822.587	93.89
822.915	93.54
823.243	93.89
823.57	93.55
823.898	93.67
824.225	94.31
824.553	94.17
824.88	93.91
825.207	93.6
825.535	94.11
825.862	93.63
826.189	93.96
826.516	93.86
826.843	93.97
827.17	93.59
827.497	93.79
827.824	93.79
828.151	93.46
828.478	94.03
828.805	93.78
829.131	93.95
829.458	94.08
829.785	94.22
830.111	93.61
830.438	93.53
830.764	93.93
831.09	93.94
831.417	94.13
831.743	93.92
832.069	94.38
832.395	93.8
832.722	94.31
833.048	93.61
833.374	93.59
833.7	93.87
834.026	94.21
834.351	94.54
834.677	93.81
835.003	93.52
835.329	93.58
835.654	93.73
835.98	93.48
836.306	93.93
836.631	93.54
836.956	93.7
837.282	93.57
837.607	93.66
837.932	93.49
838.258	93.35
838.583	94.08
838.908	93.28
839.233	93.89
839.558	94.2
839.883	93.5
840.208	93.9
840.533	93.47
840.858	94.02
841.182	93.6
841.507	93.42
841.832	94.12
842.156	93.65
842.481	94.02
842.805	93.34
843.13	93.82
843.454	93.8
843.778	93.57
844.103	93.83
844.427	93.46
844.751	93.67
845.075	93.85
845.399	93.74
845.723	93.77
846.047	93.98
846.371	93.57
846.695	94.15
847.019	93.54
847.343	92.93
847.666	93.86
847.99	93.9
848.313	93.86
848.637	93.89
848.96	94.16
849.284	93.98
849.607	93.62
849.931	94.16
850.254	93.06
850.577	93.85
850.9	93.84
851.223	94.41
851.546	93.95
851.869	94.07
852.192	93.85
852.515	94.01
852.838	94.05
853.161	93.83
853.483	94.11
853.806	94.2
854.129	93.43
854.451	93.76
854.774	93.38
855.096	93.89
855.419	93.47
855.741	93.76
856.063	93.65
856.385	93.78
856.708	94.46
857.03	93.72
857.352	94.3
857.674	94.09
857.996	94.37
858.318	93.75
858.64	94.69
858.961	94.01
859.283	94.02
859.605	94.19
859.926	94.1
860.248	94.02
860.57	93.58
860.891	93.36
861.212	93.59
861.534	93.45
861.855	94.68
862.176	93.95
862.498	93.5
862.819	94.26
863.14	94.55
863.461	94.75
863.782	93.47
864.103	94.79
864.424	94.47
864.745	94.46
865.065	94.2
865.386	93.42
865.707	93.94
866.027	93.92
866.348	93.44
866.668	93.98
866.989	94.21
867.309	93.76
867.63	93.87
867.95	94.42
868.27	94.05
868.59	94.34
868.91	93.83
869.23	93.24
869.55	93.57
869.87	93.6
870.19	93.56
870.51	94.17
870.83	94.2
871.15	93.87
871.469	93.33
871.789	93.89
872.109	94.7
872.428	94.27
872.748	93.8
873.067	94.15
873.386	94.02
873.706	93.59
874.025	93.9
874.344	93.41
874.663	93.39
874.982	94.05
875.301	93.66
875.62	93.4
875.939	93.97
876.258	93.17
876.577	93.21
876.896	94.15
877.214	93.48
877.533	94.12
877.852	94.09
878.17	93.7
878.489	94.48
878.807	93.58
879.125	93.85
879.444	93.8
879.762	94.43
880.08	93.95
880.398	93.86
880.716	93.3
881.034	93.18
881.352	93.96
881.67	93.1
881.988	93.79
882.306	93.26
882.624	93.52
882.941	93.52
883.259	94.01
883.577	93.5
883.894	94.03
884.212	93.45
884.529	93.63
884.846	93.58
885.164	93.41
885.481	93.66
885.798	93.51
886.115	94.14
886.432	93.54
886.75	93.41
887.067	93.94
887.383	93.64
887.7	93.88
888.017	93.84
888.334	93.58
888.651	93.24
888.967	93.66
889.284	93.19
889.6	94
889.917	93.26
890.233	93.97
890.55	93.77
890.866	93.85
891.182	93.8
891.498	94.21
891.815	93.68
892.131	94.26
892.447	93.1
892.763	93.51
893.079	93.78
893.395	93.3
893.71	94.14
894.026	93.75
894.342	92.87
894.657	94.71
894.973	93.62
895.289	94.2
895.604	93.69
895.92	93.54
896.235	94.2
896.55	93.98
896.865	93.26
897.181	93.7
897.496	94.48
897.811	93.81
898.126	93.49
898.441	93.96
898.756	93.81
899.071	94.04
899.386	94.06
899.7	93.87
900.015	93.37
900.33	93.49
900.644	93.16
900.959	93.23
901.273	93.71
901.588	94.44
901.902	93.5
902.216	93.38
902.531	93.63
902.845	93.25
903.159	93.65
903.473	93.4
903.787	94.04
904.101	94.21
904.415	94.12
904.729	93.02
905.042	93.82
905.356	93.73
905.67	93.98
905.984	93.97
906.297	94.09
906.611	93.43
906.924	94.02
907.237	93.84
907.551	93.89
907.864	94.19
908.177	94.3
908.491	94.1
908.804	93.82
909.117	94.04
909.43	94.15
909.743	93.19
910.056	94.03
910.368	94.31
910.681	94.44
910.994	93.11
911.307	93.48
911.619	93.68
911.932	93.91
912.244	93.91
912.557	94.21
912.869	94.53
913.181	94.05
913.494	93.67
913.806	94.58
914.118	94.33
914.43	93.37
914.742	93.41
915.054	94.26
915.366	93.67
915.678	93.99
915.99	94.61
916.302	93.42
916.613	94.39
916.925	93.65
917.236	93.42
917.548	93.5
917.859	92.89
918.171	94.34
918.482	94.21
918.794	93.94
919.105	93.39
919.416	93.4
919.727	93.48
920.038	93.5
920.349	93.64
920.66	93.82
920.971	93.81
921.282	94.24
921.593	93.76
921.903	94.32
922.214	93.96
922.525	93.96
922.835	93.26
923.146	94
923.456	93.58
923.767	93.97
924.077	93.32
924.387	93.83
924.697	93.42
925.008	94.5
925.318	94.38
925.628	93.8
925.938	92.88
926.248	93.22
926.558	92.92
926.867	93.17
927.177	93.35
927.487	93.43
927.796	94.32
928.106	94
928.416	93.67
928.725	94.36
929.034	93.52
929.344	93.79
929.653	93.38
929.962	94.76
930.271	94.16
930.581	93.82
930.89	94.26
931.199	93.49
931.508	92.65
931.817	94.11
932.125	92.74
932.434	93.49
932.743	93
933.051	93.18
933.36	93.4
933.669	93.49
933.977	93.26
934.286	94.24
934.594	95
934.902	93.06
935.21	92.39
935.519	93.1
935.827	93.66
936.135	93.74
936.443	93.81
936.751	94.28
937.059	93.75
937.367	93.91
937.674	94.72
937.982	95.08
938.29	94.31
938.597	94.29
938.905	95.18
939.213	94.05
939.52	93.37
939.827	93.77
940.135	92.91
940.442	94.22
940.749	93.33
941.056	93.93
941.363	93.78
941.67	94.4
941.977	92.53
942.284	94.69
942.591	93.65
942.898	93.75
943.205	93.68
943.511	94.08
943.818	94.56
944.125	93.51
944.431	94.2
944.738	92.93
945.044	95.13
945.35	94.05
945.657	94.36
945.963	94.72
946.269	94.03
946.575	94.8
946.881	93.74
947.187	93.63
947.493	93.51
947.799	95.16
948.105	94.63
948.41	93.66
948.716	93.37
949.022	94.03
949.327	95.11
949.633	93.83
949.938	93.82
950.244	94.16
950.549	93.38
950.854	93.55
951.16	93.73
951.465	93.39
951.77	94.16
952.075	93.69
952.38	93.84
952.685	94.5
952.99	94.42
953.294	94.9
953.599	94.03
953.904	94.8
954.209	93.48
954.513	93.92
954.818	94.26
955.122	93.36
955.426	93.3
955.731	94.69
956.035	94.04
956.339	94.02
956.643	94.03
956.948	94.92
957.252	93.59
957.556	93.31
957.86	95.05
958.163	93.98
958.467	94.8
958.771	92.98
959.075	95.14
959.378	93.9
959.682	93.89
959.985	94.16
960.289	94.74
960.592	93.37
960.896	93.77
961.199	92.74
961.502	94.01
961.805	94.06
962.108	93.9
962.411	94.08
962.714	94.3
963.017	93.64
963.32	94.12
963.623	94.38
963.926	93.44
964.228	93.31
964.531	93.34
964.833	93.41
965.136	94.58
965.438	93.89
965.741	94.33
966.043	93.71
966.345	94.42
966.648	93.69
966.95	94.35
967.252	93.79
967.554	93.83
967.856	93.81
968.158	92.94
968.46	93.54
968.761	95.24
969.063	94.19
969.365	93.99
969.666	94.2
969.968	93.16
970.269	93.16
970.571	93.52
970.872	94
971.174	94.32
971.475	95.31
971.776	94.13
972.077	94.66
972.378	93.89
972.679	93.92
972.98	93.07
973.281	92.99
973.582	93.67
973.883	93.83
974.183	93.52
974.484	93.64
974.785	93.74
975.085	92.76
975.386	93.76
975.686	95.48
975.986	94.73
976.287	94.94
976.587	95.35
976.887	93.99
977.187	94.04
977.487	95.02
977.787	95.17
978.087	95.42
978.387	93.28
978.687	95.09
978.987	95.64
979.286	95.24
979.586	94.86
979.885	93.83
980.185	93.57
980.484	93.81
980.784	94.65
981.083	94.63
981.382	94.24
981.682	92.49
981.981	93.72
982.28	92.64
982.579	94.21
982.878	94.47
983.177	93.83
983.475	94.19
983.774	94.01
984.073	95.12
984.372	93.97
984.67	94.03
984.969	95.56
985.267	95.02
985.566	93.96
985.864	94.46
986.162	94.31
986.461	93.69
986.759	94.71
987.057	95.42
987.355	93.46
987.653	94.41
987.951	93.95
988.249	93.77
988.547	94.31
988.844	94.52
989.142	94.4
989.44	93.45
989.737	93.95
990.035	93.79
990.332	94.6
990.63	93.94
990.927	93.65
991.224	95.15
991.521	93.87
991.819	94.16
992.116	94.47
992.413	94.16
992.71	93.89
993.006	93.7
993.303	94.72
993.6	94.1
993.897	94.4
994.193	93.41
994.49	94.04
994.787	93.96
995.083	95.64
995.379	93
995.676	93.77
995.972	93.25
996.268	93.9
996.565	93.24
996.861	94
997.157	93.43
997.453	94.16
997.749	96.24
998.044	92.61
998.34	95.04
998.636	94.18
998.932	92.94
999.227	93.36
999.523	93.47
999.818	92.86
1000.114	92.46
1000.409	94.32
1000.704	95.3
1001	92.5
1001.295	93.34
1001.59	92.74
1001.885	94.98
1002.18	91.95
1002.475	92.68
1002.77	93.57
1003.065	95.07
1003.359	92.71
1003.654	95.33
1003.949	95.83
1004.243	94.68
1004.538	93.46
1004.832	93.05
1005.127	94.09
1005.421	93.81
1005.715	95.69
1006.009	93.91
1006.304	93.73
1006.598	93.92
1006.892	91.37
1007.186	93.6
1007.48	94.8
1007.773	94.27
1008.067	95.79
1008.361	94.61
1008.655	95.33
1008.948	92.95
1009.242	94.18
1009.535	93.47
1009.829	96.26
1010.122	95.27
1010.415	93.14
1010.708	95.02
1011.001	94.93
1011.295	93.76
1011.588	94.5
1011.881	94.21
1012.173	94.05
1012.466	93.18
1012.759	95.92
1013.052	92.8
1013.344	93.55
1013.637	93.45
1013.93	93.55
1014.222	94.87
1014.514	94.54
1014.807	96.62
1015.099	94.44
1015.391	94.94
1015.683	93.42
1015.976	93.4
1016.268	94.05
1016.56	94.03
1016.851	94.77
1017.143	93.5
1017.435	94.22
1017.727	94.29
1018.018	91.49
1018.31	91.65
1018.602	94.22
1018.893	94.91
1019.185	95.71
1019.476	96.05
1019.767	95.57
1020.058	93.12
1020.35	90.35
1020.641	94.7
1020.932	93.65
1021.223	95.49
1021.514	94
1021.804	91.89
1022.095	94.47
1022.386	94.97
1022.677	96.82
1022.967	94.57
1023.258	93.6
1023.548	92.97
1023.839	92.55
1024.129	94.97
1024.419	97.63
1024.709	94.96
1025	96.98
1025.29	89.8
1025.58	93.72
1025.87	92.43
1026.16	93.08
1026.449	94.3
1026.739	96.31
1027.029	93.4
1027.319	94.29
1027.608	94.49
1027.898	95.97
1028.187	92.92
1028.477	93.61
1028.766	93.99
1029.055	96.2
1029.344	96.05
1029.634	93.12
1029.923	95.29
1030.212	95.81
1030.501	96.29
1030.79	94.94
1031.078	94.81
1031.367	94.37
1031.656	94.01
1031.945	95.83
1032.233	93.34
1032.522	93.69
1032.81	91.17
1033.099	93.46
1033.387	93.05
1033.675	94.52
1033.963	93.83
1034.251	94.35
1034.54	94.28
1034.828	94.63
1035.116	97.9
1035.403	98.12
1035.691	93.38
1035.979	93.56
1036.267	93.94
1036.554	93.94
1036.842	97.94
1037.129	90.44
1037.417	91.02
1037.704	92
1037.992	93.31
1038.279	93.61
1038.566	96.03
1038.853	96.03
1039.14	96.03
