Data from White_reflection_standard_Reflection_00017.txt Node
Date: Mon Feb 06 14:43:20 GMT 2017
User: dcchb
Spectrometer: FLMS00149
Trigger mode: 0
Integration Time (sec): 2.000000E-2
Scans to average: 10
Electric dark correction enabled: true
Nonlinearity correction enabled: false
Boxcar width: 0
XAxis mode: Wavelengths
Number of Pixels in Spectrum: 2048
>>>>>Begin Spectral Data<<<<<
341.393	10.71
341.776	10.71
342.16	10.71
342.543	-21.06
342.927	-684.85
343.31	-411.99
343.693	-81.38
344.077	156.57
344.46	435.62
344.843	-366.52
345.226	-128.66
345.61	8.09
345.993	46.15
346.376	-554.2
346.759	-15
347.142	-10.4
347.525	176.37
347.908	-176.73
348.291	-573.57
348.674	70.91
349.057	-421.97
349.44	195.72
349.823	61.62
350.206	104.22
350.588	94.73
350.971	85.75
351.354	104.41
351.737	97.2
352.119	82.15
352.502	102.92
352.884	119.29
353.267	108.7
353.65	121.19
354.032	99.89
354.414	111.05
354.797	74.96
355.179	125.98
355.562	87.85
355.944	77.79
356.326	93.43
356.709	85.23
357.091	84.98
357.473	86.61
357.855	92.79
358.238	95.23
358.62	93.01
359.002	89.38
359.384	94.49
359.766	77.11
360.148	113.92
360.53	88.29
360.912	101.48
361.294	117.56
361.676	94.96
362.057	88.89
362.439	88.15
362.821	84.31
363.203	92.51
363.584	91.44
363.966	86.66
364.348	86.24
364.729	95.58
365.111	96.69
365.493	88.58
365.874	103.63
366.256	88.06
366.637	79.39
367.019	91.76
367.4	94.89
367.781	95.58
368.163	83.06
368.544	100.06
368.925	79.51
369.306	117.76
369.688	103.19
370.069	92.8
370.45	83.63
370.831	83.27
371.212	95.56
371.593	90.1
371.974	81.16
372.355	88.64
372.736	102.96
373.117	91.67
373.498	95.89
373.879	81.49
374.26	95.95
374.641	82.84
375.021	102.71
375.402	92.76
375.783	88.54
376.163	96.02
376.544	99.56
376.925	96.66
377.305	78.43
377.686	92.57
378.066	97
378.447	83.43
378.827	88.87
379.208	93.09
379.588	95
379.968	90.15
380.349	87.68
380.729	97.36
381.109	92.31
381.489	88.36
381.87	92.17
382.25	95.78
382.63	98.8
383.01	98.12
383.39	100.15
383.77	99.15
384.15	91.38
384.53	88.78
384.91	97.32
385.29	98.7
385.67	92.03
386.049	90.36
386.429	93.26
386.809	88.16
387.189	89.14
387.568	92.6
387.948	92.21
388.328	93.83
388.707	104.7
389.087	85.18
389.466	97.68
389.846	84.89
390.225	88.56
390.605	87.02
390.984	93.4
391.363	98.08
391.743	91.43
392.122	91.85
392.501	89.53
392.881	89.3
393.26	91.16
393.639	93.78
394.018	93.83
394.397	93.84
394.776	96.18
395.155	89.65
395.534	92.12
395.913	89.58
396.292	92.11
396.671	93.2
397.05	89.7
397.429	93.27
397.808	92.93
398.186	90.24
398.565	93.63
398.944	94.2
399.323	93.36
399.701	90.2
400.08	93.78
400.458	93.11
400.837	92.62
401.215	91.3
401.594	92.3
401.972	91.01
402.351	91.79
402.729	95.18
403.107	92.02
403.486	93.98
403.864	91.45
404.242	94.05
404.62	95
404.999	91.73
405.377	91.09
405.755	94.47
406.133	92.9
406.511	96.12
406.889	94.63
407.267	92.42
407.645	94.08
408.023	94.13
408.401	92.12
408.779	93.96
409.156	91.22
409.534	94.49
409.912	95.15
410.29	91.45
410.667	94.87
411.045	93.71
411.422	92.23
411.8	93.72
412.178	94.03
412.555	93.3
412.933	94.96
413.31	94.02
413.687	91.84
414.065	94.1
414.442	91.24
414.819	92.69
415.197	96.85
415.574	95.87
415.951	93.99
416.328	94.01
416.705	90.69
417.082	92.69
417.46	92.04
417.837	96.54
418.214	93.68
418.591	92.47
418.967	89.54
419.344	92.89
419.721	93.73
420.098	92.74
420.475	95.47
420.852	93.44
421.228	92
421.605	92.5
421.982	96.2
422.358	92.33
422.735	91.97
423.111	95.26
423.488	92.46
423.864	95.49
424.241	92.89
424.617	92.81
424.994	92.77
425.37	92.59
425.746	94
426.123	92.72
426.499	92.98
426.875	93.6
427.251	91.58
427.627	94.78
428.003	92.59
428.379	94.55
428.756	93.98
429.132	93.1
429.507	92.91
429.883	93.68
430.259	92.8
430.635	93.6
431.011	93.31
431.387	94.85
431.763	93.44
432.138	94.5
432.514	93.77
432.89	91.96
433.265	94.42
433.641	92.27
434.016	94.29
434.392	92.7
434.767	92.96
435.143	94.42
435.518	93.74
435.894	91.76
436.269	92.8
436.644	93.8
437.02	92.85
437.395	94.22
437.77	93.91
438.145	92.9
438.52	92.96
438.895	92.11
439.271	93.69
439.646	94.27
440.021	94.73
440.395	92.97
440.77	95
441.145	91.6
441.52	92.84
441.895	93.23
442.27	93.75
442.645	92.11
443.019	93.17
443.394	92.81
443.769	93.48
444.143	92.86
444.518	92.28
444.892	93.74
445.267	94.46
445.641	93.81
446.016	92.68
446.39	92.71
446.764	92.79
447.139	92.74
447.513	93.78
447.887	92.04
448.262	94.33
448.636	93.69
449.01	92.97
449.384	93.12
449.758	93.51
450.132	94.8
450.506	93.27
450.88	93.53
451.254	93.11
451.628	92.85
452.002	93.48
452.376	93.22
452.75	94.34
453.123	94.12
453.497	93.41
453.871	94.11
454.244	93.43
454.618	93.67
454.992	93.94
455.365	92.81
455.739	93.06
456.112	93.29
456.486	93.33
456.859	93.66
457.232	93.63
457.606	92.74
457.979	93.63
458.352	93.23
458.725	93.26
459.099	93.95
459.472	92.82
459.845	93.22
460.218	92.55
460.591	93.66
460.964	93.96
461.337	93.36
461.71	93.36
462.083	93.57
462.456	93.06
462.829	92.19
463.201	93.23
463.574	92.9
463.947	93.96
464.32	93.74
464.692	93.33
465.065	93.24
465.438	93.38
465.81	92.87
466.183	93.34
466.555	92.66
466.928	92.95
467.3	93.85
467.672	93.04
468.045	93.45
468.417	93.77
468.789	93.27
469.161	93.2
469.534	92.98
469.906	93.74
470.278	92.66
470.65	92.29
471.022	92.34
471.394	92.53
471.766	92.19
472.138	93.33
472.51	93.19
472.882	93.6
473.253	92.88
473.625	93
473.997	93.69
474.369	92.53
474.74	93.7
475.112	93.24
475.484	93.54
475.855	92.38
476.227	92.8
476.598	94.05
476.97	92.67
477.341	93.09
477.713	93.29
478.084	92.9
478.455	93.44
478.827	92.68
479.198	93.25
479.569	93.93
479.94	93.04
480.311	93.76
480.682	93.06
481.053	93.23
481.424	92.42
481.795	93.33
482.166	93.9
482.537	93.13
482.908	92.71
483.279	92.75
483.65	93.42
484.021	93.2
484.391	93.12
484.762	93.98
485.133	93.08
485.503	93.2
485.874	92.96
486.244	93.32
486.615	93.56
486.985	93.17
487.356	93.14
487.726	93.09
488.097	93.54
488.467	93.31
488.837	94.03
489.207	93.85
489.578	93.16
489.948	93.56
490.318	93.24
490.688	93.07
491.058	93.3
491.428	93.84
491.798	93.55
492.168	93.34
492.538	93.76
492.908	93.58
493.278	94.16
493.648	92.76
494.017	93.44
494.387	93.66
494.757	93.52
495.126	93.15
495.496	93.11
495.866	93.21
496.235	93.99
496.605	93.14
496.974	93.47
497.344	93.83
497.713	93.25
498.082	93.97
498.452	93.33
498.821	93.21
499.19	93.58
499.559	92.86
499.928	93.7
500.298	93.47
500.667	93.62
501.036	93.65
501.405	93.11
501.774	93.32
502.143	93.27
502.512	93.33
502.88	93.59
503.249	93.74
503.618	93.64
503.987	93.92
504.356	93.18
504.724	93.72
505.093	93.51
505.462	93.37
505.83	93.43
506.199	93.46
506.567	93.53
506.936	93.45
507.304	93.66
507.672	93.59
508.041	93.29
508.409	93.44
508.777	93.72
509.145	93.37
509.514	93.2
509.882	93.4
510.25	93.79
510.618	93.37
510.986	93.33
511.354	93.18
511.722	93.34
512.09	93.15
512.458	93.87
512.826	92.98
513.193	93.08
513.561	93.23
513.929	93.58
514.297	93.64
514.664	93.58
515.032	93.45
515.4	94.21
515.767	93.69
516.135	93.8
516.502	93.24
516.869	93.36
517.237	93.49
517.604	93.07
517.972	93
518.339	93.35
518.706	93.3
519.073	93.46
519.44	93.71
519.808	93.94
520.175	93.46
520.542	93.78
520.909	93.63
521.276	93.72
521.643	93.74
522.009	93.35
522.376	93.85
522.743	94.06
523.11	93.7
523.477	93.74
523.843	93.7
524.21	93.54
524.577	93.91
524.943	93.83
525.31	94.02
525.676	93.57
526.043	93.44
526.409	93.7
526.776	93.89
527.142	93.76
527.508	93.81
527.874	94.02
528.241	93.65
528.607	94.12
528.973	93.87
529.339	94.08
529.705	93.59
530.071	93.91
530.437	93.9
530.803	93.85
531.169	93.68
531.535	93.98
531.901	94.26
532.267	94.28
532.632	93.86
532.998	94.02
533.364	94.17
533.73	94.04
534.095	94.35
534.461	94.1
534.826	94.27
535.192	94.24
535.557	94.09
535.923	94.28
536.288	94.3
536.653	94.56
537.019	94.48
537.384	94.61
537.749	94.71
538.114	94.85
538.479	94.52
538.845	94.76
539.21	94.41
539.575	94.74
539.94	94.63
540.305	94.71
540.67	94.57
541.034	94.83
541.399	95
541.764	95.02
542.129	95.15
542.494	95
542.858	95.07
543.223	94.74
543.587	95.11
543.952	94.86
544.316	95.27
544.681	94.95
545.045	94.95
545.41	95.52
545.774	95.4
546.138	95.28
546.503	95.31
546.867	95.22
547.231	95.49
547.595	95.3
547.959	95.52
548.324	95.4
548.688	95.27
549.052	95.37
549.416	95.71
549.779	95.69
550.143	95.5
550.507	95.75
550.871	95.64
551.235	95.5
551.599	95.97
551.962	95.7
552.326	95.93
552.689	96.01
553.053	95.59
553.417	96.09
553.78	96.05
554.143	95.97
554.507	95.97
554.87	95.92
555.234	96.01
555.597	95.95
555.96	96.09
556.323	96.17
556.686	96.31
557.05	96.14
557.413	96.06
557.776	96.33
558.139	96.27
558.502	96.19
558.865	96.41
559.228	96.31
559.59	96.33
559.953	96.46
560.316	96.58
560.679	96.41
561.041	96.44
561.404	96.52
561.767	96.63
562.129	96.65
562.492	96.74
562.854	96.66
563.217	96.68
563.579	96.68
563.941	96.79
564.304	96.76
564.666	96.8
565.028	96.8
565.39	96.95
565.753	96.98
566.115	96.79
566.477	96.83
566.839	96.89
567.201	97
567.563	96.84
567.925	97
568.287	97.03
568.648	96.95
569.01	96.95
569.372	97.16
569.734	96.9
570.095	96.96
570.457	97.09
570.819	97.05
571.18	97.17
571.542	97.05
571.903	97.08
572.265	97.19
572.626	97.03
572.987	97.14
573.349	97.08
573.71	97.12
574.071	97.15
574.432	97.03
574.794	97.23
575.155	97.05
575.516	97.04
575.877	97.33
576.238	97.15
576.599	97.28
576.96	97.07
577.32	97.18
577.681	97.38
578.042	97.23
578.403	97.22
578.763	97.36
579.124	97.27
579.485	97.29
579.845	97.43
580.206	97.45
580.566	97.24
580.927	97.18
581.287	97.25
581.648	97.2
582.008	97.27
582.368	97.09
582.728	97.44
583.089	97.24
583.449	97.17
583.809	97.23
584.169	97.27
584.529	97.21
584.889	97.2
585.249	97.26
585.609	97.16
585.969	97.36
586.329	97.24
586.688	97.21
587.048	97.33
587.408	97.17
587.768	97.24
588.127	97.31
588.487	97.18
588.846	97.2
589.206	97.38
589.565	97.31
589.925	97.19
590.284	97.22
590.643	97.34
591.003	97.26
591.362	97.27
591.721	97.41
592.08	97.36
592.44	97.25
592.799	97.28
593.158	97.24
593.517	97.39
593.876	97.24
594.235	97.36
594.593	97.35
594.952	97.34
595.311	97.22
595.67	97.26
596.029	97.27
596.387	97.32
596.746	97.31
597.104	97.28
597.463	97.36
597.822	97.28
598.18	97.28
598.538	97.28
598.897	97.41
599.255	97.33
599.613	97.29
599.972	97.35
600.33	97.37
600.688	97.35
601.046	97.37
601.404	97.34
601.762	97.3
602.12	97.37
602.478	97.32
602.836	97.48
603.194	97.35
603.552	97.43
603.91	97.43
604.268	97.35
604.625	97.28
604.983	97.39
605.341	97.42
605.698	97.38
606.056	97.43
606.413	97.43
606.771	97.48
607.128	97.34
607.485	97.36
607.843	97.38
608.2	97.34
608.557	97.45
608.914	97.33
609.272	97.36
609.629	97.45
609.986	97.37
610.343	97.23
610.7	97.39
611.057	97.38
611.414	97.42
611.771	97.28
612.127	97.39
612.484	97.45
612.841	97.34
613.198	97.39
613.554	97.47
613.911	97.4
614.267	97.34
614.624	97.49
614.98	97.6
615.337	97.35
615.693	97.39
616.05	97.39
616.406	97.4
616.762	97.63
617.118	97.45
617.475	97.48
617.831	97.44
618.187	97.56
618.543	97.42
618.899	97.4
619.255	97.53
619.611	97.49
619.967	97.56
620.323	97.4
620.678	97.49
621.034	97.47
621.39	97.32
621.746	97.42
622.101	97.35
622.457	97.47
622.812	97.52
623.168	97.41
623.523	97.4
623.879	97.37
624.234	97.51
624.589	97.47
624.945	97.46
625.3	97.56
625.655	97.51
626.01	97.45
626.365	97.49
626.72	97.39
627.075	97.59
627.43	97.62
627.785	97.56
628.14	97.47
628.495	97.45
628.85	97.51
629.205	97.42
629.559	97.43
629.914	97.42
630.269	97.43
630.623	97.57
630.978	97.43
631.332	97.28
631.687	97.34
632.041	97.45
632.396	97.5
632.75	97.49
633.104	97.35
633.459	97.49
633.813	97.43
634.167	97.42
634.521	97.39
634.875	97.42
635.229	97.44
635.583	97.34
635.937	97.4
636.291	97.4
636.645	97.3
636.999	97.28
637.352	97.35
637.706	97.19
638.06	97.34
638.413	97.47
638.767	97.3
639.121	97.48
639.474	97.32
639.828	97.33
640.181	97.4
640.534	97.42
640.888	97.32
641.241	97.42
641.594	97.38
641.947	97.31
642.301	97.32
642.654	97.28
643.007	97.33
643.36	97.41
643.713	97.41
644.066	97.39
644.419	97.23
644.771	97.22
645.124	97.25
645.477	97.23
645.83	97.27
646.182	97.35
646.535	97.24
646.888	97.17
647.24	97.36
647.593	97.32
647.945	97.3
648.298	97.25
648.65	97.24
649.002	97.28
649.355	97.2
649.707	97.29
650.059	97.31
650.411	97.33
650.763	97.29
651.115	97.37
651.467	97.19
651.819	97.25
652.171	97.38
652.523	97.36
652.875	97.27
653.227	97.21
653.578	97.38
653.93	97.33
654.282	97.25
654.633	97.26
654.985	97.18
655.337	97.28
655.688	97.29
656.039	97.27
656.391	97.43
656.742	97.44
657.094	97.38
657.445	97.32
657.796	97.19
658.147	97.27
658.498	97.23
658.849	97.32
659.2	97.19
659.551	97.15
659.902	97.14
660.253	97.19
660.604	97.31
660.955	97.18
661.306	97.31
661.656	97.25
662.007	97.08
662.358	97.28
662.708	97.19
663.059	97.27
663.409	97.16
663.76	97.23
664.11	97.22
664.461	97.16
664.811	97.17
665.161	97.15
665.511	97.31
665.862	97.25
666.212	97.18
666.562	97.12
666.912	97.21
667.262	97.19
667.612	97.16
667.962	97.21
668.312	97.2
668.662	97.14
669.011	97.33
669.361	97.32
669.711	97.17
670.06	97.2
670.41	97.11
670.76	97.11
671.109	97.26
671.459	97.12
671.808	97.17
672.157	97.21
672.507	97.03
672.856	97.27
673.205	97.22
673.554	97.23
673.904	97.15
674.253	97.11
674.602	97.23
674.951	97.18
675.3	97.04
675.649	97.13
675.998	97.16
676.346	97.18
676.695	97.17
677.044	97.2
677.393	97.17
677.741	97.21
678.09	97.22
678.438	97.14
678.787	97.19
679.135	97.16
679.484	97.18
679.832	97.27
680.181	97.22
680.529	97.17
680.877	97.26
681.225	97.25
681.573	97.27
681.922	97.12
682.27	97.07
682.618	97.05
682.966	97.2
683.314	97.12
683.661	97.23
684.009	97.11
684.357	97.18
684.705	97.04
685.053	97.17
685.4	97.11
685.748	97.12
686.095	97.07
686.443	97.03
686.79	96.99
687.138	97.03
687.485	97.19
687.832	97.05
688.18	97.13
688.527	96.89
688.874	96.98
689.221	96.9
689.568	96.86
689.915	97
690.262	96.96
690.609	96.88
690.956	96.87
691.303	96.86
691.65	96.92
691.997	96.87
692.344	96.71
692.69	96.89
693.037	96.87
693.383	96.97
693.73	96.85
694.077	96.66
694.423	96.82
694.769	96.8
695.116	96.89
695.462	96.75
695.808	96.85
696.155	96.66
696.501	96.78
696.847	96.89
697.193	96.72
697.539	96.82
697.885	96.72
698.231	96.66
698.577	96.75
698.923	96.72
699.269	96.62
699.614	96.63
699.96	96.66
700.306	96.54
700.651	96.61
700.997	96.31
701.342	96.52
701.688	96.76
702.033	96.45
702.379	96.52
702.724	96.43
703.069	96.47
703.415	96.43
703.76	96.37
704.105	96.37
704.45	96.31
704.795	96.19
705.14	96.26
705.485	96.3
705.83	96.34
706.175	96.41
706.52	96.38
706.865	96.22
707.209	96.35
707.554	96.3
707.899	96.03
708.243	96.08
708.588	96.11
708.932	96.2
709.277	96.11
709.621	96.07
709.966	96.04
710.31	96.31
710.654	95.97
710.998	96.11
711.342	95.93
711.687	96.05
712.031	95.9
712.375	96.18
712.719	95.96
713.063	96.02
713.407	95.91
713.75	95.81
714.094	95.82
714.438	95.69
714.782	95.99
715.125	95.63
715.469	95.99
715.812	95.96
716.156	95.33
716.499	96.02
716.843	95.74
717.186	95.63
717.53	95.83
717.873	95.55
718.216	95.61
718.559	95.71
718.902	95.68
719.246	95.61
719.589	95.3
719.932	95.49
720.275	95.34
720.617	95.44
720.96	95.18
721.303	95.44
721.646	95.27
721.989	95.34
722.331	94.94
722.674	95.33
723.016	95.56
723.359	95.44
723.701	95.53
724.044	95.58
724.386	95.34
724.729	95.47
725.071	95.38
725.413	95.16
725.755	95.16
726.097	95.46
726.439	94.98
726.782	95.04
727.124	95.38
727.465	95.12
727.807	95.08
728.149	95.25
728.491	95.07
728.833	95.23
729.175	95.04
729.516	94.97
729.858	94.99
730.199	95.02
730.541	94.84
730.882	94.9
731.224	95.04
731.565	95.1
731.906	94.81
732.248	94.85
732.589	95.18
732.93	94.92
733.271	94.97
733.612	94.74
733.953	95.01
734.294	94.73
734.635	94.73
734.976	94.89
735.317	94.89
735.658	94.61
735.999	94.68
736.339	94.97
736.68	94.47
737.021	94.7
737.361	94.53
737.702	94.75
738.042	94.94
738.383	94.66
738.723	94.91
739.063	94.51
739.404	94.52
739.744	94.94
740.084	94.63
740.424	94.53
740.764	94.59
741.104	94.71
741.444	94.57
741.784	94.88
742.124	94.74
742.464	94.46
742.804	94.28
743.143	94.98
743.483	94.76
743.823	94.44
744.162	94.42
744.502	94.41
744.841	94.54
745.181	94.55
745.52	94.17
745.86	94.8
746.199	94.44
746.538	94.23
746.877	94.31
747.216	94.27
747.556	94.07
747.895	94.57
748.234	94.53
748.573	94.22
748.911	94.44
749.25	94.03
749.589	94.31
749.928	94.08
750.267	94.57
750.605	94.27
750.944	94.35
751.283	94.59
751.621	93.97
751.96	93.78
752.298	94.4
752.636	94.54
752.975	94.12
753.313	94.53
753.651	94.15
753.989	94.47
754.327	94.16
754.666	94.27
755.004	94.14
755.342	94.21
755.679	94.17
756.017	94.15
756.355	94.09
756.693	94.42
757.031	94.45
757.368	94.54
757.706	93.92
758.044	93.64
758.381	94.21
758.719	94.27
759.056	94.17
759.394	94.04
759.731	94.15
760.068	94.08
760.405	94.22
760.743	94.02
761.08	94.14
761.417	94.1
761.754	94.03
762.091	93.81
762.428	94.16
762.765	93.91
763.102	94.01
763.438	94.17
763.775	94.27
764.112	93.79
764.449	93.87
764.785	94.01
765.122	93.54
765.458	93.89
765.795	93.96
766.131	94.14
766.467	93.81
766.804	94.46
767.14	93.56
767.476	93.72
767.812	93.88
768.148	94.07
768.485	94.21
768.821	93.6
769.157	93.45
769.492	93.96
769.828	93.77
770.164	93.98
770.5	93.73
770.836	94.01
771.171	93.75
771.507	93.5
771.842	93.89
772.178	94.23
772.513	93.78
772.849	94.09
773.184	93.68
773.519	94.27
773.855	93.91
774.19	93.96
774.525	94.02
774.86	93.91
775.195	93.82
775.53	93.74
775.865	93.81
776.2	93.58
776.535	93.97
776.87	93.73
777.205	94.14
777.539	93.57
777.874	93.81
778.209	93.84
778.543	93.7
778.878	94.09
779.212	94.2
779.547	93.99
779.881	93.71
780.215	93.56
780.55	93.8
780.884	93.63
781.218	93.67
781.552	93.51
781.886	93.56
782.22	93.69
782.554	93.5
782.888	94.16
783.222	94.08
783.556	93.88
783.889	94.1
784.223	93.65
784.557	93.54
784.89	93.9
785.224	93.85
785.557	93.74
785.891	93.85
786.224	94.17
786.558	93.99
786.891	94.03
787.224	93.66
787.557	93.76
787.891	94.16
788.224	94.08
788.557	93.92
788.89	93.52
789.223	93.67
789.556	93.95
789.888	94.17
790.221	93.23
790.554	93.61
790.887	93.83
791.219	94.29
791.552	93.36
791.884	93.73
792.217	93.58
792.549	93.35
792.882	93.85
793.214	93.83
793.546	93.64
793.879	93.83
794.211	93.36
794.543	93.79
794.875	93.84
795.207	93.81
795.539	93.98
795.871	94.05
796.203	94.27
796.535	94.08
796.867	93.74
797.198	93.85
797.53	93.79
797.862	93.63
798.193	93.69
798.525	94.35
798.856	93.86
799.188	93.9
799.519	93.58
799.85	93.78
800.182	93.66
800.513	93.63
800.844	93.89
801.175	93.53
801.506	93.75
801.837	93.92
802.168	93.88
802.499	93.76
802.83	93.86
803.161	93.57
803.491	93.77
803.822	93.95
804.153	94.25
804.483	93.75
804.814	93.73
805.145	93.62
805.475	93.45
805.805	92.79
806.136	93.9
806.466	93.65
806.796	94.07
807.126	93.19
807.457	93.81
807.787	93.83
808.117	93.34
808.447	93.83
808.777	93.97
809.107	93.84
809.436	93.51
809.766	93.92
810.096	94.34
810.426	93.93
810.755	93.77
811.085	94
811.414	93.12
811.744	93.7
812.073	93.85
812.403	93.56
812.732	93.64
813.061	94.16
813.39	93.4
813.719	93.5
814.049	93.87
814.378	93.67
814.707	93.68
815.036	93.9
815.365	94.02
815.693	93.49
816.022	93.29
816.351	93.8
816.68	93.81
817.008	93.4
817.337	93.91
817.665	93.59
817.994	94.2
818.322	93.45
818.651	94.36
818.979	93.46
819.307	93.3
819.636	93.67
819.964	93.78
820.292	93.64
820.62	94.4
820.948	93.69
821.276	93.99
821.604	94.04
821.932	94.01
822.259	93.75
822.587	93.87
822.915	93.46
823.243	94.2
823.57	93.88
823.898	93.73
824.225	94.11
824.553	94.34
824.88	93.54
825.207	93.99
825.535	93.91
825.862	93.6
826.189	93.88
826.516	93.68
826.843	93.94
827.17	94.01
827.497	93.69
827.824	93.74
828.151	93.71
828.478	94.16
828.805	94.07
829.131	94.15
829.458	93.72
829.785	94.2
830.111	93.76
830.438	93.87
830.764	94.04
831.09	93.62
831.417	93.92
831.743	93.93
832.069	94.58
832.395	93.97
832.722	94.17
833.048	93.54
833.374	94.25
833.7	93.45
834.026	94.09
834.351	93.9
834.677	93.97
835.003	93.68
835.329	94.23
835.654	93.8
835.98	93.92
836.306	94.17
836.631	93.78
836.956	93.89
837.282	93.86
837.607	93.3
837.932	93.77
838.258	93.5
838.583	93.67
838.908	93.44
839.233	93.7
839.558	93.92
839.883	93.74
840.208	94.24
840.533	93.34
840.858	94.29
841.182	93.81
841.507	93.56
841.832	94.31
842.156	93.34
842.481	93.98
842.805	93.67
843.13	93.39
843.454	93.67
843.778	93.44
844.103	94.19
844.427	93.26
844.751	93.67
845.075	93.5
845.399	94.09
845.723	94.07
846.047	94.12
846.371	93.95
846.695	94.16
847.019	93.65
847.343	93.79
847.666	93.97
847.99	93.53
848.313	94.06
848.637	94.22
848.96	93.74
849.284	93.73
849.607	93.73
849.931	93.73
850.254	93.3
850.577	94.01
850.9	93.94
851.223	94.42
851.546	93.9
851.869	94.63
852.192	94.35
852.515	94.2
852.838	94.95
853.161	93.89
853.483	93.67
853.806	93.81
854.129	93.15
854.451	93.61
854.774	93.64
855.096	93.58
855.419	93.4
855.741	93.64
856.063	93.74
856.385	93.9
856.708	94.46
857.03	93.7
857.352	94.37
857.674	94.07
857.996	94.12
858.318	94.14
858.64	94.39
858.961	93.78
859.283	93.77
859.605	94.38
859.926	93.8
860.248	93.69
860.57	93.83
860.891	94.52
861.212	94.11
861.534	94.01
861.855	94.21
862.176	93.75
862.498	93.58
862.819	94.44
863.14	94.4
863.461	94.66
863.782	93.74
864.103	94.62
864.424	94.03
864.745	93.83
865.065	93.68
865.386	92.98
865.707	94.44
866.027	93.61
866.348	93.19
866.668	93.56
866.989	93.96
867.309	94.41
867.63	94.29
867.95	94.1
868.27	93.83
868.59	93.86
868.91	93.6
869.23	93.79
869.55	93.68
869.87	94.1
870.19	93.32
870.51	93.71
870.83	94.24
871.15	94.15
871.469	93.42
871.789	94.13
872.109	94.16
872.428	94.01
872.748	94.13
873.067	93.9
873.386	93.87
873.706	93.3
874.025	93.14
874.344	93.37
874.663	93.96
874.982	94.46
875.301	93.43
875.62	93.5
875.939	93.99
876.258	93.27
876.577	93.23
876.896	93.78
877.214	94.22
877.533	94.35
877.852	93.83
878.17	93.82
878.489	94.13
878.807	93.2
879.125	93.44
879.444	93.42
879.762	94.14
880.08	93.6
880.398	94.07
880.716	93.83
881.034	93.61
881.352	94.19
881.67	93.31
881.988	93.93
882.306	93.45
882.624	93.17
882.941	93.4
883.259	93.72
883.577	93.97
883.894	94.04
884.212	93.98
884.529	93.79
884.846	93.62
885.164	93.8
885.481	93.76
885.798	93.48
886.115	94.2
886.432	94.07
886.75	93.97
887.067	94.14
887.383	93.56
887.7	93.87
888.017	93.56
888.334	93.73
888.651	92.88
888.967	94.08
889.284	93.42
889.6	93.43
889.917	93.66
890.233	94.46
890.55	93.55
890.866	93.72
891.182	93.82
891.498	94.08
891.815	94.13
892.131	94.27
892.447	93.41
892.763	93.88
893.079	93.96
893.395	93.53
893.71	94.07
894.026	92.97
894.342	93.55
894.657	94.49
894.973	93.83
895.289	94
895.604	94.2
895.92	93.49
896.235	94.47
896.55	93.42
896.865	93.27
897.181	93.69
897.496	94.42
897.811	94.21
898.126	93.24
898.441	94.12
898.756	93.52
899.071	93.64
899.386	93.76
899.7	93.84
900.015	93.55
900.33	94.08
900.644	93.79
900.959	93.74
901.273	93.84
901.588	94.3
901.902	93.38
902.216	94.23
902.531	94.15
902.845	93.66
903.159	93.82
903.473	93.17
903.787	93.98
904.101	94.28
904.415	94.49
904.729	93.53
905.042	94.27
905.356	93.77
905.67	94.17
905.984	93.76
906.297	94.08
906.611	94.43
906.924	93.82
907.237	93.4
907.551	93.67
907.864	94.39
908.177	93.96
908.491	94.52
908.804	93.79
909.117	94.2
909.43	93.27
909.743	93.83
910.056	94.07
910.368	94.04
910.681	93.99
910.994	93.14
911.307	93.51
911.619	93.99
911.932	94.1
912.244	93.27
912.557	93.79
912.869	93.81
913.181	94.16
913.494	93.17
913.806	94.33
914.118	94.27
914.43	93.87
914.742	93.45
915.054	94.75
915.366	92.64
915.678	94.75
915.99	94.52
916.302	93.77
916.613	94.09
916.925	93.72
917.236	93.99
917.548	93.97
917.859	93.3
918.171	93.57
918.482	93.89
918.794	93.38
919.105	93.65
919.416	94.44
919.727	93.35
920.038	94.17
920.349	93.62
920.66	93.52
920.971	93.59
921.282	94.36
921.593	93.98
921.903	94.23
922.214	93.23
922.525	94.26
922.835	93.59
923.146	93.94
923.456	92.94
923.767	93.28
924.077	93.42
924.387	94.47
924.697	93.7
925.008	94.24
925.318	94.12
925.628	93.92
925.938	93.29
926.248	93.53
926.558	94.1
926.867	93.16
927.177	93.9
927.487	93.83
927.796	93.89
928.106	93.34
928.416	93.9
928.725	93.94
929.034	93.6
929.344	93.83
929.653	93.32
929.962	93.77
930.271	94.66
930.581	93.62
930.89	94.16
931.199	93.51
931.508	92.88
931.817	93.6
932.125	93.29
932.434	93.49
932.743	93.57
933.051	93.53
933.36	93.39
933.669	94.14
933.977	94.44
934.286	94.28
934.594	94.8
934.902	93.63
935.21	93.17
935.519	93.18
935.827	94.21
936.135	94.32
936.443	93.76
936.751	94.34
937.059	93.9
937.367	93.85
937.674	94.08
937.982	94.13
938.29	94.61
938.597	93.86
938.905	94.94
939.213	94.62
939.52	93.48
939.827	94.61
940.135	93.74
940.442	93.67
940.749	93.58
941.056	95.06
941.363	93.73
941.67	94.11
941.977	93.11
942.284	94.6
942.591	94.37
942.898	93.14
943.205	93.4
943.511	94.53
943.818	94.56
944.125	94.55
944.431	94.41
944.738	94.2
945.044	93.33
945.35	94.27
945.657	93.7
945.963	93.63
946.269	94.75
946.575	94.39
946.881	93.31
947.187	93.75
947.493	93.4
947.799	95.15
948.105	94.88
948.41	94.31
948.716	92.81
949.022	94.11
949.327	95.17
949.633	93.4
949.938	94.29
950.244	93.36
950.549	93.47
950.854	93.07
951.16	94.34
951.465	94.59
951.77	94.03
952.075	93.72
952.38	93.68
952.685	94.05
952.99	94.43
953.294	94.45
953.599	93.6
953.904	94.84
954.209	93.68
954.513	93.38
954.818	93.33
955.122	94.17
955.426	93.75
955.731	95.14
956.035	94.66
956.339	93.95
956.643	93.77
956.948	94.91
957.252	93.89
957.556	92.94
957.86	94.94
958.163	93.82
958.467	95.08
958.771	93.03
959.075	94.94
959.378	93.08
959.682	93.58
959.985	93.07
960.289	95.23
960.592	94.3
960.896	94.08
961.199	93.52
961.502	94.24
961.805	93.95
962.108	94.02
962.411	94.08
962.714	94.45
963.017	94.23
963.32	93.56
963.623	94.48
963.926	93.46
964.228	92.82
964.531	92
964.833	92.91
965.136	94.46
965.438	94.06
965.741	93.92
966.043	93.44
966.345	94.01
966.648	93.8
966.95	94.52
967.252	93.95
967.554	94.19
967.856	93.45
968.158	92.91
968.46	93.31
968.761	93.47
969.063	94.36
969.365	93.84
969.666	94.1
969.968	93.01
970.269	94.05
970.571	93.61
970.872	92.96
971.174	94.01
971.475	95.52
971.776	94.87
972.077	94.09
972.378	94.38
972.679	93.86
972.98	94.2
973.281	93.79
973.582	93.48
973.883	94.66
974.183	93.97
974.484	93.4
974.785	93.4
975.085	94.89
975.386	93.59
975.686	95.66
975.986	93.52
976.287	94.99
976.587	94.92
976.887	93.68
977.187	94.31
977.487	93.48
977.787	94.85
978.087	95.39
978.387	94.25
978.687	95.72
978.987	95.52
979.286	94.44
979.586	94.14
979.885	94.51
980.185	94.43
980.484	93.48
980.784	94.54
981.083	93.58
981.382	93.55
981.682	93.32
981.981	93.97
982.28	94.27
982.579	93.75
982.878	94.66
983.177	93.3
983.475	93.8
983.774	93.87
984.073	94.75
984.372	95.06
984.67	95.08
984.969	94.06
985.267	94.58
985.566	94.17
985.864	93.32
986.162	94.05
986.461	95.01
986.759	95.36
987.057	94.68
987.355	93.85
987.653	93.59
987.951	95.35
988.249	94.61
988.547	95.45
988.844	95.15
989.142	94.92
989.44	93.75
989.737	94.7
990.035	93.76
990.332	94.17
990.63	93.67
990.927	94.24
991.224	94.08
991.521	95.36
991.819	93.21
992.116	94.05
992.413	93.48
992.71	94.88
993.006	94
993.303	94.21
993.6	94.85
993.897	93.77
994.193	93.2
994.49	95.08
994.787	94.28
995.083	95.35
995.379	94.69
995.676	93.96
995.972	93.69
996.268	93.54
996.565	93.96
996.861	94.23
997.157	92.7
997.453	92.95
997.749	94.47
998.044	93.93
998.34	94.99
998.636	93.64
998.932	92.57
999.227	94.99
999.523	93.99
999.818	94.43
1000.114	92.76
1000.409	93.71
1000.704	93.54
1001	93.88
1001.295	94.54
1001.59	93.93
1001.885	93.66
1002.18	90.89
1002.475	93.47
1002.77	92.96
1003.065	92.96
1003.359	92.05
1003.654	94.94
1003.949	95.39
1004.243	95.1
1004.538	93.64
1004.832	92.89
1005.127	93.59
1005.421	93.86
1005.715	94.92
1006.009	94.52
1006.304	94.06
1006.598	95.68
1006.892	93.55
1007.186	94.42
1007.48	93.05
1007.773	93.18
1008.067	95.03
1008.361	93.65
1008.655	95.39
1008.948	93.9
1009.242	94.4
1009.535	92.16
1009.829	93.89
1010.122	94.86
1010.415	94.09
1010.708	95.08
1011.001	95.67
1011.295	94.39
1011.588	93.98
1011.881	93.19
1012.173	92.82
1012.466	92.8
1012.759	95.04
1013.052	93.47
1013.344	92.94
1013.637	94.03
1013.93	92.34
1014.222	94.92
1014.514	95.03
1014.807	95.15
1015.099	92.69
1015.391	93.74
1015.683	94.46
1015.976	93.18
1016.268	93.61
1016.56	95
1016.851	93.6
1017.143	94.16
1017.435	93.09
1017.727	95.5
1018.018	93.26
1018.31	92.72
1018.602	93.91
1018.893	93.93
1019.185	95.96
1019.476	92.95
1019.767	94.65
1020.058	94.16
1020.35	93.87
1020.641	94.21
1020.932	95.95
1021.223	94.7
1021.514	95.67
1021.804	91.32
1022.095	93.56
1022.386	94.41
1022.677	96.7
1022.967	94.3
1023.258	95.16
1023.548	94.26
1023.839	93.23
1024.129	94.07
1024.419	97.11
1024.709	93.26
1025	95.4
1025.29	93.21
1025.58	93.59
1025.87	93.51
1026.16	93.09
1026.449	95.83
1026.739	97.6
1027.029	95.97
1027.319	92.61
1027.608	94.57
1027.898	95.91
1028.187	93.36
1028.477	95.21
1028.766	95.89
1029.055	94.81
1029.344	95.66
1029.634	94.14
1029.923	96.09
1030.212	94.49
1030.501	96.3
1030.79	92.45
1031.078	93.27
1031.367	94.69
1031.656	94.06
1031.945	97.23
1032.233	91.76
1032.522	93.18
1032.81	94.72
1033.099	96.57
1033.387	94.67
1033.675	94.92
1033.963	96.15
1034.251	94.71
1034.54	93.53
1034.828	91.03
1035.116	95.75
1035.403	100.36
1035.691	92.62
1035.979	94.88
1036.267	92.78
1036.554	97.72
1036.842	93.49
1037.129	92.71
1037.417	92.5
1037.704	94.3
1037.992	93.93
1038.279	94.62
1038.566	94.31
1038.853	94.31
1039.14	94.31
