Data from White_reflection_standard_Reflection_00002.txt Node
Date: Mon Feb 06 14:42:23 GMT 2017
User: dcchb
Spectrometer: FLMS00149
Trigger mode: 0
Integration Time (sec): 2.000000E-2
Scans to average: 10
Electric dark correction enabled: true
Nonlinearity correction enabled: false
Boxcar width: 0
XAxis mode: Wavelengths
Number of Pixels in Spectrum: 2048
>>>>>Begin Spectral Data<<<<<
341.393	50.51
341.776	50.51
342.16	50.51
342.543	2.89
342.927	837.37
343.31	-317.03
343.693	117.02
344.077	-84.76
344.46	180.55
344.843	-27.6
345.226	959.87
345.61	-7.38
345.993	51.95
346.376	-148.85
346.759	13.24
347.142	23.9
347.525	71.86
347.908	22.18
348.291	-57.71
348.674	47.53
349.057	824.86
349.44	33.98
349.823	88.65
350.206	24.3
350.588	94.17
350.971	82.04
351.354	76.48
351.737	80.95
352.119	99.64
352.502	89.81
352.884	90.1
353.267	110.74
353.65	94.6
354.032	107.05
354.414	125.59
354.797	101.37
355.179	96.82
355.562	88.72
355.944	84.48
356.326	72.23
356.709	71.45
357.091	82.06
357.473	78.45
357.855	84.27
358.238	104.12
358.62	89.44
359.002	103.75
359.384	85.82
359.766	88.45
360.148	92.1
360.53	90.73
360.912	91
361.294	96.41
361.676	106.18
362.057	114.79
362.439	92.49
362.821	75.61
363.203	77.43
363.584	88.55
363.966	79.6
364.348	89.91
364.729	78.57
365.111	103.62
365.493	82.14
365.874	92.25
366.256	83.11
366.637	80.56
367.019	93.59
367.4	95.67
367.781	97.47
368.163	77.7
368.544	98.89
368.925	70.68
369.306	94.6
369.688	84.33
370.069	88.76
370.45	81.65
370.831	91.33
371.212	91.9
371.593	80.85
371.974	85.14
372.355	86.25
372.736	96.07
373.117	96.69
373.498	92.61
373.879	79.89
374.26	84.61
374.641	78.16
375.021	96.91
375.402	85.41
375.783	90.9
376.163	93.95
376.544	100.36
376.925	92.94
377.305	83.72
377.686	87.44
378.066	99.39
378.447	87.54
378.827	88.3
379.208	92.7
379.588	96.58
379.968	92.77
380.349	86.38
380.729	93.64
381.109	87.93
381.489	85.72
381.87	88.92
382.25	93.92
382.63	91.12
383.01	94.12
383.39	90.89
383.77	93.87
384.15	89.41
384.53	86.74
384.91	90.34
385.29	93.15
385.67	89.52
386.049	90.09
386.429	84.02
386.809	92.93
387.189	96.92
387.568	94.5
387.948	95.21
388.328	93.19
388.707	97.24
389.087	87.41
389.466	94.58
389.846	88.1
390.225	87.42
390.605	86.54
390.984	92.56
391.363	96.02
391.743	96.13
392.122	89.62
392.501	87.55
392.881	87.25
393.26	91.09
393.639	95.69
394.018	96.24
394.397	94.37
394.776	94.17
395.155	87.02
395.534	94.43
395.913	88.98
396.292	92.94
396.671	93.74
397.05	90.09
397.429	96.01
397.808	93.03
398.186	89.44
398.565	96.25
398.944	92.37
399.323	88.58
399.701	94.02
400.08	94.17
400.458	92.3
400.837	96.19
401.215	94.53
401.594	91.92
401.972	92.68
402.351	91.22
402.729	97.72
403.107	92.05
403.486	96.28
403.864	89.43
404.242	95.38
404.62	96.71
404.999	91.22
405.377	92.46
405.755	94.57
406.133	94.42
406.511	94.3
406.889	96.63
407.267	91.26
407.645	91.98
408.023	94.57
408.401	95.48
408.779	92.01
409.156	91.48
409.534	93.38
409.912	92.15
410.29	92.94
410.667	93.64
411.045	92.37
411.422	93.06
411.8	91.32
412.178	93.48
412.555	91.99
412.933	95.77
413.31	93.89
413.687	90.6
414.065	92.46
414.442	91.44
414.819	93.91
415.197	95.81
415.574	95.19
415.951	93.26
416.328	92.11
416.705	90.03
417.082	93.46
417.46	90.68
417.837	94.02
418.214	93.63
418.591	92.97
418.967	91.31
419.344	90.12
419.721	93.5
420.098	93.31
420.475	93.75
420.852	93.95
421.228	90.23
421.605	94.32
421.982	92.61
422.358	93.59
422.735	93.28
423.111	93.2
423.488	93.91
423.864	94.97
424.241	94.38
424.617	93.11
424.994	91.68
425.37	91.5
425.746	92.53
426.123	92.31
426.499	92.1
426.875	93.65
427.251	91.34
427.627	93.69
428.003	91.49
428.379	94.49
428.756	93.3
429.132	94.51
429.507	91.34
429.883	92.31
430.259	92.19
430.635	92.48
431.011	93.48
431.387	93.54
431.763	93.43
432.138	94.93
432.514	94.25
432.89	91.98
433.265	93.4
433.641	93.66
434.016	94.44
434.392	93.53
434.767	93.77
435.143	93.99
435.518	94.04
435.894	92.22
436.269	93.43
436.644	94.96
437.02	93.87
437.395	94.32
437.77	94.14
438.145	92.53
438.52	93.17
438.895	94.73
439.271	93.51
439.646	93.59
440.021	93.24
440.395	93.36
440.77	94.11
441.145	94.11
441.52	93.33
441.895	93.24
442.27	94.42
442.645	91.56
443.019	92.5
443.394	92.42
443.769	93.21
444.143	92.95
444.518	92.28
444.892	94.19
445.267	93.61
445.641	92.99
446.016	92.06
446.39	93.61
446.764	93.57
447.139	94.67
447.513	92.7
447.887	92.77
448.262	95.35
448.636	94.16
449.01	93.02
449.384	93.89
449.758	93.28
450.132	94.59
450.506	93.16
450.88	92.98
451.254	92.5
451.628	92.16
452.002	93.51
452.376	93.8
452.75	94.24
453.123	94.63
453.497	92.97
453.871	94.16
454.244	92.89
454.618	93.94
454.992	94.4
455.365	93.75
455.739	92.12
456.112	93.33
456.486	93.81
456.859	95.05
457.232	93.59
457.606	92.67
457.979	93.35
458.352	93.07
458.725	92.87
459.099	93.57
459.472	93.18
459.845	92.48
460.218	92.31
460.591	93.69
460.964	93.59
461.337	92.95
461.71	92.91
462.083	92.97
462.456	93.25
462.829	93.72
463.201	93.27
463.574	92.69
463.947	93.9
464.32	93.04
464.692	92.71
465.065	93.19
465.438	93.06
465.81	93.28
466.183	93.56
466.555	93.19
466.928	92.94
467.3	93.14
467.672	92.81
468.045	93.92
468.417	93.99
468.789	93.67
469.161	92.83
469.534	92.95
469.906	93.77
470.278	92.57
470.65	92.43
471.022	92.33
471.394	93.7
471.766	92.38
472.138	93.52
472.51	93.29
472.882	92.64
473.253	93.52
473.625	93.07
473.997	94.02
474.369	93.01
474.74	93.41
475.112	94.08
475.484	92.92
475.855	92.46
476.227	92.48
476.598	93.49
476.97	92.8
477.341	93.21
477.713	93.31
478.084	92.78
478.455	92.9
478.827	93.12
479.198	93.32
479.569	93.73
479.94	92.78
480.311	93.87
480.682	93.02
481.053	93.15
481.424	92.97
481.795	93.56
482.166	94.15
482.537	92.54
482.908	93.32
483.279	92.94
483.65	92.95
484.021	93.75
484.391	93.37
484.762	93.86
485.133	92.77
485.503	93.08
485.874	93.21
486.244	93.67
486.615	93.09
486.985	94.07
487.356	93.27
487.726	93.64
488.097	93.48
488.467	93.35
488.837	93.62
489.207	93.6
489.578	93.49
489.948	93.4
490.318	93.54
490.688	93.22
491.058	93.09
491.428	93.33
491.798	93.82
492.168	93.16
492.538	93.1
492.908	94.03
493.278	94.23
493.648	92.84
494.017	93.21
494.387	92.94
494.757	94.01
495.126	93.78
495.496	93.59
495.866	93.24
496.235	93.67
496.605	93.38
496.974	93.66
497.344	93.84
497.713	93.56
498.082	94.15
498.452	93.49
498.821	92.99
499.19	94.06
499.559	93.18
499.928	93.26
500.298	93.5
500.667	93.82
501.036	93.72
501.405	93.19
501.774	93.16
502.143	93.49
502.512	93.38
502.88	93.75
503.249	93.6
503.618	93.49
503.987	94.3
504.356	93.42
504.724	93.07
505.093	93.02
505.462	92.96
505.83	93.48
506.199	93.56
506.567	93.3
506.936	93.14
507.304	93.61
507.672	93.17
508.041	93.44
508.409	93.89
508.777	93.16
509.145	93.34
509.514	93.27
509.882	93.43
510.25	93.43
510.618	93.63
510.986	93.55
511.354	93.61
511.722	93.66
512.09	93.63
512.458	93.67
512.826	93.02
513.193	93.39
513.561	93.38
513.929	93.36
514.297	93.11
514.664	93.38
515.032	93.79
515.4	93.4
515.767	93.76
516.135	94.02
516.502	93.39
516.869	93.4
517.237	93.41
517.604	93.19
517.972	93.45
518.339	93.49
518.706	93.62
519.073	93.5
519.44	93.76
519.808	93.72
520.175	93.68
520.542	93.68
520.909	93.84
521.276	93.69
521.643	93.42
522.009	93.7
522.376	93.55
522.743	93.61
523.11	93.48
523.477	93.77
523.843	93.54
524.21	93.62
524.577	94.08
524.943	93.9
525.31	93.74
525.676	93.71
526.043	93.57
526.409	93.83
526.776	93.8
527.142	93.7
527.508	93.68
527.874	93.89
528.241	93.97
528.607	93.95
528.973	94.25
529.339	93.89
529.705	93.67
530.071	93.79
530.437	93.83
530.803	93.61
531.169	93.76
531.535	93.92
531.901	94.03
532.267	94.08
532.632	94.03
532.998	93.97
533.364	94.5
533.73	94.22
534.095	94.24
534.461	94.28
534.826	94.21
535.192	94.19
535.557	94.02
535.923	94.19
536.288	94.12
536.653	94.61
537.019	94.22
537.384	94.85
537.749	94.69
538.114	94.45
538.479	94.2
538.845	94.8
539.21	94.69
539.575	94.75
539.94	94.82
540.305	94.78
540.67	94.68
541.034	94.69
541.399	94.82
541.764	94.92
542.129	95.03
542.494	95.17
542.858	94.86
543.223	94.88
543.587	95.3
543.952	94.98
544.316	95.1
544.681	95.06
545.045	95.2
545.41	95.45
545.774	95.15
546.138	95.4
546.503	95.22
546.867	95.34
547.231	95.28
547.595	95.36
547.959	95.57
548.324	95.43
548.688	95.61
549.052	95.61
549.416	95.62
549.779	95.78
550.143	95.58
550.507	95.75
550.871	95.6
551.235	95.77
551.599	96.08
551.962	95.71
552.326	95.69
552.689	95.93
553.053	95.84
553.417	95.96
553.78	95.85
554.143	95.82
554.507	95.8
554.87	96.02
555.234	96.02
555.597	96.11
555.96	96.19
556.323	96.51
556.686	96.29
557.05	96.21
557.413	96.29
557.776	96.54
558.139	96.39
558.502	96.3
558.865	96.36
559.228	96.31
559.59	96.5
559.953	96.45
560.316	96.45
560.679	96.47
561.041	96.53
561.404	96.51
561.767	96.77
562.129	96.64
562.492	96.72
562.854	96.71
563.217	96.6
563.579	96.78
563.941	96.71
564.304	96.8
564.666	96.61
565.028	96.68
565.39	96.89
565.753	96.86
566.115	96.89
566.477	96.72
566.839	96.84
567.201	96.97
567.563	96.96
567.925	96.92
568.287	97
568.648	97.07
569.01	97
569.372	97.08
569.734	97.05
570.095	97.11
570.457	97.01
570.819	97.01
571.18	97.09
571.542	97.11
571.903	97.11
572.265	97.14
572.626	97.07
572.987	97.17
573.349	97.06
573.71	97.01
574.071	97.11
574.432	97.06
574.794	97.25
575.155	97.18
575.516	97.22
575.877	97.36
576.238	97.22
576.599	97.31
576.96	97.15
577.32	97.24
577.681	97.33
578.042	97.16
578.403	97.27
578.763	97.17
579.124	97.53
579.485	97.29
579.845	97.27
580.206	97.43
580.566	97.23
580.927	97.36
581.287	97.3
581.648	97.25
582.008	97.16
582.368	97.18
582.728	97.46
583.089	97.21
583.449	97.34
583.809	97.26
584.169	97.4
584.529	97.35
584.889	97.32
585.249	97.31
585.609	97.18
585.969	97.41
586.329	97.39
586.688	97.32
587.048	97.3
587.408	97.22
587.768	97.23
588.127	97.34
588.487	97.18
588.846	97.25
589.206	97.32
589.565	97.16
589.925	97.22
590.284	97.27
590.643	97.36
591.003	97.18
591.362	97.34
591.721	97.46
592.08	97.25
592.44	97.47
592.799	97.37
593.158	97.21
593.517	97.42
593.876	97.29
594.235	97.32
594.593	97.47
594.952	97.41
595.311	97.26
595.67	97.22
596.029	97.25
596.387	97.38
596.746	97.39
597.104	97.33
597.463	97.46
597.822	97.26
598.18	97.35
598.538	97.28
598.897	97.41
599.255	97.18
599.613	97.36
599.972	97.33
600.33	97.38
600.688	97.38
601.046	97.43
601.404	97.46
601.762	97.19
602.12	97.49
602.478	97.46
602.836	97.49
603.194	97.38
603.552	97.46
603.91	97.56
604.268	97.47
604.625	97.3
604.983	97.36
605.341	97.41
605.698	97.34
606.056	97.36
606.413	97.39
606.771	97.37
607.128	97.39
607.485	97.43
607.843	97.48
608.2	97.39
608.557	97.49
608.914	97.38
609.272	97.47
609.629	97.5
609.986	97.33
610.343	97.33
610.7	97.44
611.057	97.36
611.414	97.38
611.771	97.32
612.127	97.45
612.484	97.45
612.841	97.41
613.198	97.46
613.554	97.43
613.911	97.43
614.267	97.48
614.624	97.3
614.98	97.62
615.337	97.4
615.693	97.41
616.05	97.49
616.406	97.46
616.762	97.5
617.118	97.43
617.475	97.45
617.831	97.55
618.187	97.49
618.543	97.53
618.899	97.45
619.255	97.42
619.611	97.43
619.967	97.56
620.323	97.5
620.678	97.46
621.034	97.46
621.39	97.38
621.746	97.44
622.101	97.43
622.457	97.48
622.812	97.41
623.168	97.38
623.523	97.48
623.879	97.41
624.234	97.42
624.589	97.45
624.945	97.54
625.3	97.4
625.655	97.48
626.01	97.46
626.365	97.49
626.72	97.46
627.075	97.56
627.43	97.4
627.785	97.48
628.14	97.46
628.495	97.49
628.85	97.55
629.205	97.39
629.559	97.4
629.914	97.48
630.269	97.31
630.623	97.57
630.978	97.54
631.332	97.38
631.687	97.39
632.041	97.55
632.396	97.52
632.75	97.5
633.104	97.38
633.459	97.41
633.813	97.44
634.167	97.46
634.521	97.42
634.875	97.38
635.229	97.47
635.583	97.42
635.937	97.5
636.291	97.36
636.645	97.52
636.999	97.36
637.352	97.32
637.706	97.3
638.06	97.34
638.413	97.41
638.767	97.4
639.121	97.47
639.474	97.37
639.828	97.38
640.181	97.32
640.534	97.35
640.888	97.36
641.241	97.32
641.594	97.42
641.947	97.38
642.301	97.43
642.654	97.36
643.007	97.36
643.36	97.4
643.713	97.44
644.066	97.36
644.419	97.23
644.771	97.22
645.124	97.24
645.477	97.27
645.83	97.26
646.182	97.29
646.535	97.25
646.888	97.28
647.24	97.3
647.593	97.32
647.945	97.23
648.298	97.28
648.65	97.2
649.002	97.29
649.355	97.12
649.707	97.2
650.059	97.24
650.411	97.27
650.763	97.16
651.115	97.27
651.467	97.28
651.819	97.36
652.171	97.32
652.523	97.36
652.875	97.3
653.227	97.28
653.578	97.36
653.93	97.28
654.282	97.26
654.633	97.23
654.985	97.28
655.337	97.44
655.688	97.37
656.039	97.21
656.391	97.33
656.742	97.36
657.094	97.33
657.445	97.26
657.796	97.35
658.147	97.19
658.498	97.16
658.849	97.22
659.2	97.17
659.551	97.09
659.902	97.25
660.253	97.22
660.604	97.44
660.955	97.22
661.306	97.26
661.656	97.29
662.007	97.17
662.358	97.18
662.708	97.39
663.059	97.26
663.409	97.26
663.76	97.27
664.11	97.32
664.461	97.23
664.811	97.27
665.161	97.12
665.511	97.23
665.862	97.26
666.212	97.22
666.562	97.23
666.912	97.29
667.262	97.27
667.612	97.13
667.962	97.16
668.312	97.23
668.662	97.26
669.011	97.21
669.361	97.31
669.711	97.09
670.06	97.21
670.41	97.22
670.76	97.06
671.109	97.22
671.459	97.16
671.808	97.15
672.157	97.3
672.507	97.17
672.856	97.27
673.205	97.24
673.554	97.38
673.904	97.18
674.253	97.24
674.602	97.23
674.951	97.18
675.3	97.12
675.649	97.29
675.998	97.27
676.346	97.18
676.695	97.26
677.044	97.23
677.393	97.16
677.741	97.19
678.09	97.23
678.438	97.32
678.787	97.24
679.135	97.19
679.484	97.16
679.832	97.27
680.181	97.27
680.529	97.17
680.877	97.13
681.225	97.18
681.573	97.3
681.922	97.21
682.27	97.11
682.618	97.15
682.966	97.14
683.314	97.13
683.661	97.16
684.009	97.29
684.357	97.14
684.705	97.1
685.053	97.13
685.4	97.15
685.748	97.01
686.095	97.11
686.443	97.02
686.79	97
687.138	97.12
687.485	97.09
687.832	97.06
688.18	97.17
688.527	97.08
688.874	97.02
689.221	96.87
689.568	97.03
689.915	96.97
690.262	96.87
690.609	97
690.956	96.87
691.303	97
691.65	96.91
691.997	96.85
692.344	96.88
692.69	96.98
693.037	96.92
693.383	96.89
693.73	96.77
694.077	96.93
694.423	96.78
694.769	96.76
695.116	96.7
695.462	96.73
695.808	96.83
696.155	96.73
696.501	96.85
696.847	96.76
697.193	96.74
697.539	96.87
697.885	96.78
698.231	96.65
698.577	96.69
698.923	96.7
699.269	96.51
699.614	96.75
699.96	96.65
700.306	96.58
700.651	96.69
700.997	96.47
701.342	96.69
701.688	96.65
702.033	96.4
702.379	96.48
702.724	96.52
703.069	96.4
703.415	96.32
703.76	96.27
704.105	96.32
704.45	96.43
704.795	96.28
705.14	96.27
705.485	96.31
705.83	96.24
706.175	96.46
706.52	96.39
706.865	96.17
707.209	96.39
707.554	96.18
707.899	96.44
708.243	96.29
708.588	96.16
708.932	96.34
709.277	96.02
709.621	96.12
709.966	95.97
710.31	96.26
710.654	96.07
710.998	96.1
711.342	95.95
711.687	95.92
712.031	96.07
712.375	95.94
712.719	96.11
713.063	96.16
713.407	96.02
713.75	95.91
714.094	95.84
714.438	95.7
714.782	95.89
715.125	95.84
715.469	95.88
715.812	95.99
716.156	95.53
716.499	95.76
716.843	95.86
717.186	95.66
717.53	95.69
717.873	95.65
718.216	95.78
718.559	95.63
718.902	95.5
719.246	95.53
719.589	95.51
719.932	95.45
720.275	95.43
720.617	95.44
720.96	95.38
721.303	95.79
721.646	95.24
721.989	95.55
722.331	95.55
722.674	95.47
723.016	95.24
723.359	95.67
723.701	95.42
724.044	95.57
724.386	95.45
724.729	95.25
725.071	95.24
725.413	95.45
725.755	94.98
726.097	95.43
726.439	95.35
726.782	95.17
727.124	95.45
727.465	94.59
727.807	95.18
728.149	95.33
728.491	95.27
728.833	95.19
729.175	95.01
729.516	95.22
729.858	95.09
730.199	95.16
730.541	94.89
730.882	95.07
731.224	94.98
731.565	94.81
731.906	94.79
732.248	94.81
732.589	94.97
732.93	94.89
733.271	95
733.612	94.78
733.953	94.8
734.294	94.93
734.635	94.97
734.976	94.94
735.317	94.7
735.658	94.72
735.999	94.62
736.339	94.84
736.68	94.66
737.021	94.77
737.361	94.79
737.702	94.66
738.042	94.89
738.383	94.98
738.723	94.7
739.063	94.71
739.404	94.79
739.744	95.1
740.084	94.86
740.424	94.85
740.764	94.81
741.104	94.57
741.444	94.52
741.784	94.52
742.124	94.75
742.464	94.58
742.804	94.35
743.143	94.94
743.483	94.76
743.823	94.38
744.162	94.34
744.502	94.48
744.841	94.56
745.181	94.72
745.52	94.01
745.86	94.49
746.199	94.55
746.538	94.46
746.877	94.34
747.216	94.56
747.556	94.16
747.895	94.33
748.234	94.53
748.573	94.38
748.911	94.49
749.25	94.1
749.589	94.71
749.928	94.3
750.267	94.26
750.605	94.55
750.944	94.48
751.283	94.23
751.621	94.22
751.96	94.15
752.298	94.56
752.636	94.26
752.975	94.21
753.313	94.21
753.651	94.28
753.989	94.38
754.327	94.27
754.666	94.43
755.004	94.24
755.342	94.25
755.679	93.98
756.017	94.18
756.355	94.1
756.693	94.23
757.031	94.39
757.368	94.38
757.706	94.09
758.044	93.92
758.381	94.25
758.719	94.23
759.056	94.25
759.394	94.04
759.731	94.36
760.068	94.22
760.405	93.94
760.743	94.53
761.08	94.11
761.417	94.43
761.754	94.49
762.091	93.88
762.428	93.86
762.765	93.7
763.102	94.16
763.438	94.17
763.775	94.34
764.112	94.01
764.449	93.68
764.785	94.24
765.122	93.73
765.458	93.74
765.795	93.69
766.131	93.96
766.467	93.88
766.804	94.31
767.14	93.57
767.476	93.81
767.812	94.12
768.148	94.19
768.485	93.71
768.821	93.59
769.157	93.64
769.492	93.9
769.828	93.76
770.164	93.9
770.5	93.85
770.836	93.63
771.171	93.74
771.507	93.71
771.842	93.81
772.178	94.01
772.513	93.78
772.849	93.87
773.184	93.89
773.519	94.1
773.855	93.72
774.19	94.34
774.525	93.71
774.86	93.75
775.195	93.69
775.53	93.92
775.865	93.87
776.2	93.78
776.535	93.92
776.87	93.82
777.205	93.79
777.539	93.86
777.874	93.62
778.209	93.8
778.543	93.48
778.878	93.82
779.212	93.71
779.547	93.88
779.881	93.92
780.215	93.89
780.55	93.7
780.884	93.57
781.218	93.85
781.552	93.91
781.886	94.13
782.22	94.05
782.554	93.49
782.888	94.07
783.222	94.04
783.556	94.07
783.889	93.83
784.223	93.46
784.557	93.63
784.89	93.83
785.224	94.14
785.557	94.32
785.891	94.17
786.224	94.23
786.558	93.66
786.891	93.96
787.224	94.12
787.557	94.09
787.891	94.06
788.224	94.34
788.557	93.77
788.89	93.86
789.223	93.78
789.556	93.61
789.888	94.56
790.221	93.41
790.554	93.38
790.887	94.23
791.219	93.73
791.552	93.79
791.884	93.75
792.217	93.69
792.549	93.39
792.882	93.94
793.214	93.77
793.546	93.73
793.879	93.76
794.211	93.64
794.543	93.87
794.875	94.22
795.207	94.11
795.539	93.36
795.871	94.08
796.203	93.76
796.535	94.25
796.867	94.07
797.198	93.53
797.53	93.62
797.862	93.68
798.193	93.37
798.525	93.94
798.856	93.49
799.188	93.82
799.519	93.74
799.85	94.05
800.182	93.92
800.513	94
800.844	93.95
801.175	93.71
801.506	93.98
801.837	94.06
802.168	93.96
802.499	93.77
802.83	93.91
803.161	93.86
803.491	93.54
803.822	94.02
804.153	93.78
804.483	93.54
804.814	93.68
805.145	93.39
805.475	93.44
805.805	93.31
806.136	93.72
806.466	93.65
806.796	94.07
807.126	93.24
807.457	94.06
807.787	93.93
808.117	93.82
808.447	93.45
808.777	93.63
809.107	93.69
809.436	93.77
809.766	93.69
810.096	93.92
810.426	93.57
810.755	93.95
811.085	94.18
811.414	93.52
811.744	93.72
812.073	93.93
812.403	93.43
812.732	93.59
813.061	93.76
813.39	93.25
813.719	93.44
814.049	93.35
814.378	94.04
814.707	93.45
815.036	94.15
815.365	93.68
815.693	93.68
816.022	93.83
816.351	94.29
816.68	94.03
817.008	93.65
817.337	93.66
817.665	93.83
817.994	94.05
818.322	93.77
818.651	94.14
818.979	93.91
819.307	93.24
819.636	93.8
819.964	93.33
820.292	93.61
820.62	94.09
820.948	93.86
821.276	93.83
821.604	93.96
821.932	93.89
822.259	93.51
822.587	93.96
822.915	93.38
823.243	93.99
823.57	94.04
823.898	93.5
824.225	93.82
824.553	94.08
824.88	94.09
825.207	93.96
825.535	93.76
825.862	93.43
826.189	93.56
826.516	93.49
826.843	93.98
827.17	93.9
827.497	93.9
827.824	93.09
828.151	93.68
828.478	93.8
828.805	93.8
829.131	93.86
829.458	93.9
829.785	93.85
830.111	93.93
830.438	94.3
830.764	93.77
831.09	94
831.417	94.07
831.743	93.52
832.069	94.27
832.395	93.8
832.722	93.84
833.048	93.8
833.374	93.73
833.7	93.97
834.026	93.75
834.351	94.11
834.677	94.32
835.003	93.74
835.329	93.69
835.654	93.59
835.98	94.15
836.306	93.79
836.631	93.54
836.956	93.56
837.282	93.83
837.607	93.74
837.932	94.04
838.258	93.19
838.583	93.88
838.908	92.97
839.233	93.58
839.558	93.87
839.883	93.91
840.208	93.87
840.533	93.59
840.858	93.74
841.182	93.17
841.507	93.64
841.832	94.1
842.156	93.38
842.481	93.78
842.805	93.44
843.13	93.9
843.454	94.21
843.778	93.71
844.103	93.42
844.427	93.53
844.751	93.68
845.075	93.84
845.399	93.27
845.723	94.16
846.047	93.86
846.371	93.95
846.695	94.08
847.019	93.7
847.343	93.38
847.666	94
847.99	93.91
848.313	94.16
848.637	93.86
848.96	93.91
849.284	94.03
849.607	93.72
849.931	94.25
850.254	93.15
850.577	93.91
850.9	94.19
851.223	94.34
851.546	94.07
851.869	94.35
852.192	93.99
852.515	93.74
852.838	94.11
853.161	94.02
853.483	94.34
853.806	94.11
854.129	93.83
854.451	94.15
854.774	93.69
855.096	94
855.419	93.05
855.741	94.21
856.063	94.34
856.385	94.1
856.708	94.29
857.03	94.48
857.352	94.13
857.674	94.23
857.996	94.08
858.318	93.73
858.64	94.05
858.961	93.69
859.283	93.68
859.605	94.18
859.926	94.07
860.248	93.83
860.57	93.71
860.891	93.63
861.212	94.06
861.534	93.22
861.855	94.23
862.176	93.36
862.498	93.57
862.819	94.01
863.14	94.52
863.461	94.27
863.782	93.57
864.103	94.28
864.424	94.22
864.745	93.99
865.065	93.41
865.386	93.44
865.707	94.04
866.027	94.1
866.348	93.77
866.668	93.35
866.989	93.71
867.309	94.33
867.63	93.86
867.95	93.05
868.27	93.51
868.59	94.11
868.91	93.69
869.23	93.36
869.55	94.37
869.87	93.93
870.19	93.9
870.51	93.71
870.83	93.85
871.15	93.87
871.469	93.31
871.789	93.52
872.109	94.66
872.428	94.19
872.748	94
873.067	94.38
873.386	93.64
873.706	93.49
874.025	93.64
874.344	93.83
874.663	93.56
874.982	94.23
875.301	92.97
875.62	93.21
875.939	94.2
876.258	93.3
876.577	93.09
876.896	94.33
877.214	93.65
877.533	94.4
877.852	94.21
878.17	93.93
878.489	94.67
878.807	93.04
879.125	93.71
879.444	93.75
879.762	93.83
880.08	93.56
880.398	93.84
880.716	93.77
881.034	93.79
881.352	93.72
881.67	93.79
881.988	94.23
882.306	93.77
882.624	93.4
882.941	93.7
883.259	94.2
883.577	93.09
883.894	94.16
884.212	93.75
884.529	93.54
884.846	93.72
885.164	94.08
885.481	94.01
885.798	93.2
886.115	93.68
886.432	93.87
886.75	93.69
887.067	93.58
887.383	93.61
887.7	94.13
888.017	93.6
888.334	93.86
888.651	93.28
888.967	93.98
889.284	94.13
889.6	94.06
889.917	93.46
890.233	93.81
890.55	93.56
890.866	93.72
891.182	94.31
891.498	94.31
891.815	94.07
892.131	94.25
892.447	93.12
892.763	93.22
893.079	94.01
893.395	93.35
893.71	94.17
894.026	93.67
894.342	93.09
894.657	93.68
894.973	93.87
895.289	94.13
895.604	93.63
895.92	93.76
896.235	94.23
896.55	93.72
896.865	93.68
897.181	93.44
897.496	94.09
897.811	93.72
898.126	93.75
898.441	94.47
898.756	93.35
899.071	93.83
899.386	94.35
899.7	92.99
900.015	93.92
900.33	93.31
900.644	93.17
900.959	93.34
901.273	94.08
901.588	94.33
901.902	93.31
902.216	93.85
902.531	94.03
902.845	93.49
903.159	93.68
903.473	93.97
903.787	94.06
904.101	94.62
904.415	93.87
904.729	94.14
905.042	94.24
905.356	94.66
905.67	93.87
905.984	94.01
906.297	93.86
906.611	93.69
906.924	93.61
907.237	93.62
907.551	93.84
907.864	94.17
908.177	94.13
908.491	94.03
908.804	93.55
909.117	93.98
909.43	93.7
909.743	94.12
910.056	93.83
910.368	93.52
910.681	94.47
910.994	93.52
911.307	93.74
911.619	93.55
911.932	93.43
912.244	93.63
912.557	93.56
912.869	94.54
913.181	94.26
913.494	93.74
913.806	93.99
914.118	93.71
914.43	93.68
914.742	94.02
915.054	94.6
915.366	93.56
915.678	94.37
915.99	93.9
916.302	93.19
916.613	94.03
916.925	93.65
917.236	93.33
917.548	93.87
917.859	93.41
918.171	94.03
918.482	94.1
918.794	93.81
919.105	93.56
919.416	93.13
919.727	94.2
920.038	93.91
920.349	93.55
920.66	93.76
920.971	92.9
921.282	94.31
921.593	93.19
921.903	94.55
922.214	93.21
922.525	94.06
922.835	93.34
923.146	93.49
923.456	92.95
923.767	93.9
924.077	93.31
924.387	94.05
924.697	93.58
925.008	93.66
925.318	93.85
925.628	94.23
925.938	93.27
926.248	93.22
926.558	93.46
926.867	93.16
927.177	93.98
927.487	93.85
927.796	93.39
928.106	94.19
928.416	93.7
928.725	93.06
929.034	93.45
929.344	93.85
929.653	94.41
929.962	94.15
930.271	94.9
930.581	93.7
930.89	94.09
931.199	93.59
931.508	92.93
931.817	93.79
932.125	93.81
932.434	93.08
932.743	93.47
933.051	93.43
933.36	93.27
933.669	93.16
933.977	93.61
934.286	93.82
934.594	93.9
934.902	93.42
935.21	92.83
935.519	93.2
935.827	93.92
936.135	93.46
936.443	93.46
936.751	94.15
937.059	94.56
937.367	93.84
937.674	93.87
937.982	94.17
938.29	93.79
938.597	94.1
938.905	94.25
939.213	93.57
939.52	93.92
939.827	93.32
940.135	93.99
940.442	94.02
940.749	92.78
941.056	94.03
941.363	94.56
941.67	94.46
941.977	93.28
942.284	94.87
942.591	94.63
942.898	93.16
943.205	93.71
943.511	93.6
943.818	93.9
944.125	93.46
944.431	94.02
944.738	93.98
945.044	93.03
945.35	93.88
945.657	93.56
945.963	94.37
946.269	93.32
946.575	94.59
946.881	94.5
947.187	94.15
947.493	93.2
947.799	94.42
948.105	93.95
948.41	94.58
948.716	92.96
949.022	93.11
949.327	94.61
949.633	94.33
949.938	93.66
950.244	93.95
950.549	92.97
950.854	93.86
951.16	94.53
951.465	93.59
951.77	94.3
952.075	93.31
952.38	92.89
952.685	94.74
952.99	94.05
953.294	94.95
953.599	94.85
953.904	93.34
954.209	92.86
954.513	93.6
954.818	94.23
955.122	93.15
955.426	94.16
955.731	95.2
956.035	93.66
956.339	93.42
956.643	92.96
956.948	95.13
957.252	94.34
957.556	93.15
957.86	95.13
958.163	93.57
958.467	94.92
958.771	93.42
959.075	94.72
959.378	93.64
959.682	94.06
959.985	94.01
960.289	95.66
960.592	93.9
960.896	92.68
961.199	93.27
961.502	93.88
961.805	93.47
962.108	93.61
962.411	93.81
962.714	94.9
963.017	94.49
963.32	93.58
963.623	94.72
963.926	93.54
964.228	93.69
964.531	92.72
964.833	94.71
965.136	94.77
965.438	93.25
965.741	93.87
966.043	93.93
966.345	94.96
966.648	94.78
966.95	94.8
967.252	93.85
967.554	94.29
967.856	93.38
968.158	93.81
968.46	94.02
968.761	95.27
969.063	94
969.365	93.05
969.666	93.4
969.968	93.66
970.269	94.05
970.571	93.61
970.872	93.83
971.174	94.29
971.475	94
971.776	93.2
972.077	92.8
972.378	94.05
972.679	94.1
972.98	94.54
973.281	94.35
973.582	93.36
973.883	93.63
974.183	95.15
974.484	93.46
974.785	92.89
975.085	93.38
975.386	93.89
975.686	94.36
975.986	94.72
976.287	94.96
976.587	94.21
976.887	94.25
977.187	93.22
977.487	93.28
977.787	94.67
978.087	94.06
978.387	94.19
978.687	94.91
978.987	94.82
979.286	94.27
979.586	93.32
979.885	95
980.185	93.28
980.484	94.18
980.784	93.98
981.083	93.38
981.382	94.6
981.682	93.24
981.981	92.62
982.28	94.06
982.579	93.91
982.878	93.67
983.177	94.42
983.475	93.26
983.774	94.13
984.073	93.7
984.372	95.51
984.67	94.76
984.969	95.04
985.267	94.83
985.566	94.2
985.864	94.17
986.162	94.52
986.461	94.16
986.759	94.57
987.057	94.15
987.355	93.2
987.653	93.59
987.951	94
988.249	93.9
988.547	95.12
988.844	94.85
989.142	95.28
989.44	93.67
989.737	94.88
990.035	93.24
990.332	94.49
990.63	93.29
990.927	92.72
991.224	94.03
991.521	95.46
991.819	93.17
992.116	95.46
992.413	93.27
992.71	96.54
993.006	93.3
993.303	94.57
993.6	93.7
993.897	94.15
994.193	94.03
994.49	94.38
994.787	93.71
995.083	95.53
995.379	93.93
995.676	94.38
995.972	94.89
996.268	94.79
996.565	92.85
996.861	93.42
997.157	94.02
997.453	94.66
997.749	95.2
998.044	92.44
998.34	94.16
998.636	94.81
998.932	92.48
999.227	92.88
999.523	93.52
999.818	93.99
1000.114	93.17
1000.409	94.64
1000.704	94.91
1001	94.25
1001.295	92.99
1001.59	93.11
1001.885	93.24
1002.18	93.02
1002.475	92.75
1002.77	93.5
1003.065	93.25
1003.359	93.73
1003.654	95.25
1003.949	94.89
1004.243	94.97
1004.538	93.66
1004.832	93.79
1005.127	93.44
1005.421	92.72
1005.715	93.49
1006.009	94.68
1006.304	93.2
1006.598	95.23
1006.892	91.57
1007.186	94.32
1007.48	93.38
1007.773	92.88
1008.067	95.1
1008.361	94.56
1008.655	91.97
1008.948	94.56
1009.242	94.25
1009.535	93.16
1009.829	94.21
1010.122	93.43
1010.415	93.26
1010.708	95
1011.001	95.16
1011.295	93.17
1011.588	93.52
1011.881	93.49
1012.173	93.85
1012.466	94.02
1012.759	94.02
1013.052	91.65
1013.344	94.49
1013.637	92.73
1013.93	92.28
1014.222	93.94
1014.514	94.09
1014.807	93.64
1015.099	93.23
1015.391	93.16
1015.683	93.88
1015.976	94.54
1016.268	92.23
1016.56	93.93
1016.851	94.3
1017.143	95.19
1017.435	92.9
1017.727	92.47
1018.018	92.3
1018.31	92.27
1018.602	94.17
1018.893	94.06
1019.185	94.22
1019.476	94.3
1019.767	94.26
1020.058	93.6
1020.35	95.48
1020.641	94.89
1020.932	93.77
1021.223	95.25
1021.514	92.24
1021.804	95.33
1022.095	96.55
1022.386	94.97
1022.677	94.09
1022.967	95.38
1023.258	95.17
1023.548	93.76
1023.839	92.48
1024.129	94.49
1024.419	97.5
1024.709	93.13
1025	95.53
1025.29	92.82
1025.58	92.27
1025.87	92.84
1026.16	94.7
1026.449	94.24
1026.739	93.31
1027.029	94.12
1027.319	91.68
1027.608	93.22
1027.898	95.5
1028.187	93.3
1028.477	92.78
1028.766	93.59
1029.055	95.53
1029.344	96.42
1029.634	95.73
1029.923	95.91
1030.212	95.49
1030.501	92.61
1030.79	93.53
1031.078	92.65
1031.367	94.74
1031.656	94.55
1031.945	92.88
1032.233	93.46
1032.522	94
1032.81	94.02
1033.099	95.74
1033.387	93
1033.675	92.2
1033.963	93.07
1034.251	92.63
1034.54	93.89
1034.828	95.17
1035.116	94.4
1035.403	99.68
1035.691	94.32
1035.979	93.94
1036.267	93.34
1036.554	92.12
1036.842	96.55
1037.129	89.78
1037.417	92.05
1037.704	92.56
1037.992	93.04
1038.279	95.19
1038.566	95.88
1038.853	95.88
1039.14	95.88
