Data from White_reflection_standard_Reflection_00007.txt Node
Date: Mon Feb 06 14:42:24 GMT 2017
User: dcchb
Spectrometer: FLMS00149
Trigger mode: 0
Integration Time (sec): 2.000000E-2
Scans to average: 10
Electric dark correction enabled: true
Nonlinearity correction enabled: false
Boxcar width: 0
XAxis mode: Wavelengths
Number of Pixels in Spectrum: 2048
>>>>>Begin Spectral Data<<<<<
341.393	-230.1
341.776	-230.1
342.16	-230.1
342.543	-29.51
342.927	-313.13
343.31	-220.19
343.693	-58.47
344.077	-75.05
344.46	155.07
344.843	-11.76
345.226	370.7
345.61	-13.48
345.993	170.75
346.376	-224.43
346.759	-45.27
347.142	0.86
347.525	222.77
347.908	149.09
348.291	-531.28
348.674	70.91
349.057	-172.25
349.44	81.99
349.823	-164.4
350.206	63.36
350.588	93.74
350.971	87.74
351.354	69.44
351.737	82.02
352.119	122.24
352.502	103.12
352.884	104.56
353.267	93.08
353.65	76.74
354.032	104.05
354.414	109.78
354.797	74.32
355.179	99.87
355.562	74.45
355.944	100.1
356.326	93.27
356.709	86.26
357.091	101.81
357.473	92.61
357.855	105.52
358.238	96.4
358.62	86.26
359.002	81.35
359.384	67.12
359.766	97.92
360.148	87.88
360.53	63.97
360.912	92.85
361.294	88.68
361.676	106.29
362.057	100.24
362.439	91.94
362.821	83.7
363.203	91.27
363.584	84.22
363.966	73.64
364.348	77.12
364.729	93.94
365.111	120.18
365.493	87.66
365.874	91.08
366.256	83.09
366.637	84.67
367.019	92.72
367.4	95.01
367.781	88.01
368.163	80.1
368.544	91.16
368.925	76.9
369.306	109.48
369.688	91.52
370.069	97.96
370.45	87.73
370.831	104.83
371.212	100.76
371.593	84.46
371.974	91.38
372.355	87.87
372.736	94
373.117	89.22
373.498	85.14
373.879	83.63
374.26	87.22
374.641	85.53
375.021	83.87
375.402	87.91
375.783	82.55
376.163	98.57
376.544	93.84
376.925	99.6
377.305	80.51
377.686	88.24
378.066	94.04
378.447	82.69
378.827	94.71
379.208	91.33
379.588	93.24
379.968	100.31
380.349	88.44
380.729	88.13
381.109	95.89
381.489	90.09
381.87	97.77
382.25	89.98
382.63	89.95
383.01	92.7
383.39	93.56
383.77	94.1
384.15	87.46
384.53	92.55
384.91	94.8
385.29	94.88
385.67	87.66
386.049	88.73
386.429	84.21
386.809	89.62
387.189	90.34
387.568	98.25
387.948	100.07
388.328	91.95
388.707	99.37
389.087	89.23
389.466	95.94
389.846	85.92
390.225	92.19
390.605	90.82
390.984	88.77
391.363	93.46
391.743	94.32
392.122	97.62
392.501	95.06
392.881	88.57
393.26	89.41
393.639	93.45
394.018	89.71
394.397	95.57
394.776	96.97
395.155	91.71
395.534	94.66
395.913	90.25
396.292	91.69
396.671	97.01
397.05	95.46
397.429	89.45
397.808	89.88
398.186	90.61
398.565	90.76
398.944	94.51
399.323	93.84
399.701	90.8
400.08	91.77
400.458	92.91
400.837	96.85
401.215	91.19
401.594	91.48
401.972	93.02
402.351	90.09
402.729	90.92
403.107	95.04
403.486	94.09
403.864	91.57
404.242	96.04
404.62	92.4
404.999	92.42
405.377	92.29
405.755	96.66
406.133	93.54
406.511	93.86
406.889	95.35
407.267	92.84
407.645	95.17
408.023	95.42
408.401	91.79
408.779	92.96
409.156	95.67
409.534	95.41
409.912	95.09
410.29	92.93
410.667	93.82
411.045	94.6
411.422	93.86
411.8	92.52
412.178	94.6
412.555	93.96
412.933	93.19
413.31	95.19
413.687	91.41
414.065	92.72
414.442	94.24
414.819	93.45
415.197	95.28
415.574	92.87
415.951	91.19
416.328	94.15
416.705	91.39
417.082	93.95
417.46	92.83
417.837	95.16
418.214	94.67
418.591	93
418.967	92.67
419.344	93.01
419.721	93.46
420.098	95.17
420.475	94.62
420.852	93.44
421.228	90.3
421.605	93.62
421.982	93.47
422.358	94.18
422.735	94.27
423.111	92.83
423.488	92.2
423.864	94.08
424.241	91.22
424.617	94.87
424.994	91.53
425.37	92.31
425.746	92.43
426.123	93.84
426.499	93.7
426.875	94.45
427.251	90.89
427.627	93.64
428.003	90.85
428.379	93.26
428.756	93.68
429.132	92.7
429.507	94.43
429.883	93.06
430.259	91.74
430.635	94
431.011	94.21
431.387	93.5
431.763	93.69
432.138	93.9
432.514	94.18
432.89	92.72
433.265	92.85
433.641	93.04
434.016	94.35
434.392	93.26
434.767	92.7
435.143	94.44
435.518	92.54
435.894	91.48
436.269	93.41
436.644	95.43
437.02	92.96
437.395	94.65
437.77	94.1
438.145	92.94
438.52	93.42
438.895	92.61
439.271	93.07
439.646	92.62
440.021	92.73
440.395	94.12
440.77	95.21
441.145	93.24
441.52	92.1
441.895	92.93
442.27	93.07
442.645	92.91
443.019	93.31
443.394	94.6
443.769	93.92
444.143	93.92
444.518	92.11
444.892	94.07
445.267	93.54
445.641	93.5
446.016	93.19
446.39	92.8
446.764	92.96
447.139	93.89
447.513	93.55
447.887	93.25
448.262	94.68
448.636	92.89
449.01	93.14
449.384	93.59
449.758	92.83
450.132	93.24
450.506	92.97
450.88	93.47
451.254	93.9
451.628	92.39
452.002	93.84
452.376	93.77
452.75	93.12
453.123	94.49
453.497	93.76
453.871	92.91
454.244	93.08
454.618	93.83
454.992	93.5
455.365	93.31
455.739	92.14
456.112	93.34
456.486	93.62
456.859	93.38
457.232	92.93
457.606	92.56
457.979	93.7
458.352	94.23
458.725	93.16
459.099	93.5
459.472	92.76
459.845	93.3
460.218	92.33
460.591	94.35
460.964	93.47
461.337	93.22
461.71	93.44
462.083	93.23
462.456	93.61
462.829	92.68
463.201	93.88
463.574	93.44
463.947	94.07
464.32	94.54
464.692	92.99
465.065	93.25
465.438	92.84
465.81	92.47
466.183	93.06
466.555	92.67
466.928	92.95
467.3	93.57
467.672	92.7
468.045	93.35
468.417	94.03
468.789	93.44
469.161	92.66
469.534	93.32
469.906	93.77
470.278	93.36
470.65	92.5
471.022	92.98
471.394	93.23
471.766	92.62
472.138	93.83
472.51	92.69
472.882	93.36
473.253	93.36
473.625	92.61
473.997	92.74
474.369	93.23
474.74	93.23
475.112	93.81
475.484	92.7
475.855	92.48
476.227	92.64
476.598	93.67
476.97	93.46
477.341	93.16
477.713	92.98
478.084	93.21
478.455	92.69
478.827	92.46
479.198	93.16
479.569	93.95
479.94	93.1
480.311	93.48
480.682	92.92
481.053	93.44
481.424	92.95
481.795	92.88
482.166	93.88
482.537	93.23
482.908	93.02
483.279	92.67
483.65	93.82
484.021	93.69
484.391	93.37
484.762	93.95
485.133	92.81
485.503	93.58
485.874	92.99
486.244	93.19
486.615	93.37
486.985	93.17
487.356	93.77
487.726	93.2
488.097	93.31
488.467	93.72
488.837	93.44
489.207	93.42
489.578	93.36
489.948	93.5
490.318	92.84
490.688	93.09
491.058	93.17
491.428	93.51
491.798	93.5
492.168	93.29
492.538	93.3
492.908	93.75
493.278	93.79
493.648	93.09
494.017	93.23
494.387	93.35
494.757	93.96
495.126	93.39
495.496	93.38
495.866	92.7
496.235	93.16
496.605	92.97
496.974	93.81
497.344	93.62
497.713	93.45
498.082	94.1
498.452	93.25
498.821	93.36
499.19	93.79
499.559	92.85
499.928	93.43
500.298	93.55
500.667	93.84
501.036	93.38
501.405	93.13
501.774	93.05
502.143	93.67
502.512	93.54
502.88	93.48
503.249	93.25
503.618	93.38
503.987	93.45
504.356	93.2
504.724	93.62
505.093	93.52
505.462	93.4
505.83	93.6
506.199	93.43
506.567	93.16
506.936	93.41
507.304	93.63
507.672	93.47
508.041	93.61
508.409	93.15
508.777	93.34
509.145	93.17
509.514	93.37
509.882	93.36
510.25	93.6
510.618	93.44
510.986	93.36
511.354	93.62
511.722	93.64
512.09	93.57
512.458	93.6
512.826	93.24
513.193	93.31
513.561	93.75
513.929	93.12
514.297	93.48
514.664	93.23
515.032	93.59
515.4	93.32
515.767	93.58
516.135	93.56
516.502	93.46
516.869	93.4
517.237	93.33
517.604	93.04
517.972	93.07
518.339	93.56
518.706	93.33
519.073	93.28
519.44	93.64
519.808	93.57
520.175	93.39
520.542	93.49
520.909	93.8
521.276	93.72
521.643	93.34
522.009	93.26
522.376	93.5
522.743	93.69
523.11	93.64
523.477	93.89
523.843	93.77
524.21	93.74
524.577	93.85
524.943	93.81
525.31	94
525.676	93.8
526.043	93.65
526.409	93.81
526.776	94.07
527.142	93.7
527.508	93.85
527.874	93.75
528.241	93.78
528.607	93.73
528.973	93.79
529.339	94.13
529.705	93.73
530.071	93.8
530.437	94.04
530.803	93.78
531.169	94.01
531.535	93.81
531.901	94.3
532.267	93.98
532.632	94.17
532.998	94.05
533.364	94.21
533.73	94.36
534.095	94.39
534.461	94.4
534.826	94.63
535.192	94.01
535.557	94.03
535.923	94.27
536.288	94.43
536.653	94.62
537.019	94.41
537.384	94.88
537.749	94.74
538.114	94.39
538.479	94.36
538.845	94.89
539.21	94.67
539.575	94.98
539.94	94.74
540.305	94.79
540.67	94.73
541.034	94.63
541.399	94.41
541.764	95.15
542.129	95.05
542.494	95.06
542.858	94.9
543.223	94.91
543.587	95.03
543.952	94.84
544.316	95.36
544.681	94.78
545.045	94.92
545.41	95.45
545.774	95.25
546.138	95.44
546.503	95.29
546.867	95.37
547.231	95.4
547.595	95.5
547.959	95.61
548.324	95.61
548.688	95.67
549.052	95.47
549.416	95.8
549.779	95.87
550.143	95.63
550.507	96.06
550.871	95.75
551.235	95.73
551.599	96.01
551.962	95.86
552.326	95.74
552.689	96
553.053	95.84
553.417	95.82
553.78	95.96
554.143	95.92
554.507	96.01
554.87	96.12
555.234	96.03
555.597	95.93
555.96	96.08
556.323	96.36
556.686	96.21
557.05	96.15
557.413	96.11
557.776	96.24
558.139	96.42
558.502	96.35
558.865	96.3
559.228	96.56
559.59	96.41
559.953	96.44
560.316	96.55
560.679	96.51
561.041	96.54
561.404	96.5
561.767	96.75
562.129	96.5
562.492	96.63
562.854	96.83
563.217	96.66
563.579	96.79
563.941	96.71
564.304	96.7
564.666	96.84
565.028	96.72
565.39	96.84
565.753	96.96
566.115	96.82
566.477	96.76
566.839	96.9
567.201	96.99
567.563	96.81
567.925	96.97
568.287	97.04
568.648	97.11
569.01	97.05
569.372	97.11
569.734	96.98
570.095	97.09
570.457	97.16
570.819	97.09
571.18	97
571.542	97.17
571.903	97.06
572.265	97.22
572.626	97.15
572.987	97.03
573.349	97.03
573.71	97.21
574.071	97.26
574.432	97.03
574.794	97.08
575.155	97.3
575.516	97.2
575.877	97.24
576.238	97.22
576.599	97.22
576.96	97.14
577.32	97.29
577.681	97.28
578.042	97.15
578.403	97.28
578.763	97.26
579.124	97.46
579.485	97.26
579.845	97.5
580.206	97.44
580.566	97.19
580.927	97.29
581.287	97.37
581.648	97.25
582.008	97.21
582.368	97.24
582.728	97.43
583.089	97.28
583.449	97.29
583.809	97.27
584.169	97.32
584.529	97.29
584.889	97.32
585.249	97.26
585.609	97.18
585.969	97.37
586.329	97.3
586.688	97.33
587.048	97.3
587.408	97.23
587.768	97.19
588.127	97.31
588.487	97.09
588.846	97.24
589.206	97.36
589.565	97.28
589.925	97.22
590.284	97.18
590.643	97.32
591.003	97.15
591.362	97.39
591.721	97.47
592.08	97.28
592.44	97.23
592.799	97.31
593.158	97.36
593.517	97.35
593.876	97.17
594.235	97.31
594.593	97.41
594.952	97.41
595.311	97.29
595.67	97.26
596.029	97.34
596.387	97.35
596.746	97.35
597.104	97.39
597.463	97.42
597.822	97.25
598.18	97.39
598.538	97.25
598.897	97.44
599.255	97.29
599.613	97.34
599.972	97.39
600.33	97.35
600.688	97.47
601.046	97.46
601.404	97.46
601.762	97.23
602.12	97.5
602.478	97.29
602.836	97.5
603.194	97.3
603.552	97.47
603.91	97.41
604.268	97.36
604.625	97.36
604.983	97.41
605.341	97.47
605.698	97.4
606.056	97.41
606.413	97.45
606.771	97.43
607.128	97.38
607.485	97.42
607.843	97.46
608.2	97.41
608.557	97.39
608.914	97.43
609.272	97.45
609.629	97.46
609.986	97.31
610.343	97.31
610.7	97.42
611.057	97.44
611.414	97.36
611.771	97.34
612.127	97.35
612.484	97.42
612.841	97.37
613.198	97.48
613.554	97.52
613.911	97.46
614.267	97.39
614.624	97.44
614.98	97.5
615.337	97.47
615.693	97.45
616.05	97.5
616.406	97.56
616.762	97.5
617.118	97.56
617.475	97.47
617.831	97.62
618.187	97.53
618.543	97.38
618.899	97.43
619.255	97.53
619.611	97.41
619.967	97.47
620.323	97.51
620.678	97.46
621.034	97.38
621.39	97.39
621.746	97.47
622.101	97.35
622.457	97.51
622.812	97.34
623.168	97.41
623.523	97.46
623.879	97.36
624.234	97.6
624.589	97.53
624.945	97.53
625.3	97.57
625.655	97.51
626.01	97.38
626.365	97.4
626.72	97.46
627.075	97.62
627.43	97.48
627.785	97.56
628.14	97.54
628.495	97.5
628.85	97.54
629.205	97.53
629.559	97.37
629.914	97.49
630.269	97.48
630.623	97.47
630.978	97.48
631.332	97.4
631.687	97.43
632.041	97.55
632.396	97.46
632.75	97.42
633.104	97.3
633.459	97.46
633.813	97.41
634.167	97.43
634.521	97.46
634.875	97.39
635.229	97.53
635.583	97.38
635.937	97.43
636.291	97.34
636.645	97.38
636.999	97.36
637.352	97.37
637.706	97.24
638.06	97.43
638.413	97.43
638.767	97.35
639.121	97.47
639.474	97.27
639.828	97.41
640.181	97.44
640.534	97.36
640.888	97.4
641.241	97.39
641.594	97.44
641.947	97.33
642.301	97.42
642.654	97.32
643.007	97.37
643.36	97.49
643.713	97.49
644.066	97.44
644.419	97.19
644.771	97.35
645.124	97.35
645.477	97.22
645.83	97.25
646.182	97.41
646.535	97.24
646.888	97.33
647.24	97.33
647.593	97.31
647.945	97.26
648.298	97.17
648.65	97.22
649.002	97.32
649.355	97.2
649.707	97.22
650.059	97.28
650.411	97.27
650.763	97.31
651.115	97.38
651.467	97.37
651.819	97.37
652.171	97.35
652.523	97.31
652.875	97.23
653.227	97.25
653.578	97.36
653.93	97.31
654.282	97.31
654.633	97.32
654.985	97.26
655.337	97.32
655.688	97.4
656.039	97.24
656.391	97.19
656.742	97.38
657.094	97.35
657.445	97.34
657.796	97.23
658.147	97.37
658.498	97.21
658.849	97.26
659.2	97.28
659.551	96.94
659.902	97.26
660.253	97.26
660.604	97.38
660.955	97.27
661.306	97.25
661.656	97.33
662.007	97.25
662.358	97.21
662.708	97.21
663.059	97.28
663.409	97.32
663.76	97.31
664.11	97.26
664.461	97.18
664.811	97.17
665.161	97.21
665.511	97.24
665.862	97.19
666.212	97.22
666.562	97.15
666.912	97.22
667.262	97.17
667.612	97.17
667.962	97.21
668.312	97.19
668.662	97.28
669.011	97.26
669.361	97.24
669.711	97.08
670.06	97.17
670.41	97.19
670.76	97.22
671.109	97.31
671.459	97.26
671.808	97.19
672.157	97.35
672.507	97.11
672.856	97.27
673.205	97.19
673.554	97.31
673.904	97.2
674.253	97.15
674.602	97.3
674.951	97.23
675.3	97.06
675.649	97.13
675.998	97.18
676.346	97.2
676.695	97.32
677.044	97.31
677.393	97.26
677.741	97.25
678.09	97.16
678.438	97.2
678.787	97.32
679.135	97.29
679.484	97.08
679.832	97.23
680.181	97.32
680.529	97.12
680.877	97.22
681.225	97.24
681.573	97.19
681.922	97.17
682.27	97.1
682.618	96.98
682.966	97.2
683.314	97.06
683.661	97.34
684.009	97.17
684.357	97.13
684.705	97.07
685.053	97.17
685.4	97.04
685.748	97.09
686.095	97
686.443	97.05
686.79	97.07
687.138	97.05
687.485	97.15
687.832	96.92
688.18	97.19
688.527	97.01
688.874	96.92
689.221	96.97
689.568	96.97
689.915	97.04
690.262	96.9
690.609	96.96
690.956	96.85
691.303	96.93
691.65	96.92
691.997	96.96
692.344	96.92
692.69	96.88
693.037	96.76
693.383	97.02
693.73	96.8
694.077	96.84
694.423	96.77
694.769	96.76
695.116	96.96
695.462	96.74
695.808	96.88
696.155	96.81
696.501	96.62
696.847	96.88
697.193	96.69
697.539	96.81
697.885	96.72
698.231	96.51
698.577	96.81
698.923	96.82
699.269	96.53
699.614	96.8
699.96	96.63
700.306	96.67
700.651	96.57
700.997	96.45
701.342	96.6
701.688	96.56
702.033	96.55
702.379	96.62
702.724	96.48
703.069	96.55
703.415	96.51
703.76	96.31
704.105	96.38
704.45	96.42
704.795	96.16
705.14	96.35
705.485	96.3
705.83	96.33
706.175	96.45
706.52	96.33
706.865	96.3
707.209	96.33
707.554	96.28
707.899	96.08
708.243	96.29
708.588	96.3
708.932	96.28
709.277	96.05
709.621	96.15
709.966	96.01
710.31	96.26
710.654	96.07
710.998	95.9
711.342	95.92
711.687	96.12
712.031	95.97
712.375	96.03
712.719	96.04
713.063	96.01
713.407	95.99
713.75	96.08
714.094	95.94
714.438	95.79
714.782	96
715.125	95.72
715.469	95.8
715.812	95.91
716.156	95.57
716.499	95.85
716.843	95.75
717.186	95.77
717.53	95.69
717.873	95.6
718.216	95.77
718.559	95.68
718.902	95.69
719.246	95.5
719.589	95.6
719.932	95.24
720.275	95.46
720.617	95.57
720.96	95.51
721.303	95.34
721.646	95.41
721.989	95.44
722.331	95.38
722.674	95.37
723.016	95.26
723.359	95.16
723.701	95.78
724.044	95.44
724.386	95.22
724.729	95.48
725.071	95.26
725.413	95.26
725.755	95.2
726.097	95.42
726.439	95.29
726.782	94.95
727.124	95.47
727.465	95.17
727.807	95.14
728.149	95.06
728.491	95.3
728.833	95.01
729.175	95.15
729.516	95.2
729.858	95.13
730.199	94.98
730.541	94.97
730.882	94.92
731.224	94.85
731.565	95.1
731.906	94.77
732.248	95.11
732.589	95.03
732.93	95.19
733.271	94.86
733.612	94.79
733.953	94.91
734.294	94.82
734.635	94.67
734.976	94.98
735.317	94.8
735.658	94.7
735.999	94.48
736.339	94.96
736.68	94.48
737.021	94.61
737.361	94.63
737.702	94.83
738.042	95.07
738.383	94.83
738.723	94.81
739.063	94.53
739.404	94.58
739.744	94.86
740.084	94.55
740.424	95.05
740.764	94.61
741.104	94.25
741.444	94.87
741.784	94.66
742.124	94.81
742.464	94.56
742.804	94.32
743.143	94.79
743.483	94.73
743.823	94.35
744.162	94.54
744.502	94.4
744.841	94.32
745.181	94.42
745.52	94.36
745.86	94.66
746.199	94.82
746.538	94.39
746.877	94.65
747.216	94.58
747.556	94.3
747.895	94.31
748.234	94.34
748.573	94.42
748.911	94.4
749.25	94.3
749.589	94.68
749.928	94.03
750.267	94.52
750.605	94.5
750.944	94.42
751.283	94.72
751.621	94.32
751.96	94.12
752.298	94.4
752.636	94.26
752.975	93.94
753.313	94.07
753.651	94.14
753.989	94.31
754.327	94.03
754.666	94.34
755.004	94.31
755.342	94.47
755.679	94.15
756.017	94.34
756.355	93.81
756.693	93.86
757.031	94.24
757.368	94.06
757.706	93.96
758.044	93.89
758.381	94.11
758.719	94.27
759.056	94.2
759.394	94.18
759.731	94.29
760.068	94.48
760.405	94.33
760.743	94.08
761.08	94.22
761.417	94.28
761.754	94.27
762.091	93.95
762.428	93.96
762.765	93.93
763.102	94.01
763.438	94.26
763.775	94.52
764.112	93.89
764.449	94
764.785	94.19
765.122	93.97
765.458	93.91
765.795	93.74
766.131	94.15
766.467	93.88
766.804	94.82
767.14	93.81
767.476	94.01
767.812	93.9
768.148	94.1
768.485	93.97
768.821	93.76
769.157	93.62
769.492	93.79
769.828	93.65
770.164	93.82
770.5	93.83
770.836	94.08
771.171	93.94
771.507	94.23
771.842	93.92
772.178	94
772.513	93.87
772.849	93.78
773.184	93.85
773.519	94.35
773.855	94.29
774.19	94.11
774.525	93.57
774.86	93.85
775.195	93.93
775.53	93.92
775.865	93.49
776.2	93.68
776.535	93.81
776.87	93.91
777.205	94.24
777.539	93.87
777.874	94.07
778.209	93.69
778.543	93.74
778.878	93.86
779.212	94.11
779.547	93.96
779.881	93.88
780.215	93.82
780.55	93.65
780.884	93.9
781.218	93.6
781.552	94.09
781.886	94.08
782.22	93.89
782.554	93.35
782.888	93.65
783.222	94.25
783.556	93.64
783.889	93.92
784.223	93.73
784.557	93.75
784.89	94.2
785.224	94.04
785.557	94
785.891	94.23
786.224	94.25
786.558	94.31
786.891	93.61
787.224	94.1
787.557	94.18
787.891	94.06
788.224	94
788.557	94.09
788.89	93.4
789.223	93.52
789.556	93.49
789.888	94.42
790.221	93.76
790.554	93.77
790.887	93.91
791.219	93.64
791.552	93.47
791.884	93.61
792.217	94.02
792.549	93.45
792.882	93.76
793.214	93.74
793.546	93.59
793.879	93.46
794.211	93.6
794.543	93.99
794.875	93.65
795.207	93.97
795.539	93.93
795.871	93.9
796.203	93.77
796.535	94.24
796.867	93.76
797.198	93.71
797.53	93.54
797.862	93.41
798.193	93.58
798.525	93.99
798.856	93.45
799.188	93.97
799.519	93.38
799.85	94.03
800.182	93.48
800.513	94.1
800.844	93.85
801.175	93.9
801.506	94.24
801.837	94.41
802.168	93.86
802.499	93.94
802.83	93.77
803.161	93.68
803.491	93.77
803.822	93.78
804.153	93.83
804.483	93.56
804.814	93.84
805.145	93.93
805.475	93.33
805.805	93.7
806.136	93.81
806.466	93.48
806.796	94.33
807.126	93.66
807.457	93.83
807.787	94.18
808.117	93.92
808.447	93.76
808.777	94.13
809.107	93.72
809.436	94.1
809.766	93.53
810.096	93.9
810.426	93.91
810.755	94.49
811.085	93.89
811.414	93.46
811.744	93.45
812.073	93.98
812.403	93.7
812.732	93.76
813.061	93.7
813.39	93.34
813.719	93.73
814.049	93.73
814.378	93.86
814.707	93.88
815.036	93.74
815.365	93.91
815.693	93.38
816.022	93.29
816.351	93.81
816.68	93.65
817.008	93.72
817.337	93.62
817.665	93.71
817.994	93.57
818.322	93.97
818.651	94.01
818.979	94.02
819.307	93.3
819.636	93.48
819.964	93.42
820.292	93.84
820.62	93.91
820.948	93.45
821.276	94.04
821.604	93.77
821.932	94.11
822.259	93.69
822.587	93.89
822.915	93.64
823.243	93.74
823.57	93.99
823.898	93.73
824.225	94.1
824.553	94.16
824.88	93.93
825.207	94.17
825.535	94.15
825.862	93.61
826.189	93.52
826.516	93.54
826.843	93.61
827.17	93.45
827.497	93.42
827.824	93.28
828.151	93.66
828.478	93.94
828.805	94.24
829.131	93.93
829.458	93.99
829.785	93.93
830.111	93.71
830.438	94.09
830.764	93.76
831.09	93.66
831.417	93.57
831.743	93.44
832.069	94.25
832.395	93.88
832.722	94.16
833.048	94.04
833.374	93.97
833.7	94.13
834.026	93.73
834.351	94.01
834.677	94.06
835.003	93.61
835.329	93.55
835.654	93.39
835.98	93.85
836.306	93.88
836.631	93.4
836.956	93.84
837.282	93.91
837.607	94.05
837.932	94.23
838.258	93.84
838.583	93.72
838.908	93.2
839.233	93.58
839.558	93.73
839.883	93.73
840.208	93.96
840.533	93.61
840.858	94.17
841.182	93.95
841.507	93.52
841.832	94.36
842.156	93.52
842.481	93.96
842.805	93.47
843.13	93.38
843.454	94.08
843.778	93.37
844.103	93.69
844.427	93.72
844.751	93.49
845.075	93.57
845.399	93.57
845.723	94.14
846.047	94.09
846.371	93.92
846.695	93.72
847.019	93.82
847.343	93.82
847.666	93.52
847.99	93.23
848.313	93.92
848.637	93.66
848.96	94.08
849.284	94.34
849.607	93.52
849.931	94.07
850.254	93
850.577	93.86
850.9	93.7
851.223	94.48
851.546	93.99
851.869	94.08
852.192	93.54
852.515	94.03
852.838	94.46
853.161	93.79
853.483	93.66
853.806	94.04
854.129	93.89
854.451	94.01
854.774	93.4
855.096	94.02
855.419	93.52
855.741	93.99
856.063	94.2
856.385	94.11
856.708	94.19
857.03	94.21
857.352	94.19
857.674	94.45
857.996	93.65
858.318	93.43
858.64	94.72
858.961	93.61
859.283	94.02
859.605	94.09
859.926	94.15
860.248	93.5
860.57	93.82
860.891	94.17
861.212	94.04
861.534	93.6
861.855	94.49
862.176	93.88
862.498	93.4
862.819	93.81
863.14	94.29
863.461	94.64
863.782	93.76
864.103	94.55
864.424	93.83
864.745	94.23
865.065	93.68
865.386	93.23
865.707	94.37
866.027	94.02
866.348	93.87
866.668	93.73
866.989	93.53
867.309	94.26
867.63	94.27
867.95	93.96
868.27	93.64
868.59	94.35
868.91	93.64
869.23	93.11
869.55	94.18
869.87	93.55
870.19	93.18
870.51	94.11
870.83	94.14
871.15	93.9
871.469	93.17
871.789	93.81
872.109	93.96
872.428	94.5
872.748	94
873.067	93.82
873.386	93.9
873.706	93.74
874.025	93.52
874.344	93.8
874.663	93.84
874.982	93.75
875.301	93.48
875.62	93.87
875.939	94.19
876.258	93.7
876.577	93.43
876.896	94.07
877.214	93.54
877.533	93.86
877.852	93.98
878.17	93.81
878.489	93.82
878.807	92.83
879.125	93.25
879.444	93.89
879.762	94.03
880.08	93.69
880.398	94.33
880.716	93.85
881.034	93.78
881.352	93.46
881.67	93.63
881.988	93.56
882.306	93.58
882.624	93.63
882.941	93.13
883.259	93.71
883.577	93.39
883.894	94.06
884.212	93.5
884.529	93.36
884.846	93.38
885.164	94.14
885.481	93.34
885.798	93.37
886.115	94.14
886.432	93.73
886.75	94.11
887.067	94.04
887.383	93.75
887.7	93.9
888.017	93.79
888.334	93.74
888.651	92.81
888.967	93.94
889.284	93.83
889.6	93.92
889.917	93.71
890.233	94.19
890.55	93.58
890.866	93.65
891.182	94.07
891.498	94.07
891.815	93.63
892.131	93.65
892.447	93.2
892.763	93.31
893.079	93.41
893.395	93.2
893.71	93.59
894.026	93.9
894.342	92.99
894.657	93.41
894.973	94.05
895.289	94.19
895.604	93.42
895.92	93.42
896.235	93.99
896.55	94.28
896.865	93.71
897.181	93.33
897.496	94.2
897.811	93.68
898.126	93.72
898.441	94.17
898.756	93.43
899.071	93.93
899.386	94.09
899.7	93.39
900.015	93.61
900.33	93.64
900.644	93.02
900.959	93.99
901.273	93.99
901.588	93.87
901.902	93.28
902.216	93.72
902.531	94.11
902.845	93.25
903.159	92.85
903.473	93.84
903.787	94.13
904.101	94.59
904.415	93.61
904.729	94.12
905.042	94.75
905.356	94.05
905.67	93.2
905.984	94.29
906.297	93.68
906.611	93.75
906.924	93.63
907.237	93.68
907.551	93.9
907.864	94.52
908.177	93.67
908.491	94.01
908.804	93.71
909.117	94.42
909.43	94.1
909.743	93.5
910.056	94.21
910.368	93.46
910.681	93.52
910.994	93.68
911.307	93.74
911.619	93.85
911.932	93.59
912.244	93.68
912.557	93.96
912.869	94.25
913.181	93.65
913.494	93.62
913.806	94.46
914.118	93.88
914.43	93.63
914.742	93.54
915.054	93.71
915.366	93.31
915.678	94.07
915.99	94.56
916.302	93.53
916.613	94.04
916.925	93.87
917.236	93.38
917.548	93.99
917.859	93.09
918.171	93.91
918.482	93.6
918.794	93.86
919.105	93.26
919.416	93.35
919.727	93.64
920.038	94
920.349	93.61
920.66	93.86
920.971	93.14
921.282	93.54
921.593	93.26
921.903	93.74
922.214	93.37
922.525	94.51
922.835	93.54
923.146	94.4
923.456	93.25
923.767	93.36
924.077	93.35
924.387	94.45
924.697	93.43
925.008	94.45
925.318	93.67
925.628	94.4
925.938	93.57
926.248	93.03
926.558	92.95
926.867	93.06
927.177	93.53
927.487	94.51
927.796	94.06
928.106	93
928.416	94
928.725	93.72
929.034	93.48
929.344	92.85
929.653	94.39
929.962	93.64
930.271	94.63
930.581	94
930.89	94.02
931.199	93.94
931.508	93.42
931.817	94.08
932.125	93.95
932.434	93.98
932.743	93.61
933.051	94.39
933.36	92.84
933.669	93.3
933.977	93.38
934.286	94.09
934.594	94.01
934.902	93.72
935.21	93.3
935.519	93.45
935.827	93.74
936.135	93.52
936.443	93.96
936.751	94.59
937.059	94.16
937.367	93.81
937.674	93.62
937.982	94.2
938.29	94.35
938.597	93.7
938.905	94.61
939.213	93.9
939.52	93.9
939.827	93.25
940.135	93.15
940.442	93.4
940.749	93.66
941.056	94.5
941.363	93.92
941.67	94.33
941.977	93.45
942.284	93.96
942.591	93.63
942.898	93.26
943.205	93.9
943.511	93.92
943.818	93.98
944.125	92.8
944.431	93.98
944.738	93.45
945.044	93.91
945.35	93.96
945.657	93.93
945.963	93.72
946.269	93.88
946.575	94.06
946.881	92.96
947.187	92.99
947.493	93.52
947.799	94.05
948.105	94.89
948.41	94.2
948.716	93.09
949.022	94.07
949.327	95.2
949.633	94.58
949.938	93.33
950.244	93.65
950.549	92.42
950.854	93.51
951.16	93.96
951.465	93.46
951.77	94.97
952.075	93.57
952.38	93.39
952.685	94.44
952.99	93.87
953.294	94.5
953.599	94.02
953.904	93.49
954.209	92.9
954.513	94.69
954.818	93.29
955.122	93.64
955.426	92.35
955.731	94.24
956.035	94.17
956.339	93.84
956.643	94.13
956.948	94.42
957.252	93.39
957.556	93.21
957.86	95.08
958.163	93.43
958.467	95.03
958.771	93.35
959.075	94.34
959.378	94.05
959.682	94.09
959.985	93.73
960.289	95.12
960.592	93.97
960.896	94.1
961.199	92.5
961.502	93.5
961.805	94.46
962.108	94.14
962.411	93.15
962.714	94.07
963.017	94.28
963.32	94.11
963.623	94.03
963.926	93.55
964.228	93.12
964.531	92.98
964.833	93.01
965.136	94.42
965.438	93.23
965.741	94.33
966.043	94.58
966.345	93.32
966.648	94.56
966.95	94.14
967.252	94.12
967.554	94.39
967.856	93.62
968.158	93.38
968.46	93.21
968.761	93.57
969.063	93.94
969.365	93.53
969.666	93.27
969.968	93.38
970.269	93.29
970.571	93.63
970.872	94.21
971.174	93.95
971.475	94.13
971.776	94.17
972.077	93.4
972.378	94
972.679	94.38
972.98	93.25
973.281	94.02
973.582	94.65
973.883	93.45
974.183	94.18
974.484	94.54
974.785	93.34
975.085	94.01
975.386	94.88
975.686	94.91
975.986	92.97
976.287	94.89
976.587	93.78
976.887	94.41
977.187	92.92
977.487	93.24
977.787	94.47
978.087	94.99
978.387	93.86
978.687	95.06
978.987	94.36
979.286	94.03
979.586	93.35
979.885	93.97
980.185	93.36
980.484	94.49
980.784	93.36
981.083	94
981.382	95.62
981.682	92.87
981.981	93.49
982.28	93.67
982.579	94.01
982.878	94.28
983.177	94.76
983.475	93.55
983.774	95.04
984.073	93.88
984.372	94.8
984.67	94.21
984.969	94.26
985.267	95.7
985.566	94.22
985.864	93.41
986.162	94.57
986.461	94.21
986.759	94.6
987.057	94.31
987.355	93.07
987.653	93.46
987.951	94.52
988.249	92.25
988.547	95.4
988.844	94.45
989.142	93.97
989.44	93.82
989.737	94.57
990.035	92.41
990.332	93.74
990.63	93.38
990.927	92.8
991.224	94.86
991.521	95
991.819	93.96
992.116	94.21
992.413	92.78
992.71	93.27
993.006	94.23
993.303	94.48
993.6	95.15
993.897	94.47
994.193	92.92
994.49	93.81
994.787	95.19
995.083	93.89
995.379	92.68
995.676	93.95
995.972	93.97
996.268	92.75
996.565	93.28
996.861	94.65
997.157	92.77
997.453	94.4
997.749	93.39
998.044	92.66
998.34	94.84
998.636	93.67
998.932	93.03
999.227	94.43
999.523	92.96
999.818	93.47
1000.114	92.51
1000.409	94.53
1000.704	94.61
1001	92.99
1001.295	92.64
1001.59	92.51
1001.885	93.16
1002.18	91.25
1002.475	93.82
1002.77	94.11
1003.065	95.38
1003.359	92.39
1003.654	94.91
1003.949	93.82
1004.243	93.87
1004.538	93.87
1004.832	92.78
1005.127	93.5
1005.421	94.37
1005.715	94.79
1006.009	91.38
1006.304	93.24
1006.598	94.54
1006.892	91.77
1007.186	93.35
1007.48	95.26
1007.773	92.75
1008.067	93.58
1008.361	94.51
1008.655	92.8
1008.948	94.95
1009.242	94.69
1009.535	94.55
1009.829	95.24
1010.122	94.68
1010.415	92.64
1010.708	93.36
1011.001	94.3
1011.295	93.7
1011.588	92.77
1011.881	93.88
1012.173	94.13
1012.466	93.8
1012.759	95.94
1013.052	93.39
1013.344	93.96
1013.637	93.47
1013.93	92.24
1014.222	94.12
1014.514	94.69
1014.807	93.63
1015.099	93.93
1015.391	93.07
1015.683	94.09
1015.976	94.81
1016.268	93.37
1016.56	94.76
1016.851	93.87
1017.143	95.72
1017.435	93.46
1017.727	95.44
1018.018	93.28
1018.31	93.53
1018.602	92.31
1018.893	94.45
1019.185	95.88
1019.476	94.54
1019.767	93.23
1020.058	92.81
1020.35	93.5
1020.641	94.44
1020.932	93.07
1021.223	93.02
1021.514	93.92
1021.804	91.28
1022.095	94.15
1022.386	91.98
1022.677	95.6
1022.967	94.02
1023.258	94.05
1023.548	94.65
1023.839	92.83
1024.129	95.92
1024.419	97.37
1024.709	92.96
1025	94.58
1025.29	92.59
1025.58	93.08
1025.87	94.04
1026.16	93.17
1026.449	93.81
1026.739	96.06
1027.029	94.96
1027.319	91.77
1027.608	94.08
1027.898	94.41
1028.187	91.07
1028.477	94.79
1028.766	92.91
1029.055	96.38
1029.344	96.13
1029.634	94.79
1029.923	96.14
1030.212	95.54
1030.501	95.13
1030.79	92.99
1031.078	94.1
1031.367	95.09
1031.656	95.61
1031.945	96.59
1032.233	93.44
1032.522	92.71
1032.81	92
1033.099	96.57
1033.387	91.82
1033.675	91.74
1033.963	92.56
1034.251	94.05
1034.54	95.34
1034.828	95.93
1035.116	93.98
1035.403	95.14
1035.691	93.54
1035.979	93.52
1036.267	94.28
1036.554	94.18
1036.842	96.74
1037.129	89.33
1037.417	89.69
1037.704	91.38
1037.992	90.81
1038.279	95.28
1038.566	93.21
1038.853	93.21
1039.14	93.21
