Data from White_reflection_standard_Reflection_00015.txt Node
Date: Mon Feb 06 14:43:20 GMT 2017
User: dcchb
Spectrometer: FLMS00149
Trigger mode: 0
Integration Time (sec): 2.000000E-2
Scans to average: 10
Electric dark correction enabled: true
Nonlinearity correction enabled: false
Boxcar width: 0
XAxis mode: Wavelengths
Number of Pixels in Spectrum: 2048
>>>>>Begin Spectral Data<<<<<
341.393	-41.1
341.776	-41.1
342.16	-41.1
342.543	-22.74
342.927	20.2
343.31	-107.26
343.693	54.25
344.077	5.33
344.46	244.38
344.843	142.99
345.226	-73.89
345.61	-2.85
345.993	64.96
346.376	-974.05
346.759	82.13
347.142	51.78
347.525	175.73
347.908	443.64
348.291	-590.31
348.674	74.58
349.057	654.34
349.44	156.18
349.823	80.53
350.206	102.31
350.588	84.94
350.971	76.84
351.354	92.2
351.737	118.31
352.119	85.96
352.502	95.36
352.884	102.91
353.267	89.4
353.65	81.78
354.032	112.48
354.414	132.06
354.797	83.48
355.179	94.79
355.562	80.75
355.944	82.68
356.326	79.92
356.709	81.02
357.091	112.16
357.473	102.2
357.855	94.8
358.238	87.14
358.62	78.24
359.002	96.38
359.384	96.9
359.766	72.19
360.148	93.27
360.53	75.85
360.912	95.62
361.294	106.43
361.676	82.73
362.057	105.18
362.439	85.48
362.821	69.02
363.203	89.3
363.584	85.56
363.966	81.55
364.348	86.45
364.729	84.02
365.111	104.71
365.493	91.3
365.874	89.31
366.256	76.01
366.637	87.15
367.019	97.12
367.4	93.33
367.781	82.74
368.163	77.09
368.544	80.76
368.925	79.81
369.306	91.35
369.688	90.87
370.069	85.63
370.45	95.4
370.831	96.74
371.212	87.46
371.593	85.48
371.974	94.79
372.355	77.11
372.736	81.98
373.117	90
373.498	83.5
373.879	85.56
374.26	89.39
374.641	82.72
375.021	96.16
375.402	81.29
375.783	91.1
376.163	92.44
376.544	97.97
376.925	87.78
377.305	81.6
377.686	81.2
378.066	89.98
378.447	80.65
378.827	92.93
379.208	83.15
379.588	84.86
379.968	94.85
380.349	87.38
380.729	86.56
381.109	90
381.489	89.45
381.87	92.02
382.25	95.05
382.63	84.88
383.01	90.7
383.39	97.5
383.77	99.07
384.15	78.29
384.53	86.42
384.91	89.96
385.29	98.27
385.67	88.79
386.049	86.69
386.429	91.65
386.809	89.45
387.189	96.49
387.568	89.66
387.948	90.45
388.328	99.46
388.707	99.36
389.087	89.83
389.466	92.3
389.846	89.68
390.225	88.37
390.605	88.91
390.984	90.07
391.363	95.65
391.743	96.11
392.122	95.32
392.501	88.02
392.881	91.98
393.26	90.01
393.639	92.8
394.018	91.77
394.397	95.59
394.776	97.1
395.155	89.23
395.534	91.19
395.913	90.27
396.292	90.47
396.671	96
397.05	95.16
397.429	92.42
397.808	91.67
398.186	91.24
398.565	93.88
398.944	96.67
399.323	92.81
399.701	91.56
400.08	90.49
400.458	91.76
400.837	94.38
401.215	92.61
401.594	90.3
401.972	88.72
402.351	92.2
402.729	92.55
403.107	90.69
403.486	89.73
403.864	87.96
404.242	94.5
404.62	94.55
404.999	93.77
405.377	89.57
405.755	94.54
406.133	92.69
406.511	95.43
406.889	95.03
407.267	93.43
407.645	94.2
408.023	93.39
408.401	94.63
408.779	92.14
409.156	92
409.534	93.63
409.912	92.78
410.29	90.78
410.667	93.68
411.045	92.73
411.422	93.19
411.8	93.23
412.178	94.32
412.555	92.95
412.933	97.35
413.31	92.68
413.687	91.5
414.065	93.9
414.442	90.61
414.819	92.19
415.197	94.16
415.574	94.17
415.951	92.45
416.328	91.69
416.705	91.73
417.082	93.88
417.46	92.31
417.837	92.99
418.214	93.24
418.591	93.78
418.967	90.87
419.344	92.62
419.721	93.82
420.098	92.85
420.475	92.92
420.852	94.1
421.228	91.89
421.605	93.33
421.982	92.25
422.358	91.57
422.735	93.75
423.111	91.1
423.488	92.59
423.864	93.52
424.241	92.5
424.617	94.91
424.994	92.39
425.37	94.03
425.746	91.27
426.123	93.33
426.499	93.24
426.875	94.57
427.251	93.51
427.627	93.88
428.003	93.62
428.379	93.02
428.756	93.98
429.132	91.56
429.507	92.89
429.883	92.93
430.259	91.63
430.635	92.88
431.011	93.61
431.387	93.85
431.763	94.24
432.138	93.53
432.514	94
432.89	90.75
433.265	92.79
433.641	93.13
434.016	93.93
434.392	92.76
434.767	93.54
435.143	94.43
435.518	93.48
435.894	91.42
436.269	93.55
436.644	93.38
437.02	92.91
437.395	93.95
437.77	94.09
438.145	92.12
438.52	93.39
438.895	92.69
439.271	94.22
439.646	93.34
440.021	93.53
440.395	94
440.77	93.93
441.145	93.62
441.52	91.5
441.895	92.98
442.27	94.48
442.645	90.87
443.019	92.22
443.394	93.28
443.769	92.8
444.143	93.72
444.518	92.9
444.892	93.43
445.267	94.32
445.641	93.02
446.016	92.5
446.39	93.54
446.764	92.62
447.139	92.98
447.513	92.18
447.887	92.37
448.262	94.52
448.636	93.56
449.01	92.73
449.384	93.11
449.758	92.37
450.132	93.7
450.506	93.54
450.88	93.69
451.254	93.47
451.628	92.45
452.002	93.26
452.376	93.33
452.75	93.53
453.123	93.92
453.497	94.3
453.871	93.71
454.244	92.9
454.618	92.83
454.992	94.15
455.365	93.78
455.739	92.02
456.112	93.19
456.486	92.82
456.859	94
457.232	93.28
457.606	93.31
457.979	93.93
458.352	93.37
458.725	92.98
459.099	93.2
459.472	93.07
459.845	93.44
460.218	92.94
460.591	94.28
460.964	93.53
461.337	93
461.71	93.21
462.083	93.1
462.456	93.64
462.829	92.79
463.201	93.46
463.574	93.11
463.947	93.68
464.32	93.28
464.692	92.9
465.065	93.33
465.438	93.06
465.81	93.32
466.183	94.17
466.555	92.89
466.928	93.39
467.3	93.01
467.672	93.06
468.045	93.44
468.417	93.92
468.789	93.26
469.161	92.94
469.534	93.12
469.906	94.01
470.278	93.25
470.65	93.16
471.022	92.2
471.394	93.93
471.766	91.97
472.138	94.46
472.51	93.4
472.882	93.69
473.253	93.43
473.625	93.4
473.997	92.53
474.369	92.82
474.74	93.92
475.112	93.35
475.484	93.38
475.855	92.22
476.227	92.48
476.598	93.36
476.97	92.48
477.341	92.87
477.713	92.99
478.084	92.9
478.455	92.97
478.827	92.95
479.198	93.28
479.569	93.81
479.94	92.92
480.311	93.63
480.682	93.11
481.053	93.27
481.424	92.73
481.795	93.43
482.166	93.12
482.537	92.96
482.908	93.33
483.279	93.48
483.65	93.16
484.021	93.77
484.391	93.34
484.762	93.91
485.133	93.14
485.503	93.74
485.874	92.83
486.244	93.63
486.615	93.65
486.985	93.35
487.356	93.57
487.726	93.39
488.097	93.74
488.467	93.13
488.837	93.59
489.207	93.4
489.578	93.21
489.948	92.97
490.318	93.38
490.688	92.94
491.058	93.14
491.428	93.43
491.798	93.61
492.168	93.6
492.538	93.03
492.908	93.76
493.278	93.71
493.648	93.26
494.017	93.38
494.387	93.65
494.757	94.14
495.126	93.05
495.496	93.29
495.866	93.41
496.235	93.66
496.605	93.44
496.974	93.77
497.344	93.61
497.713	93.44
498.082	94.04
498.452	93.17
498.821	93.13
499.19	93.65
499.559	93.48
499.928	93.16
500.298	93.93
500.667	93.41
501.036	93.59
501.405	93
501.774	93.6
502.143	93.2
502.512	93.6
502.88	93.41
503.249	93.6
503.618	93.38
503.987	93.45
504.356	93.01
504.724	93.32
505.093	93.54
505.462	93.73
505.83	93.58
506.199	93.18
506.567	93.41
506.936	93.86
507.304	93.71
507.672	93.63
508.041	93.5
508.409	93.4
508.777	93.25
509.145	93.38
509.514	92.97
509.882	93.12
510.25	93.61
510.618	93.79
510.986	93.48
511.354	93.55
511.722	93.21
512.09	93.72
512.458	93.45
512.826	93.1
513.193	93.4
513.561	93.47
513.929	93.34
514.297	93.71
514.664	93.56
515.032	93.04
515.4	93.5
515.767	93.68
516.135	93.8
516.502	93.73
516.869	93.19
517.237	93.38
517.604	92.9
517.972	93.16
518.339	93.5
518.706	93.43
519.073	93.32
519.44	93.85
519.808	93.75
520.175	93.47
520.542	93.54
520.909	93.69
521.276	93.64
521.643	93.5
522.009	93.24
522.376	93.85
522.743	93.79
523.11	93.71
523.477	93.8
523.843	93.97
524.21	93.91
524.577	93.75
524.943	93.92
525.31	93.47
525.676	93.42
526.043	93.54
526.409	93.79
526.776	93.82
527.142	93.41
527.508	93.51
527.874	93.91
528.241	93.97
528.607	93.89
528.973	93.93
529.339	93.9
529.705	93.76
530.071	93.79
530.437	93.73
530.803	94.05
531.169	93.94
531.535	93.7
531.901	94.15
532.267	94.07
532.632	93.94
532.998	94.02
533.364	94.37
533.73	94.36
534.095	94.27
534.461	94.2
534.826	94.31
535.192	94.29
535.557	94.13
535.923	94.47
536.288	94.29
536.653	94.66
537.019	94.19
537.384	95.22
537.749	94.64
538.114	94.51
538.479	94.26
538.845	94.74
539.21	94.6
539.575	94.85
539.94	94.57
540.305	94.63
540.67	94.88
541.034	94.59
541.399	94.86
541.764	95
542.129	94.97
542.494	95.29
542.858	94.98
543.223	94.93
543.587	95.02
543.952	94.87
544.316	95.09
544.681	94.7
545.045	95.18
545.41	95.59
545.774	95.56
546.138	95.44
546.503	95.27
546.867	95.45
547.231	95.19
547.595	95.31
547.959	95.67
548.324	95.43
548.688	95.37
549.052	95.51
549.416	95.51
549.779	95.55
550.143	95.34
550.507	95.68
550.871	95.64
551.235	95.51
551.599	95.95
551.962	95.7
552.326	95.79
552.689	95.98
553.053	95.56
553.417	96.05
553.78	96.09
554.143	95.93
554.507	96.15
554.87	95.94
555.234	96.1
555.597	95.97
555.96	96.18
556.323	96.33
556.686	96.31
557.05	96.21
557.413	96.14
557.776	96.54
558.139	96.27
558.502	96.23
558.865	96.43
559.228	96.38
559.59	96.36
559.953	96.47
560.316	96.58
560.679	96.45
561.041	96.37
561.404	96.57
561.767	96.57
562.129	96.7
562.492	96.71
562.854	96.55
563.217	96.64
563.579	96.81
563.941	96.78
564.304	96.85
564.666	96.93
565.028	96.74
565.39	96.97
565.753	96.93
566.115	96.75
566.477	96.74
566.839	96.93
567.201	96.9
567.563	96.84
567.925	97.04
568.287	97.08
568.648	97.16
569.01	97.1
569.372	97.05
569.734	97
570.095	96.97
570.457	97.09
570.819	97.08
571.18	97.08
571.542	97.08
571.903	97.12
572.265	97.12
572.626	97.11
572.987	97.05
573.349	97.04
573.71	97.09
574.071	97.22
574.432	97.09
574.794	97.16
575.155	97.27
575.516	97.1
575.877	97.29
576.238	97.14
576.599	97.09
576.96	97.16
577.32	97.17
577.681	97.24
578.042	97.08
578.403	97.19
578.763	97.2
579.124	97.49
579.485	97.28
579.845	97.34
580.206	97.32
580.566	97.22
580.927	97.3
581.287	97.15
581.648	97.22
582.008	97.24
582.368	97.16
582.728	97.49
583.089	97.23
583.449	97.2
583.809	97.24
584.169	97.36
584.529	97.3
584.889	97.24
585.249	97.27
585.609	97.23
585.969	97.3
586.329	97.33
586.688	97.3
587.048	97.33
587.408	97.23
587.768	97.21
588.127	97.31
588.487	97.19
588.846	97.24
589.206	97.32
589.565	97.18
589.925	97.21
590.284	97.28
590.643	97.31
591.003	97.29
591.362	97.22
591.721	97.35
592.08	97.25
592.44	97.17
592.799	97.21
593.158	97.29
593.517	97.3
593.876	97.31
594.235	97.32
594.593	97.3
594.952	97.28
595.311	97.33
595.67	97.28
596.029	97.28
596.387	97.35
596.746	97.43
597.104	97.38
597.463	97.36
597.822	97.22
598.18	97.34
598.538	97.2
598.897	97.41
599.255	97.28
599.613	97.28
599.972	97.26
600.33	97.35
600.688	97.39
601.046	97.38
601.404	97.32
601.762	97.33
602.12	97.34
602.478	97.35
602.836	97.43
603.194	97.31
603.552	97.29
603.91	97.41
604.268	97.38
604.625	97.4
604.983	97.34
605.341	97.53
605.698	97.34
606.056	97.4
606.413	97.38
606.771	97.34
607.128	97.3
607.485	97.29
607.843	97.42
608.2	97.31
608.557	97.45
608.914	97.47
609.272	97.39
609.629	97.41
609.986	97.37
610.343	97.31
610.7	97.35
611.057	97.35
611.414	97.3
611.771	97.31
612.127	97.33
612.484	97.43
612.841	97.38
613.198	97.37
613.554	97.41
613.911	97.45
614.267	97.49
614.624	97.46
614.98	97.5
615.337	97.31
615.693	97.41
616.05	97.51
616.406	97.47
616.762	97.51
617.118	97.37
617.475	97.5
617.831	97.52
618.187	97.58
618.543	97.42
618.899	97.38
619.255	97.4
619.611	97.46
619.967	97.43
620.323	97.39
620.678	97.44
621.034	97.38
621.39	97.34
621.746	97.37
622.101	97.32
622.457	97.45
622.812	97.4
623.168	97.43
623.523	97.43
623.879	97.39
624.234	97.57
624.589	97.5
624.945	97.53
625.3	97.53
625.655	97.52
626.01	97.37
626.365	97.41
626.72	97.43
627.075	97.61
627.43	97.42
627.785	97.58
628.14	97.47
628.495	97.54
628.85	97.42
629.205	97.49
629.559	97.37
629.914	97.51
630.269	97.46
630.623	97.6
630.978	97.44
631.332	97.43
631.687	97.34
632.041	97.48
632.396	97.52
632.75	97.33
633.104	97.29
633.459	97.4
633.813	97.45
634.167	97.43
634.521	97.37
634.875	97.52
635.229	97.4
635.583	97.3
635.937	97.45
636.291	97.38
636.645	97.42
636.999	97.29
637.352	97.27
637.706	97.28
638.06	97.36
638.413	97.53
638.767	97.33
639.121	97.47
639.474	97.4
639.828	97.34
640.181	97.34
640.534	97.41
640.888	97.46
641.241	97.34
641.594	97.39
641.947	97.37
642.301	97.43
642.654	97.34
643.007	97.29
643.36	97.35
643.713	97.46
644.066	97.38
644.419	97.26
644.771	97.32
645.124	97.3
645.477	97.31
645.83	97.18
646.182	97.21
646.535	97.27
646.888	97.32
647.24	97.35
647.593	97.15
647.945	97.32
648.298	97.25
648.65	97.16
649.002	97.15
649.355	97.21
649.707	97.31
650.059	97.24
650.411	97.26
650.763	97.36
651.115	97.27
651.467	97.18
651.819	97.3
652.171	97.36
652.523	97.25
652.875	97.2
653.227	97.21
653.578	97.31
653.93	97.34
654.282	97.22
654.633	97.37
654.985	97.26
655.337	97.36
655.688	97.24
656.039	97.24
656.391	97.45
656.742	97.4
657.094	97.29
657.445	97.25
657.796	97.14
658.147	97.3
658.498	97.07
658.849	97.26
659.2	97.19
659.551	97.21
659.902	97.27
660.253	97.16
660.604	97.25
660.955	97.18
661.306	97.21
661.656	97.2
662.007	97.1
662.358	97.29
662.708	97.23
663.059	97.27
663.409	97.13
663.76	97.17
664.11	97.18
664.461	97.15
664.811	97.28
665.161	97.12
665.511	97.21
665.862	97.13
666.212	97.19
666.562	97.14
666.912	97.23
667.262	97.19
667.612	97.12
667.962	97.18
668.312	97.28
668.662	97.29
669.011	97.35
669.361	97.2
669.711	97.16
670.06	97.18
670.41	97.19
670.76	97.14
671.109	97.26
671.459	97.12
671.808	97.11
672.157	97.22
672.507	97.03
672.856	97.3
673.205	97.24
673.554	97.29
673.904	97.08
674.253	97.14
674.602	97.3
674.951	97.2
675.3	97.02
675.649	97.26
675.998	97.03
676.346	97.24
676.695	97.28
677.044	97.27
677.393	97.26
677.741	97.18
678.09	97.23
678.438	97.21
678.787	97.2
679.135	97.24
679.484	97.01
679.832	97.07
680.181	97.18
680.529	97.28
680.877	97.37
681.225	97.28
681.573	97.14
681.922	97.11
682.27	97.12
682.618	97.15
682.966	97.12
683.314	97.07
683.661	97.22
684.009	97.15
684.357	97.15
684.705	97.08
685.053	97.17
685.4	97.13
685.748	97.1
686.095	97.16
686.443	97.14
686.79	97.01
687.138	96.97
687.485	97.18
687.832	97.04
688.18	97.11
688.527	96.94
688.874	97.06
689.221	96.93
689.568	96.98
689.915	96.94
690.262	97.02
690.609	96.99
690.956	96.95
691.303	97.05
691.65	96.83
691.997	97.06
692.344	96.68
692.69	96.82
693.037	96.88
693.383	96.95
693.73	96.86
694.077	96.82
694.423	96.85
694.769	96.8
695.116	96.81
695.462	96.57
695.808	96.83
696.155	96.74
696.501	96.72
696.847	96.87
697.193	96.82
697.539	96.95
697.885	96.63
698.231	96.62
698.577	96.66
698.923	96.74
699.269	96.59
699.614	96.63
699.96	96.53
700.306	96.65
700.651	96.6
700.997	96.33
701.342	96.54
701.688	96.64
702.033	96.57
702.379	96.53
702.724	96.33
703.069	96.59
703.415	96.23
703.76	96.49
704.105	96.3
704.45	96.44
704.795	96.1
705.14	96.04
705.485	96.36
705.83	96.2
706.175	96.42
706.52	96.33
706.865	96.25
707.209	96.44
707.554	96.14
707.899	96.27
708.243	96.33
708.588	96.11
708.932	96.34
709.277	95.97
709.621	96.2
709.966	96.09
710.31	96.57
710.654	95.99
710.998	96.11
711.342	95.98
711.687	95.93
712.031	95.88
712.375	96.05
712.719	95.96
713.063	96.17
713.407	96
713.75	96.05
714.094	96.04
714.438	95.8
714.782	96.08
715.125	95.8
715.469	95.79
715.812	95.84
716.156	95.65
716.499	95.81
716.843	95.81
717.186	95.77
717.53	95.83
717.873	95.59
718.216	95.62
718.559	95.75
718.902	95.43
719.246	95.59
719.589	95.46
719.932	95.38
720.275	95.48
720.617	95.48
720.96	95.4
721.303	95.59
721.646	95.05
721.989	95.4
722.331	95.52
722.674	95.34
723.016	95.22
723.359	95.53
723.701	95.45
724.044	95.43
724.386	95.27
724.729	95.56
725.071	95.22
725.413	95.44
725.755	95.28
726.097	95.32
726.439	95.2
726.782	94.96
727.124	95.57
727.465	94.87
727.807	95.03
728.149	95.12
728.491	95.1
728.833	95.23
729.175	95.15
729.516	95.12
729.858	94.99
730.199	95.13
730.541	94.95
730.882	94.84
731.224	95.07
731.565	94.93
731.906	94.96
732.248	94.98
732.589	94.94
732.93	94.71
733.271	94.8
733.612	94.87
733.953	94.85
734.294	95.01
734.635	94.46
734.976	95.05
735.317	94.63
735.658	94.55
735.999	94.46
736.339	94.89
736.68	94.67
737.021	94.56
737.361	94.76
737.702	94.93
738.042	94.78
738.383	94.84
738.723	94.94
739.063	94.29
739.404	94.85
739.744	94.82
740.084	94.56
740.424	94.66
740.764	94.77
741.104	94.6
741.444	94.55
741.784	94.89
742.124	94.52
742.464	94.49
742.804	94.34
743.143	94.78
743.483	94.83
743.823	94.61
744.162	94.56
744.502	94.66
744.841	94.43
745.181	94.48
745.52	94.28
745.86	94.71
746.199	94.51
746.538	94.26
746.877	94.2
747.216	94.39
747.556	94.09
747.895	94.42
748.234	94.37
748.573	94.65
748.911	94.15
749.25	94.22
749.589	94.62
749.928	94.27
750.267	94.44
750.605	94.41
750.944	94.43
751.283	94.59
751.621	94.12
751.96	94.06
752.298	94.12
752.636	94.25
752.975	94.2
753.313	94.05
753.651	94.01
753.989	94.17
754.327	94.26
754.666	94.34
755.004	93.99
755.342	94.26
755.679	94.22
756.017	94.11
756.355	93.93
756.693	94.12
757.031	94.27
757.368	94.43
757.706	94.12
758.044	93.76
758.381	94.1
758.719	94.24
759.056	94.09
759.394	93.84
759.731	93.95
760.068	94.1
760.405	94.38
760.743	94.22
761.08	93.86
761.417	94.04
761.754	94.16
762.091	94.19
762.428	93.82
762.765	93.91
763.102	93.82
763.438	94.35
763.775	94.11
764.112	94.06
764.449	93.92
764.785	94.05
765.122	93.75
765.458	93.79
765.795	93.77
766.131	93.98
766.467	93.4
766.804	94.45
767.14	93.64
767.476	93.68
767.812	93.95
768.148	94.07
768.485	93.92
768.821	93.75
769.157	93.8
769.492	93.45
769.828	93.84
770.164	93.93
770.5	93.93
770.836	94.19
771.171	93.52
771.507	93.91
771.842	94.25
772.178	94.36
772.513	93.5
772.849	93.91
773.184	93.9
773.519	94.44
773.855	94.42
774.19	94.08
774.525	93.68
774.86	93.61
775.195	94.03
775.53	93.53
775.865	93.72
776.2	93.67
776.535	94.28
776.87	93.81
777.205	94
777.539	94.07
777.874	93.88
778.209	93.9
778.543	93.74
778.878	94.14
779.212	94.01
779.547	94.12
779.881	93.9
780.215	93.81
780.55	93.66
780.884	93.83
781.218	94.09
781.552	93.9
781.886	93.87
782.22	93.81
782.554	93.39
782.888	93.92
783.222	94.03
783.556	94.2
783.889	93.83
784.223	94.1
784.557	93.83
784.89	93.45
785.224	94.16
785.557	94.04
785.891	94.05
786.224	94.05
786.558	94.07
786.891	93.67
787.224	94
787.557	93.98
787.891	94.16
788.224	94.27
788.557	93.78
788.89	94.05
789.223	93.44
789.556	93.47
789.888	94.06
790.221	93.32
790.554	94.06
790.887	93.74
791.219	94.1
791.552	93.63
791.884	93.68
792.217	93.55
792.549	93.46
792.882	93.83
793.214	93.05
793.546	93.72
793.879	93.71
794.211	93.41
794.543	93.96
794.875	94.04
795.207	93.69
795.539	93.35
795.871	93.73
796.203	93.65
796.535	94.08
796.867	93.67
797.198	93.44
797.53	93.52
797.862	93.83
798.193	93.48
798.525	94.04
798.856	93.57
799.188	94.09
799.519	93.59
799.85	94.16
800.182	94.03
800.513	93.8
800.844	93.89
801.175	93.56
801.506	93.66
801.837	94.03
802.168	93.74
802.499	94.26
802.83	93.8
803.161	93.85
803.491	93.94
803.822	93.83
804.153	93.4
804.483	93.42
804.814	93.68
805.145	93.78
805.475	93.81
805.805	93.32
806.136	93.92
806.466	94.22
806.796	94.36
807.126	93.48
807.457	93.5
807.787	93.81
808.117	93.84
808.447	93.4
808.777	93.39
809.107	93.8
809.436	93.45
809.766	93.52
810.096	94
810.426	93.51
810.755	93.71
811.085	93.93
811.414	93.58
811.744	93.75
812.073	94.18
812.403	93.74
812.732	93.75
813.061	93.54
813.39	93.58
813.719	93.82
814.049	93.78
814.378	94.06
814.707	93.67
815.036	93.63
815.365	93.33
815.693	93.52
816.022	93.1
816.351	94.25
816.68	93.57
817.008	93.48
817.337	93.83
817.665	93.56
817.994	94.06
818.322	93.71
818.651	94.16
818.979	93.87
819.307	93.41
819.636	93.36
819.964	94
820.292	93.46
820.62	94.24
820.948	93.72
821.276	94.18
821.604	93.74
821.932	94.06
822.259	93.65
822.587	94.21
822.915	93.59
823.243	94.02
823.57	93.94
823.898	93.95
824.225	93.98
824.553	94.08
824.88	93.75
825.207	93.77
825.535	94.14
825.862	93.9
826.189	93.91
826.516	93.44
826.843	94.13
827.17	94.1
827.497	93.68
827.824	93.51
828.151	93.71
828.478	93.83
828.805	94.36
829.131	93.99
829.458	93.47
829.785	93.6
830.111	94.31
830.438	93.44
830.764	93.8
831.09	93.71
831.417	94.13
831.743	94.21
832.069	94.17
832.395	94.07
832.722	94.36
833.048	94.22
833.374	94.21
833.7	94.08
834.026	93.52
834.351	94.32
834.677	93.68
835.003	93.38
835.329	93.71
835.654	93.3
835.98	93.76
836.306	94
836.631	93.59
836.956	93.66
837.282	93.4
837.607	93.44
837.932	93.41
838.258	93.69
838.583	94.25
838.908	93.33
839.233	93.69
839.558	93.92
839.883	93.54
840.208	94.28
840.533	93.34
840.858	94.5
841.182	93.34
841.507	93.58
841.832	94
842.156	94.02
842.481	93.7
842.805	93.76
843.13	93.38
843.454	93.95
843.778	93.8
844.103	93.87
844.427	93.16
844.751	93.43
845.075	93.57
845.399	93.73
845.723	94.18
846.047	93.79
846.371	94
846.695	93.71
847.019	94.13
847.343	93.36
847.666	94
847.99	93.82
848.313	94.19
848.637	93.58
848.96	94.04
849.284	93.9
849.607	93.51
849.931	93.62
850.254	92.86
850.577	93.86
850.9	93.87
851.223	94.33
851.546	94.18
851.869	94.02
852.192	93.99
852.515	94.18
852.838	94.36
853.161	93.7
853.483	93.41
853.806	93.72
854.129	94.17
854.451	93.57
854.774	94.13
855.096	93.33
855.419	93.25
855.741	93.87
856.063	93.81
856.385	94.07
856.708	94.51
857.03	94.09
857.352	94.2
857.674	94.34
857.996	94.04
858.318	93.94
858.64	94.37
858.961	93.98
859.283	93.64
859.605	94.32
859.926	93.78
860.248	94.14
860.57	93.92
860.891	93.79
861.212	93.64
861.534	93.46
861.855	93.89
862.176	93.53
862.498	93.4
862.819	94.38
863.14	93.88
863.461	94.65
863.782	93.36
864.103	94.66
864.424	94
864.745	93.79
865.065	93.87
865.386	93.3
865.707	94.21
866.027	94.17
866.348	93.34
866.668	93.62
866.989	93.8
867.309	94.4
867.63	93.93
867.95	93.68
868.27	93.58
868.59	94.14
868.91	93.61
869.23	93.44
869.55	94.08
869.87	93.67
870.19	93.77
870.51	93.67
870.83	93.79
871.15	93.91
871.469	93.48
871.789	94.14
872.109	94.54
872.428	94.37
872.748	94.13
873.067	93.88
873.386	94.45
873.706	93.43
874.025	93.75
874.344	93.71
874.663	94.55
874.982	94
875.301	93.25
875.62	93.82
875.939	94.61
876.258	93.53
876.577	93.05
876.896	94.14
877.214	93.44
877.533	93.9
877.852	93.63
878.17	93.48
878.489	93.84
878.807	92.82
879.125	93.34
879.444	93.64
879.762	94.27
880.08	93.71
880.398	93.75
880.716	93.53
881.034	94.11
881.352	93.6
881.67	92.86
881.988	93.81
882.306	93.44
882.624	93.48
882.941	93.38
883.259	93.25
883.577	93.27
883.894	93.96
884.212	93.3
884.529	93.81
884.846	93.04
885.164	94.65
885.481	93.97
885.798	93.63
886.115	94.17
886.432	93.44
886.75	93.98
887.067	93.55
887.383	93.49
887.7	93.83
888.017	93.58
888.334	93.61
888.651	93.25
888.967	93.51
889.284	93.57
889.6	93.64
889.917	93.52
890.233	94.33
890.55	93.09
890.866	93.65
891.182	93.27
891.498	93.71
891.815	94.11
892.131	94.39
892.447	93.05
892.763	93.99
893.079	93.43
893.395	93.58
893.71	94.41
894.026	93.43
894.342	93.77
894.657	93.6
894.973	93.7
895.289	93.84
895.604	93.43
895.92	94.22
896.235	93.72
896.55	93.92
896.865	93.54
897.181	93.83
897.496	94.24
897.811	94.59
898.126	93.84
898.441	93.82
898.756	93.46
899.071	93.41
899.386	93.79
899.7	93.51
900.015	93.94
900.33	94.03
900.644	93.17
900.959	93.8
901.273	94.06
901.588	94.43
901.902	93.31
902.216	93.68
902.531	93.86
902.845	93.66
903.159	93.76
903.473	93.43
903.787	93.65
904.101	94.63
904.415	94.62
904.729	93.53
905.042	94.3
905.356	93.89
905.67	93.65
905.984	94.22
906.297	93.54
906.611	93.85
906.924	93.87
907.237	93.46
907.551	94.39
907.864	94.22
908.177	94.25
908.491	94.24
908.804	93.91
909.117	94.3
909.43	94.41
909.743	93.52
910.056	93.95
910.368	94.04
910.681	94.65
910.994	93.68
911.307	93.38
911.619	93.74
911.932	94.32
912.244	94.02
912.557	93.89
912.869	93.88
913.181	93.8
913.494	94.72
913.806	94.52
914.118	93.55
914.43	93.38
914.742	92.92
915.054	94.56
915.366	93.8
915.678	94.6
915.99	93.73
916.302	93.87
916.613	94.06
916.925	94.4
917.236	93.2
917.548	93.93
917.859	93.17
918.171	93.86
918.482	93.51
918.794	93.34
919.105	93.4
919.416	93.92
919.727	94.05
920.038	93.76
920.349	93.43
920.66	94.13
920.971	92.99
921.282	93.65
921.593	93.52
921.903	94.62
922.214	93.67
922.525	94.5
922.835	93.61
923.146	93.98
923.456	92.8
923.767	93.1
924.077	93.1
924.387	93.94
924.697	93.6
925.008	94.15
925.318	93.62
925.628	94
925.938	93.67
926.248	93.07
926.558	94.01
926.867	93.65
927.177	93.58
927.487	94.16
927.796	94.24
928.106	92.94
928.416	93.99
928.725	94.19
929.034	93.36
929.344	93.58
929.653	93.74
929.962	93.51
930.271	95.86
930.581	93.58
930.89	93.89
931.199	93.68
931.508	93.18
931.817	93.85
932.125	93.54
932.434	92.97
932.743	93.72
933.051	93.35
933.36	93.18
933.669	93.13
933.977	94.01
934.286	94.25
934.594	94.24
934.902	93.37
935.21	92.6
935.519	93.24
935.827	93.86
936.135	93.7
936.443	93.88
936.751	94.47
937.059	93.96
937.367	94.54
937.674	93.83
937.982	94.22
938.29	94.48
938.597	93.5
938.905	94.61
939.213	94.91
939.52	93.99
939.827	93.92
940.135	94.06
940.442	93.6
940.749	93.2
941.056	94.74
941.363	93.15
941.67	94.1
941.977	93.86
942.284	93.9
942.591	95.03
942.898	94.51
943.205	93.89
943.511	93.87
943.818	94.18
944.125	92.89
944.431	93.36
944.738	94.77
945.044	93.94
945.35	94.18
945.657	93.9
945.963	93.96
946.269	94.09
946.575	94.57
946.881	93.52
947.187	93.93
947.493	93.16
947.799	95.14
948.105	93.9
948.41	93.51
948.716	93.36
949.022	93.89
949.327	94.92
949.633	95.14
949.938	93.48
950.244	94.46
950.549	92.51
950.854	93.7
951.16	93.66
951.465	93.55
951.77	94.09
952.075	93.28
952.38	93.82
952.685	93.79
952.99	93.82
953.294	94.31
953.599	94.09
953.904	93.85
954.209	93.95
954.513	93.56
954.818	94.32
955.122	93.59
955.426	93.07
955.731	94.71
956.035	93.94
956.339	93.61
956.643	93.31
956.948	96.07
957.252	94.76
957.556	92.91
957.86	94.81
958.163	93.98
958.467	94.97
958.771	93.28
959.075	93.93
959.378	93.36
959.682	94
959.985	94.09
960.289	94.33
960.592	93.66
960.896	93.93
961.199	93.75
961.502	94.68
961.805	94.72
962.108	93.16
962.411	94.17
962.714	93.63
963.017	93.61
963.32	93.41
963.623	94
963.926	93.79
964.228	93.16
964.531	93.18
964.833	93.15
965.136	94.23
965.438	94.48
965.741	93.81
966.043	94.18
966.345	94.66
966.648	93.62
966.95	93.66
967.252	94.44
967.554	93.88
967.856	93.73
968.158	93.33
968.46	93.68
968.761	93.58
969.063	93.32
969.365	93.06
969.666	94.26
969.968	93.85
970.269	93.14
970.571	94.86
970.872	94.12
971.174	94.99
971.475	94.42
971.776	94.39
972.077	93.7
972.378	94.12
972.679	94
972.98	93.98
973.281	93.24
973.582	93.67
973.883	94.02
974.183	93.15
974.484	94.72
974.785	93.22
975.085	94
975.386	93.19
975.686	95.11
975.986	94.59
976.287	94.41
976.587	94.56
976.887	94.25
977.187	94.28
977.487	93.98
977.787	94.84
978.087	95.15
978.387	94.15
978.687	94.64
978.987	94.43
979.286	94.11
979.586	93.24
979.885	93.81
980.185	93.78
980.484	93.85
980.784	93.4
981.083	94.03
981.382	95.65
981.682	93.07
981.981	93.22
982.28	93.48
982.579	92.54
982.878	94.01
983.177	93.67
983.475	92.82
983.774	93.42
984.073	93.93
984.372	94.02
984.67	94.63
984.969	94.49
985.267	95.56
985.566	94.95
985.864	93.29
986.162	94.23
986.461	94.71
986.759	95
987.057	95.36
987.355	93.89
987.653	93.44
987.951	94.18
988.249	92.19
988.547	95.43
988.844	94.28
989.142	94.58
989.44	93.14
989.737	92.52
990.035	93.07
990.332	93.98
990.63	93.47
990.927	92.81
991.224	95.39
991.521	95.36
991.819	93.78
992.116	94.94
992.413	93.6
992.71	92.94
993.006	92.96
993.303	93.77
993.6	95.02
993.897	94.4
994.193	93.74
994.49	94.32
994.787	93.82
995.083	94.22
995.379	93.57
995.676	94.99
995.972	94.04
996.268	94.2
996.565	93.58
996.861	94.35
997.157	93
997.453	93.4
997.749	95.06
998.044	92.79
998.34	95.28
998.636	94
998.932	93.18
999.227	94.21
999.523	93.71
999.818	94.26
1000.114	92.59
1000.409	95.14
1000.704	94.04
1001	93.8
1001.295	93.19
1001.59	92.72
1001.885	94.45
1002.18	91.93
1002.475	94.01
1002.77	93.42
1003.065	93.48
1003.359	93.01
1003.654	95.32
1003.949	94.89
1004.243	92.97
1004.538	94.42
1004.832	94.07
1005.127	93.15
1005.421	94.37
1005.715	94.51
1006.009	93.73
1006.304	93.81
1006.598	94.64
1006.892	92.06
1007.186	92.88
1007.48	94.67
1007.773	93.89
1008.067	94
1008.361	95.14
1008.655	92.6
1008.948	92.88
1009.242	94.75
1009.535	91.82
1009.829	95.47
1010.122	95.08
1010.415	93.6
1010.708	93.67
1011.001	94.34
1011.295	92.06
1011.588	93.85
1011.881	94.18
1012.173	94.12
1012.466	94.15
1012.759	95.28
1013.052	92.6
1013.344	93.18
1013.637	93.91
1013.93	92.26
1014.222	95.61
1014.514	95.84
1014.807	95.29
1015.099	91.7
1015.391	95.42
1015.683	94.1
1015.976	92.46
1016.268	91.44
1016.56	94.74
1016.851	93.11
1017.143	94.25
1017.435	94.24
1017.727	95.38
1018.018	92.88
1018.31	93.41
1018.602	92.9
1018.893	94.88
1019.185	94.4
1019.476	94.29
1019.767	95.35
1020.058	91.42
1020.35	94.23
1020.641	95.15
1020.932	94.81
1021.223	93.24
1021.514	92.99
1021.804	93.76
1022.095	93.83
1022.386	93.34
1022.677	93.85
1022.967	93.28
1023.258	93.14
1023.548	94.46
1023.839	92.39
1024.129	94.59
1024.419	95.1
1024.709	93.01
1025	94.84
1025.29	92.23
1025.58	94.38
1025.87	91.48
1026.16	94.6
1026.449	94.69
1026.739	95.53
1027.029	93.66
1027.319	94.63
1027.608	92.42
1027.898	93.95
1028.187	93.73
1028.477	94.24
1028.766	94.24
1029.055	96.9
1029.344	94.68
1029.634	96.98
1029.923	96.67
1030.212	95.92
1030.501	95.51
1030.79	93.81
1031.078	92.66
1031.367	95.2
1031.656	94.3
1031.945	91.59
1032.233	91.92
1032.522	94.32
1032.81	94.25
1033.099	95.35
1033.387	91.54
1033.675	91.83
1033.963	91.66
1034.251	93.57
1034.54	92.33
1034.828	93.98
1035.116	93.28
1035.403	98.53
1035.691	92.69
1035.979	93.2
1036.267	92.95
1036.554	94.27
1036.842	93.78
1037.129	91.06
1037.417	93.29
1037.704	95.24
1037.992	92.26
1038.279	96.43
1038.566	94.21
1038.853	94.21
1039.14	94.21
