Data from White_reflection_standard_Reflection_00008.txt Node
Date: Mon Feb 06 14:42:25 GMT 2017
User: dcchb
Spectrometer: FLMS00149
Trigger mode: 0
Integration Time (sec): 2.000000E-2
Scans to average: 10
Electric dark correction enabled: true
Nonlinearity correction enabled: false
Boxcar width: 0
XAxis mode: Wavelengths
Number of Pixels in Spectrum: 2048
>>>>>Begin Spectral Data<<<<<
341.393	-2.6
341.776	-2.6
342.16	-2.6
342.543	-14.97
342.927	-745.45
343.31	-19.56
343.693	68.58
344.077	238.1
344.46	311.78
344.843	-165.61
345.226	388.54
345.61	-93.74
345.993	-113.77
346.376	-1.53
346.759	-93.2
347.142	47.01
347.525	120.09
347.908	-29.82
348.291	-275.77
348.674	71.07
349.057	139.88
349.44	23.17
349.823	14.02
350.206	68.61
350.588	89.23
350.971	120.01
351.354	72.79
351.737	93.24
352.119	99.4
352.502	98.12
352.884	103.5
353.267	107.95
353.65	101.78
354.032	96.18
354.414	139.09
354.797	83.42
355.179	96.36
355.562	81.53
355.944	86.63
356.326	98.33
356.709	94.08
357.091	104.11
357.473	72.63
357.855	104.53
358.238	94.93
358.62	93.8
359.002	101.28
359.384	85.21
359.766	105.15
360.148	115.24
360.53	83.49
360.912	93.83
361.294	95.78
361.676	93.16
362.057	86.93
362.439	84.65
362.821	72.17
363.203	93.23
363.584	86.78
363.966	83.53
364.348	80.67
364.729	82.77
365.111	102.6
365.493	92.57
365.874	84.84
366.256	76.45
366.637	79.3
367.019	96
367.4	92.52
367.781	84.19
368.163	80.67
368.544	93.45
368.925	87.03
369.306	106.07
369.688	85.76
370.069	87.56
370.45	96.67
370.831	88.89
371.212	95.28
371.593	90.12
371.974	89.01
372.355	86.45
372.736	102.02
373.117	92.72
373.498	96.56
373.879	85.27
374.26	88.3
374.641	75.48
375.021	99.57
375.402	88.28
375.783	86.78
376.163	93.88
376.544	100.37
376.925	90.26
377.305	79.42
377.686	88.49
378.066	100.39
378.447	91.42
378.827	83.28
379.208	92.39
379.588	88.64
379.968	90.52
380.349	79.97
380.729	92.94
381.109	87.63
381.489	89.98
381.87	87.03
382.25	95.02
382.63	90.03
383.01	93.57
383.39	100.22
383.77	93.35
384.15	88.22
384.53	92.28
384.91	93.99
385.29	99.69
385.67	92.64
386.049	92.29
386.429	88.8
386.809	94.44
387.189	91.41
387.568	97.27
387.948	87.95
388.328	97.56
388.707	96.55
389.087	89.1
389.466	96.78
389.846	88.56
390.225	88.74
390.605	90.47
390.984	87.17
391.363	96.2
391.743	91.68
392.122	92.78
392.501	90.34
392.881	86.4
393.26	89.42
393.639	93.94
394.018	94.78
394.397	97.01
394.776	96.62
395.155	89.05
395.534	89.49
395.913	92.14
396.292	91.15
396.671	99.12
397.05	93.8
397.429	91.2
397.808	89.39
398.186	88.09
398.565	90.7
398.944	97.45
399.323	94.78
399.701	90.72
400.08	89.24
400.458	93.61
400.837	92.6
401.215	94.73
401.594	90.13
401.972	93.34
402.351	90.65
402.729	89.01
403.107	94.6
403.486	94.83
403.864	93.7
404.242	96.64
404.62	93.91
404.999	90.6
405.377	92.93
405.755	94.11
406.133	91.64
406.511	92.72
406.889	97.3
407.267	91.05
407.645	94.38
408.023	94.97
408.401	94.85
408.779	93.79
409.156	93.12
409.534	93.48
409.912	92.91
410.29	91.83
410.667	94.52
411.045	91.84
411.422	92.7
411.8	93.55
412.178	96.59
412.555	94.21
412.933	93.5
413.31	92.99
413.687	90.65
414.065	94.07
414.442	91.5
414.819	92.8
415.197	97.33
415.574	94.51
415.951	91.36
416.328	92.37
416.705	93.06
417.082	92.55
417.46	89.89
417.837	95.13
418.214	93.19
418.591	92.21
418.967	90.76
419.344	91.72
419.721	94.01
420.098	94.47
420.475	94.48
420.852	92.33
421.228	93.07
421.605	92.84
421.982	93.87
422.358	93.28
422.735	93.46
423.111	94.12
423.488	96.16
423.864	93.81
424.241	92.9
424.617	93.38
424.994	92.93
425.37	92.71
425.746	93.72
426.123	93.58
426.499	93.95
426.875	93.86
427.251	91.44
427.627	94.77
428.003	93.24
428.379	94.65
428.756	94.02
429.132	93.94
429.507	92.74
429.883	93.04
430.259	92.19
430.635	94.34
431.011	92.71
431.387	93.7
431.763	95.5
432.138	92.66
432.514	94.02
432.89	92.6
433.265	93.05
433.641	92.73
434.016	94.98
434.392	92.57
434.767	94.1
435.143	93.8
435.518	94.03
435.894	91.71
436.269	94.04
436.644	93.39
437.02	94
437.395	94.59
437.77	93.91
438.145	92.56
438.52	92
438.895	92.26
439.271	93.45
439.646	93.85
440.021	93.43
440.395	94.45
440.77	93.78
441.145	92.61
441.52	91.39
441.895	93.12
442.27	93.17
442.645	91.13
443.019	92.69
443.394	94.02
443.769	92.27
444.143	93.57
444.518	92.81
444.892	94.16
445.267	95.44
445.641	92.7
446.016	93.01
446.39	92.71
446.764	93.26
447.139	92.65
447.513	92.33
447.887	92.41
448.262	95.22
448.636	94.03
449.01	93.26
449.384	94.54
449.758	91.77
450.132	93.72
450.506	93.19
450.88	92.57
451.254	93.17
451.628	92.41
452.002	93.73
452.376	93.87
452.75	93.82
453.123	93.73
453.497	93.75
453.871	94.39
454.244	93.38
454.618	94.32
454.992	94.1
455.365	92.43
455.739	92.8
456.112	92.61
456.486	93.9
456.859	94.31
457.232	92.83
457.606	92.7
457.979	93.55
458.352	93.24
458.725	93.38
459.099	93.49
459.472	94.01
459.845	93.65
460.218	92.71
460.591	93
460.964	93.25
461.337	93.12
461.71	93.32
462.083	93.29
462.456	93.34
462.829	92.86
463.201	93.78
463.574	93.01
463.947	93.6
464.32	93.06
464.692	92.67
465.065	93.02
465.438	92.69
465.81	93.31
466.183	94.13
466.555	93.29
466.928	92.18
467.3	93.63
467.672	93.21
468.045	93.96
468.417	94.22
468.789	93.69
469.161	93.75
469.534	92.4
469.906	93.75
470.278	92.95
470.65	93.38
471.022	92.43
471.394	94.12
471.766	92.76
472.138	94.26
472.51	93.36
472.882	93.26
473.253	93.15
473.625	93.04
473.997	93.21
474.369	93.22
474.74	93.36
475.112	93.82
475.484	93.47
475.855	92.67
476.227	93.03
476.598	94.41
476.97	93.4
477.341	93.04
477.713	93.47
478.084	92.98
478.455	92.94
478.827	92.82
479.198	93.08
479.569	93.96
479.94	93.02
480.311	94.08
480.682	92.48
481.053	92.87
481.424	92.88
481.795	93.7
482.166	93.59
482.537	92.73
482.908	93.46
483.279	92.78
483.65	93.37
484.021	93.69
484.391	93.6
484.762	94.17
485.133	93.2
485.503	93.12
485.874	93.12
486.244	93.63
486.615	93.77
486.985	93.59
487.356	93
487.726	93.22
488.097	93.58
488.467	93.72
488.837	93.71
489.207	93.75
489.578	93.27
489.948	93.5
490.318	93.26
490.688	92.94
491.058	93.35
491.428	93.49
491.798	93.36
492.168	93.43
492.538	93.07
492.908	93.84
493.278	93.9
493.648	93.18
494.017	93.21
494.387	93.59
494.757	93.92
495.126	93.36
495.496	93.36
495.866	93.13
496.235	93.61
496.605	93.01
496.974	93.48
497.344	94.02
497.713	93.22
498.082	93.91
498.452	93.4
498.821	92.83
499.19	93.65
499.559	93.26
499.928	93.73
500.298	93.64
500.667	93.78
501.036	93.38
501.405	93.09
501.774	93.24
502.143	93.5
502.512	93.27
502.88	93.5
503.249	93.6
503.618	93.09
503.987	93.51
504.356	93.31
504.724	93.69
505.093	93.31
505.462	93.55
505.83	93.25
506.199	93.44
506.567	93.51
506.936	93.54
507.304	93.82
507.672	93.82
508.041	93.52
508.409	93.13
508.777	93.5
509.145	93.31
509.514	93.58
509.882	92.92
510.25	93.55
510.618	93.56
510.986	93.59
511.354	93.22
511.722	93.64
512.09	93.46
512.458	93.85
512.826	93.49
513.193	93.77
513.561	93.8
513.929	93.42
514.297	93.44
514.664	93.21
515.032	93.56
515.4	93.69
515.767	93.66
516.135	93.62
516.502	93.26
516.869	93.13
517.237	93.34
517.604	93.13
517.972	93.38
518.339	93.6
518.706	93.14
519.073	93.31
519.44	93.87
519.808	93.55
520.175	93.68
520.542	93.87
520.909	93.56
521.276	93.84
521.643	93.5
522.009	93.46
522.376	94.06
522.743	93.62
523.11	93.45
523.477	93.6
523.843	93.99
524.21	93.89
524.577	93.92
524.943	93.69
525.31	93.74
525.676	93.77
526.043	93.69
526.409	94.12
526.776	93.94
527.142	93.62
527.508	93.4
527.874	93.85
528.241	93.73
528.607	94.18
528.973	94.16
529.339	93.87
529.705	93.99
530.071	93.87
530.437	93.87
530.803	94.01
531.169	93.69
531.535	94.08
531.901	94.18
532.267	93.94
532.632	93.94
532.998	94.16
533.364	94.46
533.73	94.35
534.095	94.31
534.461	94.23
534.826	94.46
535.192	94.04
535.557	94.28
535.923	94.58
536.288	94.34
536.653	94.8
537.019	94.21
537.384	94.92
537.749	94.45
538.114	94.51
538.479	94.5
538.845	94.99
539.21	94.52
539.575	94.78
539.94	94.76
540.305	94.65
540.67	94.81
541.034	94.74
541.399	94.78
541.764	94.93
542.129	95.11
542.494	95.07
542.858	95.04
543.223	94.68
543.587	95.15
543.952	95.29
544.316	95.4
544.681	95.06
545.045	95.29
545.41	95.53
545.774	95.26
546.138	95.39
546.503	95.32
546.867	95.43
547.231	95.33
547.595	95.29
547.959	95.67
548.324	95.38
548.688	95.41
549.052	95.61
549.416	95.72
549.779	95.45
550.143	95.39
550.507	95.74
550.871	95.72
551.235	95.71
551.599	96.02
551.962	95.75
552.326	95.8
552.689	96.05
553.053	95.78
553.417	95.9
553.78	95.95
554.143	95.91
554.507	95.97
554.87	96.05
555.234	96.22
555.597	96
555.96	96.23
556.323	96.4
556.686	96.22
557.05	96.1
557.413	96.09
557.776	96.44
558.139	96.25
558.502	96.18
558.865	96.55
559.228	96.54
559.59	96.48
559.953	96.52
560.316	96.55
560.679	96.42
561.041	96.47
561.404	96.46
561.767	96.77
562.129	96.68
562.492	96.7
562.854	96.7
563.217	96.7
563.579	96.91
563.941	96.69
564.304	96.78
564.666	96.83
565.028	96.67
565.39	96.8
565.753	96.89
566.115	96.79
566.477	96.85
566.839	96.96
567.201	96.94
567.563	96.8
567.925	96.97
568.287	97.01
568.648	96.97
569.01	97.04
569.372	97.04
569.734	97.1
570.095	96.98
570.457	97.13
570.819	97.13
571.18	97.02
571.542	97.02
571.903	97.09
572.265	97.08
572.626	97.04
572.987	97.1
573.349	97.16
573.71	97.16
574.071	97.11
574.432	96.99
574.794	97.15
575.155	97.2
575.516	97.12
575.877	97.2
576.238	97.26
576.599	97.27
576.96	97.17
577.32	97.33
577.681	97.4
578.042	97.18
578.403	97.26
578.763	97.3
579.124	97.35
579.485	97.37
579.845	97.35
580.206	97.37
580.566	97.37
580.927	97.34
581.287	97.25
581.648	97.29
582.008	97.3
582.368	97.3
582.728	97.36
583.089	97.32
583.449	97.3
583.809	97.19
584.169	97.36
584.529	97.29
584.889	97.25
585.249	97.25
585.609	97.17
585.969	97.32
586.329	97.32
586.688	97.23
587.048	97.31
587.408	97.32
587.768	97.25
588.127	97.35
588.487	97.24
588.846	97.39
589.206	97.3
589.565	97.27
589.925	97.18
590.284	97.18
590.643	97.3
591.003	97.18
591.362	97.26
591.721	97.41
592.08	97.27
592.44	97.35
592.799	97.21
593.158	97.27
593.517	97.42
593.876	97.33
594.235	97.4
594.593	97.37
594.952	97.39
595.311	97.33
595.67	97.25
596.029	97.29
596.387	97.35
596.746	97.35
597.104	97.4
597.463	97.35
597.822	97.24
598.18	97.37
598.538	97.3
598.897	97.33
599.255	97.33
599.613	97.35
599.972	97.42
600.33	97.34
600.688	97.42
601.046	97.46
601.404	97.34
601.762	97.29
602.12	97.41
602.478	97.44
602.836	97.52
603.194	97.25
603.552	97.35
603.91	97.37
604.268	97.46
604.625	97.28
604.983	97.39
605.341	97.44
605.698	97.31
606.056	97.34
606.413	97.42
606.771	97.35
607.128	97.33
607.485	97.29
607.843	97.44
608.2	97.36
608.557	97.48
608.914	97.33
609.272	97.5
609.629	97.45
609.986	97.39
610.343	97.29
610.7	97.28
611.057	97.44
611.414	97.48
611.771	97.35
612.127	97.38
612.484	97.48
612.841	97.29
613.198	97.42
613.554	97.45
613.911	97.43
614.267	97.6
614.624	97.47
614.98	97.5
615.337	97.35
615.693	97.36
616.05	97.45
616.406	97.47
616.762	97.6
617.118	97.4
617.475	97.48
617.831	97.56
618.187	97.58
618.543	97.46
618.899	97.52
619.255	97.49
619.611	97.49
619.967	97.46
620.323	97.41
620.678	97.49
621.034	97.38
621.39	97.4
621.746	97.53
622.101	97.42
622.457	97.53
622.812	97.47
623.168	97.4
623.523	97.47
623.879	97.46
624.234	97.47
624.589	97.49
624.945	97.49
625.3	97.54
625.655	97.45
626.01	97.41
626.365	97.52
626.72	97.54
627.075	97.55
627.43	97.51
627.785	97.58
628.14	97.52
628.495	97.52
628.85	97.45
629.205	97.47
629.559	97.4
629.914	97.55
630.269	97.44
630.623	97.49
630.978	97.44
631.332	97.42
631.687	97.45
632.041	97.56
632.396	97.56
632.75	97.61
633.104	97.41
633.459	97.37
633.813	97.5
634.167	97.48
634.521	97.5
634.875	97.46
635.229	97.61
635.583	97.39
635.937	97.47
636.291	97.44
636.645	97.49
636.999	97.44
637.352	97.51
637.706	97.3
638.06	97.43
638.413	97.56
638.767	97.37
639.121	97.39
639.474	97.31
639.828	97.42
640.181	97.35
640.534	97.37
640.888	97.36
641.241	97.4
641.594	97.41
641.947	97.33
642.301	97.38
642.654	97.36
643.007	97.42
643.36	97.39
643.713	97.45
644.066	97.41
644.419	97.31
644.771	97.34
645.124	97.27
645.477	97.26
645.83	97.35
646.182	97.25
646.535	97.31
646.888	97.32
647.24	97.38
647.593	97.3
647.945	97.21
648.298	97.21
648.65	97.23
649.002	97.31
649.355	97.11
649.707	97.15
650.059	97.35
650.411	97.25
650.763	97.29
651.115	97.27
651.467	97.21
651.819	97.45
652.171	97.26
652.523	97.33
652.875	97.3
653.227	97.28
653.578	97.25
653.93	97.27
654.282	97.26
654.633	97.38
654.985	97.24
655.337	97.34
655.688	97.34
656.039	97.16
656.391	97.37
656.742	97.32
657.094	97.37
657.445	97.36
657.796	97.26
658.147	97.34
658.498	97.26
658.849	97.33
659.2	97.22
659.551	97.09
659.902	97.25
660.253	97.26
660.604	97.42
660.955	97.28
661.306	97.26
661.656	97.31
662.007	97.23
662.358	97.32
662.708	97.27
663.059	97.29
663.409	97.3
663.76	97.34
664.11	97.32
664.461	97.21
664.811	97.15
665.161	97.18
665.511	97.15
665.862	97.29
666.212	97.27
666.562	97.13
666.912	97.17
667.262	97.28
667.612	97.1
667.962	97.18
668.312	97.29
668.662	97.31
669.011	97.23
669.361	97.33
669.711	97.15
670.06	97.2
670.41	97.11
670.76	97.19
671.109	97.34
671.459	97.19
671.808	97.22
672.157	97.29
672.507	97.15
672.856	97.23
673.205	97.19
673.554	97.27
673.904	97.17
674.253	97.19
674.602	97.25
674.951	97.26
675.3	97.14
675.649	97.28
675.998	97.13
676.346	97.2
676.695	97.42
677.044	97.18
677.393	97.38
677.741	97.29
678.09	97.06
678.438	97.18
678.787	97.16
679.135	97.21
679.484	97.11
679.832	97.28
680.181	97.24
680.529	97.13
680.877	97.26
681.225	97.34
681.573	97.28
681.922	97.14
682.27	97.12
682.618	96.96
682.966	97.28
683.314	97.22
683.661	97.3
684.009	97.19
684.357	97.07
684.705	97.15
685.053	97.25
685.4	97.06
685.748	97.11
686.095	97.08
686.443	97.15
686.79	96.93
687.138	96.97
687.485	97.19
687.832	96.97
688.18	97.18
688.527	97.05
688.874	96.96
689.221	96.85
689.568	97.09
689.915	97.06
690.262	97.1
690.609	96.87
690.956	96.93
691.303	96.98
691.65	97.04
691.997	96.95
692.344	96.91
692.69	96.92
693.037	96.88
693.383	97.08
693.73	96.95
694.077	97.01
694.423	96.72
694.769	96.84
695.116	96.89
695.462	96.95
695.808	96.93
696.155	96.76
696.501	96.72
696.847	96.83
697.193	96.81
697.539	96.88
697.885	96.73
698.231	96.75
698.577	96.78
698.923	96.9
699.269	96.62
699.614	96.69
699.96	96.61
700.306	96.74
700.651	96.57
700.997	96.22
701.342	96.64
701.688	96.62
702.033	96.7
702.379	96.63
702.724	96.46
703.069	96.55
703.415	96.38
703.76	96.39
704.105	96.44
704.45	96.38
704.795	96.34
705.14	96.21
705.485	96.44
705.83	96.35
706.175	96.26
706.52	96.39
706.865	96.39
707.209	96.31
707.554	96.34
707.899	96.31
708.243	96.36
708.588	96.35
708.932	96.12
709.277	96.04
709.621	96.11
709.966	96
710.31	96.38
710.654	95.99
710.998	96.15
711.342	96
711.687	95.96
712.031	95.97
712.375	96.09
712.719	95.84
713.063	96.16
713.407	95.9
713.75	95.82
714.094	96.13
714.438	95.87
714.782	95.77
715.125	96
715.469	95.78
715.812	95.92
716.156	95.65
716.499	95.79
716.843	95.86
717.186	95.81
717.53	95.63
717.873	95.52
718.216	95.52
718.559	95.81
718.902	95.64
719.246	95.67
719.589	95.46
719.932	95.51
720.275	95.5
720.617	95.51
720.96	95.34
721.303	95.82
721.646	95.36
721.989	95.42
722.331	95.42
722.674	95.44
723.016	95.35
723.359	95.63
723.701	95.47
724.044	95.56
724.386	95.24
724.729	95.41
725.071	95.3
725.413	95.45
725.755	95.17
726.097	95.24
726.439	95
726.782	95.09
727.124	95.54
727.465	95.15
727.807	95.04
728.149	95.34
728.491	95.3
728.833	95.26
729.175	95.15
729.516	95.02
729.858	95.46
730.199	95.09
730.541	95.03
730.882	95.09
731.224	94.81
731.565	94.99
731.906	94.9
732.248	95.18
732.589	95.04
732.93	94.96
733.271	95.15
733.612	94.8
733.953	94.79
734.294	94.93
734.635	94.55
734.976	94.68
735.317	94.9
735.658	94.95
735.999	94.68
736.339	94.79
736.68	94.65
737.021	94.62
737.361	94.78
737.702	94.86
738.042	94.94
738.383	94.7
738.723	95.1
739.063	94.57
739.404	94.53
739.744	94.91
740.084	94.66
740.424	94.9
740.764	94.67
741.104	94.42
741.444	94.83
741.784	94.89
742.124	94.98
742.464	94.46
742.804	94.66
743.143	95.01
743.483	94.9
743.823	94.5
744.162	94.5
744.502	94.66
744.841	94.39
745.181	94.4
745.52	94.34
745.86	94.53
746.199	94.75
746.538	94.45
746.877	94.52
747.216	94.28
747.556	94.38
747.895	94.54
748.234	94.19
748.573	94.44
748.911	94.38
749.25	94.23
749.589	94.53
749.928	94.39
750.267	94.6
750.605	94.25
750.944	94.34
751.283	94.69
751.621	94.19
751.96	93.92
752.298	94.44
752.636	94.36
752.975	93.99
753.313	94.25
753.651	93.91
753.989	94.62
754.327	94.16
754.666	94.49
755.004	94.25
755.342	94.27
755.679	94.06
756.017	94.15
756.355	94.07
756.693	94.31
757.031	94.58
757.368	94.27
757.706	94.29
758.044	94.01
758.381	93.95
758.719	94.32
759.056	94.04
759.394	94.23
759.731	94.05
760.068	94.22
760.405	94.23
760.743	94.28
761.08	94.25
761.417	93.98
761.754	94.23
762.091	94.07
762.428	94.19
762.765	93.96
763.102	94.05
763.438	94.13
763.775	94.39
764.112	94.11
764.449	94.03
764.785	94.13
765.122	93.85
765.458	93.84
765.795	93.87
766.131	94.52
766.467	94.01
766.804	94.55
767.14	93.62
767.476	93.85
767.812	93.95
768.148	93.87
768.485	94.08
768.821	93.74
769.157	93.7
769.492	94.04
769.828	93.29
770.164	94.42
770.5	93.68
770.836	94.28
771.171	93.83
771.507	93.94
771.842	93.94
772.178	94.4
772.513	93.69
772.849	93.97
773.184	93.6
773.519	94.1
773.855	94.3
774.19	94.09
774.525	93.67
774.86	93.45
775.195	93.64
775.53	93.83
775.865	93.55
776.2	93.69
776.535	94.21
776.87	93.87
777.205	94.14
777.539	93.65
777.874	93.59
778.209	93.9
778.543	93.47
778.878	94.2
779.212	94.1
779.547	94.08
779.881	93.93
780.215	93.87
780.55	93.82
780.884	93.72
781.218	93.57
781.552	94
781.886	93.92
782.22	94.07
782.554	93.56
782.888	94.05
783.222	93.87
783.556	93.72
783.889	94.1
784.223	93.86
784.557	93.92
784.89	93.93
785.224	94.11
785.557	93.87
785.891	93.76
786.224	94.27
786.558	94.25
786.891	94.09
787.224	94.1
787.557	94.12
787.891	94.27
788.224	94.14
788.557	93.97
788.89	93.68
789.223	93.65
789.556	93.63
789.888	93.97
790.221	94
790.554	94.12
790.887	94.09
791.219	93.62
791.552	93.46
791.884	93.76
792.217	93.64
792.549	93.61
792.882	94.09
793.214	93.43
793.546	93.7
793.879	93.83
794.211	93.4
794.543	93.84
794.875	93.92
795.207	93.67
795.539	93.9
795.871	93.71
796.203	93.9
796.535	93.98
796.867	93.91
797.198	93.84
797.53	93.62
797.862	93.22
798.193	93.29
798.525	94.01
798.856	93.76
799.188	94.46
799.519	93.58
799.85	94.11
800.182	93.85
800.513	94.2
800.844	94.07
801.175	93.89
801.506	94.38
801.837	94.26
802.168	93.81
802.499	94.01
802.83	93.7
803.161	93.79
803.491	93.71
803.822	94.34
804.153	93.81
804.483	93.46
804.814	93.87
805.145	93.85
805.475	93.93
805.805	93.18
806.136	94.13
806.466	93.71
806.796	94.09
807.126	93.77
807.457	94.15
807.787	93.94
808.117	94.02
808.447	93.5
808.777	93.38
809.107	93.97
809.436	93.91
809.766	93.67
810.096	94.29
810.426	93.68
810.755	93.97
811.085	94.15
811.414	93.35
811.744	94.32
812.073	94.09
812.403	93.67
812.732	93.52
813.061	94.05
813.39	93.29
813.719	93.66
814.049	93.96
814.378	93.85
814.707	93.73
815.036	94.04
815.365	93.9
815.693	93.65
816.022	93.93
816.351	93.71
816.68	93.85
817.008	93.51
817.337	94.09
817.665	93.72
817.994	93.75
818.322	93.68
818.651	93.96
818.979	93.98
819.307	93.41
819.636	93.97
819.964	93.45
820.292	93.43
820.62	94.34
820.948	93.82
821.276	93.79
821.604	94.16
821.932	93.87
822.259	93.7
822.587	94.21
822.915	93.76
823.243	94.18
823.57	93.78
823.898	93.57
824.225	94.3
824.553	93.97
824.88	93.73
825.207	94
825.535	93.89
825.862	93.8
826.189	94.14
826.516	93.59
826.843	94.22
827.17	93.73
827.497	93.46
827.824	93.8
828.151	93.88
828.478	93.97
828.805	93.55
829.131	94.01
829.458	93.64
829.785	93.72
830.111	94.06
830.438	93.44
830.764	94.13
831.09	94.24
831.417	93.69
831.743	93.55
832.069	94.15
832.395	93.93
832.722	94.15
833.048	94.09
833.374	93.89
833.7	94
834.026	93.7
834.351	94.13
834.677	94.01
835.003	93.65
835.329	93.9
835.654	93.41
835.98	94.02
836.306	94.18
836.631	93.25
836.956	93.44
837.282	93.61
837.607	93.98
837.932	93.92
838.258	93.39
838.583	93.85
838.908	93.73
839.233	94.12
839.558	93.99
839.883	93.09
840.208	94.53
840.533	93.59
840.858	94.3
841.182	93.56
841.507	93.94
841.832	94.3
842.156	93.8
842.481	93.97
842.805	93.67
843.13	93.32
843.454	93.53
843.778	93.8
844.103	93.64
844.427	93.39
844.751	93.69
845.075	93.88
845.399	93.61
845.723	94.31
846.047	93.56
846.371	93.8
846.695	94.06
847.019	93.74
847.343	93.57
847.666	94
847.99	93.46
848.313	93.97
848.637	93.98
848.96	93.76
849.284	94.36
849.607	93.63
849.931	93.96
850.254	93.84
850.577	94.1
850.9	93.59
851.223	94.02
851.546	93.5
851.869	94.47
852.192	93.82
852.515	93.97
852.838	93.88
853.161	93.77
853.483	94.16
853.806	93.96
854.129	93.58
854.451	93.58
854.774	93.58
855.096	93.72
855.419	93.47
855.741	94.13
856.063	94.12
856.385	93.89
856.708	94.23
857.03	94.06
857.352	94.32
857.674	94.1
857.996	93.6
858.318	94.02
858.64	94.48
858.961	93.81
859.283	93.77
859.605	94.22
859.926	94.39
860.248	93.98
860.57	93.75
860.891	93.75
861.212	93.86
861.534	93.26
861.855	94.27
862.176	93.88
862.498	94.1
862.819	94.13
863.14	94.31
863.461	94.45
863.782	93.74
864.103	94.16
864.424	94.08
864.745	93.87
865.065	93.76
865.386	93.36
865.707	93.84
866.027	93.75
866.348	93.64
866.668	93.57
866.989	93.76
867.309	94.15
867.63	94.16
867.95	93.36
868.27	93.81
868.59	94
868.91	93.68
869.23	93.3
869.55	93.81
869.87	94.05
870.19	92.99
870.51	94.35
870.83	93.91
871.15	93.65
871.469	93.56
871.789	94.17
872.109	94.49
872.428	94.27
872.748	94.36
873.067	94.44
873.386	93.64
873.706	93.46
874.025	94.26
874.344	93.03
874.663	93.69
874.982	94.54
875.301	93.32
875.62	93.31
875.939	94.56
876.258	93.44
876.577	92.6
876.896	94.18
877.214	93.53
877.533	93.89
877.852	93.75
878.17	93.88
878.489	93.67
878.807	92.55
879.125	93.18
879.444	93.72
879.762	94
880.08	93.89
880.398	93.67
880.716	94.28
881.034	93.42
881.352	94.18
881.67	93.47
881.988	94
882.306	93.62
882.624	93.62
882.941	93.85
883.259	93.87
883.577	93.85
883.894	93.85
884.212	93.65
884.529	93.87
884.846	93.06
885.164	94.33
885.481	93.97
885.798	93.78
886.115	94.15
886.432	93.86
886.75	93.53
887.067	93.44
887.383	93.79
887.7	93.81
888.017	94.02
888.334	93.74
888.651	93.54
888.967	93.71
889.284	93.6
889.6	94.24
889.917	93.6
890.233	93.95
890.55	94.35
890.866	94.08
891.182	94.52
891.498	93.58
891.815	93.63
892.131	93.77
892.447	92.81
892.763	93.8
893.079	93.74
893.395	93.84
893.71	93.96
894.026	93.6
894.342	92.62
894.657	94.13
894.973	93.95
895.289	93.64
895.604	94
895.92	93.55
896.235	93.56
896.55	93.66
896.865	93.95
897.181	93.39
897.496	93.92
897.811	94.15
898.126	93.52
898.441	94.81
898.756	93.74
899.071	93.53
899.386	93.89
899.7	93.37
900.015	93.84
900.33	94.39
900.644	92.93
900.959	93.49
901.273	93.69
901.588	94.23
901.902	93.03
902.216	93.36
902.531	94.53
902.845	93.3
903.159	93.7
903.473	93.91
903.787	94.12
904.101	94.6
904.415	93.64
904.729	94
905.042	94.39
905.356	93.98
905.67	93.29
905.984	94.23
906.297	93.4
906.611	94.02
906.924	93.57
907.237	93.5
907.551	94.84
907.864	94.4
908.177	94.04
908.491	93.95
908.804	93.45
909.117	93.65
909.43	93.44
909.743	93.68
910.056	94.43
910.368	93.43
910.681	94.23
910.994	93.93
911.307	94.33
911.619	94.03
911.932	93.27
912.244	93.02
912.557	93.76
912.869	94.01
913.181	93.91
913.494	93.39
913.806	94.2
914.118	93.71
914.43	93.96
914.742	93.43
915.054	93.89
915.366	93.26
915.678	94.1
915.99	94.47
916.302	93.3
916.613	94.09
916.925	93.72
917.236	93.53
917.548	93.7
917.859	93.09
918.171	93.69
918.482	94
918.794	93.45
919.105	93.29
919.416	93.28
919.727	93.54
920.038	93.5
920.349	94.11
920.66	93.23
920.971	94.13
921.282	93.91
921.593	93.25
921.903	93.86
922.214	93.72
922.525	93.79
922.835	94.21
923.146	94.31
923.456	93.56
923.767	93.71
924.077	93.92
924.387	94.36
924.697	93.69
925.008	94.46
925.318	93.84
925.628	93.9
925.938	92.91
926.248	93.18
926.558	93.75
926.867	93.4
927.177	93.39
927.487	94.02
927.796	94.16
928.106	93.54
928.416	94.3
928.725	93.82
929.034	93.41
929.344	93.71
929.653	94.03
929.962	93.73
930.271	95
930.581	93.63
930.89	93.89
931.199	93.69
931.508	93.34
931.817	94.44
932.125	94
932.434	93.22
932.743	93.69
933.051	93.5
933.36	93.29
933.669	93.88
933.977	94.22
934.286	94.52
934.594	94.73
934.902	93.76
935.21	92.89
935.519	93.71
935.827	93.4
936.135	94.62
936.443	93.6
936.751	93.94
937.059	93.4
937.367	94.49
937.674	94.18
937.982	94.65
938.29	93.73
938.597	94.22
938.905	94.43
939.213	94.26
939.52	93.77
939.827	93.46
940.135	94.04
940.442	94.16
940.749	93.43
941.056	94.01
941.363	93.71
941.67	94.97
941.977	93.28
942.284	94.29
942.591	93.43
942.898	94.27
943.205	93.35
943.511	93.66
943.818	94.04
944.125	93.34
944.431	93.3
944.738	93.4
945.044	94.09
945.35	93.81
945.657	93.46
945.963	93.45
946.269	93.01
946.575	94.01
946.881	94.14
947.187	93.05
947.493	93.71
947.799	94.77
948.105	94.26
948.41	94.72
948.716	93.35
949.022	94
949.327	94.66
949.633	93.89
949.938	93.65
950.244	94.15
950.549	92.23
950.854	94.57
951.16	94.27
951.465	94.2
951.77	94.27
952.075	93.59
952.38	92.66
952.685	94.53
952.99	93.74
953.294	95.62
953.599	94.59
953.904	94.47
954.209	93.37
954.513	94.57
954.818	93.78
955.122	93.21
955.426	93.67
955.731	94.8
956.035	94.18
956.339	94.03
956.643	93.99
956.948	95.06
957.252	94.62
957.556	92.91
957.86	94.71
958.163	94.1
958.467	94.08
958.771	93.02
959.075	95.2
959.378	93.37
959.682	93.88
959.985	93.48
960.289	95.22
960.592	94.83
960.896	93.81
961.199	92.32
961.502	95.59
961.805	94.51
962.108	93.34
962.411	93.72
962.714	94.08
963.017	93.75
963.32	93.45
963.623	94.76
963.926	93.53
964.228	93.33
964.531	92.56
964.833	94.35
965.136	93.91
965.438	93.17
965.741	93.34
966.043	93.98
966.345	94.92
966.648	94.58
966.95	94.83
967.252	94.36
967.554	94.77
967.856	92.95
968.158	93.41
968.46	92.85
968.761	94.03
969.063	94.1
969.365	92.52
969.666	94.15
969.968	94
970.269	94.69
970.571	93.36
970.872	93.94
971.174	94.41
971.475	94.21
971.776	93.88
972.077	93.47
972.378	93.61
972.679	93.61
972.98	95.98
973.281	94.99
973.582	93.75
973.883	94.14
974.183	93.53
974.484	92.84
974.785	93.21
975.085	94.33
975.386	93.46
975.686	95.49
975.986	93.81
976.287	95.52
976.587	93.85
976.887	93.61
977.187	94.44
977.487	93.71
977.787	94.16
978.087	94.86
978.387	94.89
978.687	95.12
978.987	95.11
979.286	94.66
979.586	93.26
979.885	93.7
980.185	95.66
980.484	94.1
980.784	93.26
981.083	93.99
981.382	94.37
981.682	93.26
981.981	93.5
982.28	94.37
982.579	93.73
982.878	93.55
983.177	94.05
983.475	93.06
983.774	95.35
984.073	93.65
984.372	94.81
984.67	94.41
984.969	94.62
985.267	94.43
985.566	93.52
985.864	93.12
986.162	95.33
986.461	94.38
986.759	93.31
987.057	93.59
987.355	93.35
987.653	93.67
987.951	94.88
988.249	93.33
988.547	94.92
988.844	94.38
989.142	93.21
989.44	93.87
989.737	93.84
990.035	93.27
990.332	94.52
990.63	93.65
990.927	93
991.224	94.03
991.521	94.52
991.819	93.63
992.116	94.84
992.413	93.53
992.71	94.31
993.006	93.64
993.303	93.44
993.6	94.07
993.897	94.33
994.193	93.92
994.49	94.53
994.787	94.22
995.083	93.96
995.379	92.98
995.676	94.29
995.972	94.62
996.268	94.17
996.565	93.11
996.861	94.17
997.157	93.46
997.453	92.59
997.749	94.98
998.044	92.89
998.34	95.51
998.636	93.28
998.932	92.92
999.227	94.15
999.523	93.03
999.818	94.02
1000.114	92.64
1000.409	94.18
1000.704	94.8
1001	92.85
1001.295	94.4
1001.59	94.03
1001.885	93.26
1002.18	92.26
1002.475	92.85
1002.77	92.91
1003.065	93.64
1003.359	94.64
1003.654	95.53
1003.949	94.23
1004.243	94.78
1004.538	96.07
1004.832	93.85
1005.127	92.61
1005.421	93.7
1005.715	94.37
1006.009	94.55
1006.304	92.92
1006.598	95.56
1006.892	91.71
1007.186	94.51
1007.48	95.25
1007.773	93.7
1008.067	94.05
1008.361	92.67
1008.655	94.66
1008.948	94.19
1009.242	96.51
1009.535	93.59
1009.829	94.75
1010.122	94.9
1010.415	93.91
1010.708	95.03
1011.001	93.7
1011.295	93.73
1011.588	93.7
1011.881	94.75
1012.173	93.87
1012.466	92.42
1012.759	94.56
1013.052	93.85
1013.344	94.24
1013.637	94.51
1013.93	93.13
1014.222	93.99
1014.514	93.26
1014.807	94.86
1015.099	95
1015.391	94.56
1015.683	95.06
1015.976	93.65
1016.268	93.49
1016.56	93.87
1016.851	95.42
1017.143	94.9
1017.435	94.03
1017.727	94.2
1018.018	91.56
1018.31	92.91
1018.602	93.78
1018.893	93.92
1019.185	92.75
1019.476	94.79
1019.767	93.69
1020.058	92.7
1020.35	95.1
1020.641	94.67
1020.932	93.59
1021.223	93.64
1021.514	94.11
1021.804	94.4
1022.095	94.34
1022.386	94.85
1022.677	95.14
1022.967	93.86
1023.258	94.67
1023.548	95.11
1023.839	90.09
1024.129	94.02
1024.419	97.16
1024.709	94.98
1025	95.18
1025.29	92.57
1025.58	93.36
1025.87	92.91
1026.16	93.88
1026.449	94.62
1026.739	95.37
1027.029	94.17
1027.319	94.71
1027.608	94.81
1027.898	95.75
1028.187	93.44
1028.477	93.8
1028.766	94.82
1029.055	97.48
1029.344	93.89
1029.634	94.34
1029.923	95.18
1030.212	94.54
1030.501	94.68
1030.79	92.91
1031.078	93.24
1031.367	95.81
1031.656	93.35
1031.945	95.69
1032.233	93.5
1032.522	92.59
1032.81	95.88
1033.099	93.35
1033.387	91.59
1033.675	93.25
1033.963	94.84
1034.251	93.42
1034.54	93.38
1034.828	96.56
1035.116	94.02
1035.403	97.28
1035.691	92.54
1035.979	94.23
1036.267	93.16
1036.554	94.91
1036.842	93.79
1037.129	92.78
1037.417	91.97
1037.704	91.96
1037.992	92.09
1038.279	92.63
1038.566	94.72
1038.853	94.72
1039.14	94.72
