Data from 100_FLMS001491_009.txt Node
Date: Thu Apr 12 17:09:48 BST 2018
User: hsy
Spectrometer: FLMS00149
Trigger mode: 0
Integration Time (sec): 1.000000E-2
Scans to average: 10
Electric dark correction enabled: true
Nonlinearity correction enabled: false
Boxcar width: 0
XAxis mode: Wavelengths
Number of Pixels in Spectrum: 2048
>>>>>Begin Spectral Data<<<<<
341.393	0.07
341.776	0.07
342.16	0.07
342.543	-64.79
342.927	-66.59
343.31	-69.98
343.693	-76.31
344.077	-75.41
344.46	-38.57
344.843	-60.27
345.226	-38.35
345.61	-36.54
345.993	-32.47
346.376	-11.45
346.759	13.4
347.142	34.87
347.525	41.88
347.908	50.46
348.291	81.65
348.674	97.02
349.057	120.07
349.44	146.28
349.823	140.63
350.206	172.27
350.588	233.06
350.971	251.59
351.354	256.11
351.737	278.93
352.119	302.21
352.502	332.04
352.884	296.33
353.267	317.58
353.65	328.65
354.032	335.66
354.414	348.31
354.797	357.8
355.179	371.36
355.562	367.97
355.944	386.95
356.326	371.59
356.709	384.02
357.091	400.96
357.473	378.37
357.855	399.61
358.238	384.92
358.62	374.07
359.002	394.18
359.384	383.11
359.766	379.04
360.148	393.51
360.53	378.82
360.912	378.82
361.294	374.52
361.676	389.66
362.057	379.04
362.439	396.9
362.821	370.23
363.203	380.4
363.584	375.65
363.966	374.98
364.348	355.09
364.729	367.74
365.111	376.33
365.493	360.29
365.874	377.46
366.256	368.2
366.637	396.67
367.019	379.5
367.4	362.55
367.781	367.52
368.163	376.56
368.544	360.97
368.925	362.32
369.306	370.46
369.688	384.69
370.069	395.09
370.45	379.04
370.831	372.26
371.212	388.76
371.593	376.11
371.974	361.64
372.355	363.68
372.736	369.33
373.117	383.56
373.498	392.83
373.879	350.57
374.26	389.89
374.641	372.04
375.021	390.79
375.402	390.79
375.783	382.66
376.163	397.57
376.544	403
376.925	404.81
377.305	413.85
377.686	409.33
378.066	411.59
378.447	398.93
378.827	396.9
379.208	377.24
379.588	404.13
379.968	419.72
380.349	403.45
380.729	418.82
381.109	386.05
381.489	404.81
381.87	397.57
382.25	416.56
382.63	409.1
383.01	416.33
383.39	449.32
383.77	417.23
384.15	429.66
384.53	452.49
384.91	436.67
385.29	430.79
385.67	449.32
386.049	443
386.429	446.16
386.809	431.25
387.189	469.89
387.568	442.54
387.948	462.66
388.328	470.79
388.707	468.76
389.087	465.37
389.466	473.96
389.846	464.69
390.225	452.04
390.605	476.67
390.984	473.05
391.363	495.65
391.743	481.64
392.122	477.8
392.501	492.94
392.881	527.97
393.26	501.3
393.639	504.24
394.018	503.56
394.397	513.05
394.776	513.5
395.155	513.05
395.534	515.99
395.913	516.67
396.292	510.11
396.671	509.44
397.05	538.36
397.429	532.49
397.808	540.17
398.186	535.65
398.565	521.86
398.944	563.67
399.323	548.98
399.701	562.54
400.08	561.41
400.458	572.48
400.837	574.97
401.215	557.57
401.594	579.49
401.972	573.61
402.351	559.6
402.729	575.42
403.107	594.18
403.486	591.24
403.864	599.15
404.242	598.92
404.62	611.35
404.999	607.74
405.377	618.36
405.755	616.78
406.133	643.22
406.511	648.19
406.889	650.67
407.267	661.75
407.645	652.93
408.023	658.13
408.401	650.9
408.779	679.37
409.156	684.57
409.534	677.79
409.912	687.28
410.29	711.46
410.667	708.07
411.045	731.8
411.422	735.19
411.8	746.27
412.178	759.6
412.555	765.93
412.933	776.32
413.31	792.37
413.687	811.35
414.065	786.94
414.442	821.97
414.819	817.68
415.197	827.62
415.574	844.79
415.951	834.17
416.328	851.8
416.705	845.25
417.082	887.05
417.46	874.4
417.837	900.61
418.214	892.93
418.591	904.23
418.967	892.7
419.344	919.14
419.721	924.57
420.098	939.03
420.475	942.64
420.852	927.5
421.228	967.5
421.605	979.71
421.982	980.61
422.358	974.28
422.735	1004.56
423.111	1021.06
423.488	1018.35
423.864	1012.25
424.241	1011.34
424.617	1036.2
424.994	1043.21
425.37	1054.51
425.746	1043.66
426.123	1054.73
426.499	1083.88
426.875	1087.95
427.251	1109.87
427.627	1116.43
428.003	1096.99
428.379	1128.4
428.756	1144.45
429.132	1161.4
429.507	1166.14
429.883	1190.1
430.259	1220.6
430.635	1239.36
431.011	1223.54
431.387	1265.8
431.763	1265.35
432.138	1261.96
432.514	1282.97
432.89	1292.47
433.265	1301.05
433.641	1333.14
434.016	1326.82
434.392	1335.4
434.767	1369.07
435.143	1374.5
435.518	1390.77
435.894	1404.33
436.269	1389.86
436.644	1421.95
437.02	1443.2
437.395	1427.6
437.77	1470.09
438.145	1492.91
438.52	1508.73
438.895	1497.43
439.271	1490.65
439.646	1539.01
440.021	1541.05
440.395	1554.38
440.77	1524.1
441.145	1543.53
441.52	1559.13
441.895	1593.25
442.27	1590.09
442.645	1593.7
443.019	1607.49
443.394	1604.32
443.769	1607.03
444.143	1644.77
444.518	1633.47
444.892	1641.61
445.267	1640.71
445.641	1661.72
446.016	1694.26
446.39	1684.09
446.764	1716.86
447.139	1710.08
447.513	1705.79
447.887	1724.77
448.262	1753.92
448.636	1718.9
449.01	1765
449.384	1776.52
449.758	1803.64
450.132	1799.8
450.506	1819.68
450.88	1835.73
451.254	1853.81
451.628	1853.81
452.002	1878.67
452.376	1927.93
452.75	1936.52
453.123	1920.7
453.497	1979.23
453.871	1960.47
454.244	2016.06
454.618	2008.61
454.992	2099.45
455.365	2043.41
455.739	2119.34
456.112	2098.32
456.486	2158.21
456.859	2176.74
457.232	2201.14
457.606	2244.98
457.979	2237.98
458.352	2301.93
458.725	2317.07
459.099	2302.38
459.472	2354.58
459.845	2411.08
460.218	2377.86
460.591	2474.58
460.964	2480.01
461.337	2485.43
461.71	2565.65
462.083	2598.87
462.456	2596.16
462.829	2609.27
463.201	2678.64
463.574	2688.14
463.947	2726.33
464.32	2732.88
464.692	2796.83
465.065	2801.35
465.438	2838.64
465.81	2847
466.183	2881.58
466.555	2927.45
466.928	2967.45
467.3	2964.29
467.672	2997.28
468.045	3038.63
468.417	3062.14
468.789	3111.18
469.161	3147.78
469.534	3243.38
469.906	3236.82
470.278	3260.55
470.65	3306.2
471.022	3385.52
471.394	3443.37
471.766	3479.53
472.138	3531.73
472.51	3547.1
472.882	3598.85
473.253	3662.8
473.625	3708.45
473.997	3820.08
474.369	3808.11
474.74	3850.59
475.112	3959.06
475.484	3996.8
475.855	4090.58
476.227	4096.46
476.598	4209.45
476.97	4281.54
477.341	4293.52
477.713	4428.88
478.084	4438.82
478.455	4595.43
478.827	4657.12
479.198	4803.56
479.569	4840.4
479.94	4916.33
480.311	5009.88
480.682	5152.25
481.053	5243.32
481.424	5358.57
481.795	5391.12
482.166	5526.48
482.537	5538.68
482.908	5761.05
483.279	5841.05
483.65	5918.79
484.021	6096.18
484.391	6200.13
484.762	6274.03
485.133	6365.33
485.503	6537.3
485.874	6625.66
486.244	6770.51
486.615	6949.04
486.985	7072.43
487.356	7194.91
487.726	7304.29
488.097	7541.34
488.467	7682.35
488.837	7853.88
489.207	8026.75
489.578	8190.36
489.948	8330.47
490.318	8511.71
490.688	8582.67
491.058	8844.81
491.428	9038.93
491.798	9187.17
492.168	9426.49
492.538	9577.9
492.908	9782.41
493.278	9958
493.648	10108.28
494.017	10323.87
494.387	10568.61
494.757	10699
495.126	10921.14
495.496	11127.46
495.866	11319.55
496.235	11510.5
496.605	11797.5
496.974	11983.48
497.344	12244.27
497.713	12455.34
498.082	12577.59
498.452	12899.62
498.821	13163.57
499.19	13314.07
499.559	13591.35
499.928	13790.67
500.298	14005.13
500.667	14314.95
501.036	14451.22
501.405	14697.09
501.774	14910.19
502.143	15238.09
502.512	15436.95
502.88	15782.71
503.249	15938.86
503.618	16178.85
503.987	16426.76
504.356	16617.94
504.724	16934.99
505.093	17180.18
505.462	17496.79
505.83	17700.62
506.199	18009.77
506.567	18390.1
506.936	18524.33
507.304	18788.05
507.672	19061.94
508.041	19404.53
508.409	19614.47
508.777	19891.52
509.145	20255.58
509.514	20376.03
509.882	20763.37
510.25	20979.86
510.618	21302.11
510.986	21331.26
511.354	21800.85
511.722	22094.18
512.09	22455.98
512.458	22512.25
512.826	22870.88
513.193	23023.65
513.561	23307.25
513.929	23472.9
514.297	23853.23
514.664	24218.87
515.032	24355.36
515.4	24641.23
515.767	24873.31
516.135	25169.35
516.502	25143.14
516.869	25753.74
517.237	25855.21
517.604	25899.5
517.972	26357.34
518.339	26598.47
518.706	26868.52
519.073	27016.99
519.44	27256.98
519.808	27656.52
520.175	27765.44
520.542	28229.38
520.909	28415.37
521.276	28696.72
521.643	28950.27
522.009	29151.85
522.376	29452.18
522.743	29677.93
523.11	30118.37
523.477	30499.83
523.843	30667.74
524.21	31090.78
524.577	31343.2
524.943	31604.21
525.31	31676.75
525.676	32210.98
526.043	32366.45
526.409	32619.1
526.776	32960.11
527.142	33220.67
527.508	33486.65
527.874	33869.24
528.241	34048.44
528.607	34101.09
528.973	34626.5
529.339	34555.77
529.705	35148.07
530.071	35417.67
530.437	35531.11
530.803	35845.46
531.169	36135.84
531.535	36202.51
531.901	36493.57
532.267	36604.98
532.632	36932.88
532.998	37005.65
533.364	37323.16
533.73	37379.43
534.095	37734.45
534.461	37841.79
534.826	38018.73
535.192	38136.02
535.557	38528.55
535.923	38452.62
536.288	38673.63
536.653	38922.66
537.019	38951.14
537.384	39163.11
537.749	39377.34
538.114	39347.51
538.479	39419.15
538.845	39681.29
539.21	39692.59
539.575	39994.73
539.94	40162.18
540.305	40396.75
540.67	40243.53
541.034	40528.27
541.399	40743.41
541.764	40867.24
542.129	40906.34
542.494	40993.12
542.858	41305.88
543.223	41184.75
543.587	41607.79
543.952	41523.05
544.316	41710.84
544.681	41716.49
545.045	42010.72
545.41	42252.97
545.774	42235.8
546.138	42212.29
546.503	42456.13
546.867	42628.33
547.231	42751.71
547.595	42861.54
547.959	43146.05
548.324	43113.51
548.688	43182.89
549.052	43440.28
549.416	43389.21
549.779	43652.26
550.143	43768.19
550.507	44144.67
550.871	44295.63
551.235	44214.5
551.599	44671.44
551.962	44819.46
552.326	44866.24
552.689	45158.88
553.053	44846.8
553.417	45078.43
553.78	45604.3
554.143	45555.93
554.507	45771.75
554.87	45921.35
555.234	46237.27
555.597	46046.32
555.96	46285.18
556.323	46492.18
556.686	46564.27
557.05	46893.75
557.413	47089
557.776	47140.3
558.139	47378.94
558.502	47667.74
558.865	47632.04
559.228	47823.67
559.59	48100.27
559.953	48217.11
560.316	48748.17
560.679	48592.47
561.041	48813.48
561.404	49178.66
561.767	49391.09
562.129	49365.1
562.492	49684.19
562.854	49793.79
563.217	49749.05
563.579	50012.54
563.941	50228.81
564.304	50377.5
564.666	50654.11
565.028	50673.31
565.39	50804.38
565.753	51013.64
566.115	51121.66
566.477	51438.49
566.839	51479.39
567.201	51770.91
567.563	51686.85
567.925	51944.69
568.287	52048.65
568.648	52148.3
569.01	52420.61
569.372	52625.81
569.734	52560.5
570.095	52836.42
570.457	52933.59
570.819	53012.01
571.18	53058.79
571.542	53318.67
571.903	53246.81
572.265	53490.87
572.626	53676.63
572.987	53710.07
573.349	53899.9
573.71	53984.87
574.071	54024.86
574.432	54117.97
574.794	54402.93
575.155	54433.22
575.516	54342.82
575.877	54510.95
576.238	54515.47
576.599	54681.12
576.96	54787.78
577.32	54763.38
577.681	54833.43
578.042	54936.93
578.403	54965.86
578.763	55024.61
579.124	55103.71
579.485	55320.65
579.845	55249.47
580.206	55316.13
580.566	55259.18
580.927	55266.87
581.287	55474.32
581.648	55322.91
582.008	55464.6
582.368	55475
582.728	55583.69
583.089	55471.38
583.449	55558.61
583.809	55598.16
584.169	55707.98
584.529	55582.56
584.889	55768.32
585.249	55572.17
585.609	55511.38
585.969	55747.31
586.329	55590.47
586.688	55682.67
587.048	55655.56
587.408	55618.04
587.768	55602
588.127	55695.78
588.487	55611.26
588.846	55806.74
589.206	55601.77
589.565	55603.58
589.925	55761.99
590.284	55649.45
590.643	55710.24
591.003	55684.48
591.362	55810.13
591.721	55788.43
592.08	55708.66
592.44	55899.17
592.799	55777.81
593.158	55806.29
593.517	55747.08
593.876	55846.06
594.235	55795.89
594.593	55808.77
594.952	55809.68
595.311	55805.16
595.67	55854.2
596.029	56002.67
596.387	55968.32
596.746	56012.61
597.104	55877.92
597.463	55901.43
597.822	56092.61
598.18	55951.82
598.538	55961.09
598.897	56077.92
599.255	55913.85
599.613	56272.49
599.972	56126.73
600.33	56118.37
600.688	56091.03
601.046	56193.4
601.404	56264.58
601.762	56221.87
602.12	56356.1
602.478	56274.98
602.836	56363.56
603.194	56158.37
603.552	56340.51
603.91	56286.5
604.268	56447.85
604.625	56370.34
604.983	56546.38
605.341	56407.63
605.698	56542.31
606.056	56661.41
606.413	56564.91
606.771	56721.97
607.128	56708.64
607.485	56755.19
607.843	56687.39
608.2	56791.12
608.557	56892.81
608.914	56818.69
609.272	56991.34
609.629	57073.6
609.986	57134.84
610.343	57118.12
610.7	57265.23
611.057	57192.01
611.414	57185.46
611.771	57289.19
612.127	57372.8
612.484	57415.51
612.841	57443.98
613.198	57392.46
613.554	57442.85
613.911	57619.12
614.267	57618.44
614.624	57563.98
614.98	57696.41
615.337	57793.35
615.693	57765.11
616.05	57794.48
616.406	57946.8
616.762	57841.49
617.118	57925.33
617.475	57830.87
617.831	58071.99
618.187	58071.99
618.543	58124.64
618.899	58210.29
619.255	58190.63
619.611	58218.2
619.967	58311.76
620.323	58343.85
620.678	58297.07
621.034	58293
621.39	58283.96
621.746	58286.67
622.101	58593.33
622.457	58356.05
622.812	58476.27
623.168	58555.82
623.523	58473.11
623.879	58544.07
624.234	58430.4
624.589	58512.88
624.945	58570.51
625.3	58617.96
625.655	58657.06
626.01	58620.68
626.365	58611.86
626.72	58561.69
627.075	58598.98
627.43	58626.78
627.785	58593.11
628.14	58528.25
628.495	58582.71
628.85	58652.77
629.205	58574.58
629.559	58671.07
629.914	58526.67
630.269	58611.18
630.623	58501.36
630.978	58508.81
631.332	58631.75
631.687	58686.44
632.041	58551.53
632.396	58597.4
632.75	58535.25
633.104	58578.42
633.459	58393.56
633.813	58445.09
634.167	58379.33
634.521	58386.78
634.875	58468.59
635.229	58382.26
635.583	58250.97
635.937	58296.16
636.291	58276.73
636.645	58278.76
636.999	58125.77
637.352	58268.14
637.706	58027.02
638.06	58279.22
638.413	58095.04
638.767	58022.73
639.121	58073.35
639.474	58001.03
639.828	57965.33
640.181	57892.33
640.534	57988.83
640.888	57928.72
641.241	57789.74
641.594	57818.89
641.947	57842.39
642.301	57747.25
642.654	57788.38
643.007	57729.85
643.36	57774.6
643.713	57748.38
644.066	57815.27
644.419	57550.42
644.771	57421.39
645.124	57099.13
645.477	57060.27
645.83	56960.15
646.182	56946.37
646.535	56888.74
646.888	56873.38
647.24	56830.67
647.593	57006.03
647.945	56811.46
648.298	56779.59
648.65	56654.4
649.002	56608.3
649.355	56529.21
649.707	56507.96
650.059	56502.09
650.411	56863.89
650.763	56968.06
651.115	57288.28
651.467	57155.4
651.819	57188.17
652.171	57095.07
652.523	57058.68
652.875	57105.24
653.227	56989.53
653.578	57183.43
653.93	56994.28
654.282	56898.69
654.633	56893.04
654.985	56929.2
655.337	56864.34
655.688	56906.14
656.039	57011.45
656.391	56735.75
656.742	56808.29
657.094	56815.75
657.445	56773.72
657.796	56776.88
658.147	56716.55
658.498	56750.67
658.849	56807.39
659.2	56712.25
659.551	56496.21
659.902	56721.07
660.253	56570.33
660.604	56666.83
660.955	56477
661.306	56641.29
661.656	56509.09
662.007	56497.57
662.358	56533.95
662.708	56527.85
663.059	56453.28
663.409	56398.14
663.76	56503.9
664.11	56494.63
664.461	56531.69
664.811	56478.13
665.161	56414.41
665.511	56376.67
665.862	56459.83
666.212	56456.89
666.562	56496.89
666.912	56435.42
667.262	56376.89
667.612	56360.62
667.962	56380.06
668.312	56308.42
668.662	56468.19
669.011	56451.92
669.361	56317.69
669.711	56414.18
670.06	56326.95
670.41	56284.47
670.76	56229.55
671.109	56392.49
671.459	56311.81
671.808	56309.32
672.157	56327.4
672.507	56177.58
672.856	56192.72
673.205	56220.51
673.554	56318.36
673.904	56179.38
674.253	56366.5
674.602	56179.38
674.951	55929
675.3	55767.42
675.649	56149.78
675.998	56166.96
676.346	56189.33
676.695	56200.63
677.044	56054.42
677.393	56161.98
677.741	56186.39
678.09	56125.37
678.438	55990.24
678.787	56061.42
679.135	55994.3
679.484	55882.67
679.832	56031.14
680.181	55963.8
680.529	55977.36
680.877	55827.98
681.225	55785.5
681.573	56057.13
681.922	55853.52
682.27	55753.86
682.618	55789.34
682.966	55702.79
683.314	55672.96
683.661	55726.74
684.009	55571.72
684.357	55523.36
684.705	55537.14
685.053	55620.53
685.4	55348.45
685.748	55397.94
686.095	55408.78
686.443	55216.47
686.79	55279.97
687.138	55306.64
687.485	55381.67
687.832	55235
688.18	55174.89
688.527	55185.74
688.874	55161.78
689.221	55117.94
689.568	54957.95
689.915	54871.85
690.262	54948.46
690.609	54911.85
690.956	54759.76
691.303	54790.72
691.65	54686.54
691.997	54695.58
692.344	54521.35
692.69	54522.48
693.037	54558.64
693.383	54363.39
693.73	54445.42
694.077	54272.09
694.423	54297.85
694.769	54142.83
695.116	54143.05
695.462	54080.23
695.808	53914.36
696.155	54043.17
696.501	53843.63
696.847	53876.17
697.193	53623.97
697.539	53728.6
697.885	53452.68
698.231	53441.38
698.577	53429.17
698.923	53444.99
699.269	53142.4
699.614	53209.52
699.96	53019.24
700.306	53071.22
700.651	52950.54
700.997	52820.15
701.342	52808.85
701.688	52795.97
702.033	52684.34
702.379	52665.58
702.724	52515.98
703.069	52601.85
703.415	52290.9
703.76	52292.03
704.105	52342.88
704.45	52132.71
704.795	52076.22
705.14	51984.01
705.485	51981.08
705.83	51840.97
706.175	51957.8
706.52	51785.38
706.865	51658.15
707.209	51544.48
707.554	51563.91
707.899	51521.65
708.243	51372.73
708.588	51330.92
708.932	51154.21
709.277	51172.51
709.621	51087.31
709.966	50759.41
710.31	50930.93
710.654	50610.94
710.998	50781.56
711.342	50842.35
711.687	50659.08
712.031	50511.74
712.375	50375.47
712.719	50403.72
713.063	50255.7
713.407	50455.47
713.75	50114.46
714.094	50141.58
714.438	50011.19
714.782	50031.52
715.125	49836.05
715.469	50038.08
715.812	49676.5
716.156	49655.94
716.499	49555.38
716.843	49641.25
717.186	49442.84
717.53	49603.96
717.873	49572.78
718.216	49448.26
718.559	49304.08
718.902	49013.92
719.246	49136.18
719.589	49097.99
719.932	48946.58
720.275	48824.1
720.617	49001.49
720.96	48810.99
721.303	48833.14
721.646	48861.38
721.989	48639.7
722.331	48737.55
722.674	48544.33
723.016	48529.64
723.359	48384.56
723.701	48423.88
724.044	48243.77
724.386	48100.05
724.729	48285.58
725.071	48080.39
725.413	48258.01
725.755	48002.88
726.097	48000.39
726.439	47726.5
726.782	47716.1
727.124	47940.05
727.465	47780.51
727.807	47674.98
728.149	47730.57
728.491	47641.3
728.833	47550.01
729.175	47398.6
729.516	47373.29
729.858	47389.79
730.199	47484.25
730.541	47479.27
730.882	47305.49
731.224	47320.18
731.565	46888.56
731.906	47060.3
732.248	47146.4
732.589	46832.51
732.93	46781.44
733.271	46762.46
733.612	46778.95
733.953	46915.9
734.294	46771.04
734.635	46522.92
734.976	46792.29
735.317	46622.57
735.658	46441.56
735.999	46534.89
736.339	46335.8
736.68	46398.62
737.021	46280.89
737.361	46239.08
737.702	46432.52
738.042	46310.04
738.383	46315.01
738.723	46191.4
739.063	46032.76
739.404	46170.83
739.744	45995.02
740.084	45860.11
740.424	46008.8
740.764	46047.45
741.104	46106.65
741.444	45797.06
741.784	45547.35
742.124	45811.52
742.464	45707.57
742.804	45742.82
743.143	45346.67
743.483	45604.97
743.823	45334.25
744.162	45355.71
744.502	45333.57
744.841	45282.5
745.181	45420.35
745.52	45205.44
745.86	45282.04
746.199	45223.51
746.538	45063.52
746.877	45173.57
747.216	44989.4
747.556	44928.61
747.895	44858.78
748.234	44638.9
748.573	44778.33
748.911	44600.25
749.25	44638.22
749.589	44435.96
749.928	44515.96
750.267	44518.9
750.605	44307.38
750.944	44367.27
751.283	44309.41
751.621	44316.65
751.96	44082.75
752.298	44010.44
752.636	44129.08
752.975	43901.97
753.313	43801.86
753.651	44018.57
753.989	43699.26
754.327	43664.46
754.666	43476.89
755.004	43606.38
755.342	43507.85
755.679	43460.85
756.017	43174.75
756.355	43283.45
756.693	43221.31
757.031	43192.83
757.368	42926.63
757.706	42890.24
758.044	42810.47
758.381	42749.23
758.719	42514.43
759.056	42502.23
759.394	42453.87
759.731	42119.42
760.068	42175.23
760.405	42159.87
760.743	41881.68
761.08	42071.51
761.417	41867.67
761.754	41661.8
762.091	41671.52
762.428	41381.81
762.765	41378.64
763.102	41436.95
763.438	41111.76
763.775	40950.63
764.112	40925.1
764.449	40912.89
764.785	40811.43
765.122	40546.12
765.458	40315.85
765.795	40293.02
766.131	40315.62
766.467	40088.06
766.804	39920.15
767.14	39779.36
767.476	39656.66
767.812	39504.34
768.148	39637.45
768.485	39427.06
768.821	39065.48
769.157	39062.77
769.492	38816.23
769.828	38921.99
770.164	38516.8
770.5	38462.79
770.836	38393.86
771.171	38290.14
771.507	38132.18
771.842	37715.24
772.178	37764.5
772.513	37740.32
772.849	37599.53
773.184	37588.23
773.519	37440.44
773.855	37141.69
774.19	37143.05
774.525	36997.29
774.86	36873.45
775.195	36783.74
775.53	36576.28
775.865	36480.02
776.2	36279.34
776.535	36071.21
776.87	35912.57
777.205	35807.72
777.539	35699.47
777.874	35725.68
778.209	35362.53
778.543	35451.12
778.878	35137
779.212	35209.77
779.547	34896.78
779.881	34843
780.215	34644.58
780.55	34657.69
780.884	34455.89
781.218	34367.08
781.552	34346.74
781.886	34134.99
782.22	33933.87
782.554	33973.41
782.888	33508.12
783.222	33580.43
783.556	33389.48
783.889	33210.27
784.223	33063.38
784.557	33045.76
784.89	33021.8
785.224	32787.23
785.557	32464.75
785.891	32569.84
786.224	32570.29
786.558	32347.24
786.891	32240.35
787.224	32243.52
787.557	31831.32
787.891	31889.4
788.224	31797.43
788.557	31730.76
788.89	31660.26
789.223	31558.11
789.556	31387.04
789.888	31296.42
790.221	31112.92
790.554	30881.97
790.887	31049.2
791.219	30839.94
791.552	30739.6
791.884	30673.84
792.217	30511.81
792.549	30315.66
792.882	30066.85
793.214	30124.48
793.546	30117.7
793.879	29930.13
794.211	29717.26
794.543	29817.59
794.875	29696.24
795.207	29607.65
795.539	29571.72
795.871	29574.66
796.203	29397.72
796.535	29069.36
796.867	29129.02
797.198	28975.58
797.53	28865.75
797.862	28749.37
798.193	28920.89
798.525	28622.59
798.856	28606.78
799.188	28271.19
799.519	28242.94
799.85	28120.46
800.182	28095.15
800.513	28133.57
800.844	27776.06
801.175	27894.7
801.506	27972.22
801.837	27745.78
802.168	27729.29
802.499	27774.03
802.83	27527.93
803.161	27341.27
803.491	27338.33
803.822	27439.58
804.153	27141.5
804.483	26999.13
804.814	26889.99
805.145	26900.61
805.475	26821.96
805.805	26871.23
806.136	26846.14
806.466	26605.7
806.796	26602.76
807.126	26460.84
807.457	26442.99
807.787	26473.5
808.117	26294.97
808.447	26148.31
808.777	26200.51
809.107	26115.54
809.436	25842.55
809.766	25889.79
810.096	25937.02
810.426	25707.64
810.755	25825.38
811.085	25782.67
811.414	25650.47
811.744	25521.89
812.073	25413.64
812.403	25404.15
812.732	25309.69
813.061	25339.29
813.39	25175.23
813.719	25050.03
814.049	25263.59
814.378	25112.86
814.707	24863.6
815.036	24952.18
815.365	24772.3
815.693	24643.04
816.022	24679.65
816.351	24709.93
816.68	24428.58
817.008	24640.1
817.337	24314.91
817.665	24429.48
817.994	24369.83
818.322	24446.21
818.651	24190.4
818.979	24241.92
819.307	24291.18
819.636	24205.99
819.964	24109.95
820.292	24255.48
820.62	24068.36
820.948	24122.15
821.276	24153.33
821.604	23966.45
821.932	24064.3
822.259	24160.79
822.587	23925.09
822.915	23956.95
823.243	24082.15
823.57	23904.53
823.898	23985.65
824.225	23895.71
824.553	23858.88
824.88	23973.23
825.207	24052.77
825.535	24019.1
825.862	24149.49
826.189	23886.9
826.516	24055.03
826.843	24159.21
827.17	24103.39
827.497	24128.7
827.824	24148.36
828.151	24131.87
828.478	23985.88
828.805	24137.52
829.131	23925.77
829.458	24072.43
829.785	23847.81
830.111	23891.65
830.438	24107.46
830.764	23971.64
831.09	24032.66
831.417	23996.05
831.743	24120.57
832.069	24107.23
832.395	23972.55
832.722	24001.93
833.048	23860.69
833.374	24062.26
833.7	23860.46
834.026	23879.44
834.351	23847.13
834.677	23942.04
835.003	23818.2
835.329	23783.4
835.654	23789.73
835.98	23591.77
836.306	23885.09
836.631	23671.54
836.956	23739.11
837.282	23710.41
837.607	23582.95
837.932	23649.17
838.258	23447.14
838.583	23568.94
838.908	23423.41
839.233	23555.61
839.558	23267.26
839.883	23434.71
840.208	23077.66
840.533	23239.91
840.858	23255.96
841.182	23336.63
841.507	23232
841.832	23059.13
842.156	23112.91
842.481	23029.07
842.805	23108.62
843.13	22899.81
843.454	22980.26
843.778	22705.24
844.103	22648.06
844.427	22721.51
844.751	22700.04
845.075	22624.56
845.399	22434.51
845.723	22491.23
846.047	22507.73
846.371	22348.41
846.695	22281.74
847.019	22141.86
847.343	22013.73
847.666	22036.78
847.99	21896.67
848.313	21860.74
848.637	21772.38
848.96	21652.16
849.284	21702.55
849.607	21639.28
849.931	21585.27
850.254	21197.48
850.577	21271.83
850.9	20999.07
851.223	21071.61
851.546	20971.04
851.869	20909.13
852.192	20931.95
852.515	20764.27
852.838	20681.11
853.161	20609.47
853.483	20512.75
853.806	20436.82
854.129	20377.61
854.451	20362.7
854.774	20186.21
855.096	20136.26
855.419	20106.43
855.741	20133.78
856.063	20051.07
856.385	19946.66
856.708	19880
857.03	19893.78
857.352	19826.22
857.674	19701.25
857.996	19609.05
858.318	19608.82
858.64	19621.48
858.961	19418.32
859.283	19343.74
859.605	19463.74
859.926	19336.74
860.248	19322.27
860.57	19207.48
860.891	19212.9
861.212	19083.86
861.534	19082.96
861.855	18974.71
862.176	19079.79
862.498	19042.28
862.819	18962.74
863.14	18856.75
863.461	18869.4
863.782	18876.18
864.103	18778.33
864.424	18777.66
864.745	18904.66
865.065	18731.78
865.386	18573.59
865.707	18680.03
866.027	18644.1
866.348	18669.18
866.668	18646.81
866.989	18486.14
867.309	18444.11
867.63	18322.75
867.95	18423.09
868.27	18260.16
868.59	18364.56
868.91	18296.54
869.23	18295.63
869.55	18099.48
869.87	18207.28
870.19	18071.23
870.51	18051.8
870.83	18175.19
871.15	18045.92
871.469	18029.88
871.789	18139.25
872.109	18028.98
872.428	17927.06
872.748	18015.87
873.067	17900.16
873.386	17876.89
873.706	17890.45
874.025	17771.13
874.344	17768.19
874.663	17748.76
874.982	17751.69
875.301	17767.29
875.62	17662.66
875.939	17610
876.258	17580.4
876.577	17591.7
876.896	17527.97
877.214	17535.65
877.533	17535.2
877.852	17595.09
878.17	17528.65
878.489	17589.89
878.807	17338.15
879.125	17224.7
879.444	17328.65
879.762	17286.85
880.08	17309.45
880.398	17258.83
880.716	17187.19
881.034	17126.63
881.352	17137.47
881.67	17095.44
881.988	17068.1
882.306	17054.54
882.624	16979.74
882.941	16991.49
883.259	16882.56
883.577	16830.81
883.894	16804.83
884.212	16866.97
884.529	16659.52
884.846	16681.89
885.164	16583.82
885.481	16541.56
885.798	16589.69
886.115	16575.68
886.432	16571.39
886.75	16501.56
887.067	16562.12
887.383	16442.35
887.7	16346.53
888.017	16251.17
888.334	16330.26
888.651	16243.26
888.967	16160.32
889.284	16140.44
889.6	16098.18
889.917	16090.27
890.233	16010.27
890.55	15948.35
890.866	15925.08
891.182	15902.25
891.498	15868.13
891.815	15775.02
892.131	15672.2
892.447	15708.13
892.763	15735.7
893.079	15605.54
893.395	15561.7
893.71	15532.32
894.026	15466.78
894.342	15414.13
894.657	15300.46
894.973	15320.35
895.289	15267.92
895.604	15269.5
895.92	15197.41
896.235	15143.63
896.55	15042.39
896.865	14987.7
897.181	14980.92
897.496	14949.51
897.811	14841.04
898.126	14753.13
898.441	14759.68
898.756	14796.97
899.071	14736.41
899.386	14711.55
899.7	14538.45
900.015	14468.16
900.33	14461.61
900.644	14427.26
900.959	14392.46
901.273	14369.64
901.588	14319.24
901.902	14236.53
902.216	14185.23
902.531	14140.49
902.845	14086.48
903.159	13994.73
903.473	13973.26
903.787	13920.16
904.101	13738.47
904.415	13898.24
904.729	13741.86
905.042	13704.57
905.356	13640.39
905.67	13701.63
905.984	13566.27
906.297	13438.14
906.611	13413.5
906.924	13369.89
907.237	13336.22
907.551	13293.73
907.864	13302.09
908.177	13209.44
908.491	13163.57
908.804	13091.7
909.117	13004.02
909.43	12967.19
909.743	12911.37
910.056	12869.56
910.368	12837.25
910.681	12783.46
910.994	12732.84
911.307	12666.86
911.619	12649.91
911.932	12587.76
912.244	12516.13
912.557	12486.52
912.869	12416.92
913.181	12380.08
913.494	12270.26
913.806	12213.31
914.118	12178.51
914.43	12138.06
914.742	12118.17
915.054	12043.37
915.366	12001.56
915.678	11908.68
915.99	11951.62
916.302	11868.91
916.613	11770.61
916.925	11783.04
917.236	11737.84
917.548	11613.78
917.859	11693.1
918.171	11549.6
918.482	11504.17
918.794	11463.72
919.105	11411.52
919.416	11317.06
919.727	11334.46
920.038	11213.79
920.349	11170.62
920.66	11145.77
920.971	11097.63
921.282	11042.72
921.593	11034.58
921.903	10961.59
922.214	10988.71
922.525	10874.59
922.835	10844.53
923.146	10807.7
923.456	10709.62
923.767	10700.81
924.077	10612.67
924.387	10654.25
924.697	10572
925.008	10529.29
925.318	10575.39
925.628	10492.68
925.938	10470.53
926.248	10318.44
926.558	10313.47
926.867	10267.6
927.177	10177.43
927.487	10174.94
927.796	10066.25
928.106	10075.29
928.416	10018.79
928.725	9989.86
929.034	9933.14
929.344	9987.15
929.653	9916.65
929.962	9876.65
930.271	9792.81
930.581	9761.62
930.89	9690.44
931.199	9579.71
931.508	9716.43
931.817	9621.74
932.125	9544.45
932.434	9527.73
932.743	9391.01
933.051	9371.35
933.36	9334.29
933.669	9331.35
933.977	9275.31
934.286	9259.26
934.594	9258.81
934.902	9151.47
935.21	9187.85
935.519	9099.94
935.827	9067.18
936.135	8970.23
936.443	8890.68
936.751	8863.57
937.059	8858.59
937.367	8811.59
937.674	8821.99
937.982	8781.53
938.29	8719.84
938.597	8752.83
938.905	8646.62
939.213	8621.99
939.52	8604.36
939.827	8644.82
940.135	8557.13
940.442	8491.15
940.749	8467.42
941.056	8532.28
941.363	8371.15
941.67	8323.92
941.977	8261.1
942.284	8223.36
942.591	8233.75
942.898	8207.54
943.205	8164.38
943.511	8090.48
943.818	8092.97
944.125	7982.23
944.431	7936.13
944.738	8029.01
945.044	7904.95
945.35	7881.9
945.657	7826.08
945.963	7854.1
946.269	7755.12
946.575	7765.74
946.881	7736.59
947.187	7699.98
947.493	7644.39
947.799	7594
948.105	7586.09
948.41	7586.99
948.716	7519.42
949.022	7484.62
949.327	7416.15
949.633	7354.68
949.938	7366.88
950.244	7362.59
950.549	7255.25
950.854	7218.41
951.16	7270.16
951.465	7207.34
951.77	7196.27
952.075	7164.63
952.38	7097.29
952.685	7063.16
952.99	7041.02
953.294	7012.99
953.599	6959.89
953.904	6936.39
954.209	6906.33
954.513	6936.16
954.818	6853.68
955.122	6839.21
955.426	6826.11
955.731	6747.69
956.035	6749.72
956.339	6713.34
956.643	6666.79
956.948	6626.11
957.252	6625.43
957.556	6621.14
957.86	6581.82
958.163	6561.25
958.467	6493.01
958.771	6432.67
959.075	6457.08
959.378	6426.79
959.682	6344.54
959.985	6411.88
960.289	6357.64
960.592	6279.45
960.896	6279.68
961.199	6323.29
961.502	6260.7
961.805	6238.78
962.108	6191.32
962.411	6140.7
962.714	6134.6
963.017	6061.15
963.32	6117.88
963.623	6025.9
963.926	6060.7
964.228	5992.23
964.531	5990.42
964.833	5981.83
965.136	5905.23
965.438	5884.21
965.741	5814.38
966.043	5830.65
966.345	5773.03
966.648	5732.8
966.95	5792.46
967.252	5673.59
967.554	5727.6
967.856	5693.03
968.158	5587.04
968.46	5657.55
968.761	5594.5
969.063	5597.89
969.365	5527.38
969.666	5486.03
969.968	5483.99
970.269	5450.55
970.571	5465.24
970.872	5433.15
971.174	5348.86
971.475	5350.66
971.776	5364.68
972.077	5274.06
972.378	5269.31
972.679	5287.16
972.98	5262.31
973.281	5246.26
973.582	5182.53
973.883	5194.51
974.183	5173.04
974.484	5136.66
974.785	5115.64
975.085	5101.41
975.386	5098.69
975.686	5059.82
975.986	5060.73
976.287	4972.14
976.587	4940.96
976.887	4964.01
977.187	4934.63
977.487	4935.76
977.787	4836.55
978.087	4864.8
978.387	4829.55
978.687	4805.59
978.987	4832.03
979.286	4766.72
979.586	4801.3
979.885	4762.88
980.185	4713.84
980.484	4664.81
980.784	4641.3
981.083	4647.41
981.382	4661.42
981.682	4599.05
981.981	4602.89
982.28	4585.49
982.579	4488.09
982.878	4540.52
983.177	4503
983.475	4483.12
983.774	4443.34
984.073	4429.56
984.372	4432.04
984.67	4423.68
984.969	4426.62
985.267	4391.59
985.566	4346.85
985.864	4296
986.162	4292.16
986.461	4268.88
986.759	4217.81
987.057	4211.49
987.355	4212.84
987.653	4209.23
987.951	4184.14
988.249	4150.7
988.547	4111.83
988.844	4132.84
989.142	4084.26
989.44	4103.47
989.737	4073.86
990.035	4055.11
990.332	4000.42
990.63	3982.56
990.927	3952.51
991.224	3976.24
991.521	3946.86
991.819	3898.5
992.116	3886.07
992.413	3850.36
992.71	3858.95
993.006	3828.9
993.303	3865.28
993.6	3809.46
993.897	3805.62
994.193	3787.99
994.49	3757.49
994.787	3733.98
995.083	3695.57
995.379	3716.81
995.676	3689.01
995.972	3635.46
996.268	3647.66
996.565	3616.02
996.861	3578.73
997.157	3594.55
997.453	3553.88
997.749	3556.36
998.044	3480.66
998.34	3537.38
998.636	3478.62
998.932	3451.05
999.227	3430.26
999.523	3459.64
999.818	3407.44
1000.114	3369.25
1000.409	3373.77
1000.704	3334.22
1001	3354.11
1001.295	3311.4
1001.59	3290.61
1001.885	3291.74
1002.18	3268.91
1002.475	3257.84
1002.77	3223.04
1003.065	3170.38
1003.359	3170.38
1003.654	3173.55
1003.949	3126.99
1004.243	3150.04
1004.538	3111.85
1004.832	3121.12
1005.127	3110.95
1005.421	3053.32
1005.715	3067.56
1006.009	3066.66
1006.304	3007.68
1006.598	2975.36
1006.892	2973.1
1007.186	2988.92
1007.48	2902.37
1007.773	2932.87
1008.067	2858.98
1008.361	2863.27
1008.655	2859.2
1008.948	2877.96
1009.242	2844.74
1009.535	2806.32
1009.829	2805.19
1010.122	2782.6
1010.415	2763.84
1010.708	2777.85
1011.001	2738.3
1011.295	2742.6
1011.588	2730.17
1011.881	2676.38
1012.173	2664.18
1012.466	2654.92
1012.759	2632.32
1013.052	2597.97
1013.344	2613.79
1013.637	2594.13
1013.93	2553
1014.222	2541.92
1014.514	2583.28
1014.807	2504.64
1015.099	2506.22
1015.391	2469.61
1015.683	2472.77
1015.976	2451.53
1016.268	2437.07
1016.56	2418.31
1016.851	2401.36
1017.143	2406.11
1017.435	2367.01
1017.727	2339.9
1018.018	2382.61
1018.31	2324.08
1018.602	2329.73
1018.893	2294.02
1019.185	2308.94
1019.476	2295.38
1019.767	2261.71
1020.058	2262.38
1020.35	2204.53
1020.641	2203.85
1020.932	2207.47
1021.223	2205.21
1021.514	2164.99
1021.804	2113.69
1022.095	2150.75
1022.386	2106.23
1022.677	2082.73
1022.967	2082.95
1023.258	2055.61
1023.548	2018.77
1023.839	2043.18
1024.129	2049.28
1024.419	2030.75
1024.709	2004.54
1025	2001.15
1025.29	1962.5
1025.58	1942.84
1025.87	1945.33
1026.16	1912.56
1026.449	1923.18
1026.739	1887.48
1027.029	1892.9
1027.319	1860.13
1027.608	1828.5
1027.898	1865.78
1028.187	1832.11
1028.477	1807.25
1028.766	1824.2
1029.055	1807.71
1029.344	1796.63
1029.634	1768.61
1029.923	1790.53
1030.212	1768.16
1030.501	1727.93
1030.79	1718.67
1031.078	1694.26
1031.367	1685.68
1031.656	1671.44
1031.945	1663.53
1032.233	1636.41
1032.522	1635.51
1032.81	1640.93
1033.099	1619.92
1033.387	1637.77
1033.675	1587.6
1033.963	1592.12
1034.251	1588.73
1034.54	1601.38
1034.828	1562.52
1035.116	1548.96
1035.403	1536.3
1035.691	1502.63
1035.979	1492.01
1036.267	1501.05
1036.554	1495.17
1036.842	1468.96
1037.129	1459.92
1037.417	1461.05
1037.704	1456.08
1037.992	1448.39
1038.279	1440.03
1038.566	1415.17
1038.853	1415.17
1039.14	1415.17
