Data from 100_FLMS001491_007.txt Node
Date: Thu Apr 12 17:09:44 BST 2018
User: hsy
Spectrometer: FLMS00149
Trigger mode: 0
Integration Time (sec): 1.000000E-2
Scans to average: 10
Electric dark correction enabled: true
Nonlinearity correction enabled: false
Boxcar width: 0
XAxis mode: Wavelengths
Number of Pixels in Spectrum: 2048
>>>>>Begin Spectral Data<<<<<
341.393	-8.84
341.776	-8.84
342.16	-8.84
342.543	-71.89
342.927	-58.33
343.31	-44.32
343.693	-71.66
344.077	-65.34
344.46	-38.45
344.843	-56.07
345.226	-31.44
345.61	-24.89
345.993	-26.69
346.376	7.66
346.759	18.5
347.142	35.68
347.525	12.4
347.908	53.98
348.291	65.51
348.674	83.13
349.057	82
349.44	126.07
349.823	152.74
350.206	168.78
350.588	239.29
350.971	257.14
351.354	258.95
351.737	266.63
352.119	311.83
352.502	293.3
352.884	298.49
353.267	325.39
353.65	329.23
354.032	336.91
354.414	358.61
354.797	346.18
355.179	346.4
355.562	345.05
355.944	366.06
356.326	374.2
356.709	366.29
357.091	381.43
357.473	390.7
357.855	389.79
358.238	370.81
358.62	383.92
359.002	385.05
359.384	383.92
359.766	384.59
360.148	366.52
360.53	373.07
360.912	393.41
361.294	371.04
361.676	381.2
362.057	348.44
362.439	359.96
362.821	371.49
363.203	382.79
363.584	347.76
363.966	379.85
364.348	353.18
364.729	371.49
365.111	389.79
365.493	379.85
365.874	357.02
366.256	369
366.637	358.83
367.019	353.18
367.4	367.87
367.781	362.67
368.163	362
368.544	380.75
368.925	371.26
369.306	370.13
369.688	349.57
370.069	372.62
370.45	361.09
370.831	366.97
371.212	368.78
371.593	359.51
371.974	379.85
372.355	354.31
372.736	376.46
373.117	359.74
373.498	355.89
373.879	369.91
374.26	372.17
374.641	376.23
375.021	369.23
375.402	399.51
375.783	396.8
376.163	381.43
376.544	390.02
376.925	380.07
377.305	394.31
377.686	372.17
378.066	398.83
378.447	378.04
378.827	403.8
379.208	398.61
379.588	403.12
379.968	412.16
380.349	398.61
380.729	403.8
381.109	407.64
381.489	409.45
381.87	416.68
382.25	412.62
382.63	406.74
383.01	426.4
383.39	399.51
383.77	432.95
384.15	415.33
384.53	420.98
384.91	442.67
385.29	431.37
385.67	421.2
386.049	423.46
386.429	450.13
386.809	436.8
387.189	425.5
387.568	447.87
387.948	477.25
388.328	448.32
388.707	453.97
389.087	427.08
389.466	470.69
389.846	442.67
390.225	470.47
390.605	469.79
390.984	489.22
391.363	480.41
391.743	466.17
392.122	470.24
392.501	480.86
392.881	468.66
393.26	473.63
393.639	501.2
394.018	532.39
394.397	495.78
394.776	487.64
395.155	507.08
395.534	512.95
395.913	505.04
396.292	521.09
396.671	524.7
397.05	516.12
397.429	515.89
397.808	526.06
398.186	529.45
398.565	524.93
398.944	516.79
399.323	550.24
399.701	525.83
400.08	572.84
400.458	541.65
400.837	532.61
401.215	555.89
401.594	541.43
401.972	566.06
402.351	560.63
402.729	586.4
403.107	571.93
403.486	571.03
403.864	565.15
404.242	586.62
404.62	589.56
404.999	616.23
405.377	605.15
405.755	612.39
406.133	618.94
406.511	614.19
406.889	636.57
407.267	631.82
407.645	631.14
408.023	654.19
408.401	641.99
408.779	655.1
409.156	655.1
409.534	681.99
409.912	691.48
410.29	705.72
410.667	717.69
411.045	728.54
411.422	735.09
411.8	720.63
412.178	730.57
412.555	763.79
412.933	748.2
413.31	780.29
413.687	783
414.065	783.68
414.442	815.54
414.819	807.41
415.197	796.79
415.574	815.77
415.951	827.97
416.328	846.73
416.705	827.07
417.082	847.18
417.46	853.51
417.837	876.78
418.214	897.12
418.591	871.14
418.967	887.86
419.344	906.39
419.721	915.43
420.098	903.45
420.475	930.57
420.852	948.65
421.228	949.78
421.605	943.9
421.982	950
422.358	951.36
422.735	959.27
423.111	964.69
423.488	996.33
423.864	991.13
424.241	981.19
424.617	1024.13
424.994	1004.01
425.37	1036.78
425.746	1037.91
426.123	1059.6
426.499	1053.96
426.875	1035.65
427.251	1077.01
427.627	1091.92
428.003	1093.5
428.379	1112.26
428.756	1114.07
429.132	1114.97
429.507	1147.51
429.883	1180.05
430.259	1159.49
430.635	1190
431.011	1200.17
431.387	1232.93
431.763	1219.37
432.138	1230.67
432.514	1239.71
432.89	1272.71
433.265	1284.01
433.641	1312.71
434.016	1293.05
434.392	1310.45
434.767	1337.56
435.143	1322.2
435.518	1353.16
435.894	1336.21
436.269	1380.05
436.644	1393.61
437.02	1390.44
437.395	1424.12
437.77	1441.97
438.145	1440.61
438.52	1448.97
438.895	1472.25
439.271	1479.25
439.646	1503.21
440.021	1493.04
440.395	1500.05
440.77	1501.63
441.145	1519.71
441.52	1535.52
441.895	1509.54
442.27	1557.22
442.645	1561.06
443.019	1557.22
443.394	1587.27
443.769	1568.74
444.143	1561.29
444.518	1615.52
444.892	1609.87
445.267	1611.91
445.641	1594.51
446.016	1661.17
446.39	1638.57
446.764	1653.94
447.139	1670.66
447.513	1703.43
447.887	1658.91
448.262	1673.83
448.636	1718.57
449.01	1743.65
449.384	1757.89
449.758	1770.32
450.132	1796.99
450.506	1780.94
450.88	1790.66
451.254	1807.83
451.628	1835.86
452.002	1846.48
452.376	1900.26
452.75	1871.11
453.123	1874.5
453.497	1935.97
453.871	1915.4
454.244	1977.77
454.618	1984.33
454.992	2018.45
455.365	2012.8
455.739	2061.39
456.112	2089.18
456.486	2087.37
456.859	2119.24
457.232	2173.02
457.606	2164.21
457.979	2204.21
458.352	2229.29
458.725	2265
459.099	2286.24
459.472	2265.45
459.845	2346.58
460.218	2342.51
460.591	2403.52
460.964	2432.68
461.337	2449.85
461.71	2503.63
462.083	2537.53
462.456	2555.84
462.829	2563.29
463.201	2599.45
463.574	2588.38
463.947	2612.33
464.32	2648.49
464.692	2695.27
465.065	2691.2
465.438	2746.57
465.81	2771.65
466.183	2806.9
466.555	2871.76
466.928	2882.38
467.3	2868.6
467.672	2918.54
468.045	2997.86
468.417	2999.21
468.789	3001.47
469.161	3053.45
469.534	3110.85
469.906	3139.32
470.278	3170.74
470.65	3212.99
471.022	3307.23
471.394	3331.64
471.766	3364.63
472.138	3404.63
472.51	3453.44
472.882	3536.15
473.253	3558.75
473.625	3610.5
473.997	3698.63
474.369	3701.8
474.74	3726.2
475.112	3826.99
475.484	3880.55
475.855	3970.04
476.227	4006.19
476.598	4124.84
476.97	4154.89
477.341	4274.44
477.713	4273.53
478.084	4357.6
478.455	4497.48
478.827	4497.71
479.198	4630.81
479.569	4697.02
479.94	4812.95
480.311	4889.79
480.682	4969.78
481.053	5114.41
481.424	5167.52
481.795	5253.62
482.166	5311.02
482.537	5434.41
482.908	5508.3
483.279	5604.12
483.65	5770.22
484.021	5909.87
484.391	6027.38
484.762	6030.55
485.133	6146.93
485.503	6281.84
485.874	6506.24
486.244	6554.83
486.615	6708.5
486.985	6812.22
487.356	6998.21
487.726	7083.18
488.097	7323.62
488.467	7396.16
488.837	7612.88
489.207	7723.38
489.578	7861.46
489.948	8094.45
490.318	8253.09
490.688	8298.51
491.058	8517.71
491.428	8743.7
491.798	8812.62
492.168	9118.38
492.538	9234.53
492.908	9456.67
493.278	9628.19
493.648	9753.16
494.017	9994.29
494.387	10135.75
494.757	10377.33
495.126	10616.87
495.496	10766.47
495.866	10949.97
496.235	11187.47
496.605	11334.36
496.974	11576.84
497.344	11784.97
497.713	12010.96
498.082	12204.4
498.452	12468.12
498.821	12703.59
499.19	12876.02
499.559	13111.04
499.928	13351.03
500.298	13586.73
500.667	13798.7
501.036	13946.95
501.405	14251.12
501.774	14457.44
502.143	14815.4
502.512	14985.57
502.88	15421.26
503.249	15451.77
503.618	15641.14
503.987	15960.46
504.356	16164.52
504.724	16498.07
505.093	16759.98
505.462	17016.7
505.83	17139.18
506.199	17492.39
506.567	17891.93
506.936	17899.61
507.304	18384.35
507.672	18675.64
508.041	18808.06
508.409	19170.99
508.777	19410.53
509.145	19826.34
509.514	19817.08
509.882	20203.73
510.25	20266.56
510.618	20731.4
510.986	20833.77
511.354	21187.44
511.722	21593.53
512.09	21882.56
512.458	21809.34
512.826	22297.46
513.193	22396.9
513.561	22603.22
513.929	22957.11
514.297	23390.54
514.664	23540.6
515.032	23812.23
515.4	23964.54
515.767	24266.68
516.135	24552.77
516.502	24498.76
516.869	24997.05
517.237	25246.54
517.604	25190.27
517.972	25789.35
518.339	25953.41
518.706	26172.16
519.073	26429.33
519.44	26636.56
519.808	26997.23
520.175	27157.22
520.542	27466.59
520.909	27725.8
521.276	27970.08
521.643	28312.45
522.009	28499.56
522.376	28780.23
522.743	28962.6
523.11	29336.83
523.477	29842.58
523.843	29876.25
524.21	30353.52
524.577	30565.27
524.943	30812.95
525.31	30973.85
525.676	31457.45
526.043	31664.45
526.409	31879.13
526.776	32290.65
527.142	32538.1
527.508	32782.84
527.874	32983.51
528.241	33278.19
528.607	33570.61
528.973	33811.29
529.339	33824.17
529.705	34353.42
530.071	34580.53
530.437	34841.99
530.803	35118.6
531.169	35161.99
531.535	35337.8
531.901	35573.73
532.267	35818.69
532.632	35977.1
532.998	36361.05
533.364	36456.87
533.73	36493.25
534.095	37122.39
534.461	37050.52
534.826	37273.12
535.192	37324.41
535.557	37656.83
535.923	37768.24
536.288	37991.29
536.653	38209.36
537.019	38238.97
537.384	38320.09
537.749	38540.65
538.114	38698.39
538.479	38749.01
538.845	38967.31
539.21	39017.25
539.575	39119.17
539.94	39243.46
540.305	39507.86
540.67	39670.79
541.034	39737.46
541.399	39788.08
541.764	40000.95
542.129	40161.63
542.494	40217.67
542.858	40380.83
543.223	40389.64
543.587	40711.67
543.952	40605.01
544.316	40852.23
544.681	40670.99
545.045	41279.34
545.41	41406.34
545.774	41281.82
546.138	41321.37
546.503	41703.06
546.867	41737.41
547.231	42157.06
547.595	42215.13
547.959	42362.47
548.324	42483.83
548.688	42473.43
549.052	42737.61
549.416	42719.53
549.779	42773.08
550.143	42901.44
550.507	43243.13
550.871	43296.46
551.235	43322.67
551.599	43766.28
551.962	43851.7
552.326	43995.65
552.689	44082.65
553.053	43934.86
553.417	44133.27
553.78	44688.06
554.143	44747.95
554.507	44959.69
554.87	45054.83
555.234	45439.91
555.597	45236.97
555.96	45552.45
556.323	45755.83
556.686	45766.45
557.05	46095.26
557.413	46194.01
557.776	46278.3
558.139	46597.62
558.502	46688.46
558.865	46757.39
559.228	47136.13
559.59	47195.11
559.953	47302.23
560.316	47829.45
560.679	47779.73
561.041	48143.56
561.404	48166.84
561.767	48606.6
562.129	48445.03
562.492	48954.62
562.854	48799.59
563.217	49007.72
563.579	49173.82
563.941	49475.06
564.304	49757.53
564.666	49968.38
565.028	49969.96
565.39	50057.41
565.753	50397.74
566.115	50427.12
566.477	50703.5
566.839	50745.53
567.201	51119.08
567.563	51065.07
567.925	51249.7
568.287	51421.67
568.648	51378.96
569.01	51699.4
569.372	51959.74
569.734	52046.06
570.095	52208.54
570.457	52378.48
570.819	52420.51
571.18	52412.38
571.542	52684.46
571.903	52642.2
572.265	52971.01
572.626	52994.51
572.987	53050.55
573.349	53269.98
573.71	53402.64
574.071	53507.72
574.432	53608.96
574.794	53865.22
575.155	53803.53
575.516	53794.94
575.877	53960.59
576.238	53955.62
576.599	54052.79
576.96	54081.04
577.32	54161.71
577.681	54328.71
578.042	54447.35
578.403	54413
578.763	54464.53
579.124	54500.91
579.485	54720.57
579.845	54758.76
580.206	54736.84
580.566	54730.96
580.927	54781.36
581.287	54919.66
581.648	54830.85
582.008	54991.07
582.368	54881.47
582.728	55046.66
583.089	54942.71
583.449	54962.59
583.809	55002.14
584.169	55160.1
584.529	55058.41
584.889	55240.1
585.249	55040.11
585.609	54952.65
585.969	55177.28
586.329	55033.78
586.688	55205.75
587.048	55130.27
587.408	55128.01
587.768	55072.65
588.127	55067.68
588.487	55076.26
588.846	55350.61
589.206	55034
589.565	55010.28
589.925	55266.09
590.284	55153.32
590.643	55160.56
591.003	55095.7
591.362	55295.24
591.721	55239.65
592.08	55162.59
592.44	55365.97
592.799	55213.89
593.158	55283.49
593.517	55147.67
593.876	55285.52
594.235	55269.7
594.593	55252.08
594.952	55324.39
595.311	55307.44
595.67	55329.14
596.029	55434.9
596.387	55461.56
596.746	55523.26
597.104	55349.93
597.463	55403.49
597.822	55541.79
598.18	55407.1
598.538	55419.98
598.897	55626.31
599.255	55457.27
599.613	55750.14
599.972	55549.47
600.33	55655.01
600.688	55684.61
601.046	55683.48
601.404	55841.89
601.762	55766.64
602.12	55766.64
602.478	55894.77
602.836	55915.11
603.194	55754.44
603.552	55829.92
603.91	55821.33
604.268	55927.31
604.625	55972.29
604.983	56026.75
605.341	55921.67
605.698	56112.17
606.056	56290.92
606.413	56113.75
606.771	56330.47
607.128	56219.74
607.485	56169.79
607.843	56298.83
608.2	56396.23
608.557	56516.23
608.914	56389.9
609.272	56523.23
609.629	56610.01
609.986	56636.9
610.343	56607.52
610.7	56882.09
611.057	56805.48
611.414	56705.37
611.771	56858.14
612.127	56937.23
612.484	56945.59
612.841	57004.57
613.198	56838.25
613.554	56970.68
613.911	57086.38
614.267	57159.37
614.624	57109.2
614.98	57204.34
615.337	57351.46
615.693	57329.31
616.05	57330.44
616.406	57499.02
616.762	57412.7
617.118	57479.36
617.475	57446.14
617.831	57551.45
618.187	57494.96
618.543	57641.17
618.899	57742.41
619.255	57714.61
619.611	57611.79
619.967	57787.83
620.323	57867.83
620.678	57869.41
621.034	57799.81
621.39	57778.79
621.746	57816.08
622.101	58057.2
622.457	57888.17
622.812	58008.62
623.168	58088.61
623.523	58028.05
623.879	58193.92
624.234	58028.73
624.589	58095.62
624.945	58114.15
625.3	58189.4
625.655	58197.54
626.01	58087.94
626.365	58157.09
626.72	58094.72
627.075	58137.43
627.43	58177.65
627.785	58079.8
628.14	58131.1
628.495	58199.8
628.85	58282.28
629.205	58139.23
629.559	58221.49
629.914	58197.31
630.269	58111.66
630.623	58003.64
630.978	57981.72
631.332	58131.32
631.687	58140.14
632.041	58065.79
632.396	58017.43
632.75	58043.64
633.104	58058.56
633.459	57989.86
633.813	57923.19
634.167	57970.42
634.521	57953.7
634.875	57967.26
635.229	57881.84
635.583	57845.46
635.937	57820.15
636.291	57807.49
636.645	57784.44
636.999	57680.94
637.352	57777.66
637.706	57601.85
638.06	57712.13
638.413	57631.68
638.767	57585.12
639.121	57617.89
639.474	57428.74
639.828	57518.23
640.181	57473.04
640.534	57442.98
640.888	57396.2
641.241	57297.22
641.594	57328.63
641.947	57396.2
642.301	57334.74
642.654	57341.74
643.007	57220.84
643.36	57320.95
643.713	57228.75
644.066	57366.6
644.419	57180.62
644.771	56966.84
645.124	56678.48
645.477	56611.14
645.83	56509.9
646.182	56549.22
646.535	56451.59
646.888	56515.55
647.24	56373.86
647.593	56582.66
647.945	56409.34
648.298	56323.46
648.65	56247.76
649.002	56112.62
649.355	56121.21
649.707	56074.66
650.059	56017.71
650.411	56386.96
650.763	56501.31
651.115	56829.66
651.467	56746.28
651.819	56729.33
652.171	56643.45
652.523	56585.15
652.875	56655.66
653.227	56452.5
653.578	56656.79
653.93	56611.14
654.282	56413.18
654.633	56474.42
654.985	56497.24
655.337	56451.14
655.688	56421.77
656.039	56548.09
656.391	56164.14
656.742	56315.33
657.094	56242.56
657.445	56324.59
657.796	56291.15
658.147	56198.04
658.498	56251.37
658.849	56303.58
659.2	56231.49
659.551	56162.56
659.902	56291.15
660.253	56136.8
660.604	56254.54
660.955	56065.84
661.306	56238.49
661.656	56117.82
662.007	56057.48
662.358	56158.5
662.708	56091.38
663.059	56080.08
663.409	55856.58
663.76	56057.71
664.11	56083.69
664.461	56079.4
664.811	56029.46
665.161	56027.2
665.511	55916.69
665.862	55979.52
666.212	56006.41
666.562	56021.1
666.912	55967.99
667.262	55847.09
667.612	55903.59
667.962	55949.24
668.312	55818.62
668.662	55938.39
669.011	55965.28
669.361	55871.05
669.711	55920.31
670.06	55873.08
670.41	55851.61
670.76	55757.83
671.109	55879.41
671.459	55819.52
671.808	55859.07
672.157	55834.21
672.507	55653.2
672.856	55673.31
673.205	55716.7
673.554	55789.24
673.904	55670.6
674.253	55944.49
674.602	55686.64
674.951	55427.21
675.3	55232.19
675.649	55779.3
675.998	55775
676.346	55778.62
676.695	55755.79
677.044	55605.97
677.393	55642.58
677.741	55681.45
678.09	55611.84
678.438	55582.24
678.787	55600.09
679.135	55648.9
679.484	55479.87
679.832	55608.68
680.181	55461.79
680.529	55520.55
680.877	55402.13
681.225	55374.11
681.573	55611.39
681.922	55404.39
682.27	55350.61
682.618	55321
682.966	55311.29
683.314	55269.25
683.661	55253.66
684.009	55174.79
684.357	55096.15
684.705	55054.57
685.053	55045.53
685.4	54946.78
685.748	54926.21
686.095	54961.69
686.443	54833.56
686.79	54882.37
687.138	54906.55
687.485	54878.75
687.832	54743.17
688.18	54747.23
688.527	54667.69
688.874	54602.15
689.221	54655.94
689.568	54528.03
689.915	54429.95
690.262	54463.62
690.609	54375.72
690.956	54317.41
691.303	54395.6
691.65	54161.94
691.997	54204.87
692.344	54016.18
692.69	53998.78
693.037	53976.41
693.383	53733.93
693.73	53891.44
694.077	53789.74
694.423	53766.92
694.769	53646.7
695.116	53662.52
695.462	53527.83
695.808	53480.6
696.155	53512.01
696.501	53311.79
696.847	53353.37
697.193	53152.7
697.539	53265.24
697.885	53045.36
698.231	53045.13
698.577	52989.99
698.923	52958.58
699.269	52625.25
699.614	52628.42
699.96	52621.86
700.306	52627.51
700.651	52534.18
700.997	52435.2
701.342	52452.83
701.688	52279.95
702.033	52231.59
702.379	52216
702.724	52003.12
703.069	52117.7
703.415	51754.09
703.76	51832.96
704.105	51821.21
704.45	51749.12
704.795	51612.85
705.14	51389.58
705.485	51312.97
705.83	51183.94
706.175	51354.33
706.52	51224.61
706.865	51101.23
707.209	51073.66
707.554	50939.42
707.899	51061.45
708.243	50728.13
708.588	50691.75
708.932	50574.46
709.277	50630.05
709.621	50435.26
709.966	50341.47
710.31	50425.31
710.654	50113.68
710.998	50178.77
711.342	50161.82
711.687	49981.71
712.031	50013.8
712.375	49717.76
712.719	49761.15
713.063	49802.73
713.407	49901.71
713.75	49706.91
714.094	49605.45
714.438	49546.92
714.782	49356.64
715.125	49320.48
715.469	49473.25
715.812	49126.36
716.156	49122.97
716.499	49105.57
716.843	49306.47
717.186	48872.81
717.53	49057.21
717.873	49113.03
718.216	48847.95
718.559	48805.24
718.902	48534.51
719.246	48639.82
719.589	48416.1
719.932	48301.53
720.275	48391.69
720.617	48351.02
720.96	48229.44
721.303	48300.4
721.646	48273.96
721.989	47939.28
722.331	47999.39
722.674	48008.65
723.016	47966.85
723.359	47767.3
723.701	47809.56
724.044	47591.04
724.386	47497.48
724.729	47659.74
725.071	47622.45
725.413	47670.81
725.755	47590.36
726.097	47292.29
726.439	47323.25
726.782	47216.81
727.124	47278.95
727.465	47185.17
727.807	46937.27
728.149	47106.76
728.491	46923.03
728.833	46986.53
729.175	46909.02
729.516	46798.52
729.858	46673.32
730.199	46789.02
730.541	46722.13
730.882	46567.33
731.224	46678.52
731.565	46427.23
731.906	46431.97
732.248	46383.84
732.589	46241.92
732.93	46255.48
733.271	46231.52
733.612	46119.44
733.953	46258.87
734.294	46116.27
734.635	46007.35
734.976	46236.04
735.317	45869.5
735.658	45782.95
735.999	45716.96
736.339	45777.98
736.68	45777.75
737.021	45608.26
737.361	45588.15
737.702	45779.56
738.042	45585.89
738.383	45709.96
738.723	45640.81
739.063	45505.22
739.404	45517.42
739.744	45444.88
740.084	45238.78
740.424	45391.77
740.764	45213.92
741.104	45404.2
741.444	45107.94
741.784	44988.39
742.124	45166.02
742.464	45004.44
742.804	44997.43
743.143	44784.33
743.483	45023.42
743.823	44730.1
744.162	44737.78
744.502	44855.74
744.841	44635.41
745.181	44676.54
745.52	44504.11
745.86	44567.39
746.199	44415.3
746.538	44467.05
746.877	44515.64
747.216	44340.05
747.556	44231.58
747.895	44347.96
748.234	44258.92
748.573	44179.83
748.911	43981.41
749.25	43989.1
749.589	43788.88
749.928	43895.54
750.267	43895.99
750.605	43680.18
750.944	43683.12
751.283	43600.18
751.621	43651.48
751.96	43420.07
752.298	43431.6
752.636	43408.55
752.975	43209.01
753.313	43048.78
753.651	43263.69
753.989	42982.57
754.327	43100.31
754.666	42799.3
755.004	42764.27
755.342	42893.99
755.679	42691.28
756.017	42558.4
756.355	42672.52
756.693	42554.11
757.031	42767.43
757.368	42282.02
757.706	42261.23
758.044	42148.47
758.381	42046.1
758.719	41893.56
759.056	42013.33
759.394	41747.35
759.731	41449.96
760.068	41488.15
760.405	41494.7
760.743	41243.41
761.08	41326.79
761.417	41101.04
761.754	40961.38
762.091	40884.77
762.428	40552.35
762.765	40572.92
763.102	40663.99
763.438	40557.55
763.775	40205.69
764.112	40120.95
764.449	40147.16
764.785	40063.78
765.122	39850
765.458	39681.19
765.795	39574.75
766.131	39576.78
766.467	39425.15
766.804	39130.92
767.14	38986.52
767.476	38916.24
767.812	38923.47
768.148	38833.07
768.485	38631.05
768.821	38438.06
769.157	38388.34
769.492	38322.81
769.828	38145.18
770.164	37875.59
770.5	37792.88
770.836	37834.01
771.171	37593.56
771.507	37532.09
771.842	37276.05
772.178	37293.23
772.513	37311.08
772.849	36963.75
773.184	36940.24
773.519	36740.25
773.855	36606.47
774.19	36547.49
774.525	36311.56
774.86	36356.76
775.195	36219.36
775.53	36107.5
775.865	35822.98
776.2	35610.56
776.535	35481.75
776.87	35433.39
777.205	35247.63
777.539	35146.62
777.874	35233.85
778.209	34782.33
778.543	34904.14
778.878	34670.47
779.212	34608.78
779.547	34357.49
779.881	34481.1
780.215	34041.79
780.55	34173.31
780.884	33890.38
781.218	33854.45
781.552	33867.33
781.886	33684.96
782.22	33547.56
782.554	33273
782.888	33105.99
783.222	33045.2
783.556	32865.32
783.889	32821.71
784.223	32579.68
784.557	32506.91
784.89	32581.26
785.224	32355.28
785.557	32043.42
785.891	32127.04
786.224	32042.97
786.558	32032.35
786.891	31785.35
787.224	31668.07
787.557	31380.84
787.891	31503.32
788.224	31175.42
788.557	31108.31
788.89	31114.41
789.223	31010.23
789.556	30899.72
789.888	30703.12
790.221	30603.69
790.554	30587.19
790.887	30336.58
791.219	30350.59
791.552	30243.92
791.884	30151.72
792.217	29980.88
792.549	29881.67
792.882	29703.15
793.214	29672.64
793.546	29559.65
793.879	29337.51
794.211	29217.96
794.543	29405.3
794.875	29221.35
795.207	29215.7
795.539	29012.32
795.871	29061.13
796.203	28844.86
796.535	28570.97
796.867	28718.31
797.198	28443.74
797.53	28408.26
797.862	28319.23
798.193	28236.29
798.525	28229.06
798.856	28232.9
799.188	27840.37
799.519	27881.95
799.85	27691.9
800.182	27612.81
800.513	27734.16
800.844	27364.22
801.175	27569.64
801.506	27496.42
801.837	27366.48
802.168	27330.1
802.499	27232.48
802.83	27015.31
803.161	27016.66
803.491	27025.7
803.822	26934.86
804.153	26755.88
804.483	26598.14
804.814	26466.39
805.145	26428.43
805.475	26488.09
805.805	26370.35
806.136	26451.48
806.466	26209.68
806.796	26233.63
807.126	26110.25
807.457	26067.53
807.787	26086.74
808.117	25901.89
808.447	25790.03
808.777	25805.62
809.107	25682.23
809.436	25613.54
809.766	25666.42
810.096	25581.45
810.426	25442.47
810.755	25527.44
811.085	25415.57
811.414	25332.86
811.744	25318.85
812.073	25144.62
812.403	25053.78
812.732	25079.54
813.061	25173.55
813.39	24812.65
813.719	24818.53
814.049	24896.94
814.378	24836.61
814.707	24652.43
815.036	24526.56
815.365	24489.5
815.693	24359.78
816.022	24378.77
816.351	24309.16
816.68	24172.44
817.008	24349.39
817.337	24207.02
817.665	24083.86
817.994	24003.86
818.322	24099.45
818.651	23962.73
818.979	23872.79
819.307	23971.77
819.636	23854.26
819.964	23780.59
820.292	23761.83
820.62	23799.57
820.948	23793.24
821.276	23871.66
821.604	23695.85
821.932	23881.38
822.259	23688.84
822.587	23661.5
822.915	23616.07
823.243	23717.09
823.57	23531.78
823.898	23772.91
824.225	23635.73
824.553	23625.34
824.88	23672.8
825.207	23739.91
825.535	23611.78
825.862	23722.96
826.189	23532.23
826.516	23705.56
826.843	23755.96
827.17	23722.51
827.497	23685.22
827.824	23708.95
828.151	23780.82
828.478	23576.98
828.805	23684.77
829.131	23685.9
829.458	23593.48
829.785	23551.67
830.111	23642.51
830.438	23692.91
830.764	23566.13
831.09	23734.26
831.417	23501.5
831.743	23702.63
832.069	23479.58
832.395	23606.13
832.722	23696.3
833.048	23674.6
833.374	23626.47
833.7	23457.43
834.026	23605.45
834.351	23484.33
834.677	23583.31
835.003	23515.51
835.329	23454.04
835.654	23338.57
835.98	23283.88
836.306	23424.67
836.631	23285.24
836.956	23499.47
837.282	23398
837.607	23187.84
837.932	23205.46
838.258	23241.17
838.583	23233.26
838.908	23112.81
839.233	23131.57
839.558	23000.95
839.883	22992.14
840.208	22835.98
840.533	22946.94
840.858	22966.15
841.182	22783.78
841.507	22834.17
841.832	22788.07
842.156	22656.78
842.481	22630.56
842.805	22567.51
843.13	22588.3
843.454	22480.06
843.778	22473.73
844.103	22491.81
844.427	22299.27
844.751	22466.73
845.075	22253.85
845.399	22288.43
845.723	22114.19
846.047	22188.54
846.371	21888.21
846.695	21976.57
847.019	21817.03
847.343	21715.78
847.666	21634.66
847.99	21542
848.313	21499.97
848.637	21439.41
848.96	21464.04
849.284	21375.45
849.607	21192.63
849.931	21074.45
850.254	20947.22
850.577	20873.32
850.9	20746.09
851.223	20772.31
851.546	20651.41
851.869	20591.07
852.192	20706.32
852.515	20408.7
852.838	20255.94
853.161	20419.77
853.483	20238.54
853.806	20271.08
854.129	20054.81
854.451	20128.26
854.774	19956.51
855.096	19915.83
855.419	19800.13
855.741	19760.13
856.063	19687.59
856.385	19603.52
856.708	19468.61
857.03	19594.26
857.352	19418.67
857.674	19489.18
857.996	19434.04
858.318	19327.15
858.64	19262.06
858.961	19148.62
859.283	19120.6
859.605	19019.81
859.926	19006.93
860.248	19000.83
860.57	18924.22
860.891	18833.37
861.212	18926.93
861.534	18866.14
861.855	18638.35
862.176	18781.4
862.498	18779.82
862.819	18704.11
863.14	18633.38
863.461	18588.18
863.782	18574.62
864.103	18498.47
864.424	18477.9
864.745	18619.6
865.065	18463.22
865.386	18309.55
865.707	18357.46
866.027	18325.82
866.348	18248.31
866.668	18284.91
866.989	18249.89
867.309	18108.2
867.63	18105.71
867.95	18188.65
868.27	18001.76
868.59	18106.16
868.91	17973.28
869.23	17992.04
869.55	17902.55
869.87	17971.93
870.19	17786.17
870.51	17865.94
870.83	17837.24
871.15	17743.69
871.469	17794.53
871.789	17825.94
872.109	17777.36
872.428	17615.78
872.748	17648.55
873.067	17717.25
873.386	17631.6
873.706	17614.42
874.025	17517.03
874.344	17512.96
874.663	17541.66
874.982	17367.65
875.301	17432.73
875.62	17304.15
875.939	17231.16
876.258	17311.61
876.577	17273.64
876.896	17216.92
877.214	17188.67
877.533	17209.69
877.852	17238.61
878.17	17143.25
878.489	17157.71
878.807	17174.44
879.125	17150.26
879.444	17059.86
879.762	16968.57
880.08	17023.93
880.398	16900.09
880.716	17012.41
881.034	16919.53
881.352	16879.98
881.67	16739.64
881.988	16725.41
882.306	16671.62
882.624	16736.25
882.941	16576.94
883.259	16611.74
883.577	16588.01
883.894	16599.76
884.212	16489.71
884.529	16484.06
884.846	16312.54
885.164	16320.9
885.481	16266.89
885.798	16360.9
886.115	16289.71
886.432	16285.65
886.75	16232.31
887.067	16261.24
887.383	16071.41
887.7	16129.49
888.017	16000.23
888.334	16021.7
888.651	15957.97
888.967	15876.62
889.284	15881.81
889.6	15876.16
889.917	15797.52
890.233	15877.97
890.55	15687.47
890.866	15799.78
891.182	15642.27
891.498	15640.46
891.815	15475.27
892.131	15427.36
892.447	15501.94
892.763	15477.3
893.079	15422.17
893.395	15353.24
893.71	15298.55
894.026	15304.2
894.342	15248.16
894.657	14998
894.973	15001.16
895.289	15134.26
895.604	15065.34
895.92	14911.67
896.235	14859.69
896.55	14901.05
896.865	14787.15
897.181	14809.98
897.496	14740.38
897.811	14671.45
898.126	14659.02
898.441	14640.26
898.756	14609.98
899.071	14471
899.386	14447.05
899.7	14359.37
900.015	14219.71
900.33	14148.07
900.644	14114.4
900.959	14136.78
901.273	14041.64
901.588	14027.4
901.902	13970.68
902.216	13946.95
902.531	13917.12
902.845	13862.43
903.159	13794.86
903.473	13758.71
903.787	13790.34
904.101	13580.86
904.415	13688.2
904.729	13584.93
905.042	13480.07
905.356	13423.35
905.67	13423.12
905.984	13372.95
906.297	13351.03
906.611	13223.13
906.924	13209.34
907.237	13163.02
907.551	13170.47
907.864	13105.62
908.177	13077.59
908.491	13077.59
908.804	12848.9
909.117	12857.03
909.43	12706.3
909.743	12759.41
910.056	12716.47
910.368	12677.6
910.681	12574.56
910.994	12525.74
911.307	12478.97
911.619	12313.77
911.932	12436.03
912.244	12261.12
912.557	12329.82
912.869	12154
913.181	12077.17
913.494	12197.62
913.806	12079.88
914.118	12021.58
914.43	12047.11
914.742	11936.38
915.054	11859.77
915.366	11827.91
915.678	11700.23
915.99	11717.4
916.302	11613.68
916.613	11643.28
916.925	11547.01
917.236	11531.42
917.548	11547.01
917.859	11458.43
918.171	11382.72
918.482	11299.34
918.794	11197.42
919.105	11272.22
919.416	11133.69
919.727	11157.42
920.038	11156.97
920.349	11064.99
920.66	10989.29
920.971	10985.22
921.282	10959.46
921.593	10860.25
921.903	10896.18
922.214	10746.13
922.525	10789.74
922.835	10644.44
923.146	10578
923.456	10532.8
923.767	10529.19
924.077	10509.75
924.387	10500.26
924.697	10465.46
925.008	10411.68
925.318	10377.78
925.628	10352.69
925.938	10251.45
926.248	10161.96
926.558	10120.84
926.867	10140.5
927.177	10065.47
927.487	10089.88
927.796	9983.66
928.106	9915.64
928.416	9913.84
928.725	9884.23
929.034	9753.61
929.344	9782.99
929.653	9704.8
929.962	9652.83
930.271	9641.3
930.581	9648.31
930.89	9495.09
931.199	9513.17
931.508	9528.08
931.817	9499.61
932.125	9455.32
932.434	9362.44
932.743	9236.79
933.051	9320.86
933.36	9261.42
933.669	9237.69
933.977	9191.59
934.286	9039.73
934.594	9075.67
934.902	9024.37
935.21	8990.02
935.519	8981.2
935.827	8905.05
936.135	8876.57
936.443	8874.54
936.751	8783.24
937.059	8800.64
937.367	8754.32
937.674	8718.61
937.982	8690.36
938.29	8628.67
938.597	8597.03
938.905	8521.1
939.213	8450.37
939.52	8405.17
939.827	8504.15
940.135	8377.6
940.442	8301
940.749	8344.84
941.056	8325.63
941.363	8190.04
941.67	8196.59
941.977	8154.11
942.284	8127.44
942.591	8083.6
942.898	8081.34
943.205	8031.62
943.511	8006.99
943.818	8038.86
944.125	7921.8
944.431	7863.95
944.738	7868.92
945.044	7851.29
945.35	7751.41
945.657	7724.97
945.963	7747.11
946.269	7644.52
946.575	7612.43
946.881	7601.81
947.187	7548.25
947.493	7531.98
947.799	7557.51
948.105	7433
948.41	7393.45
948.716	7410.4
949.022	7312.32
949.327	7329.72
949.633	7244.75
949.938	7284.07
950.244	7248.14
950.549	7211.31
950.854	7190.97
951.16	7182.61
951.465	7110.52
951.77	7035.94
952.075	7043.18
952.38	7016.28
952.685	7031.65
952.99	6934.48
953.294	6960.01
953.599	6864.42
953.904	6854.71
954.209	6771.09
954.513	6814.93
954.818	6731.77
955.122	6731.55
955.426	6779.91
955.731	6658.1
956.035	6653.58
956.339	6574.26
956.643	6599.57
956.948	6549.86
957.252	6493.13
957.556	6520.7
957.86	6478.22
958.163	6486.81
958.467	6462.4
958.771	6409.75
959.075	6420.59
959.378	6349.64
959.682	6334.27
959.985	6256.98
960.289	6240.03
960.592	6224.89
960.896	6205.68
961.199	6160.26
961.502	6201.62
961.805	6111
962.108	6072.58
962.411	6113.94
962.714	5985.8
963.017	6021.73
963.32	5982.19
963.623	5948.74
963.926	5909.42
964.228	5918.46
964.531	5874.62
964.833	5867.16
965.136	5802.53
965.438	5760.72
965.741	5800.05
966.043	5748.07
966.345	5630.78
966.648	5700.39
966.95	5651.8
967.252	5638.02
967.554	5655.87
967.856	5556.44
968.158	5525.7
968.46	5509.43
968.761	5497.45
969.063	5464.46
969.365	5433.73
969.666	5417.23
969.968	5399.15
970.269	5382.66
970.571	5325.48
970.872	5319.83
971.174	5286.84
971.475	5315.99
971.776	5259.04
972.077	5244.35
972.378	5241.87
972.679	5165.94
972.98	5178.14
973.281	5120.29
973.582	5131.81
973.883	5078.93
974.183	5071.93
974.484	5057.69
974.785	4977.47
975.085	5017.92
975.386	4991.48
975.686	4950.8
975.986	4911.03
976.287	4954.42
976.587	4917.81
976.887	4824.48
977.187	4843.91
977.487	4831.48
977.787	4800.98
978.087	4786.96
978.387	4771.37
978.687	4706.97
978.987	4727.31
979.286	4673.97
979.586	4658.83
979.885	4676.68
980.185	4622.22
980.484	4605.95
980.784	4553.75
981.083	4532.51
981.382	4503.36
981.682	4514.66
981.981	4497.03
982.28	4474.66
982.579	4451.83
982.878	4430.36
983.177	4430.36
983.475	4418.84
983.774	4376.81
984.073	4381.1
984.372	4363.47
984.67	4358.95
984.969	4325.51
985.267	4292.51
985.566	4292.06
985.864	4238.05
986.162	4196.92
986.461	4193.99
986.759	4142.69
987.057	4168.68
987.355	4143.37
987.653	4069.92
987.951	4077.83
988.249	4055.91
988.547	4044.16
988.844	4053.2
989.142	4034.44
989.44	4005.74
989.737	3988.79
990.035	3974.78
990.332	3954.67
990.63	3940.89
990.927	3957.83
991.224	3896.37
991.521	3918.29
991.819	3848.68
992.116	3861.79
992.413	3823.6
992.71	3815.01
993.006	3791.74
993.303	3793.54
993.6	3786.54
993.897	3755.58
994.193	3731.63
994.49	3695.47
994.787	3668.58
995.083	3631.29
995.379	3640.1
995.676	3614.79
995.972	3599.2
996.268	3577.73
996.565	3576.6
996.861	3524.62
997.157	3533.66
997.453	3483.72
997.749	3456.83
998.044	3444.17
998.34	3444.85
998.636	3449.82
998.932	3438.53
999.227	3398.75
999.523	3388.58
999.818	3355.36
1000.114	3321.24
1000.409	3332.54
1000.704	3282.37
1001	3293.9
1001.295	3270.39
1001.59	3255.71
1001.885	3298.42
1002.18	3210.51
1002.475	3247.57
1002.77	3173.45
1003.065	3165.09
1003.359	3124.64
1003.654	3109.49
1003.949	3098.2
1004.243	3114.24
1004.538	3055.03
1004.832	3045.99
1005.127	3076.5
1005.421	3015.94
1005.715	3024.75
1006.009	3023.17
1006.304	2987.69
1006.598	2932.32
1006.892	2929.39
1007.186	2911.08
1007.48	2918.31
1007.773	2864.08
1008.067	2848.48
1008.361	2821.82
1008.655	2805.77
1008.948	2793.8
1009.242	2788.6
1009.535	2806.68
1009.829	2745.44
1010.122	2737.98
1010.415	2729.62
1010.708	2703.86
1011.001	2697.75
1011.295	2699.56
1011.588	2662.95
1011.881	2608.26
1012.173	2607.13
1012.466	2604.88
1012.759	2611.88
1013.052	2592.9
1013.344	2600.58
1013.637	2524.2
1013.93	2531.66
1014.222	2503.86
1014.514	2522.39
1014.807	2501.6
1015.099	2449.4
1015.391	2442.17
1015.683	2450.98
1015.976	2453.92
1016.268	2402.85
1016.56	2392.45
1016.851	2391.32
1017.143	2342.74
1017.435	2383.86
1017.727	2338.89
1018.018	2322.17
1018.31	2319.68
1018.602	2261.61
1018.893	2274.71
1019.185	2245.11
1019.476	2234.49
1019.767	2232.23
1020.058	2229.74
1020.35	2191.55
1020.641	2165.11
1020.932	2132.57
1021.223	2168.5
1021.514	2124.66
1021.804	2116.53
1022.095	2096.41
1022.386	2079.69
1022.677	2072.91
1022.967	2046.92
1023.258	2027.49
1023.548	2033.59
1023.839	1976.64
1024.129	1990.2
1024.419	1981.39
1024.709	1992.46
1025	1959.92
1025.29	1941.84
1025.58	1924.21
1025.87	1915.63
1026.16	1895.74
1026.449	1884.89
1026.739	1874.05
1027.029	1848.96
1027.319	1861.84
1027.608	1840.15
1027.898	1825.46
1028.187	1788.4
1028.477	1805.57
1028.766	1788.4
1029.055	1786.59
1029.344	1775.74
1029.634	1722.41
1029.923	1750.21
1030.212	1717.89
1030.501	1704.79
1030.79	1686.26
1031.078	1720.38
1031.367	1676.54
1031.656	1646.93
1031.945	1674.28
1032.233	1656.2
1032.522	1618.69
1032.81	1602.87
1033.099	1626.82
1033.387	1587.73
1033.675	1585.24
1033.963	1566.26
1034.251	1576.65
1034.54	1561.06
1034.828	1533.49
1035.116	1518.8
1035.403	1521.06
1035.691	1517.45
1035.979	1499.82
1036.267	1468.41
1036.554	1489.88
1036.842	1473.15
1037.129	1469.31
1037.417	1433.15
1037.704	1458.92
1037.992	1437.9
1038.279	1421.63
1038.566	1405.36
1038.853	1405.36
1039.14	1405.36
