Data from 100_FLMS001491_002.txt Node
Date: Thu Apr 12 17:09:33 BST 2018
User: hsy
Spectrometer: FLMS00149
Trigger mode: 0
Integration Time (sec): 1.000000E-2
Scans to average: 10
Electric dark correction enabled: true
Nonlinearity correction enabled: false
Boxcar width: 0
XAxis mode: Wavelengths
Number of Pixels in Spectrum: 2048
>>>>>Begin Spectral Data<<<<<
341.393	-20.44
341.776	-20.44
342.16	-20.44
342.543	-61.34
342.927	-71.51
343.31	-69.25
343.693	-73.54
344.077	-76.03
344.46	-62.7
344.843	-59.31
345.226	-32.64
345.61	-9.36
345.993	-7.78
346.376	12.56
346.759	18.66
347.142	23.18
347.525	38.77
347.908	55.94
348.291	48.49
348.674	91.42
349.057	101.59
349.44	121.93
349.823	141.59
350.206	176.85
350.588	224.53
350.971	246.67
351.354	244.87
351.737	288.26
352.119	310.18
352.502	283.96
352.884	314.02
353.267	302.27
353.65	326.9
354.032	329.16
354.414	325.09
354.797	350.85
355.179	367.58
355.562	354.24
355.944	381.13
356.326	387.24
356.709	393.79
357.091	373.22
357.473	371.64
357.855	394.92
358.238	384.3
358.62	381.36
359.002	387.46
359.384	369.61
359.766	397.63
360.148	401.92
360.53	399.44
360.912	392.21
361.294	367.58
361.676	383.62
362.057	386.56
362.439	382.72
362.821	362.83
363.203	387.91
363.584	371.64
363.966	354.69
364.348	380.68
364.729	364.19
365.111	355.15
365.493	385.88
365.874	361.93
366.256	375.48
366.637	355.15
367.019	368.7
367.4	379.55
367.781	371.42
368.163	378.42
368.544	373.9
368.925	372.09
369.306	387.01
369.688	392.89
370.069	369.38
370.45	336.62
370.831	353.79
371.212	366.22
371.593	387.91
371.974	397.18
372.355	363.96
372.736	385.2
373.117	386.33
373.498	365.77
373.879	395.82
374.26	382.94
374.641	371.19
375.021	372.09
375.402	385.2
375.783	395.6
376.163	393.79
376.544	390.4
376.925	380.46
377.305	399.89
377.686	400.12
378.066	421.81
378.447	411.87
378.827	413.9
379.208	417.07
379.588	418.65
379.968	413.45
380.349	409.16
380.729	423.17
381.109	446.67
381.489	429.49
381.87	422.71
382.25	418.87
382.63	426.1
383.01	437.63
383.39	435.14
383.77	417.29
384.15	438.53
384.53	421.36
384.91	423.84
385.29	431.08
385.67	464.07
386.049	468.59
386.429	451.41
386.809	450.96
387.189	439.66
387.568	450.06
387.948	463.84
388.328	452.09
388.707	445.09
389.087	472.88
389.466	440.12
389.846	459.78
390.225	460.68
390.605	471.75
390.984	480.34
391.363	491.87
391.743	493.22
392.122	509.27
392.501	515.82
392.881	495.26
393.26	494.35
393.639	505.65
394.018	521.02
394.397	505.88
394.776	523.5
395.155	519.44
395.534	513.56
395.913	509.49
396.292	538.19
396.671	525.99
397.05	524.86
397.429	535.25
397.808	535.93
398.186	531.41
398.565	521.24
398.944	556.95
399.323	538.19
399.701	511.3
400.08	533.67
400.458	558.76
400.837	567.34
401.215	574.8
401.594	570.96
401.972	571.64
402.351	586.78
402.729	579.77
403.107	609.6
403.486	608.25
403.864	603.05
404.242	606.66
404.62	591.07
404.999	605.53
405.377	627
405.755	632.2
406.133	626.1
406.511	627.68
406.889	647.34
407.267	652.99
407.645	660
408.023	665.42
408.401	667.91
408.779	691.41
409.156	685.76
409.534	698.87
409.912	685.31
410.29	732.99
410.667	723.5
411.045	730.73
411.422	752.65
411.8	760.11
412.178	753.33
412.555	770.95
412.933	772.54
413.31	803.5
413.687	804.17
414.065	798.3
414.442	821.57
414.819	839.2
415.197	833.33
415.574	836.49
415.951	828.35
416.328	860.67
416.705	859.31
417.082	841.46
417.46	869.26
417.837	886.21
418.214	900.67
418.591	890.73
418.967	900.22
419.344	939.54
419.721	922.36
420.098	918.97
420.475	924.4
420.852	967.56
421.228	968.46
421.605	956.94
421.982	960.33
422.358	966.43
422.735	982.25
423.111	999.65
423.488	991.06
423.864	1005.75
424.241	1024.73
424.617	1032.64
424.994	1024.96
425.37	1045.98
425.746	1045.07
426.123	1085.97
426.499	1053.21
426.875	1071.06
427.251	1081.23
427.627	1089.82
428.003	1135.01
428.379	1131.62
428.756	1143.83
429.132	1130.04
429.507	1176.37
429.883	1170.27
430.259	1185.18
430.635	1178.18
431.011	1192.86
431.387	1224.95
431.763	1216.59
432.138	1252.07
432.514	1269.47
432.89	1283.26
433.265	1307.44
433.641	1325.74
434.016	1319.64
434.392	1323.03
434.767	1333.88
435.143	1339.53
435.518	1370.26
435.894	1391.28
436.269	1402.35
436.644	1419.52
437.02	1412.29
437.395	1440.54
437.77	1430.6
438.145	1442.58
438.52	1464.04
438.895	1490.26
439.271	1492.97
439.646	1499.3
440.021	1502.46
440.395	1522.8
440.77	1551.05
441.145	1545.62
441.52	1579.07
441.895	1556.47
442.27	1564.15
442.645	1584.94
443.019	1577.03
443.394	1598.73
443.769	1584.49
444.143	1620.42
444.518	1622.68
444.892	1628.56
445.267	1624.72
445.641	1650.03
446.016	1629.69
446.39	1656.13
446.764	1691.83
447.139	1664.26
447.513	1709.23
447.887	1697.26
448.262	1686.86
448.636	1704.49
449.01	1766.63
449.384	1758.95
449.758	1758.95
450.132	1775
450.506	1814.77
450.88	1821.55
451.254	1829.01
451.628	1845.73
452.002	1892.96
452.376	1856.35
452.75	1890.7
453.123	1904.48
453.497	1955.56
453.871	1953.3
454.244	1974.54
454.618	2048.21
454.992	2071.26
455.365	2051.82
455.739	2081.65
456.112	2123.91
456.486	2126.62
456.859	2138.15
457.232	2192.84
457.606	2188.32
457.979	2234.42
458.352	2280.07
458.725	2285.04
459.099	2323.46
459.472	2360.97
459.845	2376.34
460.218	2395.09
460.591	2436.9
460.964	2479.84
461.337	2493.39
461.71	2553.96
462.083	2562.55
462.456	2577.23
462.829	2579.04
463.201	2635.54
463.574	2629.21
463.947	2686.61
464.32	2691.81
464.692	2741.52
465.065	2766.16
465.438	2804.35
465.81	2863.1
466.183	2815.42
466.555	2919.37
466.928	2951.91
467.3	2945.13
467.672	2971.8
468.045	3039.14
468.417	3070.1
468.789	3066.71
469.161	3116.88
469.534	3162.3
469.906	3219.93
470.278	3277.78
470.65	3278.46
471.022	3368.4
471.394	3431.22
471.766	3468.06
472.138	3470.77
472.51	3564.55
472.882	3597.09
473.253	3627.6
473.625	3670.54
473.997	3764.55
474.369	3805.22
474.74	3849.74
475.112	3908.5
475.484	3990.08
475.855	4064.65
476.227	4052.9
476.598	4180.58
476.97	4216.97
477.341	4320.47
477.713	4391.88
478.084	4465.55
478.455	4569.5
478.827	4556.84
479.198	4720.68
479.569	4714.81
479.94	4888.36
480.311	4973.33
480.682	5021.01
481.053	5197.96
481.424	5297.61
481.795	5339.42
482.166	5431.62
482.537	5562.01
482.908	5679.3
483.279	5765.17
483.65	5895.57
484.021	6015.11
484.391	6166.07
484.762	6216.69
485.133	6281.09
485.503	6511.59
485.874	6629.78
486.244	6737.58
486.615	6965.37
486.985	6995.2
487.356	7243.1
487.726	7278.35
488.097	7488.52
488.467	7547.5
488.837	7855.51
489.207	7932.12
489.578	8161.95
489.948	8307.93
490.318	8436.52
490.688	8557.64
491.058	8827.47
491.428	8996.05
491.798	9091.87
492.168	9416.38
492.538	9544.28
492.908	9779.08
493.278	9914.67
493.648	10095
494.017	10351.95
494.387	10571.6
494.757	10785.83
495.126	10955.09
495.496	11119.61
495.866	11312.6
496.235	11600.95
496.605	11827.39
496.974	11939.25
497.344	12215.63
497.713	12437.54
498.082	12595.95
498.452	12896.06
498.821	13129.95
499.19	13348.7
499.559	13634.57
499.928	13830.27
500.298	14031.4
500.667	14342.8
501.036	14484.49
501.405	14803.13
501.774	14973.07
502.143	15357.69
502.512	15551.58
502.88	15807.4
503.249	16046.03
503.618	16354.27
503.987	16515.63
504.356	16823.64
504.724	17026.12
505.093	17328.71
505.462	17587.91
505.83	17735.71
506.199	18081.01
506.567	18579.75
506.936	18645.96
507.304	19065.16
507.672	19249.79
508.041	19564.58
508.409	19796.89
508.777	20099.49
509.145	20425.13
509.514	20615.4
509.882	20842.29
510.25	21159.34
510.618	21524.08
510.986	21639.33
511.354	21985.54
511.722	22334.46
512.09	22627.33
512.458	22684.95
512.826	23168.56
513.193	23290.81
513.561	23541.2
513.929	23823.68
514.297	24147.51
514.664	24368.07
515.032	24587.05
515.4	24894.16
515.767	25118.79
516.135	25410.76
516.502	25319.69
516.869	25915.38
517.237	26187.91
517.604	26191.53
517.972	26683.04
518.339	26914
518.706	27052.75
519.073	27308.11
519.44	27532.51
519.808	27891.82
520.175	28059.95
520.542	28536.55
520.909	28736.77
521.276	28808.41
521.643	29279.13
522.009	29467.6
522.376	29795.28
522.743	30042.05
523.11	30483.39
523.477	30871.63
523.843	31076.82
524.21	31508.23
524.577	31631.61
524.943	31884.26
525.31	32089.45
525.676	32573.73
526.043	32789.55
526.409	33071.12
526.776	33406.93
527.142	33428.4
527.508	33665.46
527.874	34096.63
528.241	34346.57
528.607	34431.09
528.973	35062.93
529.339	35030.62
529.705	35566.65
530.071	35703.14
530.437	36027.88
530.803	36228.33
531.169	36440.98
531.535	36558.04
531.901	36889.78
532.267	36935.88
532.632	37181.75
532.998	37389.2
533.364	37702.64
533.73	37750.77
534.095	38049.3
534.461	38194.38
534.826	38433.69
535.192	38568.38
535.557	38868.71
535.923	38919.78
536.288	39168.14
536.653	39454.91
537.019	39389.37
537.384	39579.88
537.749	39719.08
538.114	39919.3
538.479	39939.19
538.845	40244.49
539.21	40270.03
539.575	40414.88
539.94	40373.08
540.305	40842.9
540.67	40845.61
541.034	40971.25
541.399	41208.76
541.764	41307.06
542.129	41518.81
542.494	41614.85
542.858	41687.17
543.223	41695.08
543.587	41990.89
543.952	41908.86
544.316	42160.83
544.681	42179.36
545.045	42466.81
545.41	42626.8
545.774	42568.73
546.138	42770.75
546.503	43070.18
546.867	42971.88
547.231	43321.02
547.595	43431.53
547.959	43554.01
548.324	43700
548.688	43676.72
549.052	43803.95
549.416	43963.94
549.779	44104.73
550.143	44238.29
550.507	44544.72
550.871	44697.71
551.235	44710.36
551.599	45118.49
551.962	45305.38
552.326	45318.94
552.689	45457.01
553.053	45195.1
553.417	45555.09
553.78	46013.61
554.143	46018.13
554.507	46119.59
554.87	46299.93
555.234	46657.66
555.597	46465.12
555.96	46802.96
556.323	46914.37
556.686	47061.71
557.05	47459.67
557.413	47489.95
557.776	47645.88
558.139	47786.89
558.502	48025.98
558.865	48115.47
559.228	48445.63
559.59	48555.46
559.953	48705.06
560.316	49096.46
560.679	49128.78
561.041	49379.62
561.404	49564.7
561.767	49712.04
562.129	49744.81
562.492	50108.19
562.854	50243.1
563.217	50255.53
563.579	50387.73
563.941	50557.44
564.304	50789.3
564.666	51133.25
565.028	51070.87
565.39	51225.67
565.753	51432.67
566.115	51552.22
566.477	51672.44
566.839	51802.61
567.201	52167.12
567.563	52034.24
567.925	52364.63
568.287	52400.11
568.648	52497.05
569.01	52716.71
569.372	52946.53
569.734	52903.82
570.095	53083.48
570.457	53264.49
570.819	53273.3
571.18	53381.77
571.542	53659.51
571.903	53692.5
572.265	53735.66
572.626	54024.7
572.987	54012.72
573.349	54118.7
573.71	54353.27
574.071	54385.59
574.432	54587.84
574.794	54694.06
575.155	54784.45
575.516	54622.19
575.877	54844.11
576.238	54801.62
576.599	55006.14
576.96	55077.1
577.32	55070.32
577.681	55158.45
578.042	55365.23
578.403	55334.94
578.763	55357.09
579.124	55379.46
579.485	55576.52
579.845	55635.05
580.206	55614.48
580.566	55702.17
580.927	55646.8
581.287	55785.1
581.648	55697.65
582.008	55889.28
582.368	55778.55
582.728	55876.62
583.089	55901.26
583.449	55849.51
583.809	55898.32
584.169	55906.91
584.529	55836.63
584.889	56079.78
585.249	55970.41
585.609	55825.1
585.969	56016.06
586.329	55937.87
586.688	56056.28
587.048	56049.95
587.408	55939.22
587.768	55996.39
588.127	56012.21
588.487	55923.63
588.846	56100.8
589.206	55886.34
589.565	55868.49
589.925	56120.91
590.284	56058.54
590.643	56021.7
591.003	56073.91
591.362	56160.01
591.721	56088.6
592.08	56060.8
592.44	56185.09
592.799	56121.36
593.158	56118.2
593.517	56045.43
593.876	56170.85
594.235	56078.65
594.593	56158.42
594.952	56135.15
595.311	56063.74
595.67	56228.93
596.029	56298.53
596.387	56242.49
596.746	56353.45
597.104	56224.86
597.463	56202.49
597.822	56310.28
598.18	56272.09
598.538	56333.11
598.897	56460.11
599.255	56230.29
599.613	56543.27
599.972	56451.52
600.33	56524.06
600.688	56478.87
601.046	56454.69
601.404	56682.03
601.762	56640.22
602.12	56724.29
602.478	56714.57
602.836	56747.11
603.194	56615.59
603.552	56732.19
603.91	56691.74
604.268	56816.94
604.625	56777.62
604.983	56926.09
605.341	56768.13
605.698	56908.69
606.056	57117.95
606.413	56917.95
606.771	57155.46
607.128	57042.92
607.485	57065.29
607.843	57058.97
608.2	57181.9
608.557	57287.89
608.914	57201.79
609.272	57333.08
609.629	57427.32
609.986	57468.22
610.343	57382.12
610.7	57585.73
611.057	57645.39
611.414	57489.24
611.771	57708.67
612.127	57755.67
612.484	57726.29
612.841	57837.48
613.198	57788.89
613.554	57750.93
613.911	57931.03
614.267	57987.53
614.624	57931.26
614.98	58083.12
615.337	58198.82
615.693	58135.77
616.05	58218.94
616.406	58259.16
616.762	58278.82
617.118	58284.92
617.475	58325.6
617.831	58410.57
618.187	58433.62
618.543	58395.65
618.899	58521.53
619.255	58531.92
619.611	58465.48
619.967	58591.58
620.323	58670
620.678	58564.91
621.034	58600.85
621.39	58560.62
621.746	58628.19
622.101	58969.65
622.457	58663.9
622.812	58792.93
623.168	58791.58
623.523	58823.21
623.879	58905.02
624.234	58757.68
624.589	58876.55
624.945	58870.9
625.3	58964.45
625.655	58970.55
626.01	58973.49
626.365	58967.62
626.72	58895.53
627.075	58821.41
627.43	58862.08
627.785	58886.71
628.14	58965.58
628.495	58953.61
628.85	58997.22
629.205	58888.07
629.559	59005.58
629.914	58947.28
630.269	58957.45
630.623	58804.23
630.978	58799.03
631.332	58888.75
631.687	58894.85
632.041	58827.96
632.396	58907.05
632.75	58801.97
633.104	58909.54
633.459	58701.86
633.813	58739.37
634.167	58719.04
634.521	58753.38
634.875	58760.84
635.229	58608.98
635.583	58572.37
635.937	58592.48
636.291	58512.71
636.645	58553.39
636.999	58467.97
637.352	58587.97
637.706	58365.37
638.06	58524.01
638.413	58371.7
638.767	58322.66
639.121	58427.07
639.474	58274.08
639.828	58303.23
640.181	58298.93
640.534	58330.57
640.888	58282.66
641.241	58090.35
641.594	58147.52
641.947	58242.89
642.301	58137.81
642.654	58175.09
643.007	58124.02
643.36	58103.68
643.713	58105.04
644.066	58183
644.419	57931.26
644.771	57772.85
645.124	57463.7
645.477	57462.12
645.83	57292.18
646.182	57284.72
646.535	57256.7
646.888	57373.31
647.24	57256.47
647.593	57416.92
647.945	57228.23
648.298	57162.92
648.65	57123.37
649.002	56941.68
649.355	56887.67
649.707	56926.54
650.059	56966.76
650.411	57262.8
650.763	57274.55
651.115	57671.15
651.467	57480.2
651.819	57536.92
652.171	57437.03
652.523	57343.25
652.875	57396.36
653.227	57262.8
653.578	57470.03
653.93	57341.44
654.282	57183.93
654.633	57131.96
654.985	57205.63
655.337	57284.27
655.688	57210.83
656.039	57357.72
656.391	57014.9
656.742	57126.31
657.094	57107.78
657.445	57059.64
657.796	57103.03
658.147	56978.97
658.498	57051.73
658.849	57132.41
659.2	56929.25
659.551	56929.03
659.902	57082.47
660.253	56872.3
660.604	56978.52
660.955	56866.65
661.306	56966.09
661.656	56795.24
662.007	56898.29
662.358	56936.03
662.708	56932.19
663.059	56807.22
663.409	56665.98
663.76	56769.48
664.11	56810.38
664.461	56865.07
664.811	56884.06
665.161	56778.75
665.511	56814.23
665.862	56761.12
666.212	56747.79
666.562	56852.87
666.912	56745.3
667.262	56639.77
667.612	56696.26
667.962	56715.02
668.312	56635.7
668.662	56860.33
669.011	56727
669.361	56752.31
669.711	56594.35
670.06	56654.23
670.41	56579.43
670.76	56541.69
671.109	56649.71
671.459	56654.91
671.808	56615.59
672.157	56671.41
672.507	56463.5
672.856	56474.12
673.205	56607.23
673.554	56619.66
673.904	56482.03
674.253	56682.25
674.602	56548.24
674.951	56176.28
675.3	56000.69
675.649	56471.41
675.998	56538.75
676.346	56574.01
676.695	56572.88
677.044	56397.29
677.393	56449.04
677.741	56586.66
678.09	56404.75
678.438	56369.94
678.787	56413.11
679.135	56422.15
679.484	56316.16
679.832	56380.11
680.181	56336.5
680.529	56376.5
680.877	56280.23
681.225	56325.2
681.573	56449.49
681.922	56240.46
682.27	56076.39
682.618	56131.31
682.966	56084.08
683.314	56123.85
683.661	56069.61
684.009	56001.59
684.357	55976.28
684.705	55842.27
685.053	55963.18
685.4	55863.29
685.748	55718.21
686.095	55802.5
686.443	55684.54
686.79	55703.75
687.138	55768.15
687.485	55741.49
687.832	55642.28
688.18	55625.11
688.527	55575.16
688.874	55531.32
689.221	55570.42
689.568	55367.71
689.915	55322.29
690.262	55414.72
690.609	55270.99
690.956	55207.72
691.303	55273.02
691.65	55078.68
691.997	55112.12
692.344	54940.6
692.69	54890.89
693.037	54955.52
693.383	54662.42
693.73	54807.05
694.077	54668.29
694.423	54673.49
694.769	54579.93
695.116	54545.13
695.462	54496.77
695.808	54354.63
696.155	54471.01
696.501	54208.19
696.847	54223.33
697.193	54093.62
697.539	54080.29
697.885	53915.77
698.231	53839.16
698.577	53813.63
698.923	53767.53
699.269	53584.93
699.614	53495.9
699.96	53488.21
700.306	53429.91
700.651	53504.03
700.997	53306.52
701.342	53226.98
701.688	53124.83
702.033	53122.57
702.379	53059.3
702.724	52986.98
703.069	52960.09
703.415	52767.78
703.76	52722.81
704.105	52732.98
704.45	52592.42
704.795	52478.3
705.14	52341.35
705.485	52465.87
705.83	52209.38
706.175	52410.5
706.52	52144.29
706.865	52026.1
707.209	52009.61
707.554	51919.21
707.899	51980.68
708.243	51759.67
708.588	51755.15
708.932	51553.12
709.277	51579.34
709.621	51430.64
709.966	51242.17
710.31	51331.66
710.654	51264.99
710.998	51190.65
711.342	51216.18
711.687	51035.4
712.031	50926.7
712.375	50769.41
712.719	50711.79
713.063	50677.66
713.407	50825.91
713.75	50613.03
714.094	50609.64
714.438	50385.47
714.782	50473.38
715.125	50284.45
715.469	50348.41
715.812	50059.38
716.156	50124.46
716.499	49976.21
716.843	50106.83
717.186	49818.48
717.53	50049.43
717.873	49930.11
718.216	49836.33
718.559	49701.42
718.902	49444.48
719.246	49538.26
719.589	49423.01
719.932	49397.92
720.275	49340.75
720.617	49251.26
720.96	49136.91
721.303	49277.7
721.646	49144.82
721.989	48926.98
722.331	48972.85
722.674	48793.19
723.016	48915.9
723.359	48614.89
723.701	48933.53
724.044	48619.64
724.386	48420.55
724.729	48679.07
725.071	48579.64
725.413	48537.16
725.755	48399.53
726.097	48454.9
726.439	48264.85
726.782	48098.52
727.124	48397.95
727.465	48112.31
727.807	48042.25
728.149	48091.07
728.491	47935.82
728.833	47930.39
729.175	47805.2
729.516	47740.57
729.858	47596.84
730.199	47855.59
730.541	47747.8
730.882	47623.28
731.224	47690.4
731.565	47526.79
731.906	47499.44
732.248	47635.03
732.589	47322.5
732.93	47248.15
733.271	47274.59
733.612	47256.29
733.953	47320.24
734.294	47262.16
734.635	47094.93
734.976	47256.96
735.317	46990.3
735.658	47067.82
735.999	46933.36
736.339	46856.97
736.68	46880.93
737.021	46814.72
737.361	46647.94
737.702	46868.27
738.042	46683.65
738.383	46756.19
738.723	46879.57
739.063	46439.58
739.404	46682.29
739.744	46555.51
740.084	46390.77
740.424	46428.28
740.764	46411.79
741.104	46458.34
741.444	46333.6
741.784	46053.38
742.124	46181.06
742.464	46100.61
742.804	46009.99
743.143	45958.69
743.483	46102.42
743.823	45816.32
744.162	45905.13
744.502	45897.9
744.841	45627.63
745.181	45810.45
745.52	45588.08
745.86	45650.68
746.199	45438.48
746.538	45461.98
746.877	45647.97
747.216	45542.88
747.556	45391.02
747.895	45441.19
748.234	45290.24
748.573	45194.19
748.911	45160.75
749.25	45170.01
749.589	44984.93
749.928	45057.7
750.267	44881.21
750.605	44863.13
750.944	44792.17
751.283	44609.35
751.621	44750.36
751.96	44466.53
752.298	44552.85
752.636	44456.59
752.975	44399.64
753.313	44191.51
753.651	44455
753.989	44112.41
754.327	44109.7
754.666	43719.66
755.004	43877.84
755.342	44006.43
755.679	43877.84
756.017	43558.53
756.355	43705.87
756.693	43456.61
757.031	43674.01
757.368	43316.5
757.706	43252.32
758.044	43164.87
758.381	43155.83
758.719	42965.1
759.056	43043.74
759.394	42832.67
759.731	42586.58
760.068	42703.64
760.405	42510.65
760.743	42330.09
761.08	42339.58
761.417	42131.67
761.754	42161.28
762.091	42099.81
762.428	41755.87
762.765	41519.26
763.102	41655.53
763.438	41520.62
763.775	41277.23
764.112	41245.6
764.449	41283.79
764.785	41189.78
765.122	40942.78
765.458	40603.13
765.795	40679.96
766.131	40754.99
766.467	40570.36
766.804	40258.05
767.14	40090.6
767.476	40022.8
767.812	39838.4
768.148	39956.36
768.485	39699.65
768.821	39354.8
769.157	39353.89
769.492	39107.57
769.828	39106.22
770.164	38772.67
770.5	38834.36
770.836	38786.68
771.171	38608.6
771.507	38504.43
771.842	38175.39
772.178	38214.49
772.513	38112.12
772.849	37886.14
773.184	37928.17
773.519	37744.45
773.855	37422.19
774.19	37393.27
774.525	37378.58
774.86	37337.68
775.195	37159.6
775.53	36880.97
775.865	36675.32
776.2	36478.26
776.535	36292.51
776.87	36364.37
777.205	36265.39
777.539	36021.33
777.874	36139.52
778.209	35802.58
778.543	35733.88
778.878	35487.1
779.212	35536.59
779.547	35148.13
779.881	35295.02
780.215	34977.29
780.55	35072.43
780.884	34732.1
781.218	34648.48
781.552	34761.47
781.886	34577.97
782.22	34222.05
782.554	34201.71
782.888	33919.69
783.222	33766.24
783.556	33625.68
783.889	33563.99
784.223	33395.86
784.557	33371.45
784.89	33444.67
785.224	33149.31
785.557	33023.44
785.891	32830.45
786.224	32911.58
786.558	32881.3
786.891	32611.25
787.224	32399.28
787.557	32339.84
787.891	32401.31
788.224	32098.49
788.557	32074.99
788.89	31996.57
789.223	31982.11
789.556	31733.3
789.888	31673.19
790.221	31326.08
790.554	31312.52
790.887	31270.94
791.219	31131.96
791.552	31074.79
791.884	30969.48
792.217	31006.32
792.549	30803.61
792.882	30536.27
793.214	30470.29
793.546	30417.86
793.879	30332.21
794.211	30132.67
794.543	30273.91
794.875	30017.87
795.207	30134.7
795.539	29901.94
795.871	29860.58
796.203	29655.62
796.535	29530.88
796.867	29513.48
797.198	29244.78
797.53	29254.73
797.862	29071.91
798.193	29146.93
798.525	28920.72
798.856	29054.73
799.188	28667.4
799.519	28637.11
799.85	28474.41
800.182	28570.45
800.513	28524.12
800.844	28177.24
801.175	28534.29
801.506	28270.12
801.837	28053.4
802.168	27962.56
802.499	27935.89
802.83	27805.05
803.161	27664.94
803.491	27725.95
803.822	27699.29
804.153	27451.16
804.483	27339.07
804.814	27191.28
805.145	27307.88
805.475	27187.43
805.805	27121.67
806.136	27046.2
806.466	27052.52
806.796	26977.72
807.126	26786.32
807.457	26776.6
807.787	26656.15
808.117	26604.4
808.447	26484.4
808.777	26530.95
809.107	26337.97
809.436	26299.1
809.766	26311.07
810.096	26230.17
810.426	26095.94
810.755	26195.37
811.085	26086.22
811.414	26086.67
811.744	25895.94
812.073	25904.08
812.403	25824.98
812.732	25529.63
813.061	25778.88
813.39	25471.1
813.719	25350.65
814.049	25619.57
814.378	25490.98
814.707	25259.8
815.036	25364.21
815.365	25268.84
815.693	25012.58
816.022	25056.64
816.351	24956.53
816.68	24847.84
817.008	24895.07
817.337	24677.67
817.665	24718.8
817.994	24636.77
818.322	24726.93
818.651	24469.77
818.979	24455.76
819.307	24541.4
819.636	24451.01
819.964	24416.89
820.292	24488.07
820.62	24258.47
820.948	24415.76
821.276	24511.35
821.604	24490.78
821.932	24401.75
822.259	24329.43
822.587	24300.73
822.915	24207.4
823.243	24297.12
823.57	24131.47
823.898	24382.08
824.225	24189.1
824.553	24231.35
824.88	24205.82
825.207	24425.02
825.535	24128.76
825.862	24300.05
826.189	24202.2
826.516	24355.42
826.843	24360.84
827.17	24298.7
827.497	24320.39
827.824	24480.84
828.151	24311.13
828.478	24260.96
828.805	24366.04
829.131	24270.22
829.458	24293.05
829.785	24210.34
830.111	24226.83
830.438	24352.71
830.764	24243.78
831.09	24342.76
831.417	24119.72
831.743	24281.07
832.069	24227.29
832.395	24118.36
832.722	24213.28
833.048	24095.09
833.374	24206.5
833.7	24039.5
834.026	24200.85
834.351	24085.14
834.677	24169.66
835.003	24074.3
835.329	24101.41
835.654	24040.85
835.98	23884.7
836.306	24150.68
836.631	23948.42
836.956	23990.23
837.282	24039.72
837.607	23885.6
837.932	23811.93
838.258	23841.99
838.583	23713.63
838.908	23721.31
839.233	23691.03
839.558	23710.24
839.883	23562.9
840.208	23457.36
840.533	23490.58
840.858	23534.2
841.182	23521.32
841.507	23460.53
841.832	23331.04
842.156	23437.25
842.481	23299.4
842.805	23243.36
843.13	23265.73
843.454	23118.16
843.778	23150.93
844.103	23031.16
844.427	23027.09
844.751	22946.42
845.075	22841.79
845.399	22917.72
845.723	22815.12
846.047	22711.62
846.371	22558.63
846.695	22437.73
847.019	22451.29
847.343	22239.09
847.666	22294.68
847.99	22228.02
848.313	21983.5
848.637	22003.39
848.96	22031.86
849.284	21943.05
849.607	21754.36
849.931	21708.48
850.254	21582.16
850.577	21529.05
850.9	21268.49
851.223	21291.77
851.546	21168.16
851.869	21078.22
852.192	21251.09
852.515	20971.33
852.838	20940.37
853.161	20891.78
853.483	20774.04
853.806	20740.37
854.129	20670.32
854.451	20623.77
854.774	20410.21
855.096	20426.71
855.419	20369.08
855.741	20326.15
856.063	20237.79
856.385	20054.52
856.708	20024.01
857.03	20042.76
857.352	20090.22
857.674	20000.73
857.996	19833.5
858.318	19762.55
858.64	19695.2
858.961	19692.72
859.283	19660.18
859.605	19646.39
859.926	19465.83
860.248	19468.54
860.57	19454.76
860.891	19365.27
861.212	19323.01
861.534	19222.9
861.855	19187.19
862.176	19163.92
862.498	19205.72
862.819	19191.94
863.14	19153.07
863.461	19092.96
863.782	18940.42
864.103	19017.71
864.424	18945.62
864.745	18930.02
865.065	18908.56
865.386	18829.46
865.707	18871.04
866.027	18885.28
866.348	18793.53
866.668	18709.24
866.989	18704.72
867.309	18608.9
867.63	18595.8
867.95	18662.46
868.27	18510.37
868.59	18631.05
868.91	18480.55
869.23	18518.51
869.55	18404.16
869.87	18524.16
870.19	18291.62
870.51	18336.59
870.83	18356.03
871.15	18178.41
871.469	18219.31
871.789	18246.43
872.109	18268.8
872.428	18124.4
872.748	18190.61
873.067	18149.03
873.386	18196.03
873.706	18017.73
874.025	17980.45
874.344	17925.31
874.663	17977.96
874.982	17869.71
875.301	17855.48
875.62	17769.6
875.939	17829.94
876.258	17917.85
876.577	17761.92
876.896	17744.52
877.214	17652.54
877.533	17675.37
877.852	17689.15
878.17	17665.43
878.489	17705.65
878.807	17557.41
879.125	17495.26
879.444	17468.59
879.762	17497.75
880.08	17550.85
880.398	17322.38
880.716	17331.42
881.034	17269.28
881.352	17358.31
881.67	17310.86
881.988	17318.54
882.306	17179.11
882.624	17115.16
882.941	17066.8
883.259	17084.42
883.577	17027.93
883.894	16974.6
884.212	16992.67
884.529	16965.33
884.846	16875.84
885.164	16823.87
885.481	16803.3
885.798	16772.34
886.115	16643.98
886.432	16757.88
886.75	16579.13
887.067	16558.79
887.383	16519.69
887.7	16561.5
888.017	16412.35
888.334	16537.32
888.651	16480.82
888.967	16355.4
889.284	16336.65
889.6	16293.94
889.917	16253.71
890.233	16109.31
890.55	16099.59
890.866	16206.71
891.182	16050.78
891.498	16103.43
891.815	15963.32
892.131	15914.51
892.447	15949.31
892.763	15753.84
893.079	15757
893.395	15701.18
893.71	15634.74
894.026	15628.87
894.342	15597.01
894.657	15588.87
894.973	15541.87
895.289	15468.65
895.604	15392.49
895.92	15300.52
896.235	15300.06
896.55	15196.79
896.865	15251.25
897.181	15241.76
897.496	15197.47
897.811	14978.26
898.126	14953.63
898.441	14973.52
898.756	14860.98
899.071	14749.34
899.386	14851.71
899.7	14699.63
900.015	14624.15
900.33	14639.29
900.644	14550.03
900.959	14597.03
901.273	14423.93
901.588	14404.04
901.902	14377.38
902.216	14317.49
902.531	14277.04
902.845	14204.5
903.159	14043.15
903.473	14033.2
903.787	13909.37
904.101	13999.76
904.415	14007.22
904.729	13823.94
905.042	13783.49
905.356	13804.74
905.67	13761.8
905.984	13744.4
906.297	13660.11
906.611	13541.47
906.924	13552.77
907.237	13555.48
907.551	13450.17
907.864	13332.66
908.177	13358.65
908.491	13311.87
908.804	13216.05
909.117	13107.35
909.43	13071.87
909.743	13047.69
910.056	13041.59
910.368	12918.43
910.681	12893.8
910.994	12875.27
911.307	12768.83
911.619	12708.95
911.932	12757.08
912.244	12562.06
912.557	12555.96
912.869	12572.68
913.181	12487.48
913.494	12564.09
913.806	12347.83
914.118	12230.54
914.43	12267.83
914.742	12249.75
915.054	12122.97
915.366	12159.81
915.678	12061.28
915.99	12026.48
916.302	11953.71
916.613	11962.52
916.925	11938.57
917.236	11854.05
917.548	11808.4
917.859	11833.49
918.171	11690.22
918.482	11554.63
918.794	11622.65
919.105	11535.87
919.416	11439.15
919.727	11448.41
920.038	11427.17
920.349	11339.04
920.66	11337.46
920.971	11255.65
921.282	11214.97
921.593	11180.85
921.903	11062.89
922.214	11060.63
922.525	10966.62
922.835	10949.67
923.146	10938.6
923.456	10813.18
923.767	10843.91
924.077	10843.91
924.387	10751.48
924.697	10597.59
925.008	10648.21
925.318	10556.91
925.628	10507.2
925.938	10529.34
926.248	10397.82
926.558	10357.14
926.867	10377.48
927.177	10301.55
927.487	10228.78
927.796	10224.27
928.106	10194.44
928.416	10186.3
928.725	10094.1
929.034	10051.61
929.344	9988.11
929.653	9997.38
929.962	9920.77
930.271	9934.1
930.581	9861.56
930.89	9820.21
931.199	9747.89
931.508	9734.11
931.817	9752.19
932.125	9711.28
932.434	9696.14
932.743	9516.26
933.051	9516.71
933.36	9402.37
933.669	9440.78
933.977	9402.37
934.286	9315.14
934.594	9336.83
934.902	9263.61
935.21	9194.46
935.519	9151.98
935.827	9177.29
936.135	9113.79
936.443	9038.53
936.751	8995.37
937.059	8985.88
937.367	8921.25
937.674	8936.16
937.982	8895.71
938.29	8848.26
938.597	8758.54
938.905	8699.56
939.213	8729.39
939.52	8682.84
939.827	8668.6
940.135	8564.42
940.442	8561.26
940.749	8579.34
941.056	8554.93
941.363	8448.27
941.67	8417.08
941.977	8413.47
942.284	8318.1
942.591	8339.34
942.898	8236.97
943.205	8247.59
943.511	8188.61
943.818	8297.76
944.125	8118.11
944.431	8017.09
944.738	8025
945.044	8022.74
945.35	7981.39
945.657	7921.73
945.963	7901.84
946.269	7893.03
946.575	7824.78
946.881	7816.87
947.187	7696.2
947.493	7754.73
947.799	7608.06
948.105	7683.09
948.41	7596.76
948.716	7639.25
949.022	7606.71
949.327	7524.45
949.633	7437.9
949.938	7492.36
950.244	7409.42
950.549	7386.83
950.854	7346.6
951.16	7310.9
951.465	7243.55
951.77	7249.2
952.075	7222.99
952.38	7173.5
952.685	7195.64
952.99	7077.68
953.294	7066.83
953.599	7054.86
953.904	7012.15
954.209	7032.71
954.513	6948.64
954.818	6967.63
955.122	6930.79
955.426	6888.99
955.731	6801.76
956.035	6791.36
956.339	6810.57
956.643	6784.13
956.948	6756.79
957.252	6718.14
957.556	6663.23
957.86	6637.24
958.163	6670.23
958.467	6587.75
958.771	6555.21
959.075	6535.1
959.378	6483.8
959.682	6410.13
959.985	6458.26
960.289	6416.91
960.592	6342.11
960.896	6329.68
961.199	6341.66
961.502	6299.85
961.805	6256.01
962.108	6244.93
962.411	6208.33
962.714	6177.37
963.017	6130.36
963.32	6165.84
963.623	6133.53
963.926	6158.84
964.228	6061.66
964.531	5983.02
964.833	6036.58
965.136	5986.41
965.438	5969.01
965.741	5885.17
966.043	5884.27
966.345	5866.19
966.648	5834.1
966.95	5834.1
967.252	5697.83
967.554	5738.06
967.856	5746.19
968.158	5736.25
968.46	5706.64
968.761	5652.86
969.063	5646.31
969.365	5597.27
969.666	5589.36
969.968	5549.36
970.269	5502.36
970.571	5503.71
970.872	5469.14
971.174	5461.68
971.475	5426.65
971.776	5380.1
972.077	5362.25
972.378	5317.05
972.679	5336.94
972.98	5306.43
973.281	5286.77
973.582	5261.91
973.883	5277.95
974.183	5154.12
974.484	5174.91
974.785	5152.08
975.085	5115.7
975.386	5173.1
975.686	5124.51
975.986	5096.94
976.287	5047.45
976.587	4995.48
976.887	5009.71
977.187	4969.71
977.487	4963.84
977.787	4914.8
978.087	4889.26
978.387	4915.7
978.687	4890.85
978.987	4833.22
979.286	4804.29
979.586	4835.03
979.885	4770.62
980.185	4738.99
980.484	4712.77
980.784	4707.57
981.083	4685.88
981.382	4674.13
981.682	4611.53
981.981	4654.02
982.28	4580.8
982.579	4568.37
982.878	4622.83
983.177	4542.61
983.475	4523.85
983.774	4493.12
984.073	4472.78
984.372	4450.63
984.67	4456.51
984.969	4419.67
985.267	4424.42
985.566	4406.79
985.864	4379.9
986.162	4346.45
986.461	4272.78
986.759	4299.9
987.057	4284.08
987.355	4181.49
987.653	4267.81
987.951	4167.02
988.249	4186.91
988.547	4159.79
988.844	4157.08
989.142	4103.75
989.44	4072.79
989.737	4129.96
990.035	4071.66
990.332	4011.32
990.63	4019.68
990.927	4029.85
991.224	3992.34
991.521	3988.04
991.819	3939.46
992.116	3951.66
992.413	3943.53
992.71	3904.88
993.006	3884.54
993.303	3849.07
993.6	3832.34
993.897	3812.46
994.193	3837.31
994.49	3810.2
994.787	3775.4
995.083	3748.28
995.379	3750.99
995.676	3689.07
995.972	3724.1
996.268	3656.53
996.565	3640.26
996.861	3665.57
997.157	3562.97
997.453	3580.37
997.749	3567.94
998.044	3554.38
998.34	3545.34
998.636	3504.67
998.932	3513.48
999.227	3453.37
999.523	3479.58
999.818	3454.5
1000.114	3395.52
1000.409	3397.78
1000.704	3389.42
1001	3390.32
1001.295	3347.84
1001.59	3312.58
1001.885	3337.89
1002.18	3289.08
1002.475	3268.52
1002.77	3275.52
1003.065	3219.93
1003.359	3194.85
1003.654	3223.55
1003.949	3204.79
1004.243	3153.94
1004.538	3096.09
1004.832	3126.6
1005.127	3144.9
1005.421	3118.46
1005.715	3076.43
1006.009	3038.01
1006.304	3064.23
1006.598	3021.52
1006.892	3014.29
1007.186	2945.59
1007.48	2958.47
1007.773	2944.91
1008.067	2916.21
1008.361	2920.28
1008.655	2894.51
1008.948	2883.44
1009.242	2896.77
1009.535	2845.7
1009.829	2806.38
1010.122	2788.75
1010.415	2784.01
1010.708	2774.52
1011.001	2753.95
1011.295	2758.02
1011.588	2697.01
1011.881	2682.32
1012.173	2686.16
1012.466	2661.53
1012.759	2655.88
1013.052	2631.7
1013.344	2647.52
1013.637	2618.59
1013.93	2568.42
1014.222	2571.58
1014.514	2555.99
1014.807	2555.31
1015.099	2501.53
1015.391	2514.64
1015.683	2507.18
1015.976	2490.01
1016.268	2454.53
1016.56	2441.64
1016.851	2391.7
1017.143	2443.23
1017.435	2414.53
1017.727	2363.68
1018.018	2381.31
1018.31	2351.93
1018.602	2367.97
1018.893	2316.68
1019.185	2302.67
1019.476	2315.77
1019.767	2290.24
1020.058	2270.12
1020.35	2210.24
1020.641	2198.04
1020.932	2174.76
1021.223	2173.63
1021.514	2197.58
1021.804	2156.68
1022.095	2122.33
1022.386	2108.77
1022.677	2100.86
1022.967	2110.35
1023.258	2079.39
1023.548	2047.53
1023.839	2061.09
1024.129	2040.75
1024.419	2024.03
1024.709	2010.24
1025	1987.65
1025.29	1990.13
1025.58	1970.7
1025.87	1940.19
1026.16	1937.93
1026.449	1898.83
1026.739	1897.7
1027.029	1909.23
1027.319	1888.44
1027.608	1902.9
1027.898	1896.12
1028.187	1851.38
1028.477	1827.2
1028.766	1833.53
1029.055	1788.78
1029.344	1782.91
1029.634	1794.43
1029.923	1789.46
1030.212	1762.34
1030.501	1739.97
1030.79	1728.9
1031.078	1726.41
1031.367	1722.79
1031.656	1706.3
1031.945	1689.35
1032.233	1678.73
1032.522	1650.03
1032.81	1662
1033.099	1606.86
1033.387	1629.69
1033.675	1638.05
1033.963	1599.86
1034.251	1585.17
1034.54	1572.06
1034.828	1574.55
1035.116	1547.43
1035.403	1538.84
1035.691	1559.41
1035.979	1509.01
1036.267	1514.44
1036.554	1508.11
1036.842	1511.73
1037.129	1443.25
1037.417	1467.43
1037.704	1469.92
1037.992	1448.22
1038.279	1448.22
1038.566	1415.01
1038.853	1415.01
1039.14	1415.01
