Data from 100_FLMS001491_005.txt Node
Date: Thu Apr 12 17:09:40 BST 2018
User: hsy
Spectrometer: FLMS00149
Trigger mode: 0
Integration Time (sec): 1.000000E-2
Scans to average: 10
Electric dark correction enabled: true
Nonlinearity correction enabled: false
Boxcar width: 0
XAxis mode: Wavelengths
Number of Pixels in Spectrum: 2048
>>>>>Begin Spectral Data<<<<<
341.393	12.95
341.776	12.95
342.16	12.95
342.543	-52.58
342.927	-55.97
343.31	-62.3
343.693	-64.33
344.077	-60.94
344.46	-65.69
344.843	-39.48
345.226	-35.86
345.61	-37.89
345.993	-15.97
346.376	-21.85
346.759	3.01
347.142	5.95
347.525	66.51
347.908	57.24
348.291	54.31
348.674	102.89
349.057	114.42
349.44	121.2
349.823	146.06
350.206	170.91
350.588	231.48
350.971	244.13
351.354	263.79
351.737	260.85
352.119	297.92
352.502	283.9
352.884	313.51
353.267	329.55
353.65	330.68
354.032	337.01
354.414	363
354.797	350.8
355.179	373.17
355.562	372.72
355.944	355.99
356.326	393.73
356.709	374.75
357.091	381.76
357.473	376.33
357.855	416.78
358.238	388.53
358.62	376.56
359.002	384.69
359.384	390.12
359.766	393.51
360.148	372.04
360.53	391.92
360.912	371.81
361.294	386.73
361.676	387.86
362.057	406.16
362.439	374.3
362.821	386.95
363.203	381.76
363.584	373.85
363.966	383.56
364.348	369.55
364.729	375.43
365.111	360.51
365.493	387.41
365.874	374.52
366.256	376.11
366.637	359.38
367.019	387.18
367.4	367.97
367.781	360.06
368.163	395.77
368.544	392.38
368.925	377.46
369.306	373.85
369.688	373.62
370.069	360.74
370.45	385.6
370.831	354.64
371.212	373.39
371.593	379.27
371.974	386.5
372.355	362.32
372.736	385.15
373.117	368.2
373.498	369.78
373.879	355.09
374.26	366.61
374.641	362.32
375.021	371.13
375.402	392.38
375.783	403.68
376.163	403.9
376.544	400.96
376.925	383.79
377.305	398.93
377.686	407.07
378.066	398.48
378.447	405.03
378.827	392.38
379.208	388.76
379.588	400.06
379.968	397.35
380.349	411.13
380.729	420.62
381.109	420.4
381.489	431.02
381.87	417.91
382.25	417.46
382.63	426.05
383.01	423.34
383.39	443.22
383.77	427.18
384.15	430.12
384.53	424.69
384.91	445.26
385.29	467.4
385.67	456.1
386.049	463.11
386.429	456.78
386.809	464.92
387.189	444.13
387.568	470.79
387.948	453.39
388.328	457.01
388.707	478.93
389.087	459.49
389.466	469.21
389.846	454.3
390.225	484.58
390.605	478.02
390.984	469.21
391.363	458.36
391.743	493.62
392.122	508.76
392.501	487.74
392.881	503.11
393.26	507.18
393.639	527.29
394.018	503.79
394.397	511.47
394.776	520.06
395.155	508.31
395.534	522.99
395.913	509.89
396.292	521.86
396.671	548.53
397.05	531.58
397.429	542.2
397.808	532.94
398.186	530.45
398.565	566.61
398.944	544.92
399.323	562.77
399.701	563.22
400.08	551.69
400.458	584.24
400.837	548.76
401.215	569.55
401.594	583.33
401.972	566.16
402.351	588.3
402.729	588.3
403.107	609.32
403.486	600.73
403.864	615.87
404.242	609.09
404.62	616.1
404.999	616.78
405.377	614.74
405.755	627.85
406.133	611.81
406.511	635.76
406.889	631.47
407.267	660.62
407.645	658.36
408.023	670.11
408.401	696.1
408.779	683.22
409.156	686.61
409.534	704.01
409.912	707.85
410.29	713.95
410.667	745.59
411.045	744.91
411.422	718.47
411.8	759.6
412.178	766.15
412.555	768.19
412.933	791.01
413.31	780.16
413.687	795.3
414.065	818.58
414.442	798.69
414.819	824.68
415.197	827.62
415.574	861.06
415.951	844.34
416.328	855.42
416.705	874.4
417.082	908.52
417.46	884.79
417.837	905.58
418.214	902.87
418.591	927.73
418.967	888.18
419.344	946.94
419.721	945.58
420.098	962.76
420.475	960.05
420.852	974.96
421.228	954.85
421.605	979.03
421.982	966.82
422.358	979.03
422.735	993.49
423.111	999.82
423.488	1032.36
423.864	1019.25
424.241	1013.6
424.617	1055.64
424.994	1023.09
425.37	1054.96
425.746	1061.74
426.123	1080.72
426.499	1066.48
426.875	1079.36
427.251	1109.87
427.627	1129.76
428.003	1124.33
428.379	1142.64
428.756	1149.42
429.132	1181.51
429.507	1174.95
429.883	1196.42
430.259	1214.95
430.635	1219.7
431.011	1243.88
431.387	1249.76
431.763	1236.65
432.138	1266.03
432.514	1294.27
432.89	1307.83
433.265	1319.13
433.641	1318.68
434.016	1325.46
434.392	1355.29
434.767	1394.16
435.143	1403.88
435.518	1403.2
435.894	1416.53
436.269	1415.85
436.644	1441.16
437.02	1489.52
437.395	1443.42
437.77	1448.39
438.145	1487.04
438.52	1489.75
438.895	1501.05
439.271	1519.58
439.646	1515.51
440.021	1552.8
440.395	1564.32
440.77	1514.38
441.145	1560.48
441.52	1603.87
441.895	1563.42
442.27	1593.25
442.645	1620.82
443.019	1608.16
443.394	1631.44
443.769	1642.51
444.143	1637.77
444.518	1640.93
444.892	1665.56
445.267	1670.76
445.641	1669.63
446.016	1697.65
446.39	1689.74
446.764	1720.93
447.139	1691.1
447.513	1725.67
447.887	1714.38
448.262	1788.27
448.636	1748.73
449.01	1791.44
449.384	1777.2
449.758	1836.18
450.132	1839.8
450.506	1821.72
450.88	1858.78
451.254	1844.54
451.628	1877.76
452.002	1906.46
452.376	1911.66
452.75	1915.05
453.123	1948.49
453.497	1975.61
453.871	2021.94
454.244	2022.16
454.618	2058.32
454.992	2104.65
455.365	2098.77
455.739	2125.89
456.112	2132.67
456.486	2213.35
456.859	2208.37
457.232	2247.92
457.606	2280.01
457.979	2246.11
458.352	2336.73
458.725	2308.03
459.099	2319.11
459.472	2393
459.845	2424.87
460.218	2454.02
460.591	2485.2
460.964	2494.69
461.337	2545.54
461.71	2581.47
462.083	2599.55
462.456	2580.34
462.829	2647.68
463.201	2683.84
463.574	2677.74
463.947	2745.99
464.32	2765.65
464.692	2804.29
465.065	2834.57
465.438	2847.91
465.81	2910.95
466.183	2922.25
466.555	2971.07
466.928	3008.35
467.3	2976.49
467.672	3025.75
468.045	3105.3
468.417	3092.64
468.789	3148.01
469.161	3139.65
469.534	3251.74
469.906	3281.79
470.278	3320.21
470.65	3349.59
471.022	3412.64
471.394	3450.6
471.766	3486.76
472.138	3520.2
472.51	3623.48
472.882	3655.57
473.253	3707.09
473.625	3699.86
473.997	3870.7
474.369	3846.75
474.74	3927.88
475.112	3954.99
475.484	4025.73
475.855	4114.76
476.227	4199.96
476.598	4287.87
476.97	4308.43
477.341	4385.94
477.713	4434.76
478.084	4505.71
478.455	4659.61
478.827	4683.56
479.198	4832.26
479.569	4853.5
479.94	4963.33
480.311	5050.79
480.682	5190.67
481.053	5279.71
481.424	5381.85
481.795	5455.29
482.166	5580.49
482.537	5731.9
482.908	5752.46
483.279	5893.02
483.65	6046.92
484.021	6189.51
484.391	6239.45
484.762	6396.29
485.133	6375.27
485.503	6566
485.874	6722.15
486.244	6909.04
486.615	7006.67
486.985	7138.19
487.356	7280.11
487.726	7448.46
488.097	7649.14
488.467	7765.97
488.837	7934.78
489.207	8059.07
489.578	8302.9
489.948	8410.02
490.318	8629.22
490.688	8728.2
491.058	8971.36
491.428	9181.98
491.798	9285.25
492.168	9528.86
492.538	9682.3
492.908	9940.6
493.278	10133.59
493.648	10188.05
494.017	10535.84
494.387	10627.14
494.757	10813.35
495.126	11073.9
495.496	11263.5
495.866	11515.02
496.235	11801.57
496.605	11954.11
496.974	12144.38
497.344	12445.85
497.713	12580.98
498.082	12796.8
498.452	13048.09
498.821	13281.98
499.19	13470.9
499.559	13733.49
499.928	13973.26
500.298	14224.1
500.667	14508.62
501.036	14655.5
501.405	15009.85
501.774	15206
502.143	15294.58
502.512	15713.56
502.88	15998.97
503.249	16136.82
503.618	16402.8
503.987	16535.91
504.356	16949.23
504.724	17244.81
505.093	17446.62
505.462	17682.54
505.83	17915.98
506.199	18346.93
506.567	18669.18
506.936	18716.87
507.304	19160.47
507.672	19443.85
508.041	19641.81
508.409	19862.37
508.777	20156.38
509.145	20489.25
509.514	20769.92
509.882	20956.81
510.25	21141.66
510.618	21556.57
510.986	21633.63
511.354	21931.92
511.722	22292.37
512.09	22661.62
512.458	22743.2
512.826	23133.47
513.193	23384.31
513.561	23626.34
513.929	23800.12
514.297	24102.04
514.664	24498.86
515.032	24718.52
515.4	24964.39
515.767	25193.08
516.135	25392.62
516.502	25360.31
516.869	25937.69
517.237	26151.25
517.604	26121.42
517.972	26776.77
518.339	26897.22
518.706	27063.54
519.073	27337.88
519.44	27643.41
519.808	27999.79
520.175	28090.41
520.542	28479.77
520.909	28790.27
521.276	28928.12
521.643	29326.31
522.009	29408.56
522.376	29756.12
522.743	30033.41
523.11	30441.76
523.477	30745.02
523.843	30930.33
524.21	31442.63
524.577	31614.15
524.943	31903.19
525.31	32088.94
525.676	32400.12
526.043	32766.44
526.409	33043.5
526.776	33443.49
527.142	33429.02
527.508	33765.51
527.874	34118.27
528.241	34345.83
528.607	34578.37
528.973	35035.08
529.339	35166.83
529.705	35586.48
530.071	35763.2
530.437	35932.69
530.803	36320.25
531.169	36308.72
531.535	36471.88
531.901	36727.92
532.267	36930.85
532.632	37199.09
532.998	37414.91
533.364	37610.83
533.73	37792.52
534.095	38174.43
534.461	38239.52
534.826	38459.85
535.192	38599.73
535.557	39052.38
535.923	38856.45
536.288	39179.38
536.653	39505.25
537.019	39345.7
537.384	39644.45
537.749	39728.52
538.114	39833.6
538.479	40037.66
538.845	40126.7
539.21	40144.1
539.575	40455.96
539.94	40612.34
540.305	40888.26
540.67	40826.57
541.034	40987.02
541.399	41067.24
541.764	41272.21
542.129	41316.27
542.494	41496.38
542.858	41695.47
543.223	41718.75
543.587	41914.22
543.952	42035.8
544.316	42234.21
544.681	42180.66
545.045	42512.17
545.41	42678.72
545.774	42616.8
546.138	42793.3
546.503	43114.87
546.867	43067.86
547.231	43359.38
547.595	43456.78
547.959	43606.83
548.324	43694.97
548.688	43757.56
549.052	43932.02
549.416	44006.6
549.779	44053.6
550.143	44320.04
550.507	44600.25
550.871	44625.11
551.235	44659.91
551.599	45120.01
551.962	45079.56
552.326	45197.3
552.689	45499.21
553.053	45255.83
553.417	45642.03
553.78	46017.84
554.143	46085.64
554.507	46277.27
554.87	46313.88
555.234	46770.14
555.597	46636.81
555.96	46797.26
556.323	47077.93
556.686	47038.16
557.05	47408.32
557.413	47364.93
557.776	47639.95
558.139	47922.65
558.502	47958.81
558.865	48029.77
559.228	48191.35
559.59	48507.72
559.953	48576.65
560.316	49069.06
560.679	48985.9
561.041	49255.72
561.404	49600.57
561.767	49795.6
562.129	49791.76
562.492	50096.61
562.854	50112.2
563.217	50195.59
563.579	50328.46
563.941	50682.35
564.304	50693.43
564.666	51124.15
565.028	51156.24
565.39	51192.4
565.753	51502.67
566.115	51553.52
566.477	51765.94
566.839	51881.42
567.201	52248.87
567.563	52144.91
567.925	52339.03
568.287	52386.94
568.648	52542.42
569.01	52737.44
569.372	52989.41
569.734	52845.01
570.095	53217.2
570.457	53339.91
570.819	53419.01
571.18	53357.99
571.542	53712.56
571.903	53732.67
572.265	53884.53
572.626	53990.29
572.987	54040.01
573.349	54214.69
573.71	54236.16
574.071	54383.73
574.432	54578.52
574.794	54697.39
575.155	54759.08
575.516	54721.12
575.877	54900.1
576.238	54830.04
576.599	54994.1
576.96	55009.47
577.32	55146.64
577.681	55195.23
578.042	55335.34
578.403	55306.86
578.763	55342.34
579.124	55347.54
579.485	55632.73
579.845	55687.19
580.206	55651.94
580.566	55691.49
580.927	55647.87
581.287	55771.94
581.648	55684.93
582.008	55828.43
582.368	55788.43
582.728	55783.69
583.089	55851.03
583.449	55845.16
583.809	55894.42
584.169	55996.79
584.529	55914.53
584.889	56098.93
585.249	55904.82
585.609	55826.85
585.969	56090.35
586.329	55870.47
586.688	56016.9
587.048	55944.36
587.408	55980.52
587.768	55996.79
588.127	55994.76
588.487	55932.16
588.846	56155.43
589.206	55893.97
589.565	55928.32
589.925	56078.37
590.284	56092.38
590.643	56032.72
591.003	56099.39
591.362	56164.7
591.721	56067.3
592.08	56083.79
592.44	56142.55
592.799	56156.11
593.158	56152.49
593.517	56048.77
593.876	56187.07
594.235	56220.06
594.593	56173.73
594.952	56156.33
595.311	56165.6
595.67	56221.64
596.029	56313.39
596.387	56315.43
596.746	56419.38
597.104	56260.29
597.463	56263.68
597.822	56326.05
598.18	56272.94
598.538	56291.47
598.897	56468.42
599.255	56283.34
599.613	56552.48
599.972	56431.81
600.33	56514.29
600.688	56423.22
601.046	56470
601.404	56726.04
601.762	56590.45
602.12	56711.12
602.478	56707.96
602.836	56823.44
603.194	56659.6
603.552	56703.21
603.91	56660.05
604.268	56812.81
604.625	56780.72
604.983	56989.53
605.341	56783.44
605.698	56990.89
606.056	57111.79
606.413	56893.72
606.771	57157.44
607.128	57072.02
607.485	57010.32
607.843	57134.84
608.2	57201.73
608.557	57309.3
608.914	57267.49
609.272	57297.32
609.629	57450.76
609.986	57479.46
610.343	57449.41
610.7	57657.99
611.057	57589.52
611.414	57533.7
611.771	57662.96
612.127	57711.1
612.484	57728.5
612.841	57771.66
613.198	57718.78
613.554	57742.73
613.911	57911.54
614.267	57955.16
614.624	57901.6
614.98	58030.18
615.337	58168.94
615.693	58121.48
616.05	58156.73
616.406	58251.42
616.762	58183.63
617.118	58270.85
617.475	58245.32
617.831	58361.47
618.187	58355.82
618.543	58385.2
618.899	58507.23
619.255	58440.34
619.611	58454.58
619.967	58570.73
620.323	58653.44
620.678	58540.23
621.034	58591.52
621.39	58528.48
621.746	58632.43
622.101	58902.02
622.457	58608.93
622.812	58759.88
623.168	58847.79
623.523	58793.78
623.879	58895.7
624.234	58799.65
624.589	58857.05
624.945	58887.79
625.3	58938.86
625.655	58937.96
626.01	58884.4
626.365	58937.05
626.72	58961.46
627.075	58855.92
627.43	58912.65
627.785	58954.23
628.14	58941.57
628.495	58899.09
628.85	59000.1
629.205	58860.22
629.559	58970.27
629.914	58951.74
630.269	58939.54
630.623	58783.61
630.978	58776.83
631.332	58888.01
631.687	58890.95
632.041	58792.42
632.396	58882.14
632.75	58749.94
633.104	58858.64
633.459	58773.67
633.813	58700.67
634.167	58693.67
634.521	58760.11
634.875	58752.42
635.229	58601.02
635.583	58556.72
635.937	58548.81
636.291	58557.17
636.645	58539.77
636.999	58427.46
637.352	58522.6
637.706	58398.54
638.06	58468.82
638.413	58374.58
638.767	58372.32
639.121	58343.4
639.474	58282.15
639.828	58290.74
640.181	58276.05
640.534	58355.6
640.888	58214.36
641.241	58149.05
641.594	58205.55
641.947	58205.55
642.301	58130.07
642.654	58147.02
643.007	58001.26
643.36	58154.02
643.713	58039.45
644.066	58143.17
644.419	57968.49
644.771	57742.96
645.124	57470.42
645.477	57489.41
645.83	57283.31
646.182	57246.7
646.535	57196.76
646.888	57371.44
647.24	57256.19
647.593	57394.49
647.945	57193.14
648.298	57173.03
648.65	57023.66
649.002	56912.47
649.355	56900.27
649.707	56875.64
650.059	56879.93
650.411	57224.1
650.763	57254.61
651.115	57634.71
651.467	57552.91
651.819	57541.61
652.171	57442.85
652.523	57442.18
652.875	57457.32
653.227	57279.92
653.578	57486.92
653.93	57396.53
654.282	57313.59
654.633	57255.51
654.985	57298
655.337	57301.39
655.688	57248.06
656.039	57311.56
656.391	57154.05
656.742	57154.73
657.094	57133.26
657.445	57126.93
657.796	57105.46
658.147	57011.68
658.498	57087.61
658.849	57103.2
659.2	57039.25
659.551	56920.61
659.902	57147.72
660.253	56835.19
660.604	57102.98
660.955	56902.3
661.306	57067.5
661.656	56955.64
662.007	56946.6
662.358	56976.2
662.708	56958.12
663.059	56855.98
663.409	56720.61
663.76	56842.87
664.11	56860.95
664.461	56861.63
664.811	56798.8
665.161	56792.25
665.511	56795.41
665.862	56782.31
666.212	56829.76
666.562	56794.51
666.912	56733.95
667.262	56632.93
667.612	56721.52
667.962	56768.52
668.312	56666.38
668.662	56819.82
669.011	56725.36
669.361	56655.3
669.711	56710.9
670.06	56668.86
670.41	56585.02
670.76	56561.52
671.109	56627.96
671.459	56633.16
671.808	56595.19
672.157	56603.78
672.507	56460.73
672.856	56508.87
673.205	56512.26
673.554	56575.08
673.904	56453.28
674.253	56684.23
674.602	56458.25
674.951	56107.3
675.3	56004.25
675.649	56469.32
675.998	56428.87
676.346	56475.65
676.695	56450.79
677.044	56278.59
677.393	56421.19
677.741	56395.88
678.09	56402.43
678.438	56373.5
678.787	56408.76
679.135	56389.32
679.484	56213.06
679.832	56321.53
680.181	56262.77
680.529	56162.21
680.877	56185.03
681.225	56149.55
681.573	56359.27
681.922	56217.58
682.27	56140.29
682.618	56121.31
682.966	56119.95
683.314	56057.58
683.661	56048.09
684.009	55942.1
684.357	55888.32
684.705	55891.71
685.053	55957.24
685.4	55773.29
685.748	55820.07
686.095	55818.04
686.443	55636.8
686.79	55736.01
687.138	55715.67
687.485	55670.47
687.832	55582.34
688.18	55640.87
688.527	55492.85
688.874	55455.56
689.221	55402.46
689.568	55381.67
689.915	55371.5
690.262	55380.54
690.609	55303.48
690.956	55154.78
691.303	55127.21
691.65	55013.54
691.997	54997.27
692.344	54962.69
692.69	54821
693.037	54906.88
693.383	54639.76
693.73	54705.52
694.077	54559.09
694.423	54543.27
694.769	54545.3
695.116	54527.68
695.462	54417.62
695.808	54317.96
696.155	54445.19
696.501	54178.76
696.847	54272.77
697.193	54108.93
697.539	54122.49
697.885	53897.18
698.231	53810.63
698.577	53863.29
698.923	53802.72
699.269	53673.46
699.614	53549.17
699.96	53390.76
700.306	53511.43
700.651	53346.01
700.997	53239.12
701.342	53166.81
701.688	53174.04
702.033	53146.02
702.379	53047.49
702.724	52947.15
703.069	52966.36
703.415	52683.43
703.76	52682.75
704.105	52663.32
704.45	52593.94
704.795	52533.83
705.14	52395.76
705.485	52417.22
705.83	52192.6
706.175	52406.15
706.52	52257.23
706.865	52069.44
707.209	51980.17
707.554	51928.87
707.899	51847.07
708.243	51780.63
708.588	51778.82
708.932	51521.65
709.277	51704.25
709.621	51530.02
709.966	51348.32
710.31	51406.18
710.654	51243.24
710.998	51245.05
711.342	51296.8
711.687	51065.17
712.031	51012.97
712.375	50892.52
712.719	50847.1
713.063	50774.33
713.407	51011.61
713.75	50713.77
714.094	50659.98
714.438	50471.29
714.782	50633.99
715.125	50330.72
715.469	50749.92
715.812	50242.14
716.156	50237.85
716.499	50203.04
716.843	50228.35
717.186	50032.43
717.53	50158.98
717.873	50098.41
718.216	50085.31
718.559	49923.5
718.902	49438.32
719.246	49563.06
719.589	49649.61
719.932	49373.46
720.275	49493.68
720.617	49427.02
720.96	49276.29
721.303	49304.08
721.646	49396.29
721.989	49018.22
722.331	49170.53
722.674	49079.23
723.016	49080.14
723.359	48906.81
723.701	48869.97
724.044	48789.75
724.386	48541.39
724.729	48733.93
725.071	48585.23
725.413	48525.57
725.755	48577.32
726.097	48449.42
726.439	48208.29
726.782	48225.02
727.124	48420.94
727.465	48224.11
727.807	48128.75
728.149	48160.84
728.491	48014.63
728.833	48093.95
729.175	48037.23
729.516	47866.83
729.858	47782.09
730.199	47951.58
730.541	47778.7
730.882	47688.99
731.224	47763.33
731.565	47503.23
731.906	47628.42
732.248	47669.33
732.589	47431.37
732.93	47279.28
733.271	47323.35
733.612	47395.66
733.953	47357.02
734.294	47317.92
734.635	47216.91
734.976	47288.77
735.317	47039.74
735.658	47107.31
735.999	46931.94
736.339	46950.7
736.68	47038.61
737.021	46777.6
737.361	46635.68
737.702	46872.74
738.042	46824.15
738.383	46788.44
738.723	46839.29
739.063	46534.67
739.404	46820.53
739.744	46561.11
740.084	46446.31
740.424	46507.1
740.764	46413.09
741.104	46584.16
741.444	46376.7
741.784	46146.2
742.124	46293.77
742.464	46166.09
742.804	46160.89
743.143	46065.07
743.483	46167.67
743.823	45874.12
744.162	45859.2
744.502	45953.89
744.841	45853.33
745.181	46010.61
745.52	45682.94
745.86	45775.14
746.199	45717.29
746.538	45656.05
746.877	45667.12
747.216	45513.22
747.556	45412.44
747.895	45496.5
748.234	45282.72
748.573	45233.23
748.911	45321.59
749.25	45173.8
749.589	44916.63
749.928	45016.74
750.267	45000.24
750.605	44906.46
750.944	44830.76
751.283	44783.75
751.621	44887.25
751.96	44634.83
752.298	44413.37
752.636	44573.81
752.975	44428.51
753.313	44326.14
753.651	44475.74
753.989	44334.95
754.327	44242.07
754.666	43975.64
755.004	43984
755.342	44015.86
755.679	43972.25
756.017	43611.81
756.355	43786.49
756.693	43635.99
757.031	43737.45
757.368	43471.7
757.706	43423.56
758.044	43487.51
758.381	43228.99
758.719	43051.59
759.056	43158.03
759.394	42929.79
759.731	42633.3
760.068	42777.02
760.405	42589.91
760.743	42520.53
761.08	42529.12
761.417	42353.76
761.754	42306.3
762.091	42212.97
762.428	41911.06
762.765	41931.4
763.102	41855.47
763.438	41768.69
763.775	41433.78
764.112	41371.64
764.449	41547.9
764.785	41405.31
765.122	41015.04
765.458	40913.8
765.795	40786.34
766.131	40948.15
766.467	40803.97
766.804	40346.58
767.14	40222.06
767.476	40096.64
767.812	40145.46
768.148	40153.37
768.485	40031.79
768.821	39686.94
769.157	39538.47
769.492	39500.27
769.828	39376.44
770.164	39079.5
770.5	38949.55
770.836	38971.25
771.171	38750.69
771.507	38663.23
771.842	38362.23
772.178	38468.66
772.513	38233.19
772.849	38019.41
773.184	38061.67
773.519	37962.01
773.855	37590.49
774.19	37632.53
774.525	37444.74
774.86	37379.88
775.195	37307.11
775.53	37046.33
775.865	36860.34
776.2	36718.88
776.535	36473.91
776.87	36423.07
777.205	36272.56
777.539	36157.99
777.874	36131.32
778.209	35772.92
778.543	35746.7
778.878	35761.16
779.212	35579.47
779.547	35297.22
779.881	35312.81
780.215	35131.58
780.55	35206.6
780.884	34907.18
781.218	34802.77
781.552	34831.02
781.886	34555.77
782.22	34390.58
782.554	34276.23
782.888	33993.53
783.222	34022.45
783.556	33761.67
783.889	33696.13
784.223	33470.15
784.557	33507.21
784.89	33608.23
785.224	33337.27
785.557	33101.35
785.891	33012.08
786.224	32931.63
786.558	32916.72
786.891	32635.37
787.224	32414.13
787.557	32328.71
787.891	32365.1
788.224	32116.51
788.557	32181.6
788.89	32135.72
789.223	31946.12
789.556	31746.58
789.888	31681.72
790.221	31532.8
790.554	31288.97
790.887	31333.71
791.219	31235.41
791.552	31250.77
791.884	31055.53
792.217	30852.82
792.549	30753.16
792.882	30500.06
793.214	30505.48
793.546	30624.12
793.879	30347.52
794.211	30108.88
794.543	30318.82
794.875	30162.44
795.207	30024.14
795.539	29983.24
795.871	30004.93
796.203	29623.92
796.535	29488.56
796.867	29524.04
797.198	29376.25
797.53	29289.02
797.862	29021.45
798.193	29154.11
798.525	29061.45
798.856	29066.2
799.188	28688.81
799.519	28644.06
799.85	28537.63
800.182	28576.49
800.513	28568.58
800.844	28193.45
801.175	28367.91
801.506	28385.54
801.837	28101.7
802.168	28102.16
802.499	28060.12
802.83	27774.93
803.161	27631.21
803.491	27707.14
803.822	27820.58
804.153	27622.85
804.483	27416.3
804.814	27151.67
805.145	27331.78
805.475	27310.76
805.805	27266.02
806.136	27106.7
806.466	26928.85
806.796	26961.85
807.126	26752.14
807.457	26842.53
807.787	26639.37
808.117	26617
808.447	26428.08
808.777	26570.22
809.107	26357.8
809.436	26195.99
809.766	26247.97
810.096	26270.11
810.426	26061.31
810.755	26343.33
811.085	26059.05
811.414	26071.02
811.744	25946.28
812.073	25932.95
812.403	25768.43
812.732	25626.74
813.061	25765.27
813.39	25435.33
813.719	25465.16
814.049	25650.02
814.378	25605.5
814.707	25434.43
815.036	25404.37
815.365	25236.47
815.693	25032.18
816.022	25041.22
816.351	25072.63
816.68	24875.57
817.008	24900.66
817.337	24597.39
817.665	24748.8
817.994	24743.83
818.322	24916.03
818.651	24750.83
818.979	24640.55
819.307	24608.24
819.636	24550.61
819.964	24408.92
820.292	24463.16
820.62	24394.01
820.948	24360.33
821.276	24548.13
821.604	24382.48
821.932	24525.08
822.259	24434
822.587	24427.68
822.915	24325.76
823.243	24471.52
823.57	24223.39
823.898	24437.62
824.225	24384.97
824.553	24354.46
824.88	24319.21
825.207	24424.29
825.535	24340.22
825.862	24467
826.189	24315.14
826.516	24581.12
826.843	24502.93
827.17	24493.21
827.497	24515.13
827.824	24512.65
828.151	24568.24
828.478	24350.62
828.805	24529.37
829.131	24387.45
829.458	24478.75
829.785	24287.79
830.111	24365.08
830.438	24524.62
830.764	24370.5
831.09	24516.26
831.417	24311.07
831.743	24422.93
832.069	24423.84
832.395	24292.77
832.722	24335.02
833.048	24267
833.374	24375.25
833.7	24155.37
834.026	24336.83
834.351	24334.35
834.677	24265.2
835.003	24171.86
835.329	24248.92
835.654	24181.13
835.98	24030.63
836.306	24240.34
836.631	24090.96
836.956	24203.5
837.282	24082.38
837.607	23960.8
837.932	24011.19
838.258	23912.89
838.583	23890.74
838.908	23841.7
839.233	23838.31
839.558	23684.19
839.883	23715.38
840.208	23526.23
840.533	23685.55
840.858	23654.36
841.182	23577.98
841.507	23583.86
841.832	23406.01
842.156	23482.39
842.481	23442.62
842.805	23305.22
843.13	23199.69
843.454	23361.26
843.778	23240.82
844.103	23112.91
844.427	23065
844.751	23067.94
845.075	23055.06
845.399	22902.97
845.723	22873.14
846.047	22895.29
846.371	22771.9
846.695	22590.66
847.019	22552.47
847.343	22335.98
847.666	22317.22
847.99	22263.44
848.313	22030.9
848.637	21998.14
848.96	22055.76
849.284	22030
849.607	21849.21
849.931	21899.16
850.254	21634.53
850.577	21413.74
850.9	21348.89
851.223	21413.74
851.546	21210.13
851.869	21121.55
852.192	21268.21
852.515	21074.09
852.838	20960.42
853.161	20942.57
853.483	20756.59
853.806	20791.39
854.129	20685.4
854.451	20713.88
854.774	20442.47
855.096	20538.51
855.419	20387.33
855.741	20295.13
856.063	20200.9
856.385	20188.47
856.708	20157.51
857.03	20133.1
857.352	19988.7
857.674	20082.03
857.996	19962.71
858.318	19830.28
858.64	19896.27
858.961	19775.82
859.283	19641.59
859.605	19489.73
859.926	19592.55
860.248	19511.2
860.57	19447.47
860.891	19390.75
861.212	19361.37
861.534	19331.77
861.855	19228.49
862.176	19299.45
862.498	19334.93
862.819	19283.18
863.14	19158.44
863.461	19022.4
863.782	19028.04
864.103	18960.02
864.424	18979.01
864.745	19016.97
865.065	18888.16
865.386	18828.73
865.707	18879.12
866.027	18870.31
866.348	18733.82
866.668	18759.13
866.989	18652.46
867.309	18704.89
867.63	18685
867.95	18682.74
868.27	18637.55
868.59	18601.62
868.91	18474.16
869.23	18563.65
869.55	18480.04
869.87	18495.86
870.19	18467.83
870.51	18348.74
870.83	18444.56
871.15	18274.39
871.469	18227.39
871.789	18350.1
872.109	18295.18
872.428	18207.28
872.748	18209.31
873.067	18113.27
873.386	18199.37
873.706	18070.78
874.025	18020.84
874.344	18019.94
874.663	17976.1
874.982	17956.21
875.301	17946.27
875.62	17778.81
875.939	17883.67
876.258	17832.14
876.577	17788.08
876.896	17807.51
877.214	17708.98
877.533	17742.65
877.852	17694.75
878.17	17735.65
878.489	17735.42
878.807	17637.12
879.125	17715.76
879.444	17525.71
879.762	17542.43
880.08	17590.79
880.398	17468.31
880.716	17554.19
881.034	17465.6
881.352	17358.71
881.67	17242.78
881.988	17360.97
882.306	17332.5
882.624	17243.23
882.941	17124.37
883.259	17187.19
883.577	17140.64
883.894	16976.12
884.212	17044.82
884.529	16920.53
884.846	16914.65
885.164	16863.81
885.481	16767.09
885.798	16776.35
886.115	16702.91
886.432	16769.8
886.75	16836.01
887.067	16806.63
887.383	16720.08
887.7	16542.91
888.017	16520.77
888.334	16489.35
888.651	16461.56
888.967	16465.4
889.284	16330.94
889.6	16213.43
889.917	16259.3
890.233	16224.05
890.55	16230.6
890.866	16115.35
891.182	16103.15
891.498	16066.09
891.815	15921.01
892.131	15981.8
892.447	15970.5
892.763	15856.83
893.079	15874
893.395	15772.76
893.71	15678.3
894.026	15655.48
894.342	15533.67
894.657	15485.54
894.973	15514.01
895.289	15476.05
895.604	15520.57
895.92	15378.42
896.235	15365.77
896.55	15286.9
896.865	15140.92
897.181	15207.58
897.496	15162.61
897.811	15087.36
898.126	15045.32
898.441	15003.07
898.756	14923.97
899.071	14777.76
899.386	14813.01
899.7	14699.8
900.015	14681.49
900.33	14563.53
900.644	14586.35
900.959	14590.2
901.273	14520.37
901.588	14492.57
901.902	14352.69
902.216	14326.25
902.531	14288.73
902.845	14269.53
903.159	14099.13
903.473	14089.19
903.787	14004.45
904.101	13996.54
904.415	14002.41
904.729	14035.63
905.042	13810.33
905.356	13852.36
905.67	13756.77
905.984	13750.67
906.297	13643.78
906.611	13597.91
906.924	13537.34
907.237	13522.43
907.551	13559.94
907.864	13472.26
908.177	13378.48
908.491	13395.2
908.804	13243.34
909.117	13097.35
909.43	13092.61
909.743	13023.46
910.056	13048.54
910.368	13055.77
910.681	12997.92
910.994	12872.05
911.307	12849.45
911.619	12727.42
911.932	12660.98
912.244	12590.93
912.557	12631.15
912.869	12468.44
913.181	12545.5
913.494	12564.94
913.806	12441.33
914.118	12395
914.43	12387.09
914.742	12256.02
915.054	12189.35
915.366	12202.46
915.678	12083.59
915.99	12136.7
916.302	11938.97
916.613	11943.49
916.925	11998.4
917.236	11866.65
917.548	11792.98
917.859	11833.21
918.171	11751.4
918.482	11703.94
918.794	11616.49
919.105	11567.22
919.416	11509.37
919.727	11483.16
920.038	11481.12
920.349	11448.58
920.66	11324.52
920.971	11293.78
921.282	11276.84
921.593	11159.55
921.903	11112.09
922.214	11085.65
922.525	11073
922.835	11048.59
923.146	10935.38
923.456	10943.51
923.767	10772.22
924.077	10819.67
924.387	10802.95
924.697	10716.85
925.008	10676.4
925.318	10575.61
925.628	10613.35
925.938	10535.61
926.248	10512.11
926.558	10385.79
926.867	10363.41
927.177	10394.15
927.487	10282.74
927.796	10317.31
928.106	10209.07
928.416	10167.03
928.725	10113.7
929.034	10092.01
929.344	10103.99
929.653	10028.06
929.962	10000.03
930.271	9854.95
930.581	9838.68
930.89	9809.53
931.199	9811.34
931.508	9703.09
931.817	9757.1
932.125	9698.8
932.434	9651.79
932.743	9563.89
933.051	9582.87
933.36	9484.79
933.669	9425.81
933.977	9370.22
934.286	9417.22
934.594	9348.98
934.902	9311.69
935.21	9297.91
935.519	9250.67
935.827	9223.33
936.135	9154.86
936.443	9060.4
936.751	9014.75
937.059	9051.58
937.367	8931.36
937.674	9010.23
937.982	8936.11
938.29	8864.02
938.597	8841.87
938.905	8820.18
939.213	8797.35
939.52	8725.04
939.827	8757.58
940.135	8647.3
940.442	8600.75
940.749	8548.77
941.056	8617.02
941.363	8478.04
941.67	8437.14
941.977	8435.1
942.284	8361.66
942.591	8328.21
942.898	8326.86
943.205	8307.2
943.511	8181.32
943.818	8201.21
944.125	8165.05
944.431	8063.14
944.738	8103.13
945.044	8088.45
945.35	7992.4
945.657	7903.37
945.963	7977.49
946.269	7846.42
946.575	7845.97
946.881	7801.45
947.187	7879.64
947.493	7816.81
947.799	7781.56
948.105	7711.28
948.41	7645.07
948.716	7648.91
949.022	7569.82
949.327	7574.56
949.633	7443.26
949.938	7474.9
950.244	7499.08
950.549	7404.62
950.854	7352.87
951.16	7328.47
951.465	7300.22
951.77	7211.41
952.075	7297.28
952.38	7218.41
952.685	7226.77
952.99	7111.75
953.294	7148.36
953.599	7109.71
953.904	7097.51
954.209	7027.91
954.513	6978.87
954.818	6998.98
955.122	6979.77
955.426	6928.48
955.731	6901.58
956.035	6849.16
956.339	6804.86
956.643	6827.46
956.948	6763.28
957.252	6747.24
957.556	6713.57
957.86	6693
958.163	6674.25
958.467	6636.73
958.771	6626.34
959.075	6576.62
959.378	6549.5
959.682	6520.8
959.985	6453.69
960.289	6420.24
960.592	6439.45
960.896	6396.96
961.199	6340.02
961.502	6326.23
961.805	6316.97
962.108	6259.57
962.411	6237.87
962.714	6205.11
963.017	6208.95
963.32	6192.9
963.623	6117.88
963.926	6135.28
964.228	6079.91
964.531	6087.37
964.833	6098.67
965.136	6017.54
965.438	5954.49
965.741	5927.6
966.043	5905.9
966.345	5833.36
966.648	5843.98
966.95	5851.22
967.252	5778.45
967.554	5766.92
967.856	5748.85
968.158	5721.73
968.46	5712.91
968.761	5706.14
969.063	5658
969.365	5616.42
969.666	5611.67
969.968	5486.25
970.269	5512.24
970.571	5461.62
970.872	5517.67
971.174	5477.67
971.475	5442.19
971.776	5393.38
972.077	5373.49
972.378	5342.98
972.679	5376.2
972.98	5335.07
973.281	5307.05
973.582	5307.95
973.883	5268.41
974.183	5247.16
974.484	5167.62
974.785	5153.16
975.085	5100.28
975.386	5171.23
975.686	5153.38
975.986	5113.83
976.287	5037.23
976.587	5054.85
976.887	4971.01
977.187	5001.97
977.487	4950.22
977.787	4933.05
978.087	4877.23
978.387	4888.53
978.687	4881.07
978.987	4834.52
979.286	4811.7
979.586	4837.46
979.885	4803.33
980.185	4761.98
980.484	4727.4
980.784	4670
981.083	4679.5
981.382	4689.66
981.682	4604.7
981.981	4655.77
982.28	4594.53
982.579	4594.75
982.878	4579.61
983.177	4573.51
983.475	4534.64
983.774	4466.39
984.073	4475.66
984.372	4443.34
984.67	4414.87
984.969	4461.2
985.267	4437.47
985.566	4416
985.864	4352.95
986.162	4346.4
986.461	4323.57
986.759	4293.29
987.057	4252.39
987.355	4249.9
987.653	4195.44
987.951	4208.55
988.249	4191.37
988.547	4149.79
988.844	4141.2
989.142	4153.63
989.44	4130.36
989.737	4133.52
990.035	4079.06
990.332	4049.91
990.63	4066.18
990.927	4005.39
991.224	4009.91
991.521	3996.8
991.819	3959.74
992.116	3915.22
992.413	3938.27
992.71	3901.66
993.006	3908.44
993.303	3900.98
993.6	3864.83
993.897	3799.74
994.193	3819.86
994.49	3817.37
994.787	3760.65
995.083	3743.25
995.379	3721.1
995.676	3698.73
995.972	3657.38
996.268	3702.12
996.565	3630.26
996.861	3686.75
997.157	3610.82
997.453	3590.03
997.749	3600.2
998.044	3548.23
998.34	3566.98
998.636	3540.09
998.932	3516.59
999.227	3468.23
999.523	3474.78
999.818	3432.97
1000.114	3434.33
1000.409	3398.17
1000.704	3407.66
1001	3388.91
1001.295	3307.33
1001.59	3341.23
1001.885	3315.24
1002.18	3276.82
1002.475	3305.29
1002.77	3280.44
1003.065	3220.1
1003.359	3231.62
1003.654	3208.57
1003.949	3194.56
1004.243	3161.34
1004.538	3167.22
1004.832	3142.13
1005.127	3125.41
1005.421	3108.69
1005.715	3061.46
1006.009	3094.9
1006.304	3029.14
1006.598	3017.84
1006.892	3021.23
1007.186	2972.65
1007.48	2963.38
1007.773	2949.6
1008.067	2936.49
1008.361	2914.8
1008.655	2892.42
1008.948	2897.4
1009.242	2888.13
1009.535	2836.83
1009.829	2796.83
1010.122	2841.13
1010.415	2784.4
1010.708	2801.13
1011.001	2791.64
1011.295	2706.89
1011.588	2742.82
1011.881	2704.41
1012.173	2656.5
1012.466	2662.83
1012.759	2672.99
1013.052	2698.98
1013.344	2620.11
1013.637	2618.31
1013.93	2602.26
1014.222	2577.4
1014.514	2582.15
1014.807	2573.34
1015.099	2527.69
1015.391	2506.45
1015.683	2471.42
1015.976	2508.48
1016.268	2453.11
1016.56	2465.54
1016.851	2432.55
1017.143	2409.27
1017.435	2393.91
1017.727	2397.07
1018.018	2386
1018.31	2381.93
1018.602	2350.07
1018.893	2316.39
1019.185	2320.69
1019.476	2311.87
1019.767	2254.25
1020.058	2260.8
1020.35	2235.94
1020.641	2219.9
1020.932	2202.5
1021.223	2180.35
1021.514	2187.58
1021.804	2181.48
1022.095	2150.75
1022.386	2123.63
1022.677	2130.64
1022.967	2083.18
1023.258	2078.21
1023.548	2076.4
1023.839	2062.16
1024.129	2065.78
1024.419	2032.33
1024.709	2011.54
1025	2010.41
1025.29	1988.72
1025.58	2010.19
1025.87	1965.89
1026.16	1967.7
1026.449	1940.58
1026.739	1927.7
1027.029	1913.24
1027.319	1868.95
1027.608	1887.93
1027.898	1865.56
1028.187	1866.01
1028.477	1851.1
1028.766	1847.48
1029.055	1845.22
1029.344	1810.42
1029.634	1814.03
1029.923	1783.53
1030.212	1744.43
1030.501	1722.29
1030.79	1728.61
1031.078	1707.6
1031.367	1710.08
1031.656	1721.83
1031.945	1687.26
1032.233	1685.22
1032.522	1664.89
1032.81	1675.51
1033.099	1626.92
1033.387	1639.58
1033.675	1641.84
1033.963	1595.06
1034.251	1580.82
1034.54	1567.71
1034.828	1578.11
1035.116	1552.12
1035.403	1543.08
1035.691	1530.88
1035.979	1520.93
1036.267	1502.18
1036.554	1512.8
1036.842	1507.38
1037.129	1465.57
1037.417	1435.29
1037.704	1441.84
1037.992	1463.53
1038.279	1430.09
1038.566	1415.17
1038.853	1415.17
1039.14	1415.17
