Data from 100_FLMS001491_001.txt Node
Date: Thu Apr 12 17:09:31 BST 2018
User: hsy
Spectrometer: FLMS00149
Trigger mode: 0
Integration Time (sec): 1.000000E-2
Scans to average: 10
Electric dark correction enabled: true
Nonlinearity correction enabled: false
Boxcar width: 0
XAxis mode: Wavelengths
Number of Pixels in Spectrum: 2048
>>>>>Begin Spectral Data<<<<<
341.393	-6.84
341.776	-6.84
342.16	-6.84
342.543	-68.53
342.927	-71.69
343.31	-76.66
343.693	-51.35
344.077	-72.37
344.46	-59.94
344.843	-58.81
345.226	-47.51
345.61	-33.95
345.993	-33.95
346.376	-11.36
346.759	39.72
347.142	33.16
347.525	39.94
347.908	56.89
348.291	86.27
348.674	74.07
349.057	115.87
349.44	134.86
349.823	139.15
350.206	170.11
350.588	232.93
350.971	245.59
351.354	258.69
351.737	274.51
352.119	307.28
352.502	283.55
352.884	317.68
353.267	318.81
353.65	326.26
354.032	344.57
354.414	348.86
354.797	349.31
355.179	356.09
355.562	359.48
355.944	368.97
356.326	366.94
356.709	381.63
357.091	377.11
357.473	401.06
357.855	380.72
358.238	396.32
358.62	399.03
359.002	363.32
359.384	378.46
359.766	381.85
360.148	369.65
360.53	373.04
360.912	365.58
361.294	399.26
361.676	393.38
362.057	400.61
362.439	381.63
362.821	391.12
363.203	397.22
363.584	371.69
363.966	364.45
364.348	378.92
364.729	378.24
365.111	333.95
365.493	370.1
365.874	359.48
366.256	363.78
366.637	353.15
367.019	368.52
367.4	382.98
367.781	369.88
368.163	367.39
368.544	380.95
368.925	357.45
369.306	376.43
369.688	375.3
370.069	396.32
370.45	385.24
370.831	378.24
371.212	366.94
371.593	384.79
371.974	376.43
372.355	371.46
372.736	371.23
373.117	391.57
373.498	402.42
373.879	383.44
374.26	375.3
374.641	380.05
375.021	375.75
375.402	393.15
375.783	413.27
376.163	393.15
376.544	403.32
376.925	369.43
377.305	412.36
377.686	396.32
378.066	396.54
378.447	405.36
378.827	409.2
379.208	411.91
379.588	405.81
379.968	417.11
380.349	400.84
380.729	399.48
381.109	404.9
381.489	405.13
381.87	429.99
382.25	407.16
382.63	427.95
383.01	417.79
383.39	431.12
383.77	447.16
384.15	445.36
384.53	443.55
384.91	437.67
385.29	437.45
385.67	433.15
386.049	421.85
386.429	462.3
386.809	453.04
387.189	442.19
387.568	463.66
387.948	457.78
388.328	482.87
388.707	464.79
389.087	474.51
389.466	451.91
389.846	493.26
390.225	500.04
390.605	492.13
390.984	469.31
391.363	482.19
391.743	480.83
392.122	493.26
392.501	499.37
392.881	502.76
393.26	506.6
393.639	472.47
394.018	502.98
394.397	510.66
394.776	485.81
395.155	515.18
395.534	513.83
395.913	499.37
396.292	523.55
396.671	511.12
397.05	539.36
397.429	535.52
397.808	535.3
398.186	533.71
398.565	554.28
398.944	559.93
399.323	526.94
399.701	554.28
400.08	544.56
400.458	560.83
400.837	562.19
401.215	545.24
401.594	574.17
401.972	566.93
402.351	554.28
402.729	575.3
403.107	574.17
403.486	589.31
403.864	584.33
404.242	605.13
404.62	623.88
404.999	600.15
405.377	622.98
405.755	631.11
406.133	625.69
406.511	624.33
406.889	640.15
407.267	660.04
407.645	677.89
408.023	640.83
408.401	649.42
408.779	676.99
409.156	683.09
409.534	676.76
409.912	670.43
410.29	727.38
410.667	716.76
411.045	697.55
411.422	729.42
411.8	756.31
412.178	746.14
412.555	779.36
412.933	772.13
413.31	781.84
413.687	812.8
414.065	822.97
414.442	829.98
414.819	826.59
415.197	847.38
415.574	830.2
415.951	849.86
416.328	858.45
416.705	872.91
417.082	861.39
417.46	882.86
417.837	872.91
418.214	904.1
418.591	890.32
418.967	911.33
419.344	888.51
419.721	905
420.098	925.34
420.475	922.63
420.852	966.47
421.228	933.7
421.605	963.53
421.982	990.65
422.358	976.42
422.735	983.65
423.111	977.32
423.488	1013.7
423.864	993.14
424.241	1005.79
424.617	1018.9
424.994	1018
425.37	1016.64
425.746	1018.22
426.123	1045.79
426.499	1074.04
426.875	1076.75
427.251	1064.32
427.627	1098.45
428.003	1104.32
428.379	1104.55
428.756	1137.77
429.132	1162.85
429.507	1183.87
429.883	1157.2
430.259	1191.1
430.635	1173.47
431.011	1202.85
431.387	1218.22
431.763	1251.66
432.138	1235.17
432.514	1251.89
432.89	1239.91
433.265	1295.28
433.641	1278.1
434.016	1314.94
434.392	1296.86
434.767	1340.93
435.143	1356.07
435.518	1370.3
435.894	1409.62
436.269	1375.27
436.644	1418.21
437.02	1420.02
437.395	1441.04
437.77	1457.76
438.145	1476.97
438.52	1475.38
438.895	1466.57
439.271	1502.28
439.646	1491.88
440.021	1509.51
440.395	1529.62
440.77	1507.02
441.145	1534.37
441.52	1562.39
441.895	1554.25
442.27	1551.99
442.645	1589.73
443.019	1578.21
443.394	1586.34
443.769	1608.71
444.143	1597.64
444.518	1611.43
444.892	1638.77
445.267	1635.15
445.641	1657.08
446.016	1666.11
446.39	1660.92
446.764	1656.85
447.139	1652.56
447.513	1730.97
447.887	1712.67
448.262	1716.96
448.636	1728.03
449.01	1730.29
449.384	1738.2
449.758	1777.75
450.132	1803.96
450.506	1783.4
450.88	1801.7
451.254	1796.51
451.628	1838.54
452.002	1853.91
452.376	1857.97
452.75	1904.75
453.123	1876.73
453.497	1913.57
453.871	1931.19
454.244	2024.07
454.618	2000.79
454.992	2038.53
455.365	2032.88
455.739	2098.42
456.112	2082.37
456.486	2120.79
456.859	2182.26
457.232	2197.4
457.606	2227.23
457.979	2227.68
458.352	2270.62
458.725	2266.1
459.099	2271.07
459.472	2357.62
459.845	2390.84
460.218	2389.71
460.591	2433.78
460.964	2467.9
461.337	2452.08
461.71	2485.3
462.083	2580.44
462.456	2557.16
462.829	2596.03
463.201	2599.88
463.574	2653.21
463.947	2654.34
464.32	2717.16
464.692	2729.59
465.065	2765.29
465.438	2819.53
465.81	2860.21
466.183	2876.03
466.555	2906.53
466.928	2907.44
467.3	2934.1
467.672	2973.2
468.045	3033.54
468.417	3020.2
468.789	3052.74
469.161	3117.83
469.534	3136.58
469.906	3214.77
470.278	3281.21
470.65	3286.41
471.022	3363.92
471.394	3383.81
471.766	3434.66
472.138	3468.78
472.51	3558.04
472.882	3602.56
473.253	3643.01
473.625	3672.84
473.997	3779.28
474.369	3760.75
474.74	3795.78
475.112	3938.6
475.484	3937.24
475.855	4048.88
476.227	4065.37
476.598	4211.58
476.97	4275.09
477.341	4330.45
477.713	4343.11
478.084	4454.29
478.455	4560.5
478.827	4615.64
479.198	4711.23
479.569	4758.69
479.94	4868.06
480.311	4948.06
480.682	5092.92
481.053	5218.56
481.424	5291.78
481.795	5357.54
482.166	5422.17
482.537	5582.85
482.908	5692
483.279	5810.64
483.65	5933.57
484.021	6067.58
484.391	6143.28
484.762	6181.02
485.133	6351.64
485.503	6408.59
485.874	6612.65
486.244	6786.43
486.615	6910.04
486.985	7016.71
487.356	7179.19
487.726	7284.95
488.097	7496.47
488.467	7595.68
488.837	7798.83
489.207	7949.79
489.578	8119.28
489.948	8294.64
490.318	8422.09
490.688	8606.27
491.058	8816.89
491.428	8965.81
491.798	9088.07
492.168	9373.71
492.538	9521.5
492.908	9754.49
493.278	9923.98
493.648	10062.05
494.017	10288.94
494.387	10487.8
494.757	10671.98
495.126	10871.52
495.496	11033.33
495.866	11250.04
496.235	11515.35
496.605	11757.15
496.974	11934.09
497.344	12170.02
497.713	12364.59
498.082	12592.61
498.452	12878.25
498.821	13058.36
499.19	13266.71
499.559	13524.56
499.928	13764.55
500.298	13983.3
500.667	14321.6
501.036	14456.29
501.405	14682.72
501.774	14944.18
502.143	15197.51
502.512	15400.44
502.88	15768.34
503.249	15926.3
503.618	16180.31
503.987	16392.73
504.356	16775.77
504.724	16988.65
505.093	17234.07
505.462	17502.53
505.83	17693.04
506.199	18006.25
506.567	18308.16
506.936	18516.97
507.304	18909.05
507.672	19222.04
508.041	19344.75
508.409	19671.97
508.777	19870.83
509.145	20225.63
509.514	20366.19
509.882	20703.35
510.25	20923.69
510.618	21287.97
510.986	21386.27
511.354	21762.76
511.722	22023.55
512.09	22409.07
512.458	22460.14
512.826	22852.45
513.193	23044.99
513.561	23233.68
513.929	23658.3
514.297	23887.9
514.664	24121.12
515.032	24356.82
515.4	24647.21
515.767	24852.62
516.135	25127.64
516.502	25075.44
516.869	25672.26
517.237	25975.76
517.604	25997
517.972	26349.53
518.339	26676.98
518.706	26870.42
519.073	27049.63
519.44	27300.24
519.808	27746.33
520.175	27907.01
520.542	28255.47
520.909	28489.59
521.276	28536.59
521.643	29133.87
522.009	29210.02
522.376	29568.88
522.743	29843
523.11	30132.26
523.477	30482.31
523.843	30725.24
524.21	31094.04
524.577	31421.26
524.943	31600.69
525.31	31790.07
525.676	32247.23
526.043	32479.77
526.409	32680.89
526.776	33157.72
527.142	33220.31
527.508	33480.19
527.874	33789.34
528.241	34123.79
528.607	34234.75
528.973	34622.08
529.339	34585.7
529.705	35147.72
530.071	35415.06
530.437	35637.42
530.803	35966.46
531.169	36138.43
531.535	36175.26
531.901	36373.22
532.267	36600.11
532.632	36971.85
532.998	36997.84
533.364	37312.86
533.73	37432.86
534.095	37768.89
534.461	37906.74
534.826	37999.62
535.192	38104.03
535.557	38551.47
535.923	38527.52
536.288	38840.5
536.653	39105.58
537.019	38972.25
537.384	39224.67
537.749	39403.2
538.114	39525.46
538.479	39613.82
538.845	39787.6
539.21	39779.01
539.575	39991.66
539.94	40040.92
540.305	40404.98
540.67	40446.11
541.034	40671.87
541.399	40805.65
541.764	41070.5
542.129	40987.34
542.494	41127
542.858	41299.2
543.223	41264.62
543.587	41563.82
543.952	41487.67
544.316	41726.98
544.681	41699.64
545.045	42077.03
545.41	42290.81
545.774	42070.48
546.138	42315.67
546.503	42542.55
546.867	42493.06
547.231	42966.05
547.595	43058.7
547.959	43246.04
548.324	43273.83
548.688	43387.96
549.052	43578.46
549.416	43627.5
549.779	43670.43
550.143	43937.77
550.507	44122.17
550.871	44249.18
551.235	44369.17
551.599	44700.01
551.962	44683.51
552.326	44829.05
552.689	45123.05
553.053	44831.31
553.417	44965.77
553.78	45516.71
554.143	45529.59
554.507	45638.52
554.87	45848.68
555.234	46066.53
555.597	45928.68
555.96	46173.19
556.323	46411.38
556.686	46721.2
557.05	46804.36
557.413	46958.93
557.776	47053.62
558.139	47360.05
558.502	47565.92
558.865	47550.56
559.228	47984.44
559.59	48076.19
559.953	48070.54
560.316	48624.88
560.679	48548.72
561.041	48769.28
561.404	49122.95
561.767	49245.65
562.129	49208.14
562.492	49484.97
562.854	49636.83
563.217	49671.86
563.579	49802.48
563.941	50082.24
564.304	50388.22
564.666	50637.48
565.028	50656.92
565.39	50839.96
565.753	50927.19
566.115	51125.15
566.477	51296.67
566.839	51464.13
567.201	51783.21
567.563	51673.16
567.925	51914.74
568.287	52044.22
568.648	52179.14
569.01	52336.19
569.372	52596.98
569.734	52601.95
570.095	52814.83
570.457	52973.92
570.819	53003.97
571.18	53029.51
571.542	53267.92
571.903	53315.83
572.265	53448.93
572.626	53535.94
572.987	53629.95
573.349	53761.47
573.71	53914.91
574.071	54053.21
574.432	54185.86
574.794	54335.24
575.155	54315.35
575.516	54328.46
575.877	54468.57
576.238	54520.32
576.599	54637.83
576.96	54691.16
577.32	54783.59
577.681	54803.7
578.042	54933.64
578.403	54911.95
578.763	54974.09
579.124	55044.37
579.485	55200.98
579.845	55283.01
580.206	55229.23
580.566	55284.37
580.927	55307.87
581.287	55401.2
581.648	55339.73
582.008	55410.69
582.368	55398.26
582.728	55504.47
583.089	55435.77
583.449	55506.05
583.809	55499.05
584.169	55601.42
584.529	55462.21
584.889	55754.18
585.249	55510.12
585.609	55541.08
585.969	55660.63
586.329	55566.39
586.688	55648.65
587.048	55614.75
587.408	55560.74
587.768	55618.14
588.127	55591.7
588.487	55609.1
588.846	55740.85
589.206	55556.67
589.565	55553.06
589.925	55714.41
590.284	55569.78
590.643	55609.55
591.003	55641.19
591.362	55881.64
591.721	55730
592.08	55706.73
592.44	55860.17
592.799	55773.17
593.158	55810.45
593.517	55665.15
593.876	55800.51
594.235	55700.4
594.593	55799.15
594.952	55835.54
595.311	55761.42
595.67	55863.11
596.029	55994.4
596.387	56049.54
596.746	56115.3
597.104	55852.26
597.463	55889.55
597.822	56061.97
598.18	55883.67
598.538	55988.98
598.897	56094.29
599.255	55992.6
599.613	56255.41
599.972	56097
600.33	56150.56
600.688	56073.72
601.046	56188.52
601.404	56313.27
601.762	56253.61
602.12	56417.67
602.478	56419.93
602.836	56412.25
603.194	56289.99
603.552	56452.02
603.91	56314.62
604.268	56472.36
604.625	56417.44
604.983	56546.93
605.341	56372.25
605.698	56558
606.056	56652.69
606.413	56547.16
606.771	56760.26
607.128	56805.68
607.485	56655.4
607.843	56754.61
608.2	56814.04
608.557	57010.42
608.914	56877.77
609.272	57011.78
609.629	57123.87
609.986	57168.61
610.343	57098.1
610.7	57331.77
611.057	57257.87
611.414	57110.31
611.771	57388.72
612.127	57449.51
612.484	57440.92
612.841	57551.88
613.198	57440.02
613.554	57441.15
613.911	57619.67
614.267	57649.95
614.624	57620.35
614.98	57755.04
615.337	57868.93
615.693	57831.87
616.05	57905.99
616.406	58044.74
616.762	58000
617.118	57964.3
617.475	58029.15
617.831	58146.44
618.187	58138.08
618.543	58218.53
618.899	58239.99
619.255	58269.15
619.611	58197.28
619.967	58274.57
620.323	58358.41
620.678	58287.22
621.034	58228.92
621.39	58297.85
621.746	58340.1
622.101	58594.79
622.457	58347.11
622.812	58527.44
623.168	58541
623.523	58560.66
623.879	58685.41
624.234	58502.36
624.589	58570.61
624.945	58598.18
625.3	58653.09
625.655	58647.44
626.01	58646.31
626.365	58685.86
626.72	58540.78
627.075	58574.67
627.43	58577.39
627.785	58611.06
628.14	58683.37
628.495	58656.93
628.85	58673.2
629.205	58610.83
629.559	58717.04
629.914	58617.39
630.269	58665.52
630.623	58559.99
630.978	58486.09
631.332	58653.99
631.687	58681.11
632.041	58606.09
632.396	58603.15
632.75	58590.95
633.104	58576.71
633.459	58445.86
633.813	58460.55
634.167	58470.04
634.521	58476.6
634.875	58453.32
635.229	58352.76
635.583	58218.75
635.937	58287
636.291	58281.35
636.645	58312.76
636.999	58235.02
637.352	58322.03
637.706	58131.97
638.06	58323.83
638.413	58145.53
638.767	58107.57
639.121	58154.12
639.474	58057.17
639.828	58063.73
640.181	57989.15
640.534	58123.84
640.888	58024.18
641.241	57866.44
641.594	57860.34
641.947	57983.5
642.301	57857.86
642.654	57891.75
643.007	57821.47
643.36	57894.69
643.713	57757.52
644.066	57872.77
644.419	57712.78
644.771	57428.04
645.124	57133.81
645.477	57097.2
645.83	57019.69
646.182	57015.62
646.535	56894.27
646.888	56927.94
647.24	56937.88
647.593	57091.32
647.945	56918.67
648.298	56876.87
648.65	56754.38
649.002	56606.14
649.355	56638
649.707	56543.99
650.059	56637.1
650.411	57043.64
650.763	57023.3
651.115	57346.46
651.467	57229.63
651.819	57233.01
652.171	57213.58
652.523	57146.46
652.875	57155.05
653.227	57088.61
653.578	57233.92
653.93	57119.12
654.282	57000.48
654.633	56986.47
654.985	57061.95
655.337	57079.57
655.688	56934.27
656.039	57056.52
656.391	56769.3
656.742	56943.31
657.094	56846.13
657.445	56869.18
657.796	56927.03
658.147	56839.8
658.498	56885.45
658.849	56790.54
659.2	56767.94
659.551	56690.88
659.902	56882.97
660.253	56690.88
660.604	56786.02
660.955	56720.94
661.306	56799.58
661.656	56661.28
662.007	56682.75
662.358	56646.36
662.708	56697.89
663.059	56647.04
663.409	56535.63
663.76	56648.85
664.11	56641.84
664.461	56605.91
664.811	56675.74
665.161	56682.75
665.511	56550.77
665.862	56592.81
666.212	56557.1
666.562	56566.59
666.912	56578.34
667.262	56397.78
667.612	56428.97
667.962	56518.46
668.312	56418.12
668.662	56560.49
669.011	56516.65
669.361	56375.86
669.711	56434.84
670.06	56374.96
670.41	56367.27
670.76	56318.46
671.109	56421.51
671.459	56387.84
671.808	56322.76
672.157	56404.56
672.507	56249.99
672.856	56246.37
673.205	56294.06
673.554	56352.59
673.904	56245.24
674.253	56489.76
674.602	56283.21
674.951	55895.2
675.3	55734.75
675.649	56235.53
675.998	56176.09
676.346	56217.22
676.695	56257
677.044	56113.95
677.393	56195.08
677.741	56249.54
678.09	56217.22
678.438	56057.45
678.787	56142.2
679.135	56119.82
679.484	55989.21
679.832	56082.31
680.181	56004.8
680.529	55980.39
680.877	56016.32
681.225	55901.3
681.573	56156.89
681.922	55911.69
682.27	55834.63
682.618	55916.44
682.966	55856.33
683.314	55827.4
683.661	55819.72
684.009	55716.22
684.357	55711.7
684.705	55591.02
685.053	55720.51
685.4	55573.4
685.748	55516.9
686.095	55534.08
686.443	55340.18
686.79	55382.22
687.138	55505.83
687.485	55408.88
687.832	55286.4
688.18	55333.86
688.527	55253.18
688.874	55253.63
689.221	55158.04
689.568	55090.7
689.915	55014.77
690.262	55011.83
690.609	54949.23
690.956	54830.59
691.303	54941.78
691.65	54858.61
691.997	54840.54
692.344	54590.6
692.69	54676.25
693.037	54709.92
693.383	54357.38
693.73	54614.78
694.077	54275.13
694.423	54332.53
694.769	54255.92
695.116	54288.69
695.462	54153.1
695.808	54036.26
696.155	54083.27
696.501	53843.73
696.847	53967.79
697.193	53753.78
697.539	53782.26
697.885	53579.33
698.231	53479.22
698.577	53591.08
698.923	53528.48
699.269	53276.96
699.614	53274.93
699.96	53138.89
700.306	53165.33
700.651	53062.5
700.997	52973.47
701.342	52959
701.688	52902.06
702.033	52812.11
702.379	52822.96
702.724	52697.31
703.069	52750.19
703.415	52528.28
703.76	52443.99
704.105	52374.39
704.45	52398.34
704.795	52162.19
705.14	52100.72
705.485	52210.32
705.83	51891.23
706.175	52137.33
706.52	51830.22
706.865	51733.95
707.209	51654.4
707.554	51607.17
707.899	51612.6
708.243	51455.77
708.588	51435.88
708.932	51240.4
709.277	51257.8
709.621	51186.39
709.966	51021.43
710.31	51008.32
710.654	50830.7
710.998	50788.21
711.342	50818.27
711.687	50769.91
712.031	50618.5
712.375	50570.14
712.719	50502.8
713.063	50468.22
713.407	50480.65
713.75	50314.1
714.094	50335.8
714.438	50213.76
714.782	50127.67
715.125	49984.39
715.469	50174.67
715.812	49828.92
716.156	49807
716.499	49855.58
716.843	49759.99
717.186	49636.15
717.53	49838.86
717.873	49628.02
718.216	49561.58
718.559	49442.26
718.902	49155.94
719.246	49198.42
719.589	49155.94
719.932	49037.3
720.275	49097.41
720.617	49018.54
720.96	49007.92
721.303	48868.94
721.646	48895.83
721.989	48732.45
722.331	48756.85
722.674	48726.12
723.016	48520.93
723.359	48568.61
723.701	48657.87
724.044	48379.69
724.386	48240.71
724.729	48401.83
725.071	48317.32
725.413	48227.83
725.755	48168.17
726.097	48082.07
726.439	47866.93
726.782	47941.06
727.124	48107.83
727.465	47847.5
727.807	47771.12
728.149	47765.92
728.491	47620.39
728.833	47776.54
729.175	47658.13
729.516	47485.02
729.858	47551.24
730.199	47612.93
730.541	47488.86
730.882	47309.66
731.224	47396.21
731.565	47077.8
731.906	47247.74
732.248	47114.41
732.589	46909.9
732.93	46857.24
733.271	46999.84
733.612	46876.23
733.953	47024.47
734.294	46797.58
734.635	46724.59
734.976	46839.39
735.317	46664.03
735.658	46627.19
735.999	46446.41
736.339	46604.37
736.68	46536.8
737.021	46404.83
737.361	46402.11
737.702	46542.9
738.042	46282.34
738.383	46303.58
738.723	46376.35
739.063	46088.45
739.404	46218.39
739.744	46089.35
740.084	45980.43
740.424	46056.59
740.764	45997.6
741.104	46116.02
741.444	45811.62
741.784	45691.62
742.124	45879.64
742.464	45913.54
742.804	45770.27
743.143	45597.61
743.483	45684.39
743.823	45521.91
744.162	45378.64
744.502	45494.79
744.841	45341.35
745.181	45433.55
745.52	45334.34
745.86	45460.44
746.199	45112.66
746.538	45261.13
746.877	45223.84
747.216	45172.99
747.556	45003.05
747.895	45145.88
748.234	44963.73
748.573	44953.34
748.911	44843.51
749.25	44735.04
749.589	44578.21
749.928	44698.2
750.267	44697.53
750.605	44516.74
750.944	44620.69
751.283	44392.22
751.621	44474.03
751.96	44132.34
752.298	44193.81
752.636	44284.2
752.975	44130.76
753.313	44013.02
753.651	44061.16
753.989	43796.76
754.327	43888.28
754.666	43514.51
755.004	43697.78
755.342	43627.5
755.679	43555.41
756.017	43386.83
756.355	43497.56
756.693	43231.35
757.031	43320.39
757.368	43080.17
757.706	42872.94
758.044	42875.2
758.381	42767.41
758.719	42622.33
759.056	42732.61
759.394	42604.25
759.731	42215.33
760.068	42202.68
760.405	42351.15
760.743	42033.64
761.08	42094.88
761.417	41773.31
761.754	41827.54
762.091	41721.56
762.428	41461.45
762.765	41385.07
763.102	41314.34
763.438	41332.19
763.775	41026.44
764.112	40966.1
764.449	40854.91
764.785	40847.91
765.122	40512.32
765.458	40419.67
765.795	40416.96
766.131	40465.09
766.467	40215.61
766.804	40038.21
767.14	39737.88
767.476	39617.21
767.812	39603.87
768.148	39642.74
768.485	39487.94
768.821	39088.86
769.157	39095.41
769.492	38972.93
769.828	38876.21
770.164	38717.12
770.5	38447.29
770.836	38488.42
771.171	38191.71
771.507	38114.87
771.842	37950.58
772.178	38032.39
772.513	37787.88
772.849	37562.8
773.184	37665.17
773.519	37392.63
773.855	37210.04
774.19	37144.28
774.525	37060.66
774.86	36857.28
775.195	36865.41
775.53	36721.92
775.865	36551.75
776.2	36195.38
776.535	36008.94
776.87	36114.93
777.205	35861.83
777.539	35728.72
777.874	35720.59
778.209	35370.31
778.543	35345.68
778.878	35179.81
779.212	35193.14
779.547	34969.65
779.881	35022.07
780.215	34697.34
780.55	34813.27
780.884	34374.86
781.218	34348.19
781.552	34555.19
781.886	34181.42
782.22	33931.93
782.554	33816.46
782.888	33602.45
783.222	33499.18
783.556	33423.02
783.889	33246.75
784.223	33061.45
784.557	33062.13
784.89	33244.72
785.224	32874.79
785.557	32732.87
785.891	32578.75
786.224	32595.47
786.558	32553.66
786.891	32438.86
787.224	32056.05
787.557	31921.36
787.891	32040.68
788.224	31777.64
788.557	31731.76
788.89	31745.55
789.223	31603.18
789.556	31456.74
789.888	31378.78
790.221	31152.12
790.554	31033.93
790.887	30978.34
791.219	30816.31
791.552	30741.96
791.884	30645.69
792.217	30495.64
792.549	30461.97
792.882	30262.88
793.214	30120.51
793.546	30145.14
793.879	29873.28
794.211	29911.25
794.543	29822.21
794.875	29715.32
795.207	29693.17
795.539	29638.03
795.871	29568.66
796.203	29453.18
796.535	29255.22
796.867	29138.39
797.198	28914.66
797.53	28946.08
797.862	28754.67
798.193	28859.3
798.525	28611.17
798.856	28729.13
799.188	28347.67
799.519	28328.01
799.85	28258.41
800.182	28215.25
800.513	28236.94
800.844	27725.77
801.175	28102.26
801.506	27953.56
801.837	27698.42
802.168	27736.39
802.499	27717.41
802.83	27549.28
803.161	27425.44
803.491	27417.53
803.822	27491.2
804.153	27172.11
804.483	27069.74
804.814	26943.42
805.145	27117.87
805.475	26929.63
805.805	26795.62
806.136	27028.16
806.466	26674.04
806.796	26655.29
807.126	26488.51
807.457	26531.22
807.787	26587.94
808.117	26390.89
808.447	26302.98
808.777	26343.21
809.107	26156.32
809.436	25967.4
809.766	26003.1
810.096	26061.63
810.426	25888.98
810.755	25991.8
811.085	25863.44
811.414	25766.27
811.744	25708.42
812.073	25646.73
812.403	25582.55
812.732	25344.81
813.061	25668.42
813.39	25195.89
813.719	25203.57
814.049	25509.1
814.378	25361.99
814.707	25154.54
815.036	25069.11
815.365	24920.87
815.693	24863.92
816.022	24845.17
816.351	24791.16
816.68	24546.87
817.008	24750.25
817.337	24461.9
817.665	24489.92
817.994	24385.29
818.322	24601.56
818.651	24382.81
818.979	24255.58
819.307	24342.58
819.636	24189.36
819.964	24173.09
820.292	24153.43
820.62	24136.48
820.948	24219.65
821.276	24284.73
821.604	24126.09
821.932	24169.93
822.259	24137.84
822.587	24098.74
822.915	23969.48
823.243	24077.73
823.57	23962.25
823.898	24143.72
824.225	24110.04
824.553	24018.97
824.88	23981.23
825.207	24157.73
825.535	24077.05
825.862	24194.11
826.189	24104.62
826.516	24267.78
826.843	24092.42
827.17	24196.6
827.497	24209.7
827.824	24188.23
828.151	24160.21
828.478	24135.58
828.805	24287.67
829.131	24143.49
829.458	24148.46
829.785	24070.05
830.111	24064.17
830.438	24200.89
830.764	24058.97
831.09	24157.73
831.417	23967.45
831.743	24109.37
832.069	24076.82
832.395	23979.65
832.722	24091.29
833.048	24058.52
833.374	24050.61
833.7	24025.53
834.026	24080.67
834.351	24014.45
834.677	23959.77
835.003	23910.73
835.329	23898.75
835.654	23909.37
835.98	23769.71
836.306	23903.5
836.631	23802.48
836.956	23700.34
837.282	23836.83
837.607	23734.01
837.932	23746.44
838.258	23680.68
838.583	23587.35
838.908	23556.61
839.233	23528.36
839.558	23327.24
839.883	23356.17
840.208	23323.85
840.533	23344.41
840.858	23338.76
841.182	23360.23
841.507	23409.95
841.832	23194.59
842.156	23218.77
842.481	23135.15
842.805	23062.16
843.13	23037.08
843.454	22949.62
843.778	22849.74
844.103	22809.97
844.427	22811.32
844.751	22790.08
845.075	22738.33
845.399	22603.42
845.723	22534.72
846.047	22555.28
846.371	22421.95
846.695	22293.82
847.019	22260.38
847.343	22142.41
847.666	22000.72
847.99	21989.65
848.313	21886.6
848.637	21826.71
848.96	21785.59
849.284	21782.87
849.607	21589.43
849.931	21542.43
850.254	21438.02
850.577	21301.3
850.9	21128.88
851.223	21229.44
851.546	21045.27
851.869	20883.91
852.192	21132.27
852.515	20798.49
852.838	20701.32
853.161	20812.96
853.483	20569.57
853.806	20574.77
854.129	20530.25
854.451	20453.87
854.774	20220.2
855.096	20279.64
855.419	20120.54
855.741	20129.13
856.063	20001.45
856.385	20006.42
856.708	19989.47
857.03	19809.14
857.352	19878.74
857.674	19826.54
857.996	19666.77
858.318	19497.51
858.64	19688.69
858.961	19502.26
859.283	19516.72
859.605	19346.78
859.926	19414.12
860.248	19335.71
860.57	19145.43
860.891	19282.6
861.212	19174.81
861.534	19098.2
861.855	19060.91
862.176	19072.66
862.498	19029.27
862.819	19064.98
863.14	18895.49
863.461	18937.07
863.782	18856.85
864.103	18834.02
864.424	18661.37
864.745	18820.92
865.065	18717.19
865.386	18595.84
865.707	18644.43
866.027	18764.2
866.348	18679.45
866.668	18627.48
866.989	18621.83
867.309	18443.98
867.63	18459.35
867.95	18414.37
868.27	18319.46
868.59	18453.02
868.91	18377.09
869.23	18295.06
869.55	18258.22
869.87	18239.01
870.19	18144.55
870.51	18193.36
870.83	18078.79
871.15	17987.72
871.469	18004.44
871.789	18166.92
872.109	18078.34
872.428	18071.78
872.748	17980.26
873.067	17957.89
873.386	17930.77
873.706	17912.92
874.025	17815.97
874.344	17827.27
874.663	17846.25
874.982	17804.22
875.301	17720.83
875.62	17633.38
875.939	17603.32
876.258	17639.71
876.577	17608.52
876.896	17597.9
877.214	17598.58
877.533	17524.23
877.852	17609.2
878.17	17574.17
878.489	17549.31
878.807	17397.45
879.125	17429.32
879.444	17348.19
879.762	17318.81
880.08	17387.28
880.398	17250.11
880.716	17204.46
881.034	17263.67
881.352	17223.9
881.67	17175.76
881.988	17197.23
882.306	17045.15
882.624	17077.91
882.941	16884.25
883.259	16876.11
883.577	16844.7
883.894	16833.4
884.212	16756.57
884.529	16803.34
884.846	16809.45
885.164	16658.49
885.481	16649.22
885.798	16626.62
886.115	16534.42
886.432	16439.29
886.75	16418.95
887.067	16493.97
887.383	16404.03
887.7	16421.21
888.017	16319.74
888.334	16333.98
888.651	16318.38
888.967	16242.23
889.284	16074.32
889.6	16137.6
889.917	15973.08
890.233	16085.4
890.55	15974.66
890.866	15967.21
891.182	15882.69
891.498	15885.4
891.815	15896.93
892.131	15772.64
892.447	15822.8
892.763	15638.18
893.079	15580.32
893.395	15537.39
893.71	15526.54
894.026	15536.94
894.342	15425.98
894.657	15379.43
894.973	15456.94
895.289	15356.38
895.604	15272.08
895.92	15195.7
896.235	15156.83
896.55	15101.92
896.865	15088.59
897.181	15056.5
897.496	15003.62
897.811	14951.41
898.126	14818.76
898.441	14752.32
898.756	14707.13
899.071	14621.71
899.386	14693.12
899.7	14533.57
900.015	14486.12
900.33	14391.66
900.644	14466
900.959	14377.87
901.273	14317.99
901.588	14335.61
901.902	14181.72
902.216	14215.61
902.531	14119.57
902.845	14022.63
903.159	13984.43
903.473	14054.94
903.787	13839.13
904.101	13815.63
904.415	13917.09
904.729	13680.26
905.042	13745.12
905.356	13709.41
905.67	13620.15
905.984	13673.26
906.297	13523.66
906.611	13457.22
906.924	13434.17
907.237	13323.89
907.551	13323.66
907.864	13271.68
908.177	13280.5
908.491	13144.68
908.804	13076.66
909.117	13068.3
909.43	13005.7
909.743	12944.24
910.056	12951.69
910.368	12814.07
910.681	12715.54
910.994	12706.73
911.307	12650.01
911.619	12548.99
911.932	12485.04
912.244	12538.14
912.557	12496.79
912.869	12400.52
913.181	12320.98
913.494	12342.9
913.806	12231.49
914.118	12199.85
914.43	12062.23
914.742	12117.37
915.054	12083.24
915.366	11964.37
915.678	11937.48
915.99	11951.95
916.302	11843.47
916.613	11824.27
916.925	11850.93
917.236	11724.83
917.548	11659.75
917.859	11606.87
918.171	11579.75
918.482	11481.9
918.794	11508.57
919.105	11438.96
919.416	11412.75
919.727	11318.52
920.038	11306.99
920.349	11183.15
920.66	11201.91
920.971	11133.21
921.282	11166.2
921.593	11024.51
921.903	10918.07
922.214	10970.28
922.525	10879.66
922.835	10827
923.146	10825.65
923.456	10770.51
923.767	10686.44
924.077	10699.1
924.387	10650.51
924.697	10648.7
925.008	10594.47
925.318	10469.95
925.628	10414.81
925.938	10358.32
926.248	10379.78
926.558	10309.5
926.867	10239.22
927.177	10200.35
927.487	10166.46
927.796	10117.87
928.106	10082.62
928.416	10052.79
928.725	10010.98
929.034	9941.6
929.344	9923.98
929.653	9921.72
929.962	9810.76
930.271	9819.57
930.581	9760.14
930.89	9718.11
931.199	9643.76
931.508	9580.93
931.817	9603.08
932.125	9553.82
932.434	9533.93
932.743	9413.26
933.051	9441.28
933.36	9443.76
933.669	9318.34
933.977	9310.89
934.286	9242.41
934.594	9207.16
934.902	9209.87
935.21	9176.43
935.519	9078.8
935.827	9098.46
936.135	9013.04
936.443	8940.5
936.751	8883.55
937.059	8905.92
937.367	8817.11
937.674	8801.07
937.982	8808.3
938.29	8769.2
938.597	8725.82
938.905	8604.46
939.213	8572.83
939.52	8565.59
939.827	8629.77
940.135	8576.22
940.442	8495.99
940.749	8456.44
941.056	8505.26
941.363	8432.26
941.67	8368.76
941.977	8299.84
942.284	8246.96
942.591	8211.93
942.898	8251.7
943.205	8151.14
943.511	8141.88
943.818	8112.27
944.125	8041.77
944.431	7954.31
944.738	8029.56
945.044	8034.08
945.35	7890.58
945.657	7834.77
945.963	7911.83
946.269	7815.11
946.575	7776.46
946.881	7664.15
947.187	7693.75
947.493	7670.48
947.799	7620.08
948.105	7593.87
948.41	7509.35
948.716	7552.97
949.022	7481.33
949.327	7471.84
949.633	7361.33
949.938	7361.56
950.244	7342.58
950.549	7319.3
950.854	7229.13
951.16	7183.03
951.465	7220.54
951.77	7174.9
952.075	7144.16
952.38	7173.54
952.685	7094.22
952.99	6994.56
953.294	7014
953.599	6943.04
953.904	6974.9
954.209	6898.97
954.513	6943.72
954.818	6889.25
955.122	6848.35
955.426	6752.99
955.731	6805.19
956.035	6749.14
956.339	6712.99
956.643	6704.85
956.948	6690.84
957.252	6668.69
957.556	6610.39
957.86	6525.42
958.163	6505.76
958.467	6505.08
958.771	6525.87
959.075	6501.92
959.378	6406.33
959.682	6428.7
959.985	6383.5
960.289	6328.59
960.592	6348.48
960.896	6246.78
961.199	6211.98
961.502	6247.69
961.805	6233.45
962.108	6162.49
962.411	6170.63
962.714	6122.49
963.017	6159.56
963.32	6117.3
963.623	6040.91
963.926	6022.38
964.228	5992.1
964.531	6002.95
964.833	5978.77
965.136	5872.78
965.438	5839.34
965.741	5859
966.043	5817.87
966.345	5821.71
966.648	5792.79
966.95	5766.57
967.252	5705.78
967.554	5717.53
967.856	5696.52
968.158	5627.37
968.46	5646.57
968.761	5629.4
969.063	5605.45
969.365	5537.2
969.666	5511.89
969.968	5494.49
970.269	5414.26
970.571	5467.6
970.872	5369.29
971.174	5382.85
971.475	5327.04
971.776	5320.03
972.077	5334.94
972.378	5278
972.679	5296.75
972.98	5235.06
973.281	5237.55
973.582	5174.72
973.883	5182.86
974.183	5132.24
974.484	5067.38
974.785	5125.01
975.085	5101.73
975.386	5055.4
975.686	5061.73
975.986	5032.13
976.287	5010.43
976.587	4900.83
976.887	4950.77
977.187	4893.83
977.487	4908.29
977.787	4860.15
978.087	4838.69
978.387	4817.44
978.687	4840.49
978.987	4772.47
979.286	4750.33
979.586	4750.55
979.885	4692.02
980.185	4732.47
980.484	4665.81
980.784	4669.2
981.083	4598.47
981.382	4638.01
981.682	4596.21
981.981	4577.22
982.28	4569.31
982.579	4505.14
982.878	4573.16
983.177	4537.23
983.475	4460.84
983.774	4467.62
984.073	4410.9
984.372	4373.39
984.67	4377.23
984.969	4338.81
985.267	4377.91
985.566	4302.43
985.864	4288.42
986.162	4303.11
986.461	4302.66
986.759	4253.62
987.057	4216.56
987.355	4179.95
987.653	4154.18
987.951	4188.99
988.249	4176.33
988.547	4124.58
988.844	4121.42
989.142	4068.76
989.44	4040.97
989.737	4060.4
990.035	4015.21
990.332	4015.88
990.63	4019.95
990.927	3963.91
991.224	3965.04
991.521	3953.51
991.819	3897.69
992.116	3849.56
992.413	3908.77
992.71	3853.18
993.006	3857.24
993.303	3845.72
993.6	3821.54
993.897	3806.62
994.193	3743.57
994.49	3749
994.787	3737.25
995.083	3681.88
995.379	3677.81
995.676	3686.63
995.972	3677.13
996.268	3627.42
996.565	3633.52
996.861	3598.27
997.157	3573.41
997.453	3554.43
997.749	3521.88
998.044	3456.58
998.34	3505.61
998.636	3444.15
998.932	3437.14
999.227	3418.38
999.523	3438.05
999.818	3398.95
1000.114	3388.78
1000.409	3313.75
1000.704	3337.26
1001	3342.91
1001.295	3364.15
1001.59	3318.05
1001.885	3291.83
1002.18	3228.79
1002.475	3252.97
1002.77	3219.07
1003.065	3182.91
1003.359	3223.14
1003.654	3151.73
1003.949	3162.35
1004.243	3142.46
1004.538	3074.44
1004.832	3097.26
1005.127	3096.36
1005.421	3057.49
1005.715	3033.54
1006.009	3019.3
1006.304	3020.2
1006.598	3008
1006.892	2967.1
1007.186	2949.7
1007.48	2967.78
1007.773	2920.32
1008.067	2907.66
1008.361	2850.94
1008.655	2856.14
1008.948	2844.16
1009.242	2842.81
1009.535	2803.26
1009.829	2778.63
1010.122	2737.95
1010.415	2750.83
1010.708	2804.62
1011.001	2726.2
1011.295	2737.5
1011.588	2695.92
1011.881	2670.38
1012.173	2671.06
1012.466	2656.37
1012.759	2621.12
1013.052	2609.37
1013.344	2584.06
1013.637	2607.33
1013.93	2564.4
1014.222	2557.39
1014.514	2525.98
1014.807	2530.27
1015.099	2449.14
1015.391	2516.26
1015.683	2460.44
1015.976	2441.46
1016.268	2427
1016.56	2416.6
1016.851	2417.96
1017.143	2395.13
1017.435	2363.27
1017.727	2356.27
1018.018	2322.37
1018.31	2320.11
1018.602	2351.07
1018.893	2288.92
1019.185	2283.27
1019.476	2246.89
1019.767	2262.93
1020.058	2224.74
1020.35	2230.62
1020.641	2188.36
1020.932	2185.65
1021.223	2165.08
1021.514	2158.76
1021.804	2124.86
1022.095	2116.72
1022.386	2111.07
1022.677	2098.65
1022.967	2048.25
1023.258	2043.28
1023.548	2045.31
1023.839	2015.26
1024.129	2040.34
1024.419	1974.58
1024.709	1971.64
1025	1976.61
1025.29	1956.5
1025.58	1959.44
1025.87	1949.5
1026.16	1946.78
1026.449	1920.12
1026.739	1887.8
1027.029	1876.05
1027.319	1885.32
1027.608	1823.62
1027.898	1850.97
1028.187	1857.75
1028.477	1838.99
1028.766	1796.73
1029.055	1772.55
1029.344	1805.77
1029.634	1769.39
1029.923	1749.5
1030.212	1736.85
1030.501	1733.01
1030.79	1667.92
1031.078	1695.49
1031.367	1686.68
1031.656	1704.76
1031.945	1647.81
1032.233	1648.26
1032.522	1634.02
1032.81	1632.89
1033.099	1606.91
1033.387	1608.71
1033.675	1623.86
1033.963	1588.15
1034.251	1574.82
1034.54	1564.65
1034.828	1575.04
1035.116	1493.69
1035.403	1494.82
1035.691	1512.9
1035.979	1495.72
1036.267	1473.8
1036.554	1489.4
1036.842	1470.41
1037.129	1483.97
1037.417	1459.57
1037.704	1445.1
1037.992	1432.45
1038.279	1406.23
1038.566	1406.46
1038.853	1406.46
1039.14	1406.46
