Data from 100_FLMS001491_008.txt Node
Date: Thu Apr 12 17:09:46 BST 2018
User: hsy
Spectrometer: FLMS00149
Trigger mode: 0
Integration Time (sec): 1.000000E-2
Scans to average: 10
Electric dark correction enabled: true
Nonlinearity correction enabled: false
Boxcar width: 0
XAxis mode: Wavelengths
Number of Pixels in Spectrum: 2048
>>>>>Begin Spectral Data<<<<<
341.393	-4.1
341.776	-4.1
342.16	-4.1
342.543	-48.84
342.927	-52.23
343.31	-78.22
343.693	-78.9
344.077	-60.37
344.46	-71.66
344.843	-49.29
345.226	-44.09
345.61	-24.66
345.993	-12.23
346.376	5.85
346.759	12.4
347.142	42.23
347.525	49.69
347.908	65.96
348.291	47.65
348.674	82
349.057	113.64
349.44	137.82
349.823	145.96
350.206	160.87
350.588	238.84
350.971	250.13
351.354	264.15
351.737	282.68
352.119	291.49
352.502	290.81
352.884	310.92
353.267	329.45
353.65	369
354.032	351.83
354.414	358.61
354.797	355.67
355.179	347.76
355.562	377.36
355.944	351.37
356.326	374.65
356.709	389.79
357.091	363.35
357.473	384.14
357.855	387.76
358.238	382.79
358.62	372.84
359.002	395.44
359.384	369.68
359.766	397.25
360.148	399.28
360.53	390.92
360.912	388.44
361.294	356.57
361.676	391.15
362.057	397.93
362.439	386.4
362.821	384.14
363.203	376.46
363.584	375.33
363.966	377.81
364.348	379.17
364.729	381.88
365.111	373.75
365.493	380.07
365.874	365.39
366.256	389.11
366.637	354.99
367.019	372.62
367.4	378.94
367.781	371.71
368.163	344.6
368.544	378.72
368.925	350.47
369.306	373.75
369.688	371.49
370.069	373.75
370.45	383.92
370.831	348.21
371.212	379.62
371.593	385.05
371.974	362.45
372.355	382.56
372.736	374.43
373.117	372.39
373.498	380.75
373.879	385.72
374.26	372.84
374.641	373.07
375.021	370.13
375.402	367.65
375.783	373.3
376.163	393.86
376.544	392.05
376.925	384.59
377.305	391.6
377.686	382.33
378.066	408.77
378.447	386.4
378.827	410.81
379.208	397.25
379.588	387.08
379.968	416.23
380.349	417.59
380.729	398.15
381.109	422.11
381.489	425.5
381.87	405.61
382.25	412.39
382.63	430.02
383.01	416.46
383.39	438.38
383.77	417.14
384.15	423.01
384.53	428.89
384.91	439.51
385.29	455.33
385.67	430.02
386.049	442.9
386.429	446.06
386.809	452.84
387.189	439.06
387.568	452.39
387.948	448.77
388.328	471.6
388.707	479.28
389.087	446.97
389.466	462.11
389.846	442.45
390.225	474.99
390.605	462.78
390.984	497.36
391.363	488.32
391.743	484.03
392.122	496.68
392.501	505.72
392.881	499.17
393.26	484.93
393.639	515.21
394.018	536.45
394.397	503.01
394.776	494.42
395.155	516.57
395.534	525.16
395.913	518.15
396.292	547.53
396.671	539.39
397.05	543.23
397.429	521.31
397.808	535.32
398.186	545.49
398.565	556.12
398.944	554.99
399.323	578.49
399.701	586.17
400.08	562.89
400.458	571.26
400.837	570.8
401.215	572.61
401.594	577.81
401.972	577.81
402.351	587.07
402.729	600.86
403.107	596.79
403.486	601.76
403.864	576.45
404.242	598.37
404.62	593.4
404.999	624.59
405.377	622.33
405.755	629.79
406.133	644.25
406.511	632.05
406.889	635.66
407.267	677.47
407.645	685.38
408.023	657.58
408.401	677.47
408.779	682.67
409.156	702.55
409.534	714.98
409.912	712.72
410.29	733.96
410.667	733.29
411.045	749.56
411.422	727.41
411.8	766.05
412.178	766.73
412.555	779.16
412.933	773.28
413.31	777.8
413.687	820.52
414.065	808.99
414.442	822.1
414.819	836.56
415.197	843.57
415.574	864.13
415.951	878.37
416.328	876.33
416.705	903.68
417.082	881.98
417.46	914.3
417.837	885.6
418.214	915.65
418.591	930.12
418.967	896.67
419.344	945.94
419.721	945.94
420.098	949.55
420.475	977.35
420.852	961.75
421.228	986.84
421.605	983
421.982	1003.34
422.358	1001.3
422.735	1006.27
423.111	1027.29
423.488	1041.3
423.864	1022.09
424.241	1037.68
424.617	1050.79
424.994	1049.89
425.37	1083.56
425.746	1059.15
426.123	1041.53
426.499	1079.72
426.875	1121.98
427.251	1124.91
427.627	1128.3
428.003	1145.48
428.379	1154.07
428.756	1196.32
429.132	1198.81
429.507	1200.84
429.883	1204.91
430.259	1239.04
430.635	1238.13
431.011	1245.14
431.387	1265.7
431.763	1277.68
432.138	1308.64
432.514	1327.62
432.89	1305.93
433.265	1323.78
433.641	1349.09
434.016	1340.05
434.392	1338.69
434.767	1413.27
435.143	1422.08
435.518	1406.94
435.894	1414.62
436.269	1445.58
436.644	1471.57
437.02	1479.71
437.395	1468.63
437.77	1503.21
438.145	1541.4
438.52	1536.43
438.895	1558.35
439.271	1512.47
439.646	1536.88
440.021	1589.08
440.395	1561.96
440.77	1568.97
441.145	1620.72
441.52	1603.55
441.895	1590.89
442.27	1646.03
442.645	1634.05
443.019	1666.59
443.394	1667.27
443.769	1658.91
444.143	1665.69
444.518	1703.2
444.892	1676.54
445.267	1691
445.641	1674.28
446.016	1720.83
446.39	1721.51
446.764	1744.78
447.139	1738.91
447.513	1758.34
447.887	1784.11
448.262	1789.08
448.636	1775.74
449.01	1805.8
449.384	1827.49
449.758	1817.55
450.132	1851.67
450.506	1845.12
450.88	1865.23
451.254	1912.24
451.628	1909.75
452.002	1923.76
452.376	1954.5
452.75	1983.2
453.123	1952.24
453.497	1999.24
453.871	2003.31
454.244	2043.53
454.618	2071.33
454.992	2095.51
455.365	2106.36
455.739	2163.08
456.112	2177.77
456.486	2214.83
456.859	2237.65
457.232	2251.44
457.606	2281.27
457.979	2300.48
458.352	2376.41
458.725	2359.91
459.099	2386.8
459.472	2432.68
459.845	2463.41
460.218	2488.49
460.591	2512.9
460.964	2526.01
461.337	2593.58
461.71	2624.76
462.083	2665.21
462.456	2662.27
462.829	2709.05
463.201	2719.22
463.574	2747.24
463.947	2759
464.32	2824.08
464.692	2844.42
465.065	2864.76
465.438	2888.71
465.81	2934.36
466.183	2944.75
466.555	2991.98
466.928	3072.21
467.3	3049.61
467.672	3129.38
468.045	3138.65
468.417	3193.79
468.789	3164.63
469.161	3209.38
469.534	3292.54
469.906	3368.02
470.278	3334.8
470.65	3390.39
471.022	3506.77
471.394	3510.84
471.766	3605.98
472.138	3629.71
472.51	3725.3
472.882	3705.41
473.253	3718.07
473.625	3839.19
473.997	3911.96
474.369	3940.89
474.74	4003.48
475.112	4073.76
475.484	4102.69
475.855	4164.16
476.227	4283.02
476.598	4364.83
476.97	4342.68
477.341	4446.41
477.713	4579.74
478.084	4633.75
478.455	4725.27
478.827	4713.07
479.198	4909
479.569	4951.71
479.94	5064.47
480.311	5161.19
480.682	5300.62
481.053	5381.75
481.424	5478.25
481.795	5577.9
482.166	5657
482.537	5755.98
482.908	5927.05
483.279	6011.79
483.65	6095.86
484.021	6329.75
484.391	6372.46
484.762	6461.5
485.133	6570.42
485.503	6671.43
485.874	6826.01
486.244	6957.3
486.615	7151.2
486.985	7222.15
487.356	7461.7
487.726	7476.61
488.097	7771.97
488.467	7878.86
488.837	8097.16
489.207	8200.21
489.578	8383.03
489.948	8500.09
490.318	8743.02
490.688	8813.75
491.058	9071.37
491.428	9322.89
491.798	9406.05
492.168	9737.34
492.538	9818.7
492.908	10036.09
493.278	10185.47
493.648	10335.07
494.017	10542.52
494.387	10767.37
494.757	10944.32
495.126	11295.04
495.496	11393.34
495.866	11585.43
496.235	11803.05
496.605	12023.38
496.974	12207.33
497.344	12483.26
497.713	12723.25
498.082	13000.76
498.452	13235.1
498.821	13386.51
499.19	13557.36
499.559	13821.76
499.928	14092.26
500.298	14258.13
500.667	14612.24
501.036	14666.03
501.405	15035.51
501.774	15232.57
502.143	15497.87
502.512	15745.09
502.88	16115.03
503.249	16284.52
503.618	16524.06
503.987	16721.79
504.356	17017.15
504.724	17248.11
505.093	17511.6
505.462	17780.52
505.83	18075.88
506.199	18335.76
506.567	18706.37
506.936	18885.35
507.304	19283.53
507.672	19402.63
508.041	19673.58
508.409	20006.68
508.777	20302.04
509.145	20620.9
509.514	20747.22
509.882	20971.17
510.25	21262.69
510.618	21545.85
510.986	21763.47
511.354	22075.78
511.722	22456.78
512.09	22837.79
512.458	22791.91
512.826	23262.86
513.193	23392.35
513.561	23655.62
513.929	23831.21
514.297	24226.68
514.664	24525.88
515.032	24818.53
515.4	25037.73
515.767	25235.01
516.135	25465.29
516.502	25482.92
516.869	26082.22
517.237	26225.95
517.604	26237.93
517.972	26812.83
518.339	27000.62
518.706	27180.95
519.073	27373.94
519.44	27625.69
519.808	28106.35
520.175	28077.2
520.542	28663.17
520.909	28801.02
521.276	29084.63
521.643	29493.21
522.009	29641.23
522.376	29952.4
522.743	30193.08
523.11	30452.05
523.477	30834.42
523.843	31135.65
524.21	31512.14
524.577	31667.61
524.943	31990.09
525.31	32230.76
525.676	32673.01
526.043	32936.51
526.409	33072.77
526.776	33567.45
527.142	33598.64
527.508	33875.01
527.874	34263.93
528.241	34467.54
528.607	34616.01
528.973	35039.73
529.339	35086.28
529.705	35474.75
530.071	35908.86
530.437	36077.44
530.803	36279.7
531.169	36480.14
531.535	36611.44
531.901	36827.93
532.267	37017.3
532.632	37422.26
532.998	37482.83
533.364	37678.3
533.73	37842.59
534.095	38230.6
534.461	38331.85
534.826	38626.53
535.192	38699.29
535.557	38969.57
535.923	39089.79
536.288	39243.23
536.653	39481.87
537.019	39430.8
537.384	39749.21
537.749	39729.32
538.114	39985.59
538.479	39881.18
538.845	40412.24
539.21	40245.02
539.575	40402.07
539.94	40696.08
540.305	40948.05
540.67	40960.48
541.034	41072.56
541.399	41234.59
541.764	41316.17
542.129	41600.23
542.494	41656.96
542.858	41893.56
543.223	41825.54
543.587	42102.59
543.952	42214.23
544.316	42287.67
544.681	42227.56
545.045	42572.41
545.41	42700.77
545.774	42723.82
546.138	42807.43
546.503	43038.16
546.867	43298.04
547.231	43494.65
547.595	43527.41
547.959	43698.94
548.324	43826.62
548.688	43874.07
549.052	43939.83
549.416	44045.59
549.779	44263.89
550.143	44429.54
550.507	44638.35
550.871	44753.15
551.235	44821.84
551.599	45302.06
551.962	45252.57
552.326	45408.5
552.689	45443.3
553.053	45310.87
553.417	45683.52
553.78	46040.12
554.143	46140.91
554.507	46261.81
554.87	46497.28
555.234	46846.65
555.597	46682.13
555.96	46933.65
556.323	47045.97
556.686	47124.38
557.05	47501.32
557.413	47611.83
557.776	47661.54
558.139	48005.94
558.502	48058.82
558.865	48029.9
559.228	48539.49
559.59	48657.68
559.953	48690.89
560.316	49148.28
560.679	49172.01
561.041	49387.83
561.404	49617.65
561.767	49836.85
562.129	49913.69
562.492	50181.7
562.854	50270.29
563.217	50342.6
563.579	50454.92
563.941	50823.95
564.304	50959.31
564.666	51177.84
565.028	51132.41
565.39	51312.75
565.753	51555.23
566.115	51704.83
566.477	51846.97
566.839	51870.47
567.201	52285.6
567.563	52173.29
567.925	52342.1
568.287	52507.29
568.648	52680.85
569.01	52768.53
569.372	53025.92
569.734	53016.66
570.095	53232.47
570.457	53423.88
570.819	53434.72
571.18	53507.49
571.542	53707.94
571.903	53846.92
572.265	53879.23
572.626	54033.81
572.987	54106.57
573.349	54208.04
573.71	54398.32
574.071	54424.76
574.432	54649.16
574.794	54775.48
575.155	54768.02
575.516	54736.84
575.877	54952.2
576.238	54975.25
576.599	55070.84
576.96	55189.03
577.32	55143.38
577.681	55234.9
578.042	55342.25
578.403	55422.7
578.763	55473.09
579.124	55429.93
579.485	55628.79
579.845	55724.38
580.206	55662.24
580.566	55725.74
580.927	55773.42
581.287	55869.24
581.648	55725.51
582.008	55913.3
582.368	55843.25
582.728	55942.91
583.089	55894.55
583.449	55901.55
583.809	55939.07
584.169	55983.13
584.529	55886.19
584.889	56142
585.249	55935.9
585.609	55918.73
585.969	56104.94
586.329	55983.81
586.688	56140.64
587.048	56005.5
587.408	56011.83
587.768	55949.01
588.127	56058.84
588.487	55953.75
588.846	56219.96
589.206	55949.91
589.565	56002.12
589.925	56130.47
590.284	56032.4
590.643	56026.3
591.003	56133.64
591.362	56277.59
591.721	56133.64
592.08	56167.76
592.44	56282.11
592.799	56190.36
593.158	56153.07
593.517	56086.86
593.876	56222.9
594.235	56253.63
594.593	56170.02
594.952	56191.26
595.311	56179.06
595.67	56190.81
596.029	56381.99
596.387	56415.21
596.746	56389
597.104	56263.13
597.463	56268.1
597.822	56474.65
598.18	56375.89
598.538	56384.48
598.897	56514.42
599.255	56259.74
599.613	56634.87
599.972	56463.57
600.33	56514.87
600.688	56570.24
601.046	56586.05
601.404	56754.41
601.762	56709.22
602.12	56777.24
602.478	56791.47
602.836	56830.79
603.194	56588.99
603.552	56754.41
603.91	56681.65
604.268	56820.17
604.625	56720.29
604.983	56915.31
605.341	56755.54
605.698	56932.26
606.056	57014.07
606.413	56994.63
606.771	57111.92
607.128	57129.09
607.485	57097.45
607.843	57021.3
608.2	57197.56
608.557	57271.46
608.914	57219.03
609.272	57371.34
609.629	57442.08
609.986	57535.86
610.343	57432.81
610.7	57595.07
611.057	57628.29
611.414	57520.95
611.771	57653.82
612.127	57721.39
612.484	57821.73
612.841	57864.44
613.198	57773.59
613.554	57705.8
613.911	57988.05
614.267	57974.27
614.624	57955.51
614.98	58055.85
615.337	58182.85
615.693	58129.52
616.05	58145.79
616.406	58259.91
616.762	58268.27
617.118	58272.34
617.475	58307.14
617.831	58304.2
618.187	58458.77
618.543	58442.73
618.899	58522.27
619.255	58453.8
619.611	58470.52
619.967	58641.82
620.323	58675.04
620.678	58573.12
621.034	58605.89
621.39	58629.84
621.746	58670.52
622.101	58884.98
622.457	58711.2
622.812	58886.78
623.168	58852.21
623.523	58867.8
623.879	58947.8
624.234	58870.74
624.589	58914.81
624.945	58908.03
625.3	58993.67
625.655	58998.19
626.01	58976.5
626.365	58986.67
626.72	58922.26
627.075	58920.68
627.43	58929.95
627.785	58996.84
628.14	58858.99
628.495	58939.66
628.85	58996.39
629.205	58918.87
629.559	58995.03
629.914	58876.16
630.269	58913
630.623	58808.82
630.978	58729.27
631.332	58894.69
631.687	58876.84
632.041	58860.12
632.396	58907.58
632.75	58810.85
633.104	58848.37
633.459	58726.11
633.813	58728.37
634.167	58785.32
634.521	58797.75
634.875	58744.64
635.229	58703.51
635.583	58530.64
635.937	58604.98
636.291	58573.35
636.645	58577.19
636.999	58569.73
637.352	58530.41
637.706	58429.4
638.06	58514.37
638.413	58504.87
638.767	58348.95
639.121	58411.54
639.474	58277.31
639.828	58349.17
640.181	58265.56
640.534	58314.6
640.888	58194.83
641.241	58156.18
641.594	58181.94
641.947	58210.87
642.301	58098.33
642.654	58136.97
643.007	58093.13
643.36	58210.64
643.713	58009.97
644.066	58146.47
644.419	57971.55
644.771	57677.78
645.124	57456.77
645.477	57419.25
645.83	57325.47
646.182	57277.56
646.535	57236.21
646.888	57350.78
647.24	57219.71
647.593	57352.14
647.945	57256.09
648.298	57123.44
648.65	57052.48
649.002	56942.43
649.355	56885.71
649.707	56747.41
650.059	56837.57
650.411	57168.64
650.763	57260.39
651.115	57646.37
651.467	57500.61
651.819	57517.78
652.171	57389.88
652.523	57335.64
652.875	57393.94
653.227	57287.73
653.578	57506.71
653.93	57364.34
654.282	57267.84
654.633	57192.37
654.985	57177.9
655.337	57311.01
655.688	57221.07
656.039	57236.21
656.391	56999.83
656.742	57103.78
657.094	57055.42
657.445	57152.14
657.796	57123.67
658.147	57055.42
658.498	57060.84
658.849	57122.99
659.2	57020.85
659.551	56899.27
659.902	57089.54
660.253	56948.3
660.604	57007.06
660.955	56906.27
661.306	57067.4
661.656	56870.79
662.007	56877.35
662.358	56938.14
662.708	56896.55
663.059	56877.12
663.409	56681.42
663.76	56844.35
664.11	56805.26
664.461	56872.15
664.811	56831.7
665.161	56758.03
665.511	56721.42
665.862	56754.86
666.212	56764.81
666.562	56834.18
666.912	56767.74
667.262	56650.69
667.612	56659.95
667.962	56654.75
668.312	56641.19
668.662	56825.14
669.011	56653.85
669.361	56747.41
669.711	56734.98
670.06	56698.82
670.41	56588.99
670.76	56593.29
671.109	56654.53
671.459	56627.64
671.808	56580.4
672.157	56681.19
672.507	56566.85
672.856	56447.3
673.205	56598.71
673.554	56661.31
673.904	56491.82
674.253	56746.05
674.602	56535.89
674.951	56172.96
675.3	56115.56
675.649	56501.31
675.998	56508.09
676.346	56531.37
676.695	56592.16
677.044	56390.13
677.393	56509.22
677.741	56451.82
678.09	56419.28
678.438	56349.22
678.787	56438.04
679.135	56448.66
679.484	56289.57
679.832	56355.78
680.181	56279.62
680.529	56362.78
680.877	56223.58
681.225	56179.06
681.573	56355.55
681.922	56226.06
682.27	56084.37
682.618	56170.7
682.966	56113.52
683.314	56157.14
683.661	56180.64
684.009	55979.29
684.357	55959.4
684.705	55929.57
685.053	55991.04
685.4	55829.01
685.748	55817.26
686.095	55822.46
686.443	55690.71
686.79	55692.29
687.138	55733.42
687.485	55711.73
687.832	55636.25
688.18	55690.48
688.527	55499.98
688.874	55569.58
689.221	55615.01
689.568	55421.34
689.915	55348.12
690.262	55376.37
690.609	55342.47
690.956	55204.62
691.303	55202.81
691.65	55052.76
691.997	55060.67
692.344	54881.69
692.69	54872.43
693.037	54910.17
693.383	54699.55
693.73	54763.5
694.077	54597.18
694.423	54688.7
694.769	54472.89
695.116	54572.55
695.462	54354.93
695.808	54335.49
696.155	54441.48
696.501	54102.5
696.847	54243.74
697.193	54044.88
697.539	54027.25
697.885	53889.4
698.231	53862.51
698.577	53886.01
698.923	53789.07
699.269	53653.02
699.614	53571.9
699.96	53539.35
700.306	53466.36
700.651	53411.67
700.997	53272.92
701.342	53193.38
701.688	53219.36
702.033	53024.34
702.379	53035.64
702.724	52923.33
703.069	53053.94
703.415	52698.93
703.76	52721.07
704.105	52691.02
704.45	52570.57
704.795	52492.6
705.14	52341.19
705.485	52396.56
705.83	52231.82
706.175	52259.39
706.52	52246.51
706.865	51995.89
707.209	51984.82
707.554	51910.92
707.899	51922.45
708.243	51703.92
708.588	51729.23
708.932	51569.01
709.277	51607.65
709.621	51396.81
709.966	51280.21
710.31	51404.5
710.654	51157.95
710.998	51269.81
711.342	51204.05
711.687	51125.18
712.031	50844.96
712.375	50797.73
712.719	50807.9
713.063	50658.75
713.407	50870.27
713.75	50543.05
714.094	50611.3
714.438	50542.15
714.782	50496.72
715.125	50296.05
715.469	50414.47
715.812	50046.11
716.156	50034.59
716.499	50036.85
716.843	50153.91
717.186	49903.29
717.53	50024.19
717.873	49952.56
718.216	49902.39
718.559	49884.54
718.902	49516.86
719.246	49565.22
719.589	49457.88
719.932	49350.31
720.275	49320.48
720.617	49340.82
720.96	49257.89
721.303	49280.26
721.646	49368.84
721.989	48998.68
722.331	49109.19
722.674	49020.6
723.016	48946.03
723.359	48739.71
723.701	48859.7
724.044	48820.83
724.386	48654.96
724.729	48824.45
725.071	48698.58
725.413	48669.88
725.755	48452.26
726.097	48522.31
726.439	48386.27
726.782	48322.99
727.124	48553.5
727.465	48331.36
727.807	48066.96
728.149	48227.18
728.491	47938.15
728.833	48024.7
729.175	47908.99
729.516	47935.89
729.858	47773.63
730.199	47880.29
730.541	47780.86
730.882	47660.19
731.224	47656.8
731.565	47492.73
731.906	47530.93
732.248	47650.47
732.589	47293.64
732.93	47256.36
733.271	47248.9
733.612	47311.5
733.953	47366.86
734.294	47167.77
734.635	47069.69
734.976	47290.48
735.317	47038.73
735.658	47028.11
735.999	46870.83
736.339	47012.52
736.68	46939.98
737.021	46802.58
737.361	46701.12
737.702	46979.53
738.042	46596.94
738.383	46660.67
738.723	46681.68
739.063	46567.33
739.404	46552.65
739.744	46555.81
740.084	46299.77
740.424	46437.62
740.764	46371.63
741.104	46508.58
741.444	46221.58
741.784	46136.16
742.124	46250.28
742.464	46128.25
742.804	45978.88
743.143	45929.39
743.483	46117.63
743.823	45815.49
744.162	45706.11
744.502	45767.58
744.841	45768.03
745.181	45892.1
745.52	45669.96
745.86	45714.02
746.199	45608.94
746.538	45583.41
746.877	45700.69
747.216	45517.42
747.556	45433.13
747.895	45413.01
748.234	45321.72
748.573	45282.17
748.911	45213.92
749.25	45243.75
749.589	44928.06
749.928	45028.84
750.267	45071.56
750.605	44976.64
750.944	44839.47
751.283	44894.16
751.621	44711.34
751.96	44679.93
752.298	44517.45
752.636	44623.43
752.975	44370.56
753.313	44111.35
753.651	44530.33
753.989	44168.75
754.327	44289.43
754.666	43838.37
755.004	44101.86
755.342	43936.9
755.679	43833.17
756.017	43597.24
756.355	43802.21
756.693	43614.64
757.031	43806.28
757.368	43370.58
757.706	43318.83
758.044	43226.41
758.381	43128.1
758.719	43031.16
759.056	43077.48
759.394	42977.6
759.731	42790.71
760.068	42665.97
760.405	42622.13
760.743	42445.41
761.08	42308.24
761.417	42283.15
761.754	42171.74
762.091	42108.47
762.428	41836.39
762.765	41835.48
763.102	41664.86
763.438	41609.73
763.775	41348.72
764.112	41328.15
764.449	41295.61
764.785	41098.33
765.122	40958.44
765.458	40811.78
765.795	40690.43
766.131	40747.83
766.467	40567.94
766.804	40300.16
767.14	40099.93
767.476	40104.68
767.812	40054.96
768.148	40063.78
768.485	39900.39
768.821	39514.64
769.157	39438.03
769.492	39382.67
769.828	39245.49
770.164	38951.94
770.5	38748.78
770.836	38877.59
771.171	38738.16
771.507	38616.58
771.842	38289.81
772.178	38388.79
772.513	38200.32
772.849	38003.04
773.184	38019.76
773.519	37907.9
773.855	37749.04
774.19	37641.47
774.525	37364.41
774.86	37285.55
775.195	37212.55
775.53	37099.34
775.865	36782.96
776.2	36596.07
776.535	36460.93
776.87	36363.31
777.205	36296.42
777.539	36143.2
777.874	36191.56
778.209	35799.48
778.543	35836.09
778.878	35595.87
779.212	35671.35
779.547	35381.41
779.881	35261.19
780.215	34982.55
780.55	35117.69
780.884	34817.81
781.218	34815.1
781.552	34828.66
781.886	34544.6
782.22	34323.14
782.554	34271.39
782.888	33940.77
783.222	34027.33
783.556	33705.98
783.889	33659.2
784.223	33468.92
784.557	33497.62
784.89	33581.69
785.224	33250.85
785.557	33100.12
785.891	33030.52
786.224	32934.92
786.558	32863.29
786.891	32589.17
787.224	32444.77
787.557	32474.37
787.891	32310.53
788.224	32041.39
788.557	32080.48
788.89	31996.42
789.223	31939.02
789.556	31661.51
789.888	31776.09
790.221	31537
790.554	31398.92
790.887	31383.33
791.219	31132.49
791.552	31064.01
791.884	31062.88
792.217	30864.7
792.549	30819.5
792.882	30541.99
793.214	30581.77
793.546	30504.25
793.879	30279.18
794.211	30125.28
794.543	30223.36
794.875	30070.14
795.207	29990.6
795.539	29887.1
795.871	29893.87
796.203	29701.56
796.535	29459.54
796.867	29470.61
797.198	29285.98
797.53	29236.27
797.862	29042.15
798.193	29151.97
798.525	29012.77
798.856	29029.04
799.188	28733.91
799.519	28630.18
799.85	28486.68
800.182	28462.95
800.513	28583.4
800.844	28095.5
801.175	28458.88
801.506	28371.88
801.837	28197.2
802.168	28000.14
802.499	28107.48
802.83	27852.12
803.161	27718.79
803.491	27749.3
803.822	27785.68
804.153	27527.84
804.483	27422.08
804.814	27329.2
805.145	27303.89
805.475	27295.98
805.805	27153.61
806.136	27125.36
806.466	26997.91
806.796	26934.86
807.126	26788.19
807.457	26759.95
807.787	26828.19
808.117	26735.54
808.447	26570.8
808.777	26701.87
809.107	26417.13
809.436	26214.65
809.766	26263.46
810.096	26367.19
810.426	26150.24
810.755	26160.64
811.085	26074.09
811.414	26039.06
811.744	25868.9
812.073	25995.9
812.403	25757.94
812.732	25633.87
813.061	25785.51
813.39	25573.31
813.719	25369.7
814.049	25615.8
814.378	25518.62
814.707	25316.82
815.036	25319.76
815.365	25213.32
815.693	25075.92
816.022	25093.1
816.351	24916.38
816.68	24776.5
817.008	24948.69
817.337	24728.36
817.665	24792.09
817.994	24684.52
818.322	24756.38
818.651	24546.9
818.979	24599.55
819.307	24503.96
819.636	24515.26
819.964	24397.75
820.292	24505.54
820.62	24477.52
820.948	24446.79
821.276	24504.19
821.604	24391.87
821.932	24413.57
822.259	24281.59
822.587	24268.26
822.915	24173.12
823.243	24354.13
823.57	24240.92
823.898	24394.36
824.225	24240.69
824.553	24223.29
824.88	24302.61
825.207	24313.91
825.535	24265.77
825.862	24279.11
826.189	24160.92
826.516	24256.51
826.843	24366.56
827.17	24388.48
827.497	24405.66
827.824	24350.52
828.151	24348.26
828.478	24280.24
828.805	24440.91
829.131	24286.79
829.458	24386.68
829.785	24172.9
830.111	24232.78
830.438	24393.91
830.764	24233.91
831.09	24426.9
831.417	24229.62
831.743	24466.45
832.069	24164.99
832.395	24193.91
832.722	24197.08
833.048	24092.22
833.374	24223.52
833.7	24053.58
834.026	24244.31
834.351	24075.27
834.677	24207.92
835.003	24198.21
835.329	24092.67
835.654	24003.41
835.98	23899.23
836.306	24107.13
836.631	23899.91
836.956	24085.89
837.282	24024.2
837.607	23995.95
837.932	23907.82
838.258	23789.18
838.583	23859.68
838.908	23765.22
839.233	23789.18
839.558	23609.07
839.883	23516.87
840.208	23491.56
840.533	23593.48
840.858	23510.31
841.182	23578.11
841.507	23512.8
841.832	23479.13
842.156	23397.1
842.481	23405.91
842.805	23258.12
843.13	23083.21
843.454	23289.08
843.778	23107.84
844.103	23062.19
844.427	22974.28
844.751	23007.73
845.075	23001.63
845.399	22948.75
845.723	22790.78
846.047	22762.31
846.371	22702.43
846.695	22504.69
847.019	22412.94
847.343	22237.58
847.666	22313.51
847.99	22201.42
848.313	22107.41
848.637	22139.95
848.96	21983.8
849.284	21945.16
849.607	21741.32
849.931	21736.58
850.254	21672.62
850.577	21452.52
850.9	21273.54
851.223	21358.96
851.546	21253.65
851.869	21142.92
852.192	21369.13
852.515	20954
852.838	20850.72
853.161	20989.25
853.483	20697.51
853.806	20750.39
854.129	20574.57
854.451	20723.95
854.774	20485.53
855.096	20392.43
855.419	20428.59
855.741	20362.6
856.063	20267.46
856.385	20279.44
856.708	20157.41
857.03	20104.98
857.352	20164.19
857.674	20004.64
857.996	19816.4
858.318	19783.18
858.64	19838.77
858.961	19735.72
859.283	19647.82
859.605	19511.55
859.926	19591.77
860.248	19544.32
860.57	19307.94
860.891	19427.48
861.212	19351.78
861.534	19369.41
861.855	19116.98
862.176	19221.39
862.498	19288.05
862.819	19188.39
863.14	19142.97
863.461	19202.86
863.782	19115.63
864.103	18994.27
864.424	18965.12
864.745	18978.68
865.065	18885.35
865.386	18889.19
865.707	18893.71
866.027	18853.71
866.348	18774.17
866.668	18734.17
866.989	18724
867.309	18590.9
867.63	18597.9
867.95	18655.75
868.27	18555.19
868.59	18559.26
868.91	18484.23
869.23	18484.91
869.55	18366.72
869.87	18444.01
870.19	18324.01
870.51	18287.4
870.83	18333.73
871.15	18213.05
871.469	18309.32
871.789	18320.62
872.109	18271.36
872.428	18181.41
872.748	18167.4
873.067	18100.06
873.386	18203.79
873.706	18084.24
874.025	18078.37
874.344	17914.98
874.663	17987.75
874.982	17918.82
875.301	17867.3
875.62	17851.25
875.939	17726.96
876.258	17823.23
876.577	17716.79
876.896	17731.71
877.214	17699.62
877.533	17687.19
877.852	17766.51
878.17	17758.6
878.489	17591.83
878.807	17576.23
879.125	17613.29
879.444	17507.99
879.762	17425.28
880.08	17561.77
880.398	17466.63
880.716	17344.83
881.034	17460.53
881.352	17347.54
881.67	17211.72
881.988	17235.45
882.306	17231.16
882.624	17250.82
882.941	17105.06
883.259	17115.91
883.577	17180.08
883.894	16997.94
884.212	16988.9
884.529	16882.69
884.846	16886.53
885.164	16700.55
885.481	16732.87
885.798	16769.93
886.115	16734.9
886.432	16696.03
886.75	16643.83
887.067	16697.16
887.383	16554.11
887.7	16549.82
888.017	16441.35
888.334	16468.69
888.651	16416.26
888.967	16336.94
889.284	16214.23
889.6	16160.9
889.917	16308.24
890.233	16245.19
890.55	16136.5
890.866	16137.63
891.182	16091.07
891.498	16016.95
891.815	15957.52
892.131	15881.36
892.447	15870.74
892.763	15755.72
893.079	15909.38
893.395	15792.1
893.71	15689.73
894.026	15622.16
894.342	15632.78
894.657	15519.79
894.973	15590.3
895.289	15551.43
895.604	15501.03
895.92	15337.2
896.235	15313.69
896.55	15362.05
896.865	15178.78
897.181	15135.39
897.496	15161.83
897.811	15067.15
898.126	15039.35
898.441	14998.9
898.756	15048.62
899.071	14888.39
899.386	14995.28
899.7	14723.2
900.015	14600.04
900.33	14560.27
900.644	14534.05
900.959	14519.36
901.273	14461.96
901.588	14528.18
901.902	14469.2
902.216	14369.99
902.531	14342.19
902.845	14256.55
903.159	14217.68
903.473	14093.16
903.787	14066.49
904.101	13993.28
904.415	14059.04
904.729	13916.67
905.042	13840.51
905.356	13819.72
905.67	13801.42
905.984	13767.52
906.297	13706.05
906.611	13585.38
906.924	13581.31
907.237	13613.63
907.551	13478.49
907.864	13450.47
908.177	13417.92
908.491	13365.27
908.804	13317.36
909.117	13235.33
909.43	13106.97
909.743	13085.73
910.056	13056.13
910.368	12974.77
910.681	12965.51
910.994	12846.64
911.307	12782.46
911.619	12603.03
911.932	12722.58
912.244	12589.47
912.557	12672.86
912.869	12502.24
913.181	12486.88
913.494	12494.33
913.806	12448.23
914.118	12352.64
914.43	12245.53
914.742	12187.67
915.054	12154.91
915.366	12198.97
915.678	12031.75
915.99	12082.59
916.302	11913.33
916.613	11932.31
916.925	11940.45
917.236	11919.21
917.548	11768.48
917.859	11771.41
918.171	11709.04
918.482	11595.83
918.794	11611.42
919.105	11626.11
919.416	11547.24
919.727	11445.09
920.038	11474.7
920.349	11375.27
920.66	11268.38
920.971	11296.17
921.282	11239.45
921.593	11182.05
921.903	11132.33
922.214	10993.36
922.525	10955.84
922.835	10948.16
923.146	10935.05
923.456	10888.05
923.767	10752.68
924.077	10785.45
924.387	10746.36
924.697	10674.27
925.008	10621.39
925.318	10573.48
925.628	10628.17
925.938	10490.09
926.248	10417.32
926.558	10373.71
926.867	10356.08
927.177	10369.42
927.487	10303.66
927.796	10241.28
928.106	10127.62
928.416	10164
928.725	10127.62
929.034	10085.58
929.344	10084.68
929.653	10036.32
929.962	9967.85
930.271	9868.41
930.581	9864.12
930.89	9876.1
931.199	9784.57
931.508	9743.44
931.817	9680.85
932.125	9676.55
932.434	9621.19
932.743	9485.37
933.051	9441.98
933.36	9524.47
933.669	9397.24
933.977	9457.12
934.286	9364.92
934.594	9366.28
934.902	9253.74
935.21	9188.2
935.519	9164.02
935.827	9085.16
936.135	9112.95
936.443	9038.15
936.751	9023.92
937.059	9030.69
937.367	8898.04
937.674	8929.23
937.982	8892.85
938.29	8790.02
938.597	8786.41
938.905	8710.03
939.213	8646.07
939.52	8675
939.827	8751.61
940.135	8643.13
940.442	8602.01
940.749	8529.46
941.056	8563.14
941.363	8420.54
941.67	8393.2
941.977	8368.34
942.284	8320.2
942.591	8338.06
942.898	8245.18
943.205	8242.01
943.511	8176.93
943.818	8218.29
944.125	8150.94
944.431	8084.73
944.738	8097.61
945.044	8046.54
945.35	7951.63
945.657	7960.44
945.963	7890.39
946.269	7911.18
946.575	7885.64
946.881	7821.24
947.187	7789.15
947.493	7745.76
947.799	7675.48
948.105	7656.72
948.41	7667.57
948.716	7624.86
949.022	7591.86
949.327	7584.18
949.633	7426.22
949.938	7461.7
950.244	7466.89
950.549	7383.28
950.854	7360.68
951.16	7266.9
951.465	7338.31
951.77	7230.74
952.075	7193.45
952.38	7239.1
952.685	7244.53
952.99	7164.08
953.294	7121.59
953.599	7097.86
953.904	6988.04
954.209	7020.35
954.513	7032.1
954.818	7016.06
955.122	6969.05
955.426	6911.65
955.731	6857.19
956.035	6807.48
956.339	6796.18
956.643	6810.41
956.948	6714.82
957.252	6728.61
957.556	6756.86
957.86	6678.67
958.163	6694.48
958.467	6606.35
958.771	6574.71
959.075	6538.56
959.378	6495.17
959.682	6536.98
959.985	6469.18
960.289	6432.34
960.592	6411.1
960.896	6355.74
961.199	6373.14
961.502	6265.34
961.805	6271.9
962.108	6224.89
962.411	6250.65
962.714	6183.31
963.017	6146.7
963.32	6213.59
963.623	6079.59
963.926	6141.73
964.228	6086.14
964.531	6069.19
964.833	6054.5
965.136	5944
965.438	5912.81
965.741	5902.42
966.043	5908.29
966.345	5840.27
966.648	5824.45
966.95	5816.99
967.252	5799.14
967.554	5772.25
967.856	5779.03
968.158	5698.35
968.46	5747.17
968.761	5667.39
969.063	5651.8
969.365	5574.74
969.666	5614.51
969.968	5550.33
970.269	5538.81
970.571	5525.48
970.872	5473.5
971.174	5440.96
971.475	5465.36
971.776	5450.68
972.077	5394.41
972.378	5360.28
972.679	5375.88
972.98	5313.73
973.281	5320.06
973.582	5297.23
973.883	5200.51
974.183	5224.24
974.484	5213.17
974.785	5130.46
975.085	5150.12
975.386	5113.28
975.686	5099.72
975.986	5084.13
976.287	5034.19
976.587	5017.69
976.887	5031.25
977.187	4970.01
977.487	4949.67
977.787	4951.25
978.087	4894.53
978.387	4863.12
978.687	4900.41
978.987	4811.6
979.286	4810.69
979.586	4759.17
979.885	4759.85
980.185	4753.07
980.484	4707.64
980.784	4689.34
981.083	4689.34
981.382	4682.11
981.682	4648.66
981.981	4645.5
982.28	4590.81
982.579	4533.41
982.878	4577.7
983.177	4553.52
983.475	4520.76
983.774	4513.53
984.073	4464.49
984.372	4466.97
984.67	4452.06
984.969	4435.11
985.267	4414.77
985.566	4382.68
985.864	4382
986.162	4307.66
986.461	4315.79
986.759	4315.79
987.057	4286.19
987.355	4264.04
987.653	4182.69
987.951	4206.87
988.249	4191.73
988.547	4170.94
988.844	4143.82
989.142	4135.68
989.44	4117.15
989.737	4085.29
990.035	4121.22
990.332	4056.14
990.63	4009.13
990.927	4019.53
991.224	3991.51
991.521	3961.22
991.819	3947.89
992.116	3957.83
992.413	3948.79
992.71	3918.29
993.006	3875.35
993.303	3858.85
993.6	3829.48
993.897	3815.01
994.193	3808.69
994.49	3839.42
994.787	3748.8
995.083	3749.7
995.379	3707.9
995.676	3741.12
995.972	3682.81
996.268	3650.95
996.565	3662.47
996.861	3610.95
997.157	3597.62
997.453	3581.12
997.749	3579.31
998.044	3566.21
998.34	3498.64
998.636	3501.8
998.932	3490.95
999.227	3478.75
999.523	3453.89
999.818	3458.64
1000.114	3427.68
1000.409	3410.05
1000.704	3367.34
1001	3336.61
1001.295	3362.6
1001.59	3344.97
1001.885	3293.67
1002.18	3311.3
1002.475	3274.69
1002.77	3272.43
1003.065	3292.31
1003.359	3225.88
1003.654	3203.28
1003.949	3162.15
1004.243	3149.49
1004.538	3104.07
1004.832	3145.65
1005.127	3095.94
1005.421	3100.46
1005.715	3043.28
1006.009	3076.28
1006.304	3043.51
1006.598	3031.98
1006.892	3032.89
1007.186	3022.94
1007.48	2991.53
1007.773	2926.67
1008.067	2919.22
1008.361	2890.97
1008.655	2858.65
1008.948	2880.35
1009.242	2866.11
1009.535	2842.61
1009.829	2832.21
1010.122	2812.33
1010.415	2810.52
1010.708	2763.97
1011.001	2764.19
1011.295	2711.31
1011.588	2730.3
1011.881	2700.69
1012.173	2686.91
1012.466	2663.4
1012.759	2656.4
1013.052	2653.24
1013.344	2612.56
1013.637	2624.99
1013.93	2624.08
1014.222	2547.02
1014.514	2602.39
1014.807	2546.35
1015.099	2526.91
1015.391	2501.37
1015.683	2476.97
1015.976	2476.29
1016.268	2449.62
1016.56	2453.01
1016.851	2395.61
1017.143	2413.24
1017.435	2390.87
1017.727	2351.55
1018.018	2385.45
1018.31	2342.06
1018.602	2338.67
1018.893	2322.85
1019.185	2288.05
1019.476	2256.18
1019.767	2281.95
1020.058	2285.56
1020.35	2245.79
1020.641	2191.33
1020.932	2198.11
1021.223	2219.35
1021.514	2172.12
1021.804	2166.24
1022.095	2144.55
1022.386	2133.02
1022.677	2142.74
1022.967	2077.43
1023.258	2067.71
1023.548	2067.26
1023.839	2054.16
1024.129	2016.19
1024.419	2029.75
1024.709	2015.06
1025	1985.91
1025.29	1972.8
1025.58	1957.89
1025.87	1950.65
1026.16	1912.69
1026.449	1933.48
1026.739	1911.56
1027.029	1911.79
1027.319	1887.83
1027.608	1872.92
1027.898	1858
1028.187	1843.09
1028.477	1834.5
1028.766	1844.44
1029.055	1838.34
1029.344	1787.95
1029.634	1750.89
1029.923	1771.45
1030.212	1753.6
1030.501	1758.8
1030.79	1702.3
1031.078	1698.91
1031.367	1696.42
1031.656	1740.72
1031.945	1667.72
1032.233	1649.42
1032.522	1662.53
1032.81	1647.61
1033.099	1632.02
1033.387	1626.82
1033.675	1607.39
1033.963	1613.94
1034.251	1583.43
1034.54	1570.33
1034.828	1561.29
1035.116	1534.62
1035.403	1530.78
1035.691	1517.9
1035.979	1512.47
1036.267	1500.72
1036.554	1516.09
1036.842	1526.26
1037.129	1487.62
1037.417	1472.7
1037.704	1456.43
1037.992	1424.34
1038.279	1424.34
1038.566	1418.01
1038.853	1418.01
1039.14	1418.01
