Data from 100_FLMS001491_003.txt Node
Date: Thu Apr 12 17:09:36 BST 2018
User: hsy
Spectrometer: FLMS00149
Trigger mode: 0
Integration Time (sec): 1.000000E-2
Scans to average: 10
Electric dark correction enabled: true
Nonlinearity correction enabled: false
Boxcar width: 0
XAxis mode: Wavelengths
Number of Pixels in Spectrum: 2048
>>>>>Begin Spectral Data<<<<<
341.393	-10.37
341.776	-10.37
342.16	-10.37
342.543	-39.29
342.927	-49.91
343.31	-74.09
343.693	-63.02
344.077	-71.38
344.46	-66.18
344.843	-52.17
345.226	-42.68
345.61	-52.17
345.993	-9.46
346.376	-2.46
346.759	11.78
347.142	22.4
347.525	47.26
347.908	65.34
348.291	91.55
348.674	82.96
349.057	112.34
349.44	131.32
349.823	143.3
350.206	165.45
350.588	232.56
350.971	246.12
351.354	267.14
351.737	294.71
352.119	293.81
352.502	304.2
352.884	326.8
353.267	326.57
353.65	322.73
354.032	364.09
354.414	329.51
354.797	336.97
355.179	353.92
355.562	359.34
355.944	365.44
356.326	375.61
356.709	401.15
357.091	373.13
357.473	384.42
357.855	374.48
358.238	389.17
358.62	400.92
359.002	392.56
359.384	376.97
359.766	377.19
360.148	394.59
360.53	382.39
360.912	379
361.294	347.82
361.676	358.44
362.057	379.45
362.439	372.9
362.821	369.28
363.203	389.17
363.584	384.2
363.966	380.36
364.348	364.09
364.729	385.78
365.111	363.86
365.493	350.08
365.874	373.8
366.256	369.51
366.637	372.9
367.019	365.22
367.4	361.37
367.781	350.53
368.163	369.28
368.544	360.7
368.925	364.54
369.306	388.49
369.688	382.39
370.069	376.74
370.45	338.32
370.831	357.53
371.212	381.26
371.593	388.72
371.974	367.25
372.355	384.65
372.736	389.17
373.117	387.36
373.498	378.78
373.879	370.41
374.26	371.54
374.641	381.94
375.021	377.87
375.402	393.01
375.783	398.89
376.163	395.95
376.544	402.05
376.925	409.96
377.305	397.08
377.686	384.65
378.066	411.99
378.447	412.9
378.827	398.44
379.208	413.8
379.588	413.35
379.968	405.44
380.349	389.62
380.729	401.83
381.109	411.09
381.489	417.64
381.87	441.82
382.25	426.23
382.63	415.16
383.01	414.71
383.39	425.33
383.77	419.45
384.15	454.25
384.53	429.62
384.91	439.56
385.29	416.74
385.67	430.75
386.049	433.46
386.429	468.26
386.809	458.1
387.189	459.23
387.568	466.23
387.948	459
388.328	456.06
388.707	455.61
389.087	473.24
389.466	488.6
389.846	477.53
390.225	485.44
390.605	488.15
390.984	503.07
391.363	489.73
391.743	491.54
392.122	491.31
392.501	490.41
392.881	498.55
393.26	484.99
393.639	523.18
394.018	500.35
394.397	518.88
394.776	505.55
395.155	502.61
395.534	517.3
395.913	509.39
396.292	540.8
396.671	515.95
397.05	525.66
397.429	529.28
397.808	520.47
398.186	543.29
398.565	546.68
398.944	544.87
399.323	576.28
399.701	541.93
400.08	546.91
400.458	558.88
400.837	553.69
401.215	569.5
401.594	554.36
401.972	578.54
402.351	575.61
402.729	581.48
403.107	620.8
403.486	599.11
403.864	613.35
404.242	619.67
404.62	601.59
404.999	616.28
405.377	625.32
405.755	614.7
406.133	624.87
406.511	641.14
406.889	644.98
407.267	657.86
407.645	645.21
408.023	694.7
408.401	673.46
408.779	692.44
409.156	694.93
409.534	697.19
409.912	698.99
410.29	722.04
410.667	729.05
411.045	754.58
411.422	725.88
411.8	747.81
412.178	759.33
412.555	762.49
412.933	782.83
413.31	795.94
413.687	820.8
414.065	819.67
414.442	821.93
414.819	826
415.197	832.32
415.574	874.36
415.951	845.88
416.328	858.99
416.705	873.23
417.082	880.91
417.46	879.1
417.837	925.2
418.214	920.23
418.591	915.94
418.967	913
419.344	952.55
419.721	932.89
420.098	941.02
420.475	955.48
420.852	965.2
421.228	969.49
421.605	959.33
421.982	988.25
422.358	984.41
422.735	1003.84
423.111	999.32
423.488	1015.37
423.864	1012.21
424.241	1041.13
424.617	1056.95
424.994	1059.44
425.37	1041.81
425.746	1049.94
426.123	1065.08
426.499	1081.36
426.875	1099.66
427.251	1133.33
427.627	1137.17
428.003	1155.25
428.379	1169.94
428.756	1179.21
429.132	1185.53
429.507	1192.54
429.883	1210.39
430.259	1222.82
430.635	1231.41
431.011	1242.93
431.387	1270.05
431.763	1278.19
432.138	1281.8
432.514	1290.84
432.89	1310.05
433.265	1343.27
433.641	1329.71
434.016	1333.33
434.392	1370.84
434.767	1403.38
435.143	1385.98
435.518	1381.91
435.894	1407.9
436.269	1443.38
436.644	1440.22
437.02	1446.54
437.395	1482.25
437.77	1508.92
438.145	1498.52
438.52	1528.12
438.895	1511.17
439.271	1513.89
439.646	1552.53
440.021	1568.35
440.395	1592.98
440.77	1541.46
441.145	1591.85
441.52	1620.1
441.895	1618.29
442.27	1637.5
442.645	1605.64
443.019	1639.53
443.394	1655.58
443.769	1642.47
444.143	1661.23
444.518	1666.65
444.892	1718.63
445.267	1682.24
445.641	1693.32
446.016	1726.31
446.39	1714.56
446.764	1726.99
447.139	1743.49
447.513	1751.62
447.887	1758.85
448.262	1811.51
448.636	1803.14
449.01	1806.08
449.384	1822.58
449.758	1851.05
450.132	1818.96
450.506	1829.36
450.88	1879.07
451.254	1875.01
451.628	1909.81
452.002	1955.68
452.376	1943.25
452.75	2024.38
453.123	2001.78
453.497	2001.33
453.871	2015.57
454.244	2072.06
454.618	2060.54
454.992	2114.77
455.365	2119.07
455.739	2171.95
456.112	2169.91
456.486	2249.01
456.859	2219.4
457.232	2258.05
457.606	2341.66
457.979	2326.07
458.352	2352.06
458.725	2390.25
459.099	2428.66
459.472	2422.79
459.845	2498.27
460.218	2445.61
460.591	2496.01
460.964	2545.5
461.337	2552.5
461.71	2601.09
462.083	2642.22
462.456	2629.11
462.829	2684.03
463.201	2728.54
463.574	2733.74
463.947	2754.31
464.32	2803.34
464.692	2828.43
465.065	2848.54
465.438	2919.05
465.81	2936.22
466.183	2962.44
466.555	3014.41
466.928	3015.09
467.3	3013.06
467.672	3097.35
468.045	3160.85
468.417	3195.42
468.789	3138.25
469.161	3230.23
469.534	3302.09
469.906	3327.85
470.278	3373.27
470.65	3359.04
471.022	3435.42
471.394	3477.68
471.766	3551.12
472.138	3585.47
472.51	3666.82
472.882	3674.06
473.253	3754.96
473.625	3770.1
473.997	3881.51
474.369	3897.1
474.74	3984.33
475.112	4030.66
475.484	4082.86
475.855	4176.19
476.227	4168.05
476.598	4324.89
476.97	4408.95
477.341	4507.48
477.713	4534.37
478.084	4587.48
478.455	4716.74
478.827	4772.56
479.198	4923.06
479.569	4929.39
479.94	5073.12
480.311	5148.59
480.682	5292.54
481.053	5387.68
481.424	5483.5
481.795	5553.33
482.166	5621.8
482.537	5718.75
482.908	5872.64
483.279	5936.82
483.65	6102.69
484.021	6203.71
484.391	6381.1
484.762	6405.28
485.133	6513.98
485.503	6685.73
485.874	6804.37
486.244	6922.11
486.615	7154.87
486.985	7209.56
487.356	7402.32
487.726	7538.36
488.097	7738.81
488.467	7878.47
488.837	8089.31
489.207	8207.5
489.578	8378.34
489.948	8527.49
490.318	8726.8
490.688	8816.97
491.058	9013.12
491.428	9303.51
491.798	9385.54
492.168	9637.74
492.538	9802.48
492.908	10022.36
493.278	10185.98
493.648	10360.21
494.017	10642.23
494.387	10870.93
494.757	10951.83
495.126	11157.7
495.496	11371.48
495.866	11560.4
496.235	11822.32
496.605	12004.23
496.974	12257.11
497.344	12480.83
497.713	12700.03
498.082	12818.67
498.452	13160.59
498.821	13451.43
499.19	13616.85
499.559	13855.26
499.928	14123.72
500.298	14298.18
500.667	14615.92
501.036	14799.87
501.405	15089.57
501.774	15248.21
502.143	15495.67
502.512	15770.46
502.88	16069.89
503.249	16273.5
503.618	16588.97
503.987	16786.48
504.356	17110.09
504.724	17333.13
505.093	17525.9
505.462	17770.63
505.83	17977.41
506.199	18352.54
506.567	18726.54
506.936	18972.18
507.304	19307.77
507.672	19582.11
508.041	19824.59
508.409	19996.34
508.777	20388.42
509.145	20632.03
509.514	20760.39
509.882	21153.14
510.25	21211.22
510.618	21683.07
510.986	21833.35
511.354	22124.87
511.722	22471.53
512.09	22833.33
512.458	22926.66
512.826	23338.17
513.193	23439.19
513.561	23628.79
513.929	23965.5
514.297	24334.53
514.664	24619.27
515.032	24665.82
515.4	25117.11
515.767	25155.3
516.135	25560.71
516.502	25581.28
516.869	26100.81
517.237	26377.19
517.604	26364.53
517.972	26904.41
518.339	27013.1
518.706	27315.47
519.073	27453.09
519.44	27746.64
519.808	28148.89
520.175	28297.59
520.542	28703.23
520.909	28841.76
521.276	29115.65
521.643	29510.21
522.009	29684.9
522.376	29956.08
522.743	30213.47
523.11	30665.44
523.477	30861.14
523.843	31224.29
524.21	31744.5
524.577	31925.29
524.943	32141.78
525.31	32311.04
525.676	32796.23
526.043	33005.04
526.409	33170.46
526.776	33565.47
527.142	33832.58
527.508	34031.9
527.874	34409.74
528.241	34629.63
528.607	34746.69
528.973	35113.91
529.339	35202.04
529.705	35581.92
530.071	36044.28
530.437	36083.6
530.803	36267.32
531.169	36655.34
531.535	36740.31
531.901	36969.45
532.267	37126.28
532.632	37532.6
532.998	37610.11
533.364	37921.29
533.73	38056.2
534.095	38432.69
534.461	38465.91
534.826	38664.1
535.192	38693.93
535.557	39141.82
535.923	39068.15
536.288	39364.87
536.653	39547.01
537.019	39688.7
537.384	39922.14
537.749	39867.23
538.114	40116.04
538.479	40172.08
538.845	40452.75
539.21	40553.31
539.575	40814.1
539.94	40829.24
540.305	41106.97
540.67	41069.91
541.034	41318.72
541.399	41329.34
541.764	41422.67
542.129	41624.92
542.494	41844.58
542.858	41963.44
543.223	41953.05
543.587	42252.02
543.952	42313.72
544.316	42499.7
544.681	42559.36
545.045	42772.91
545.41	42962.74
545.774	42902.4
546.138	43142.4
546.503	43300.36
546.867	43265.33
547.231	43599.33
547.595	43748.93
547.959	43896.05
548.324	44075.03
548.688	44105.31
549.052	44240.45
549.416	44259.43
549.779	44375.36
550.143	44518.63
550.507	44820.77
550.871	45028.45
551.235	44988.45
551.599	45389.12
551.962	45478.38
552.326	45602.9
552.689	45660.07
553.053	45554.76
553.417	45933.74
553.78	46245.82
554.143	46484.68
554.507	46466.83
554.87	46599.71
555.234	47057.55
555.597	46790.21
555.96	46990.43
556.323	47331.21
556.686	47370.99
557.05	47671.32
557.413	47745.44
557.776	47837.87
558.139	48128.93
558.502	48129.16
558.865	48359.66
559.228	48624.74
559.59	48846.2
559.953	48716.04
560.316	49229.92
560.679	49223.14
561.041	49414.1
561.404	49786.06
561.767	49930.24
562.129	49904.7
562.492	50174.08
562.854	50301.3
563.217	50364.81
563.579	50551.47
563.941	50859.71
564.304	51034.62
564.666	51185.8
565.028	51136.76
565.39	51397.09
565.753	51652.68
566.115	51699.91
566.477	51870.98
566.839	51975.61
567.201	52280.91
567.563	52280.24
567.925	52608.36
568.287	52630.28
568.648	52712.99
569.01	52893.55
569.372	53111.4
569.734	53116.82
570.095	53303.49
570.457	53444.95
570.819	53525.63
571.18	53592.07
571.542	53778.73
571.903	53803.36
572.265	53991.6
572.626	54120.64
572.987	54140.75
573.349	54321.99
573.71	54440.86
574.071	54515.43
574.432	54723.11
574.794	54876.78
575.155	54938.24
575.516	54917.91
575.877	55069.54
576.238	55056.89
576.599	55199.03
576.96	55244.9
577.32	55326.03
577.681	55363.54
578.042	55508.4
578.403	55525.12
578.763	55528.06
579.124	55570.09
579.485	55773.03
579.845	55772.12
580.206	55809.86
580.566	55779.35
580.927	55803.31
581.287	55910.2
581.648	55864.32
582.008	56017.76
582.368	55986.8
582.728	55993.13
583.089	55977.77
583.449	55923.3
583.809	56044.66
584.169	56146.35
584.529	55992.45
584.889	56225.67
585.249	56097.08
585.609	56044.88
585.969	56159.23
586.329	56020.7
586.688	56115.84
587.048	56184.77
587.408	56134.15
587.768	56074.71
588.127	56157.2
588.487	56052.11
588.846	56327.36
589.206	55998.33
589.565	56136.63
589.925	56266.12
590.284	56169.4
590.643	56152.9
591.003	56192.9
591.362	56351.54
591.721	56307.02
592.08	56217.53
592.44	56346.8
592.799	56285.55
593.158	56336.85
593.517	56171.88
593.876	56279.45
594.235	56302.05
594.593	56302.05
594.952	56326.23
595.311	56322.39
595.67	56311.09
596.029	56444.42
596.387	56519.22
596.746	56538.43
597.104	56416.17
597.463	56374.37
597.822	56577.52
598.18	56544.08
598.538	56467.92
598.897	56651.42
599.255	56444.42
599.613	56790.63
599.972	56635.83
600.33	56619.1
600.688	56591.53
601.046	56687.13
601.404	56842.15
601.762	56781.36
602.12	56889.61
602.478	56832.21
602.836	56845.99
603.194	56713.79
603.552	56839.89
603.91	56810.74
604.268	56865.88
604.625	56837.18
604.983	57076.95
605.341	56883.96
605.698	57105.42
606.056	57186.55
606.413	57042.37
606.771	57248.69
607.128	57132.54
607.485	57074.46
607.843	57208.02
608.2	57247.79
608.557	57378.86
608.914	57299.76
609.272	57409.59
609.629	57502.92
609.986	57590.15
610.343	57526.88
610.7	57761.9
611.057	57663.82
611.414	57640.32
611.771	57876.7
612.127	57826.76
612.484	57775.01
612.841	57914.66
613.198	57892.97
613.554	57839.86
613.911	58093.87
614.267	58066.75
614.624	58038.05
614.98	58160.76
615.337	58295.67
615.693	58278.5
616.05	58273.07
616.406	58385.39
616.762	58371.6
617.118	58381.54
617.475	58373.63
617.831	58481.2
618.187	58487.53
618.543	58611.14
618.899	58708.77
619.255	58674.42
619.611	58599.39
619.967	58801.19
620.323	58899.95
620.678	58753.06
621.034	58682.33
621.39	58763.68
621.746	58804.36
622.101	59016.78
622.457	58770.01
622.812	58976.33
623.168	58988.31
623.523	58947.86
623.879	59061.53
624.234	58906.05
624.589	58986.27
624.945	59039.15
625.3	58995.77
625.655	59082.77
626.01	59059.27
626.365	59019.49
626.72	59042.54
627.075	59000.96
627.43	59021.98
627.785	59011.81
628.14	59044.13
628.495	59162.99
628.85	59108.76
629.205	59005.93
629.559	59099.49
629.914	59086.16
630.269	59027.4
630.623	58925.94
630.978	58918.93
631.332	59018.59
631.687	59031.24
632.041	58970.91
632.396	58972.71
632.75	59022.66
633.104	59035.31
633.459	58878.48
633.813	58872.15
634.167	58867.18
634.521	58854.3
634.875	58893.17
635.229	58812.95
635.583	58757.13
635.937	58710.8
636.291	58692.95
636.645	58708.54
636.999	58576.57
637.352	58763.68
637.706	58545.16
638.06	58688.65
638.413	58530.24
638.767	58476
639.121	58517.36
639.474	58396.91
639.828	58421.77
640.181	58394.88
640.534	58437.14
640.888	58361.88
641.241	58290.47
641.594	58353.07
641.947	58378.83
642.301	58206.86
642.654	58353.75
643.007	58199.4
643.36	58277.14
643.713	58187.42
644.066	58301.77
644.419	58086.64
644.771	57872.63
645.124	57622.92
645.477	57614.78
645.83	57510.15
646.182	57461.12
646.535	57402.13
646.888	57438.74
647.24	57439.2
647.593	57541.34
647.945	57335.7
648.298	57270.61
648.65	57168.69
649.002	57150.39
649.355	57122.82
649.707	57000.11
650.059	57044.63
650.411	57329.14
650.763	57479.87
651.115	57867.89
651.467	57645.74
651.819	57651.85
652.171	57639.19
652.523	57523.04
652.875	57621.34
653.227	57421.57
653.578	57643.03
653.93	57525.07
654.282	57494.11
654.633	57421.57
654.985	57486.43
655.337	57440.55
655.688	57412.98
656.039	57462.7
656.391	57228.81
656.742	57357.39
657.094	57293.21
657.445	57320.33
657.796	57317.62
658.147	57228.35
658.498	57297.96
658.849	57339.54
659.2	57257.28
659.551	57201.24
659.902	57311.74
660.253	57196.72
660.604	57239.2
660.955	57120.33
661.306	57229.26
661.656	57135.93
662.007	57132.09
662.358	57073.1
662.708	57143.38
663.059	57024.97
663.409	56864.3
663.76	57022.71
664.11	56954.91
664.461	57013.9
664.811	57002.15
665.161	56995.59
665.511	56917.18
665.862	56942.26
666.212	56976.16
666.562	56962.6
666.912	56879.66
667.262	56805.99
667.612	56852.77
667.962	56876.5
668.312	56848.93
668.662	56989.26
669.011	56963.28
669.361	56820.23
669.711	56816.39
670.06	56774.13
670.41	56725.77
670.76	56692.55
671.109	56890.51
671.459	56829.49
671.808	56798.76
672.157	56822.71
672.507	56634.92
672.856	56674.92
673.205	56699.33
673.554	56738.88
673.904	56655.04
674.253	56831.08
674.602	56720.8
674.951	56375.95
675.3	56175.95
675.649	56693.45
675.998	56673.11
676.346	56694.36
676.695	56700.68
677.044	56455.04
677.393	56597.41
677.741	56653.91
678.09	56540.24
678.438	56496.4
678.787	56564.42
679.135	56526.45
679.484	56381.6
679.832	56464.76
680.181	56484.42
680.529	56486.9
680.877	56412.78
681.225	56346.8
681.573	56500.46
681.922	56385.44
682.27	56279.9
682.618	56383.63
682.966	56249.4
683.314	56237.19
683.661	56230.41
684.009	56192.22
684.357	56110.87
684.705	56039.68
685.053	56225.44
685.4	56025.22
685.748	55912.23
686.095	55910.87
686.443	55791.33
686.79	55810.54
687.138	55942.29
687.485	55938.44
687.832	55803.98
688.18	55842.4
688.527	55740.26
688.874	55691.22
689.221	55678.34
689.568	55562.86
689.915	55493.03
690.262	55497.33
690.609	55423.43
690.956	55411
691.303	55378.69
691.65	55180.95
691.997	55227.05
692.344	55102.08
692.69	55107.28
693.037	55140.27
693.383	54862.99
693.73	55006.27
694.077	54858.25
694.423	54843.11
694.769	54803.56
695.116	54718.59
695.462	54676.1
695.808	54566.96
696.155	54668.87
696.501	54370.12
696.847	54458.48
697.193	54276.57
697.539	54372.84
697.885	54129.23
698.231	54101.66
698.577	54093.07
698.923	54057.36
699.269	53862.11
699.614	53786.41
699.96	53724.94
700.306	53711.38
700.651	53680.2
700.997	53459.19
701.342	53482.46
701.688	53511.16
702.033	53325.86
702.379	53203.15
702.724	53150.5
703.069	53285.41
703.415	52949.6
703.76	52920.44
704.105	52929.94
704.45	52835.02
704.795	52712.54
705.14	52703.95
705.485	52597.52
705.83	52341.93
706.175	52494.24
706.52	52421.93
706.865	52299.44
707.209	52093.57
707.554	52108.04
707.899	52177.19
708.243	52064.42
708.588	52032.78
708.932	51792.56
709.277	51890.87
709.621	51732.68
709.966	51539.24
710.31	51545.57
710.654	51414.72
710.998	51510.31
711.342	51466.92
711.687	51271.45
712.031	51276.87
712.375	51103.09
712.719	51079.59
713.063	50906.71
713.407	51141.96
713.75	50982.42
714.094	50948.75
714.438	50710.79
714.782	50856.54
715.125	50554.18
715.469	50705.59
715.812	50464.69
716.156	50474.63
716.499	50420.62
716.843	50424.24
717.186	50200.52
717.53	50359.83
717.873	50392.15
718.216	50247.75
718.559	50108.32
718.902	49799.62
719.246	49885.04
719.589	49779.06
719.932	49645.5
720.275	49713.98
720.617	49652.73
720.96	49518.5
721.303	49482.34
721.646	49628.78
721.989	49400.09
722.331	49550.36
722.674	49385.62
723.016	49335.68
723.359	49291.16
723.701	49293.42
724.044	49201.45
724.386	48866.99
724.729	49006.65
725.071	49057.27
725.413	48963.03
725.755	48923.94
726.097	48707.9
726.439	48591.07
726.782	48562.37
727.124	48821.8
727.465	48624.51
727.807	48536.15
728.149	48473.33
728.491	48196.95
728.833	48402.82
729.175	48232.21
729.516	48174.35
729.858	48213.45
730.199	48272.43
730.541	48184.52
730.882	48055.71
731.224	48045.54
731.565	47871.99
731.906	47915.6
732.248	47927.81
732.589	47680.81
732.93	47577.53
733.271	47788.83
733.612	47606.23
733.953	47721.03
734.294	47503.64
734.635	47445.79
734.976	47613.92
735.317	47389.29
735.658	47305.23
735.999	47227.49
736.339	47239.69
736.68	47251.67
737.021	47200.82
737.361	47041.28
737.702	47217.09
738.042	47046.47
738.383	47006.48
738.723	47180.93
739.063	46887.83
739.404	47136.19
739.744	46867.04
740.084	46798.12
740.424	46813.94
740.764	46710.21
741.104	46793.15
741.444	46509.99
741.784	46500.27
742.124	46626.37
742.464	46568.52
742.804	46571.69
743.143	46306.38
743.483	46427.06
743.823	46143.67
744.162	46317.45
744.502	46229.55
744.841	45927.63
745.181	46196.78
745.52	46060.29
745.86	46090.34
746.199	45999.95
746.538	45898.26
746.877	46029.78
747.216	45975.32
747.556	45723.12
747.895	45854.42
748.234	45755.44
748.573	45631.14
748.911	45435.67
749.25	45431.15
749.589	45331.49
749.928	45304.6
750.267	45312.06
750.605	45295.33
750.944	45213.98
751.283	45062.57
751.621	45189.8
751.96	44964.95
752.298	44939.19
752.636	44903.03
752.975	44829.58
753.313	44613.77
753.651	44741.9
753.989	44526.77
754.327	44471.85
754.666	44256.04
755.004	44224.4
755.342	44178.53
755.679	44298.98
756.017	44055.82
756.355	44068.02
756.693	43889.5
757.031	43979.66
757.368	43617.19
757.706	43647.69
758.044	43531.76
758.381	43489.96
758.719	43419.23
759.056	43360.24
759.394	43159.8
759.731	42986.69
760.068	42871.22
760.405	42884.78
760.743	42673.03
761.08	42735.63
761.417	42445.24
761.754	42341.74
762.091	42380.61
762.428	42196.66
762.765	42138.81
763.102	42066.04
763.438	41950.79
763.775	41702.43
764.112	41622.21
764.449	41604.36
764.785	41496.79
765.122	41331.14
765.458	41143.13
765.795	41105.39
766.131	40959.86
766.467	40942.23
766.804	40513.77
767.14	40414.11
767.476	40575.46
767.812	40323.04
768.148	40357.16
768.485	40123.49
768.821	39760.79
769.157	39649.38
769.492	39612.55
769.828	39577.52
770.164	39360.12
770.5	39180.69
770.836	39216.85
771.171	39053.46
771.507	38857.99
771.842	38644.44
772.178	38570.09
772.513	38617.54
772.849	38296.87
773.184	38218.91
773.519	38263.43
773.855	37925.81
774.19	37866.38
774.525	37660.96
774.86	37571.47
775.195	37490.79
775.53	37306.84
775.865	37116.11
776.2	36885.16
776.535	36765.84
776.87	36697.82
777.205	36498.5
777.539	36336.02
777.874	36503.02
778.209	36088.8
778.543	36137.84
778.878	35767
779.212	35882.47
779.547	35576.49
779.881	35661.69
780.215	35350.29
780.55	35361.13
780.884	35083.85
781.218	35031.2
781.552	34983.29
781.886	34694.94
782.22	34506.47
782.554	34433.25
782.888	34348.5
783.222	34136.53
783.556	34032.35
783.889	33926.14
784.223	33760.04
784.557	33744.68
784.89	33820.38
785.224	33377.46
785.557	33398.47
785.891	33259.72
786.224	33250.23
786.558	33228.08
786.891	32953.51
787.224	32793.06
787.557	32636.46
787.891	32598.95
788.224	32426.75
788.557	32424.71
788.89	32335.22
789.223	32283.02
789.556	32106.53
789.888	31897.72
790.221	31872.18
790.554	31626.32
790.887	31637.39
791.219	31493.89
791.552	31419.99
791.884	31194.69
792.217	31156.05
792.549	31035.6
792.882	30743.85
793.214	30670.86
793.546	30772.1
793.879	30577.98
794.211	30308.84
794.543	30461.15
794.875	30347.48
795.207	30275.39
795.539	30103.64
795.871	30183.64
796.203	29996.08
796.535	29689.42
796.867	29751.79
797.198	29508.18
797.53	29434.51
797.862	29222.31
798.193	29385.24
798.525	29302.99
798.856	29248.98
799.188	28969.21
799.519	28766.28
799.85	28725.6
800.182	28707.07
800.513	28782.1
800.844	28364.25
801.175	28608.77
801.506	28465.95
801.837	28354.76
802.168	28240.42
802.499	28320.87
802.83	28046.52
803.161	27936.02
803.491	28012.63
803.822	27964.04
804.153	27645.86
804.483	27691.5
804.814	27449.93
805.145	27492.64
805.475	27504.16
805.805	27425.97
806.136	27398.4
806.466	27231.85
806.796	27235.02
807.126	26992.99
807.457	26913.44
807.787	26945.08
808.117	26852.2
808.447	26710.74
808.777	26772.66
809.107	26551.87
809.436	26544.19
809.766	26447.47
810.096	26551.42
810.426	26291.77
810.755	26409.96
811.085	26270.52
811.414	26311.88
811.744	26136.29
812.073	26054.03
812.403	25874.83
812.732	25804.55
813.061	26084.99
813.39	25693.36
813.719	25679.35
814.049	25844.77
814.378	25651.11
814.707	25574.95
815.036	25537.89
815.365	25375.18
815.693	25266.71
816.022	25377.44
816.351	25237.33
816.68	24941.75
817.008	25129.31
817.337	24955.98
817.665	24993.72
817.994	24911.69
818.322	24974.29
818.651	24852.26
818.979	24740.17
819.307	24819.04
819.636	24755.76
819.964	24644.58
820.292	24651.58
820.62	24553.05
820.948	24686.16
821.276	24747.4
821.604	24584.24
821.932	24725.93
822.259	24598.93
822.587	24509.67
822.915	24455.2
823.243	24634.18
823.57	24400.97
823.898	24653.17
824.225	24479.61
824.553	24440.97
824.88	24494.53
825.207	24558.03
825.535	24534.07
825.862	24496.79
826.189	24590.12
826.516	24619.49
826.843	24502.43
827.17	24611.81
827.497	24575.65
827.824	24600.51
828.151	24538.82
828.478	24491.81
828.805	24594.86
829.131	24523.9
829.458	24506.05
829.785	24403.68
830.111	24379.27
830.438	24549.21
830.764	24483
831.09	24572.26
831.417	24376.11
831.743	24542.21
832.069	24457.92
832.395	24390.35
832.722	24506.28
833.048	24338.6
833.374	24463.79
833.7	24221.99
834.026	24408.88
834.351	24334.08
834.677	24422.21
835.003	24300.63
835.329	24341.99
835.654	24338.82
835.98	24165.27
836.306	24244.14
836.631	24049.11
836.956	24301.54
837.282	24162.33
837.607	24123.69
837.932	24110.58
838.258	24046.63
838.583	24080.98
838.908	23900.64
839.233	24047.98
839.558	23880.53
839.883	23813.19
840.208	23714.43
840.533	23766.18
840.858	23740.19
841.182	23669.01
841.507	23664.26
841.832	23597.83
842.156	23686.64
842.481	23581.33
842.805	23386.53
843.13	23441.67
843.454	23462.46
843.778	23377.27
844.103	23243.26
844.427	23139.08
844.751	23190.6
845.075	23138.4
845.399	23116.03
845.723	22983.83
846.047	22975.24
846.371	22818.19
846.695	22621.81
847.019	22617.29
847.343	22472.88
847.666	22420
847.99	22348.37
848.313	22281.02
848.637	22169.84
848.96	22246
849.284	22099.56
849.607	21994.93
849.931	21846.23
850.254	21783.64
850.577	21680.14
850.9	21501.38
851.223	21517.43
851.546	21444.44
851.869	21275.63
852.192	21429.75
852.515	21176.65
852.838	21026.37
853.161	21123.31
853.483	20952.02
853.806	20975.97
854.129	20773.04
854.451	20766.26
854.774	20755.19
855.096	20574.18
855.419	20560.84
855.741	20606.94
856.063	20371.92
856.385	20267.07
856.708	20300.29
857.03	20276.11
857.352	20210.8
857.674	20173.96
857.996	20091.03
858.318	19805.38
858.64	20006.28
858.961	19852.61
859.283	19798.15
859.605	19799.28
859.926	19837.7
860.248	19721.77
860.57	19542.34
860.891	19612.17
861.212	19517.03
861.534	19420.76
861.855	19386.64
862.176	19421.21
862.498	19456.24
862.819	19395
863.14	19362.68
863.461	19282.01
863.782	19304.38
864.103	19230.03
864.424	19193.65
864.745	19112.29
865.065	19037.27
865.386	18927.67
865.707	19019.42
866.027	19040.43
866.348	18863.49
866.668	18884.73
866.989	18858.52
867.309	18636.6
867.63	18760.21
867.95	18762.7
868.27	18663.72
868.59	18682.7
868.91	18620.78
869.23	18585.08
869.55	18583.49
869.87	18659.42
870.19	18525.64
870.51	18575.81
870.83	18478.19
871.15	18462.82
871.469	18398.19
871.789	18424.63
872.109	18457.85
872.428	18361.13
872.748	18402.71
873.067	18306.21
873.386	18277.74
873.706	18278.64
874.025	18134.69
874.344	18023.28
874.663	18182.15
874.982	18104.64
875.301	17978.54
875.62	18000.46
875.939	17953.68
876.258	18010.18
876.577	17848.15
876.896	17885.66
877.214	17847.69
877.533	17870.07
877.852	17798.66
878.17	17789.62
878.489	17903.96
878.807	17683.18
879.125	17786
879.444	17624.2
879.762	17656.97
880.08	17635.27
880.398	17524.09
880.716	17534.93
881.034	17556.18
881.352	17555.95
881.67	17482.51
881.988	17385.33
882.306	17259.91
882.624	17405.9
882.941	17227.37
883.259	17245.45
883.577	17231.89
883.894	17173.81
884.212	17100.6
884.529	17158.45
884.846	16972.69
885.164	16985.8
885.481	16910.09
885.798	16938.34
886.115	16910.09
886.432	16949.41
886.75	16855.86
887.067	16850.21
887.383	16772.47
887.7	16744.22
888.017	16581.51
888.334	16609.76
888.651	16509.65
888.967	16548.07
889.284	16510.1
889.6	16378.81
889.917	16396.43
890.233	16416.55
890.55	16257.45
890.866	16259.04
891.182	16289.77
891.498	16121.64
891.815	16130.45
892.131	16041.87
892.447	15953.06
892.763	16012.94
893.079	15918.71
893.395	15818.14
893.71	15787.64
894.026	15801.65
894.342	15762.78
894.657	15573.18
894.973	15617.24
895.289	15607.08
895.604	15575.44
895.92	15391.04
896.235	15248.89
896.55	15454.09
896.865	15340.19
897.181	15350.36
897.496	15221.77
897.811	15190.82
898.126	15100.2
898.441	15030.59
898.756	15111.5
899.071	14946.08
899.386	15006.87
899.7	14860.88
900.015	14725.97
900.33	14608.91
900.644	14626.54
900.959	14637.16
901.273	14621.11
901.588	14545.63
901.902	14487.1
902.216	14456.6
902.531	14337.5
902.845	14394.23
903.159	14265.42
903.473	14228.81
903.787	14139.77
904.101	14139.77
904.415	14019.77
904.729	14038.53
905.042	13980.23
905.356	13891.87
905.67	13883.05
905.984	13883.28
906.297	13803.06
906.611	13706.33
906.924	13662.72
907.237	13699.1
907.551	13555.83
907.864	13509.73
908.177	13439
908.491	13443.97
908.804	13307.02
909.117	13265.89
909.43	13237.19
909.743	13201.94
910.056	13112.23
910.368	13110.19
910.681	13060.7
910.994	12967.6
911.307	12889.63
911.619	12840.14
911.932	12848.73
912.244	12723.54
912.557	12772.8
912.869	12647.38
913.181	12622.07
913.494	12630.88
913.806	12477.67
914.118	12368.74
914.43	12438.35
914.742	12418.68
915.054	12283.1
915.366	12290.33
915.678	12186.83
915.99	12208.29
916.302	12044.91
916.613	12013.72
916.925	12001.75
917.236	11947.06
917.548	11931.47
917.859	11866.61
918.171	11741.41
918.482	11674.98
918.794	11744.13
919.105	11653.51
919.416	11597.69
919.727	11545.04
920.038	11485.83
920.349	11420.52
920.66	11448.77
920.971	11392.72
921.282	11422.78
921.593	11306.85
921.903	11203.8
922.214	11214.2
922.525	11095.1
922.835	11079.06
923.146	11020.53
923.456	10910.25
923.767	11009.68
924.077	10882.91
924.387	10843.36
924.697	10860.53
925.008	10722.68
925.318	10732.85
925.628	10730.82
925.938	10597.26
926.248	10594.78
926.558	10477.94
926.867	10494.89
927.177	10409.02
927.487	10416.7
927.796	10289.7
928.106	10369.25
928.416	10259.42
928.725	10279.76
929.034	10140.33
929.344	10186.88
929.653	10054.68
929.962	10030.5
930.271	9970.16
930.581	9976.72
930.89	9887.68
931.199	9915.47
931.508	9844.97
931.817	9760.22
932.125	9802.26
932.434	9696.27
932.743	9564.97
933.051	9592.54
933.36	9534.69
933.669	9423.06
933.977	9438.2
934.286	9445.66
934.594	9395.71
934.902	9376.28
935.21	9328.82
935.519	9266.45
935.827	9267.13
936.135	9166.34
936.443	9140.8
936.751	9063.07
937.059	9113.01
937.367	8994.14
937.674	9057.19
937.982	8998.89
938.29	8926.35
938.597	8920.25
938.905	8791.21
939.213	8772.9
939.52	8789.18
939.827	8768.39
940.135	8698.1
940.442	8629.63
940.749	8567.03
941.056	8648.16
941.363	8517.32
941.67	8475.96
941.977	8470.77
942.284	8341.73
942.591	8393.03
942.898	8382.18
943.205	8376.08
943.511	8288.17
943.818	8253.14
944.125	8123.2
944.431	8125.24
944.738	8100.15
945.044	8114.84
945.35	8046.14
945.657	8036.88
945.963	7955.53
946.269	7950.78
946.575	7913.94
946.881	7826.26
947.187	7844.57
947.493	7754.85
947.799	7744.46
948.105	7744.46
948.41	7678.92
948.716	7674.85
949.022	7631.92
949.327	7557.34
949.633	7469.44
949.938	7575.65
950.244	7556.67
950.549	7404.13
950.854	7420.4
951.16	7344.47
951.465	7299.72
951.77	7297.46
952.075	7266.96
952.38	7228.54
952.685	7229.22
952.99	7172.5
953.294	7128.65
953.599	7130.01
953.904	7037.36
954.209	7035.1
954.513	7036.91
954.818	6996.45
955.122	7032.39
955.426	6968.21
955.731	6887.76
956.035	6880.07
956.339	6825.16
956.643	6794.43
956.948	6747.87
957.252	6704.03
957.556	6751.49
957.86	6643.92
958.163	6631.04
958.467	6673.98
958.771	6610.48
959.075	6620.42
959.378	6516.69
959.682	6555.11
959.985	6505.85
960.289	6453.64
960.592	6400.54
960.896	6383.36
961.199	6398.28
961.502	6361.89
961.805	6335
962.108	6256.36
962.411	6253.88
962.714	6205.29
963.017	6171.62
963.32	6168
963.623	6139.98
963.926	6146.99
964.228	6122.13
964.531	6117.61
964.833	6055.91
965.136	6008.01
965.438	6004.62
965.741	5906.77
966.043	5971.62
966.345	5874.22
966.648	5914
966.95	5814.56
967.252	5833.77
967.554	5813.43
967.856	5783.83
968.158	5742.25
968.46	5762.81
968.761	5713.1
969.063	5665.64
969.365	5581.58
969.666	5618.41
969.968	5570.28
970.269	5534.35
970.571	5485.08
970.872	5506.78
971.174	5471.07
971.475	5417.29
971.776	5410.06
972.077	5422.03
972.378	5349.72
972.679	5383.39
972.98	5399.21
973.281	5325.31
973.582	5319.21
973.883	5314.24
974.183	5246.9
974.484	5234.01
974.785	5207.57
975.085	5197.86
975.386	5206.22
975.686	5111.31
975.986	5127.35
976.287	5072.89
976.587	5061.82
976.887	5027.69
977.187	4987.69
977.487	4994.7
977.787	4980.01
978.087	4992.21
978.387	4947.92
978.687	4900.69
978.987	4892.1
979.286	4848.49
979.586	4883.06
979.885	4813.24
980.185	4801.94
980.484	4767.59
980.784	4731.2
981.083	4710.86
981.382	4698.89
981.682	4703.63
981.981	4686.91
982.28	4635.61
982.579	4594.94
982.878	4616.18
983.177	4551.77
983.475	4548.61
983.774	4507.48
984.073	4489.4
984.372	4459.12
984.67	4473.36
984.969	4420.25
985.267	4421.61
985.566	4438.33
985.864	4389.29
986.162	4401.04
986.461	4356.98
986.759	4335.51
987.057	4296.41
987.355	4281.5
987.653	4289.18
987.951	4246.02
988.249	4242.4
988.547	4199.92
988.844	4188.62
989.142	4176.64
989.44	4132.35
989.737	4129.19
990.035	4095.29
990.332	4091.67
990.63	4018.68
990.927	4047.61
991.224	4022.07
991.521	4023.2
991.819	3986.14
992.116	3948.4
992.413	3927.61
992.71	3916.76
993.006	3865.92
993.303	3908.4
993.6	3910.89
993.897	3868.18
994.193	3835.41
994.49	3840.83
994.787	3811
995.083	3766.71
995.379	3736.2
995.676	3747.27
995.972	3757.67
996.268	3700.27
996.565	3650.33
996.861	3658.46
997.157	3582.76
997.453	3576.88
997.749	3617.79
998.044	3561.74
998.34	3617.33
998.636	3569.43
998.932	3527.62
999.227	3496.89
999.523	3512.7
999.818	3453.95
1000.114	3429.32
1000.409	3438.81
1000.704	3438.13
1001	3375.98
1001.295	3336.44
1001.59	3300.96
1001.885	3337.79
1002.18	3289.21
1002.475	3301.41
1002.77	3275.87
1003.065	3256.89
1003.359	3233.39
1003.654	3205.59
1003.949	3164.69
1004.243	3172.15
1004.538	3148.42
1004.832	3132.15
1005.127	3126.5
1005.421	3087.86
1005.715	3097.8
1006.009	3128.53
1006.304	3063.68
1006.598	3039.95
1006.892	3031.81
1007.186	2988.65
1007.48	2985.03
1007.773	2985.71
1008.067	2966.73
1008.361	2915.21
1008.655	2903
1008.948	2883.34
1009.242	2869.33
1009.535	2870.01
1009.829	2860.07
1010.122	2797.69
1010.415	2811.48
1010.708	2775.55
1011.001	2754.76
1011.295	2740.07
1011.588	2741.43
1011.881	2708.88
1012.173	2710.24
1012.466	2723.12
1012.759	2676.12
1013.052	2676.79
1013.344	2641.09
1013.637	2613.07
1013.93	2603.35
1014.222	2605.38
1014.514	2541.43
1014.807	2552.28
1015.099	2539.4
1015.391	2520.64
1015.683	2531.49
1015.976	2484.71
1016.268	2495.33
1016.56	2499.4
1016.851	2466.4
1017.143	2447.2
1017.435	2404.26
1017.727	2411.04
1018.018	2384.15
1018.31	2389.12
1018.602	2360.42
1018.893	2380.53
1019.185	2310.02
1019.476	2307.54
1019.767	2272.96
1020.058	2281.1
1020.35	2255.34
1020.641	2260.08
1020.932	2209.24
1021.223	2198.61
1021.514	2186.41
1021.804	2147.54
1022.095	2167.43
1022.386	2158.84
1022.677	2122.23
1022.967	2139.41
1023.258	2108.9
1023.548	2101.67
1023.839	2062.8
1024.129	2065.06
1024.419	2063.7
1024.709	2043.82
1025	2022.8
1025.29	2030.03
1025.58	1995.68
1025.87	1975.8
1026.16	1948.23
1026.449	1935.57
1026.739	1933.99
1027.029	1884.72
1027.319	1900.77
1027.608	1903.71
1027.898	1857.83
1028.187	1846.31
1028.477	1818.51
1028.766	1836.14
1029.055	1819.42
1029.344	1813.54
1029.634	1766.76
1029.923	1806.08
1030.212	1771.28
1030.501	1749.36
1030.79	1730.38
1031.078	1734.45
1031.367	1709.81
1031.656	1696.25
1031.945	1666.88
1032.233	1682.92
1032.522	1685.63
1032.81	1667.56
1033.099	1647.44
1033.387	1635.69
1033.675	1606.09
1033.963	1616.93
1034.251	1595.47
1034.54	1566.99
1034.828	1565.64
1035.116	1562.25
1035.403	1522.7
1035.691	1537.84
1035.979	1517.73
1036.267	1519.08
1036.554	1516.37
1036.842	1515.92
1037.129	1490.61
1037.417	1478.41
1037.704	1421.01
1037.992	1469.82
1038.279	1432.76
1038.566	1427.34
1038.853	1427.34
1039.14	1427.34
