Data from 108_FLMS001491_008.txt Node
Date: Thu Apr 12 17:07:53 BST 2018
User: hsy
Spectrometer: FLMS00149
Trigger mode: 0
Integration Time (sec): 1.000000E-2
Scans to average: 10
Electric dark correction enabled: true
Nonlinearity correction enabled: false
Boxcar width: 0
XAxis mode: Wavelengths
Number of Pixels in Spectrum: 2048
>>>>>Begin Spectral Data<<<<<
341.393	-12.57
341.776	-12.57
342.16	-12.57
342.543	-61.16
342.927	-77.43
343.31	-86.47
343.693	-49.18
344.077	-67.71
344.46	-82.62
344.843	-46.47
345.226	-46.47
345.61	-43.53
345.993	-24.55
346.376	6.86
346.759	14.1
347.142	27.65
347.525	40.99
347.908	77.37
348.291	58.61
348.674	80.76
349.057	140.65
349.44	127.77
349.823	145.39
350.206	179.06
350.588	233.07
350.971	265.61
351.354	276.46
351.737	300.87
352.119	291.83
352.502	309
352.884	325.27
353.267	332.73
353.65	329.12
354.032	337.93
354.414	365.95
354.797	341.77
355.179	362.79
355.562	350.13
355.944	376.8
356.326	389.23
356.709	406.18
357.091	390.58
357.473	384.26
357.855	405.5
358.238	382.9
358.62	387.42
359.002	386.06
359.384	398.72
359.766	391.26
360.148	386.97
360.53	406.85
360.912	373.41
361.294	377.02
361.676	385.84
362.057	393.52
362.439	379.74
362.821	380.87
363.203	376.57
363.584	400.07
363.966	365.72
364.348	366.85
364.729	374.54
365.111	380.64
365.493	379.96
365.874	368.44
366.256	385.39
366.637	376.12
367.019	353.52
367.4	377.02
367.781	363.01
368.163	365.05
368.544	360.75
368.925	377.93
369.306	393.07
369.688	376.12
370.069	376.35
370.45	382.67
370.831	402.79
371.212	384.26
371.593	387.65
371.974	385.61
372.355	408.44
372.736	407.53
373.117	379.96
373.498	397.36
373.879	400.98
374.26	378.61
374.641	398.04
375.021	359.62
375.402	400.53
375.783	418.38
376.163	397.36
376.544	400.3
376.925	380.64
377.305	409.57
377.686	418.15
378.066	421.77
378.447	378.61
378.827	451.6
379.208	408.66
379.588	418.38
379.968	414.99
380.349	432.16
380.729	431.03
381.109	448.89
381.489	425.16
381.87	408.44
382.25	443.24
382.63	442.11
383.01	425.61
383.39	435.1
383.77	447.76
384.15	445.72
384.53	456.8
384.91	464.48
385.29	435.55
385.67	443.91
386.049	454.99
386.429	457.93
386.809	469
387.189	458.83
387.568	466.97
387.948	462.9
388.328	450.24
388.707	457.47
389.087	466.06
389.466	493.18
389.846	468.55
390.225	471.03
390.605	478.94
390.984	498.38
391.363	505.38
391.743	474.65
392.122	486.17
392.501	484.37
392.881	509.9
393.26	506.74
393.639	508.32
394.018	529.11
394.397	502.67
394.776	521.88
395.155	509.22
395.534	525.04
395.913	509.45
396.292	507.87
396.671	543.8
397.05	526.62
397.429	538.38
397.808	537.47
398.186	548.09
398.565	551.03
398.944	545.38
399.323	545.16
399.701	568.21
400.08	553.06
400.458	555.1
400.837	558.04
401.215	580.86
401.594	563.91
401.972	570.92
402.351	588.32
402.729	605.27
403.107	607.98
403.486	594.87
403.864	598.71
404.242	591.48
404.62	628.32
404.999	593.74
405.377	608.43
405.755	626.73
406.133	620.63
406.511	628.99
406.889	622.89
407.267	652.5
407.645	668.32
408.023	671.71
408.401	659.05
408.779	642.33
409.156	658.37
409.534	659.73
409.912	696.79
410.29	674.19
410.667	691.37
411.045	690.46
411.422	706.05
411.8	702.21
412.178	699.05
412.555	713.96
412.933	731.36
413.31	734.53
413.687	734.3
414.065	743.79
414.442	741.53
414.819	751.48
415.197	756.9
415.574	773.17
415.951	809.55
416.328	796.9
416.705	803
417.082	792.61
417.46	797.58
417.837	793.96
418.214	825.15
418.591	810.91
418.967	851.14
419.344	826.73
419.721	850.91
420.098	827.18
420.475	832.15
420.852	847.29
421.228	841.87
421.605	859.5
421.982	859.72
422.358	885.26
422.735	876.22
423.111	885.03
423.488	897.69
423.864	908.08
424.241	905.15
424.617	902.43
424.994	927.52
425.37	935.88
425.746	928.65
426.123	923.45
426.499	947.86
426.875	956.22
427.251	968.42
427.627	976.56
428.003	977.46
428.379	972.71
428.756	994.41
429.132	1001.64
429.507	1008.65
429.883	1024.92
430.259	1034.41
430.635	1051.81
431.011	1060.4
431.387	1066.27
431.763	1080.51
432.138	1091.81
432.514	1106.27
432.89	1126.61
433.265	1158.92
433.641	1167.96
434.016	1180.62
434.392	1178.81
434.767	1211.13
435.143	1200.51
435.518	1211.13
435.894	1205.25
436.269	1224.46
436.644	1220.17
437.02	1233.72
437.395	1209.77
437.77	1257.23
438.145	1276.21
438.52	1282.08
438.895	1289.32
439.271	1281.63
439.646	1314.63
440.021	1307.85
440.395	1316.89
440.77	1315.08
441.145	1308.07
441.52	1345.36
441.895	1389.65
442.27	1356.66
442.645	1337.45
443.019	1376.09
443.394	1352.82
443.769	1391.91
444.143	1375.42
444.518	1408.86
444.892	1376.77
445.267	1408.41
445.641	1419.48
446.016	1452.25
446.39	1445.47
446.764	1460.39
447.139	1465.81
447.513	1469.42
447.887	1459.48
448.262	1437.79
448.636	1483.44
449.01	1513.27
449.384	1502.64
449.758	1521.4
450.132	1545.81
450.506	1568.63
450.88	1565.02
451.254	1558.01
451.628	1612.02
452.002	1601.17
452.376	1631.91
452.75	1634.84
453.123	1669.87
453.497	1661.96
453.871	1668.52
454.244	1707.16
454.618	1728.85
454.992	1777.89
455.365	1754.16
455.739	1788.51
456.112	1831.9
456.486	1823.77
456.859	1848.17
457.232	1878.45
457.606	1890.43
457.979	1888.4
458.352	1966.59
458.725	1948.51
459.099	1973.59
459.472	2002.29
459.845	2039.35
460.218	2049.3
460.591	2092.91
460.964	2058.11
461.337	2108.05
461.71	2161.16
462.083	2168.84
462.456	2174.72
462.829	2179.91
463.201	2237.31
463.574	2245.45
463.947	2245.45
464.32	2322.06
464.692	2326.8
465.065	2316.41
465.438	2393.69
465.81	2395.28
466.183	2395.95
466.555	2435.27
466.928	2470.3
467.3	2434.15
467.672	2516.63
468.045	2576.29
468.417	2563.41
468.789	2574.25
469.161	2633.91
469.534	2686.57
469.906	2681.14
470.278	2763.85
470.65	2757.3
471.022	2806.56
471.394	2868.03
471.766	2899.22
472.138	2939.67
472.51	2958.88
472.882	3022.38
473.253	3054.47
473.625	3045.2
473.997	3137.86
474.369	3161.13
474.74	3159.78
475.112	3295.37
475.484	3348.47
475.855	3374.01
476.227	3422.14
476.598	3499.2
476.97	3550.95
477.341	3622.36
477.713	3700.55
478.084	3718.63
478.455	3818.06
478.827	3844.28
479.198	3948.68
479.569	3988.45
479.94	4082.69
480.311	4174.66
480.682	4234.55
481.053	4334.21
481.424	4424.38
481.795	4473.64
482.166	4597.7
482.537	4649
482.908	4745.95
483.279	4805.16
483.65	4919.5
484.021	5054.87
484.391	5182.55
484.762	5202.43
485.133	5264.35
485.503	5353.16
485.874	5484.91
486.244	5621.18
486.615	5786.15
486.985	5851.23
487.356	5956.54
487.726	6098.91
488.097	6270.88
488.467	6332.12
488.837	6527.6
489.207	6624.77
489.578	6774.82
489.948	6958.09
490.318	7084.64
490.688	7199.9
491.058	7389.04
491.428	7570.06
491.798	7700
492.168	7975.69
492.538	8080.78
492.908	8289.13
493.278	8401.45
493.648	8530.26
494.017	8798.95
494.387	8971.83
494.757	9154.19
495.126	9329.78
495.496	9504.47
495.866	9733.61
496.235	9846.83
496.605	10157.56
496.974	10359.81
497.344	10572.91
497.713	10759.8
498.082	10934.71
498.452	11247.02
498.821	11461.7
499.19	11608.14
499.559	11874.57
499.928	12066.89
500.298	12359.53
500.667	12596.82
501.036	12790.48
501.405	13057.82
501.774	13260.53
502.143	13551.82
502.512	13828.87
502.88	14089.88
503.249	14383.66
503.618	14695.52
503.987	14865.23
504.356	15080.82
504.724	15371.43
505.093	15598.09
505.462	15929.84
505.83	16116.5
506.199	16508.13
506.567	16802.13
506.936	17072.18
507.304	17422.45
507.672	17631.03
508.041	17868.99
508.409	18258.81
508.777	18477.79
509.145	18785.58
509.514	19093.37
509.882	19286.13
510.25	19564.54
510.618	19916.85
510.986	20122.04
511.354	20478.87
511.722	20811.97
512.09	21076.82
512.458	21262.12
512.826	21504.38
513.193	21768.33
513.561	22040.86
513.929	22334.64
514.297	22590.9
514.664	22950.89
515.032	23198.34
515.4	23516.3
515.767	23669.07
516.135	23943.41
516.502	23891.21
516.869	24462.94
517.237	24784.52
517.604	24779.32
517.972	25332.07
518.339	25415.24
518.706	25735
519.073	25868.56
519.44	26174.31
519.808	26530.69
520.175	26624.24
520.542	27101.29
520.909	27245.92
521.276	27496.76
521.643	27902.63
522.009	27980.37
522.376	28381.71
522.743	28662.16
523.11	29070.96
523.477	29339.65
523.843	29486.32
524.21	29890.6
524.577	30184.38
524.943	30458.72
525.31	30535.33
525.676	30959.27
526.043	31328.98
526.409	31484.68
526.776	31954.27
527.142	32056.19
527.508	32293.7
527.874	32710.86
528.241	32917.19
528.607	33049.16
528.973	33547
529.339	33484.18
529.705	33895.24
530.071	34214.33
530.437	34474.21
530.803	34702.68
531.169	34930.69
531.535	35094.53
531.901	35273.51
532.267	35423.56
532.632	35822.42
532.998	35877.79
533.364	36213.6
533.73	36292.69
534.095	36664.21
534.461	36793.02
534.826	37031.65
535.192	37222.61
535.557	37328.37
535.923	37409.72
536.288	37698.53
536.653	37799.09
537.019	37816.94
537.384	38077.05
537.749	38191.62
538.114	38317.5
538.479	38315.69
538.845	38667.77
539.21	38666.64
539.575	38819.63
539.94	38994.77
540.305	39359.73
540.67	39258.04
541.034	39428.65
541.399	39679.95
541.764	39702.77
542.129	39876.1
542.494	40074.96
542.858	40135.53
543.223	40046.26
543.587	40409.19
543.952	40321.96
544.316	40729.86
544.681	40715.17
545.045	40941.83
545.41	41017.09
545.774	41109.74
546.138	41131.43
546.503	41368.04
546.867	41412.1
547.231	41765.09
547.595	41832.66
547.959	42061.13
548.324	42023.61
548.688	42164.85
549.052	42364.62
549.416	42348.58
549.779	42347.45
550.143	42618.63
550.507	42864.95
550.871	42882.35
551.235	43006.64
551.599	43317.59
551.962	43343.35
552.326	43569.33
552.689	43739.5
553.053	43627.64
553.417	43776.79
553.78	44360.5
554.143	44271.24
554.507	44388.3
554.87	44583.32
555.234	44958.45
555.597	44767.27
555.96	45098.56
556.323	45287.03
556.686	45364.77
557.05	45570.19
557.413	45719.56
557.776	45750.75
558.139	46143.05
558.502	46193.45
558.865	46233.22
559.228	46593.89
559.59	46610.61
559.953	46864.84
560.316	47343.02
560.679	47210.37
561.041	47539.17
561.404	47830.69
561.767	47992.95
562.129	47900.75
562.492	48298.48
562.854	48323.79
563.217	48427.96
563.579	48617.34
563.941	48839.93
564.304	49085.8
564.666	49411.67
565.028	49367.15
565.39	49562.62
565.753	49780.02
566.115	49900.02
566.477	50010.3
566.839	50185.66
567.201	50436.5
567.563	50358.08
567.925	50717.17
568.287	50815.7
568.648	50908.12
569.01	51083.94
569.372	51249.81
569.734	51331.39
570.095	51588.33
570.457	51793.07
570.819	51912.84
571.18	51948.78
571.542	52203.23
571.903	52142.89
572.265	52319.39
572.626	52515.99
572.987	52578.36
573.349	52691.58
573.71	52844.34
574.071	52950.56
574.432	53142.42
574.794	53381.05
575.155	53332.02
575.516	53318.23
575.877	53508.73
576.238	53609.52
576.599	53680.03
576.96	53708.28
577.32	53855.17
577.681	53921.15
578.042	54186.23
578.403	54081.83
578.763	54210.86
579.124	54244.31
579.485	54392.1
579.845	54467.81
580.206	54443.4
580.566	54636.84
580.927	54628.93
581.287	54757.74
581.648	54721.58
582.008	54923.16
582.368	54909.15
582.728	55004.06
583.089	55073.89
583.449	55036.38
583.809	55160.89
584.169	55298.07
584.529	55145.53
584.889	55404.05
585.249	55262.59
585.609	55260.78
585.969	55583.48
586.329	55483.6
586.688	55613.09
587.048	55651.73
587.408	55530.15
587.768	55691.5
588.127	55783.25
588.487	55730.82
588.846	55967.65
589.206	55791.84
589.565	55836.58
589.925	56084.03
590.284	56010.82
590.643	56059.18
591.003	56158.38
591.362	56305.72
591.721	56271.6
592.08	56333.97
592.44	56516.34
592.799	56427.53
593.158	56448.54
593.517	56454.65
593.876	56641.31
594.235	56650.35
594.593	56613.51
594.952	56806.27
595.311	56735.77
595.67	56818.25
596.029	57040.39
596.387	57001.52
596.746	57166.94
597.104	57008.3
597.463	57038.13
597.822	57263.89
598.18	57213.27
598.538	57275.19
598.897	57474.96
599.255	57309.54
599.613	57719.25
599.972	57464.56
600.33	57584.11
600.688	57526.71
601.046	57650.32
601.404	57838.34
601.762	57750.43
602.12	57950.43
602.478	58001.05
602.836	58075.85
603.194	57868.39
603.552	58034.27
603.91	57933.48
604.268	58119.23
604.625	58076.07
604.983	58261.15
605.341	58129.18
605.698	58311.09
606.056	58525.78
606.413	58433.58
606.771	58555.83
607.128	58576.62
607.485	58511.31
607.843	58591.09
608.2	58740.46
608.557	58770.06
608.914	58805.32
609.272	58948.37
609.629	59002.83
609.986	59103.62
610.343	59052.54
610.7	59289.37
611.057	59208.25
611.414	59167.57
611.771	59333.21
612.127	59384.74
612.484	59400.33
612.841	59471.06
613.198	59461.12
613.554	59446.66
613.911	59659.31
614.267	59657.95
614.624	59699.98
614.98	59778.17
615.337	59917.61
615.693	59930.71
616.05	59893.88
616.406	59973.42
616.762	60009.81
617.118	60016.59
617.475	60044.16
617.831	60120.09
618.187	60191.27
618.543	60190.59
618.899	60369.8
619.255	60314.21
619.611	60288.67
619.967	60375.22
620.323	60529.11
620.678	60384.49
621.034	60435.56
621.39	60463.35
621.746	60457.48
622.101	60680.75
622.457	60477.36
622.812	60633.07
623.168	60688.43
623.523	60593.52
623.879	60732.05
624.234	60628.32
624.589	60704.03
624.945	60716
625.3	60715.1
625.655	60753.74
626.01	60789.67
626.365	60779.05
626.72	60739.05
627.075	60705.38
627.43	60755.1
627.785	60773.63
628.14	60791.93
628.495	60750.58
628.85	60753.06
629.205	60705.61
629.559	60841.2
629.914	60732.27
630.269	60787.64
630.623	60627.87
630.978	60605.95
631.332	60771.82
631.687	60723.91
632.041	60677.36
632.396	60682.56
632.75	60653.18
633.104	60702.67
633.459	60539.96
633.813	60581.99
634.167	60568.66
634.521	60547.42
634.875	60598.94
635.229	60567.53
635.583	60439.4
635.937	60445.73
636.291	60462.22
636.645	60442.11
636.999	60358.27
637.352	60405.05
637.706	60196.92
638.06	60434.43
638.413	60369.57
638.767	60231.5
639.121	60238.95
639.474	60212.06
639.828	60164.83
640.181	60189.46
640.534	60176.36
640.888	60113.31
641.241	60013.2
641.594	60020.43
641.947	60121.22
642.301	60042.57
642.654	60047.55
643.007	59986.08
643.36	60055
643.713	59967.77
644.066	60055.91
644.419	59845.29
644.771	59615.47
645.124	59407.11
645.477	59391.74
645.83	59333.89
646.182	59272.42
646.535	59220
646.888	59265.19
647.24	59167.57
647.593	59293.21
647.945	59227.23
648.298	59063.84
648.65	59011.41
649.002	58875.37
649.355	58887.58
649.707	58766.68
650.059	58866.33
650.411	59142.94
650.763	59250.5
651.115	59514.23
651.467	59382.25
651.819	59443.72
652.171	59339.54
652.523	59352.42
652.875	59358.75
653.227	59209.6
653.578	59419.54
653.93	59291.18
654.282	59194.01
654.633	59160.11
654.985	59169.15
655.337	59163.73
655.688	59118.08
656.039	59233.56
656.391	58986.78
656.742	59077.18
657.094	59017.74
657.445	59073.56
657.796	59071.53
658.147	59013.67
658.498	58982.71
658.849	59119.66
659.2	58943.39
659.551	58910.4
659.902	59051.87
660.253	58898.88
660.604	59026.33
660.955	58843.51
661.306	58992.66
661.656	58861.59
662.007	58823.62
662.358	58882.15
662.708	58866.33
663.059	58841.48
663.409	58688.26
663.76	58871.53
664.11	58848.93
664.461	58799.22
664.811	58841.7
665.161	58775.94
665.511	58678.54
665.862	58739.78
666.212	58799.89
666.562	58794.7
666.912	58755.38
667.262	58735.26
667.612	58656.62
667.962	58664.98
668.312	58596.74
668.662	58760.12
669.011	58716.51
669.361	58635.61
669.711	58615.49
670.06	58614.81
670.41	58560.58
670.76	58544.31
671.109	58652.55
671.459	58600.35
671.808	58627.92
672.157	58573.23
672.507	58452.33
672.856	58497.76
673.205	58526.46
673.554	58528.04
673.904	58473.58
674.253	58719.9
674.602	58485.1
674.951	58223.19
675.3	58057.09
675.649	58535.95
675.998	58449.85
676.346	58434.71
676.695	58523.74
677.044	58361.94
677.393	58408.49
677.741	58512.44
678.09	58422.96
678.438	58345.44
678.787	58389.28
679.135	58451.88
679.484	58247.59
679.832	58388.83
680.181	58270.42
680.529	58305.9
680.877	58253.24
681.225	58180.48
681.573	58377.98
681.922	58152.23
682.27	58142.74
682.618	58053.25
682.966	58041.72
683.314	58072.46
683.661	58069.74
684.009	57903.42
684.357	57928.51
684.705	57860.48
685.053	57944.78
685.4	57843.54
685.748	57815.06
686.095	57736.65
686.443	57633.6
686.79	57583.2
687.138	57695.52
687.485	57698.45
687.832	57545.46
688.18	57564.22
688.527	57533.04
688.874	57485.58
689.221	57460.04
689.568	57371.46
689.915	57341.63
690.262	57337.56
690.609	57212.82
690.956	57158.13
691.303	57184.8
691.65	57067.51
691.997	57111.13
692.344	56934.63
692.69	56880.17
693.037	56927.85
693.383	56758.59
693.73	56845.37
694.077	56658.71
694.423	56715.88
694.769	56627.75
695.116	56565.15
695.462	56463.91
695.808	56447.19
696.155	56465.49
696.501	56218.49
696.847	56399.28
697.193	56197.25
697.539	56200.41
697.885	56030.7
698.231	55990.93
698.577	56004.04
698.923	55918.61
699.269	55751.16
699.614	55721.11
699.96	55639.07
700.306	55701.9
700.651	55517.5
700.997	55480.43
701.342	55420.55
701.688	55330.83
702.033	55280.21
702.379	55269.37
702.724	55158.41
703.069	55236.82
703.415	54928.13
703.76	54894.23
704.105	54941.46
704.45	54839.32
704.795	54729.72
705.14	54635.94
705.485	54591.42
705.83	54432.78
706.175	54506.9
706.52	54490.4
706.865	54424.19
707.209	54293.35
707.554	54161.15
707.899	54235.49
708.243	54123.63
708.588	54052.45
708.932	53892.23
709.277	54021.26
709.621	53911.89
709.966	53638.22
710.31	53748.5
710.654	53539.47
710.998	53574.27
711.342	53533.82
711.687	53345.35
712.031	53375.63
712.375	53191
712.719	53130.89
713.063	53100.38
713.407	53275.52
713.75	53113.94
714.094	53120.27
714.438	52921.18
714.782	52928.18
715.125	52696.78
715.469	52891.12
715.812	52555.77
716.156	52583.79
716.499	52522.32
716.843	52686.84
717.186	52468.31
717.53	52603.9
717.873	52544.01
718.216	52419.05
718.559	52241.65
718.902	52134.76
719.246	52111.03
719.589	52023.8
719.932	51963.24
720.275	52027.42
720.617	52028.55
720.96	51816.12
721.303	51925.73
721.646	51961.66
721.989	51650.7
722.331	51774.54
722.674	51553.98
723.016	51595.79
723.359	51480.31
723.701	51480.31
724.044	51346.08
724.386	51281
724.729	51398.28
725.071	51265.86
725.413	51234.44
725.755	51093.88
726.097	51070.61
726.439	50971.17
726.782	50822.48
727.124	50999.87
727.465	50972.08
727.807	50712.42
728.149	50749.26
728.491	50689.15
728.833	50773.44
729.175	50716.94
729.516	50622.03
729.858	50544.97
730.199	50616.15
730.541	50565.31
730.882	50392.88
731.224	50489.15
731.565	50415.26
731.906	50338.2
732.248	50353.79
732.589	50078.54
732.93	50191.76
733.271	50139.11
733.612	50126.68
733.953	50173
734.294	50046.9
734.635	49916.74
734.976	49991.09
735.317	49805.55
735.658	49912.22
735.999	49745.67
736.339	49751.54
736.68	49737.31
737.021	49679.46
737.361	49467.94
737.702	49765.1
738.042	49662.73
738.383	49616.18
738.723	49626.35
739.063	49381.84
739.404	49485.34
739.744	49446.24
740.084	49367.37
740.424	49282.4
740.764	49267.49
741.104	49241.95
741.444	49137.55
741.784	48980.94
742.124	49146.14
742.464	49015.07
742.804	48908.63
743.143	48807.84
743.483	49065.01
743.823	48715.87
744.162	48715.19
744.502	48801.29
744.841	48549.54
745.181	48658.01
745.52	48595.87
745.86	48476.1
746.199	48561.97
746.538	48471.35
746.877	48521.52
747.216	48420.28
747.556	48359.94
747.895	48266.39
748.234	48192.49
748.573	48185.71
748.911	48106.62
749.25	48096
749.589	47925.15
749.928	47945.04
750.267	48033.62
750.605	47773.97
750.944	47750.47
751.283	47608.1
751.621	47814.87
751.96	47482.9
752.298	47493.07
752.636	47531.72
752.975	47462.11
753.313	47221.67
753.651	47425.5
753.989	47145.74
754.327	47158.84
754.666	46751.62
755.004	46919.3
755.342	46828.46
755.679	46749.14
756.017	46617.39
756.355	46686.54
756.693	46475.47
757.031	46620.1
757.368	46264.86
757.706	46336.95
758.044	46141.92
758.381	46185.31
758.719	45999.55
759.056	46066.44
759.394	45883.62
759.731	45609.96
760.068	45617.19
760.405	45672.1
760.743	45344.66
761.08	45372
761.417	45187.15
761.754	45047.04
762.091	45005.91
762.428	44796.65
762.765	44565.24
763.102	44730.43
763.438	44502.87
763.775	44303.55
764.112	44291.58
764.449	44236.21
764.785	44070.34
765.122	43762.32
765.458	43662.21
765.795	43586.28
766.131	43587.87
766.467	43525.27
766.804	43153.98
767.14	43072.4
767.476	42897.49
767.812	42843.7
768.148	42923.7
768.485	42662.69
768.821	42334.34
769.157	42267.67
769.492	42134.57
769.828	42167.56
770.164	41847.12
770.5	41710.85
770.836	41717.41
771.171	41522.61
771.507	41277.64
771.842	41133.92
772.178	41219.79
772.513	40968.95
772.849	40806.24
773.184	40706.81
773.519	40718.11
773.855	40394.5
774.19	40252.81
774.525	40217.56
774.86	40178.01
775.195	40012.82
775.53	39870.22
775.865	39540.97
776.2	39314.31
776.535	39146.4
776.87	39054.2
777.205	38954.09
777.539	38762.68
777.874	38869.35
778.209	38576.7
778.543	38516.59
778.878	38335.57
779.212	38162.25
779.547	37966.09
779.881	37927.68
780.215	37757.74
780.55	37776.72
780.884	37455.82
781.218	37480.23
781.552	37408.59
781.886	36995.04
782.22	36930.64
782.554	36750.76
782.888	36594.15
783.222	36593.25
783.556	36187.83
783.889	36111
784.223	35954.85
784.557	35911
784.89	36112.58
785.224	35752.37
785.557	35575.65
785.891	35444.35
786.224	35555.76
786.558	35479.38
786.891	35140.4
787.224	34871.26
787.557	34752.17
787.891	34715.56
788.224	34471.04
788.557	34429.46
788.89	34391.27
789.223	34331.61
789.556	34138.4
789.888	34053.65
790.221	33973.88
790.554	33770.27
790.887	33826.77
791.219	33592.87
791.552	33607.11
791.884	33327.34
792.217	33285.76
792.549	33139.1
792.882	32801.03
793.214	32775.04
793.546	32765.78
793.879	32654.14
794.211	32295.96
794.543	32497.54
794.875	32335.96
795.207	32284.43
795.539	32110.2
795.871	32238.33
796.203	31936.19
796.535	31738.69
796.867	31709.99
797.198	31426.6
797.53	31529.43
797.862	31258.25
798.193	31327.62
798.525	31182.09
798.856	31284.69
799.188	30852.15
799.519	30723.12
799.85	30559.96
800.182	30609.68
800.513	30736.45
800.844	30359.51
801.175	30565.61
801.506	30484.25
801.837	30168.11
802.168	30129.46
802.499	30158.61
802.83	29893.99
803.161	29812.63
803.491	29808.34
803.822	29713.2
804.153	29527.44
804.483	29302.14
804.814	29250.84
805.145	29276.38
805.475	29309.6
805.805	29118.64
806.136	29181.92
806.466	28944.41
806.796	28830.74
807.126	28802.27
807.457	28792.77
807.787	28753.45
808.117	28622.83
808.447	28606.11
808.777	28581.93
809.107	28406.34
809.436	28270.98
809.766	28282.5
810.096	28277.99
810.426	28002.06
810.755	28179.23
811.085	28017.88
811.414	28082.51
811.744	27906.24
812.073	27841.16
812.403	27763.2
812.732	27607.72
813.061	27614.95
813.39	27507.16
813.719	27348.52
814.049	27497.21
814.378	27447.05
814.707	27225.81
815.036	27234.62
815.365	27066.49
815.693	27021.3
816.022	26923.44
816.351	26760.96
816.68	26692.49
817.008	26883.67
817.337	26619.5
817.665	26567.07
817.994	26525.26
818.322	26681.64
818.651	26433.74
818.979	26324.82
819.307	26408.43
819.636	26403.23
819.964	26139.28
820.292	26240.98
820.62	26198.94
820.948	26183.13
821.276	26306.51
821.604	26176.57
821.932	26311.94
822.259	26139.51
822.587	26147.65
822.915	26017.71
823.243	26109.91
823.57	25977.25
823.898	26179.96
824.225	26100.19
824.553	26061.77
824.88	26081.43
825.207	26196.46
825.535	26046.63
825.862	26242.56
826.189	26066.52
826.516	26276.23
826.843	26231.03
827.17	26255.44
827.497	26266.74
827.824	26197.36
828.151	26247.53
828.478	26097.03
828.805	26315.1
829.131	26109.23
829.458	26181.32
829.785	25969.12
830.111	26055.9
830.438	26303.8
830.764	26205.5
831.09	26124.14
831.417	25984.26
831.743	26166.18
832.069	26097.93
832.395	26092.51
832.722	26143.8
833.048	25909.23
833.374	26076.46
833.7	25964.6
834.026	26097.7
834.351	25965.5
834.677	26024.26
835.003	25997.37
835.329	25989.68
835.654	25893.42
835.98	25707.66
836.306	25909.46
836.631	25817.49
836.956	25916.47
837.282	25831.72
837.607	25792.85
837.932	25665.85
838.258	25645.96
838.583	25640.09
838.908	25553.76
839.233	25509.47
839.558	25446.87
839.883	25450.94
840.208	25285.97
840.533	25491.17
840.858	25377.27
841.182	25291.62
841.507	25306.31
841.832	25119.88
842.156	25220.66
842.481	25105.19
842.805	25059.09
843.13	24910.16
843.454	24941.12
843.778	24850.96
844.103	24912.88
844.427	24791.75
844.751	24837.62
845.075	24765.76
845.399	24606.44
845.723	24414.81
846.047	24559.89
846.371	24368.26
846.695	24311.08
847.019	24254.14
847.343	24048.04
847.666	24077.19
847.99	23895.95
848.313	23788.16
848.637	23800.14
848.96	23752
849.284	23712.91
849.607	23376.65
849.931	23357.44
850.254	23256.42
850.577	23147.05
850.9	23033.83
851.223	23029.54
851.546	22895.08
851.869	22671.81
852.192	22775.76
852.515	22616.89
852.838	22474.3
853.161	22447.18
853.483	22398.14
853.806	22325.15
854.129	22256
854.451	22224.36
854.774	22086.06
855.096	22035.89
855.419	22005.83
855.741	21896.46
856.063	21681.55
856.385	21633.19
856.708	21672.74
857.03	21624.83
857.352	21602.68
857.674	21526.3
857.996	21315.23
858.318	21226.65
858.64	21374.21
858.961	21227.1
859.283	21173.99
859.605	20995.01
859.926	20975.35
860.248	20957.73
860.57	20862.36
860.891	20945.07
861.212	20723.61
861.534	20639.77
861.855	20679.32
862.176	20747.11
862.498	20637.06
862.819	20755.02
863.14	20535.59
863.461	20384.41
863.782	20399.55
864.103	20408.36
864.424	20312.55
864.745	20393.22
865.065	20278.42
865.386	20164.53
865.707	20236.16
866.027	20231.87
866.348	20180.12
866.668	20240
866.989	20152.78
867.309	19993.46
867.63	19992.55
867.95	19964.76
868.27	19931.31
868.59	19950.97
868.91	19910.07
869.23	19897.41
869.55	19758.21
869.87	19822.16
870.19	19732.45
870.51	19830.98
870.83	19701.94
871.15	19579
871.469	19521.38
871.789	19747.36
872.109	19593.02
872.428	19518.89
872.748	19475.96
873.067	19530.42
873.386	19551.44
873.706	19486.8
874.025	19351.44
874.344	19310.76
874.663	19327.71
874.982	19258.34
875.301	19288.39
875.62	19222.63
875.939	19069.41
876.258	19208.17
876.577	19048.85
876.896	19092.69
877.214	19082.07
877.533	19057.21
877.852	19010.21
878.17	19055.18
878.489	18963.2
878.807	18984.22
879.125	18906.71
879.444	18906.48
879.762	18815.64
880.08	18812.92
880.398	18722.76
880.716	18767.5
881.034	18783.77
881.352	18685.02
881.67	18588.07
881.988	18602.53
882.306	18623.1
882.624	18606.83
882.941	18488.19
883.259	18408.87
883.577	18486.6
883.894	18377.68
884.212	18245.03
884.529	18259.27
884.846	18155.77
885.164	18118.7
885.481	18025.83
885.798	18074.86
886.115	18051.36
886.432	18058.59
886.75	18086.84
887.067	18049.55
887.383	17823.57
887.7	17851.59
888.017	17749.9
888.334	17660.86
888.651	17699.51
888.967	17642.56
889.284	17562.11
889.6	17570.02
889.917	17506.52
890.233	17513.75
890.55	17467.65
890.866	17394.66
891.182	17390.14
891.498	17217.71
891.815	17143.14
892.131	17105.85
892.447	17142.91
892.763	17083.93
893.079	17085.74
893.395	17003.25
893.71	16969.36
894.026	16793.32
894.342	16856.14
894.657	16702.24
894.973	16625.64
895.289	16742.24
895.604	16571.63
895.92	16497.05
896.235	16486.66
896.55	16439.65
896.865	16322.82
897.181	16226.1
897.496	16276.49
897.811	16207.79
898.126	16096.16
898.441	16074.69
898.756	16069.94
899.071	15942.26
899.386	15993.56
899.7	15816.17
900.015	15738.65
900.33	15576.17
900.644	15643.29
900.959	15643.52
901.273	15473.35
901.588	15544.53
901.902	15487.14
902.216	15443.29
902.531	15303.19
902.845	15326.91
903.159	15257.31
903.473	15088.5
903.787	15032.23
904.101	15031.78
904.415	14999.92
904.729	14961.27
905.042	14860.03
905.356	14914.72
905.67	14823.2
905.984	14705.46
906.297	14773.26
906.611	14607.38
906.924	14619.59
907.237	14546.82
907.551	14530.55
907.864	14480.83
908.177	14396.77
908.491	14445.58
908.804	14128.53
909.117	14206.04
909.43	14115.42
909.743	14095.31
910.056	14090.34
910.368	14011.92
910.681	13933.73
910.994	13820.74
911.307	13720.4
911.619	13594.76
911.932	13663.45
912.244	13584.59
912.557	13585.04
912.869	13471.82
913.181	13503.91
913.494	13402.9
913.806	13369.68
914.118	13223.24
914.43	13211.49
914.742	13140.53
915.054	13107.99
915.366	13058.72
915.678	12983.92
915.99	12973.3
916.302	12827.09
916.613	12793.19
916.925	12856.24
917.236	12694.44
917.548	12700.09
917.859	12606.98
918.171	12559.75
918.482	12460.32
918.794	12539.42
919.105	12559.53
919.416	12349.82
919.727	12332.87
920.038	12323.6
920.349	12243.38
920.66	12175.13
920.971	12101.91
921.282	12134.68
921.593	11956.83
921.903	11892.2
922.214	11972.2
922.525	11850.85
922.835	11748.02
923.146	11750.06
923.456	11679.78
923.767	11583.51
924.077	11584.64
924.387	11600.68
924.697	11452.66
925.008	11473.23
925.318	11409.28
925.628	11402.95
925.938	11327.02
926.248	11124.54
926.558	11174.93
926.867	11150.98
927.177	11121.83
927.487	11019
927.796	11025.11
928.106	10972.23
928.416	10949.85
928.725	10861.27
929.034	10765.23
929.344	10844.32
929.653	10736.53
929.962	10620.14
930.271	10638.22
930.581	10563.42
930.89	10560.71
931.199	10457.66
931.508	10413.14
931.817	10434.39
932.125	10370.66
932.434	10353.26
932.743	10264
933.051	10176.09
933.36	10190.78
933.669	10126.6
933.977	10093.38
934.286	10065.81
934.594	10028.52
934.902	9933.83
935.21	9907.62
935.519	9886.6
935.827	9811.35
936.135	9779.94
936.443	9770.68
936.751	9722.77
937.059	9654.07
937.367	9598.02
937.674	9637.12
937.982	9539.95
938.29	9468.54
938.597	9509.21
938.905	9341.53
939.213	9316.68
939.52	9308.77
939.827	9357.8
940.135	9215.89
940.442	9244.14
940.749	9118.49
941.056	9214.08
941.363	9067.87
941.67	9100.86
941.977	8982
942.284	8919.62
942.591	8972.5
942.898	8923.47
943.205	8848.44
943.511	8882.56
943.818	8796.01
944.125	8677.82
944.431	8698.84
944.738	8751.72
945.044	8607.09
945.35	8596.02
945.657	8570.71
945.963	8572.51
946.269	8494.1
946.575	8463.14
946.881	8383.14
947.187	8373.65
947.493	8317.83
947.799	8248.91
948.105	8202.81
948.41	8194.67
948.716	8177.72
949.022	8156.71
949.327	8114.22
949.633	8052.08
949.938	8073.32
950.244	8057.27
950.549	7862.48
950.854	7876.71
951.16	7883.95
951.465	7750.84
951.77	7825.64
952.075	7759.2
952.38	7739.77
952.685	7684.63
952.99	7629.49
953.294	7602.14
953.599	7562.37
953.904	7534.58
954.209	7479.44
954.513	7525.31
954.818	7453.45
955.122	7461.81
955.426	7418.87
955.731	7328.25
956.035	7357.18
956.339	7277.63
956.643	7279.22
956.948	7213.45
957.252	7114.7
957.556	7217.97
957.86	7136.85
958.163	7147.92
958.467	7140.69
958.771	7062.95
959.075	7054.59
959.378	6902.05
959.682	6999.67
959.985	6913.58
960.289	6907.25
960.592	6876.74
960.896	6816.85
961.199	6842.39
961.502	6735.05
961.805	6745.22
962.108	6672.23
962.411	6643.07
962.714	6615.73
963.017	6617.09
963.32	6535.73
963.623	6552.68
963.926	6525.79
964.228	6532.12
964.531	6505.9
964.833	6489.18
965.136	6408.96
965.438	6359.47
965.741	6334.16
966.043	6294.16
966.345	6256.19
966.648	6244.44
966.95	6224.78
967.252	6203.31
967.554	6162.63
967.856	6180.94
968.158	6114.5
968.46	6140.26
968.761	6104.56
969.063	6040.83
969.365	6015.52
969.666	5989.98
969.968	5916.54
970.269	5940.95
970.571	5933.94
970.872	5890.55
971.174	5840.16
971.475	5777.11
971.776	5875.86
972.077	5745.47
972.378	5697.56
972.679	5774.85
972.98	5744.34
973.281	5714.06
973.582	5645.81
973.883	5683.1
974.183	5578.7
974.484	5564.23
974.785	5490.34
975.085	5523.78
975.386	5479.26
975.686	5439.49
975.986	5436.33
976.287	5415.31
976.587	5382.54
976.887	5332.37
977.187	5355.42
977.487	5310.91
977.787	5299.83
978.087	5277.69
978.387	5204.69
978.687	5196.56
978.987	5169.67
979.286	5150.46
979.586	5203.34
979.885	5110.23
980.185	5083.11
980.484	5056.45
980.784	5037.92
981.083	5051.93
981.382	4984.59
981.682	5008.09
981.981	5006.96
982.28	4920.86
982.579	4899.16
982.878	4910.92
983.177	4817.13
983.475	4845.61
983.774	4814.65
984.073	4798.83
984.372	4778.72
984.67	4746.63
984.969	4768.32
985.267	4770.35
985.566	4695.1
985.864	4659.85
986.162	4666.63
986.461	4651.04
986.759	4591.6
987.057	4576.69
987.355	4579.4
987.653	4536.91
987.951	4458.27
988.249	4451.49
988.547	4508.21
988.844	4447.88
989.142	4403.13
989.44	4427.31
989.737	4406.97
990.035	4408.33
990.332	4354.77
990.63	4285.85
990.927	4300.99
991.224	4295.34
991.521	4235.23
991.819	4232.52
992.116	4217.83
992.413	4193.42
992.71	4170.14
993.006	4136.25
993.303	4178.05
993.6	4084.05
993.897	4127.21
994.193	4077.72
994.49	4017.15
994.787	4044.27
995.083	4011.05
995.379	3978.74
995.676	3929.92
995.972	3945.29
996.268	3923.82
996.565	3930.15
996.861	3873.66
997.157	3865.29
997.453	3858.29
997.749	3848.35
998.044	3783.04
998.34	3808.57
998.636	3743.49
998.932	3753.88
999.227	3693.09
999.523	3724.05
999.818	3667.33
1000.114	3638.18
1000.409	3629.37
1000.704	3661.91
1001	3659.2
1001.295	3597.96
1001.59	3544.17
1001.885	3562.93
1002.18	3515.92
1002.475	3494
1002.77	3470.95
1003.065	3445.19
1003.359	3428.47
1003.654	3388.7
1003.949	3443.61
1004.243	3401.58
1004.538	3362.71
1004.832	3347.34
1005.127	3317.51
1005.421	3299.21
1005.715	3308.7
1006.009	3291.3
1006.304	3264.41
1006.598	3230.96
1006.892	3206.55
1007.186	3202.71
1007.48	3229.15
1007.773	3108.48
1008.067	3126.56
1008.361	3102.38
1008.655	3058.76
1008.948	3066.67
1009.242	3027.58
1009.535	3031.19
1009.829	3008.37
1010.122	2970.85
1010.415	2949.84
1010.708	2975.15
1011.001	2919.56
1011.295	2900.35
1011.588	2921.14
1011.881	2897.86
1012.173	2882.49
1012.466	2850.63
1012.759	2846.11
1013.052	2820.35
1013.344	2795.27
1013.637	2785.77
1013.93	2756.62
1014.222	2780.12
1014.514	2741.48
1014.807	2746.91
1015.099	2673.46
1015.391	2688.6
1015.683	2649.28
1015.976	2649.51
1016.268	2588.49
1016.56	2592.78
1016.851	2611.54
1017.143	2560.24
1017.435	2577.42
1017.727	2535.84
1018.018	2539
1018.31	2508.95
1018.602	2481.15
1018.893	2472.79
1019.185	2457.65
1019.476	2444.09
1019.767	2430.98
1020.058	2397.08
1020.35	2360.7
1020.641	2376.29
1020.932	2334.03
1021.223	2339.68
1021.514	2301.04
1021.804	2295.17
1022.095	2297.88
1022.386	2219.69
1022.677	2247.48
1022.967	2231.44
1023.258	2230.53
1023.548	2203.64
1023.839	2198.45
1024.129	2205
1024.419	2138.79
1024.709	2126.36
1025	2095.4
1025.29	2108.28
1025.58	2087.94
1025.87	2072.35
1026.16	2093.36
1026.449	2077.32
1026.739	2069.86
1027.029	2024.89
1027.319	2003.87
1027.608	2006.13
1027.898	2006.13
1028.187	1983.76
1028.477	1970.43
1028.766	1962.52
1029.055	1914.84
1029.344	1938.56
1029.634	1932.69
1029.923	1896.53
1030.212	1862.18
1030.501	1855.63
1030.79	1836.65
1031.078	1826.7
1031.367	1798.23
1031.656	1803.65
1031.945	1785.35
1032.233	1780.83
1032.522	1802.98
1032.81	1773.37
1033.099	1750.32
1033.387	1710.55
1033.675	1714.16
1033.963	1712.58
1034.251	1687.5
1034.54	1681.62
1034.828	1666.03
1035.116	1661.28
1035.403	1650.44
1035.691	1625.13
1035.979	1604.11
1036.267	1600.72
1036.554	1609.53
1036.842	1570.44
1037.129	1542.42
1037.417	1571.34
1037.704	1550.33
1037.992	1532.7
1038.279	1525.24
1038.566	1513.94
1038.853	1513.94
1039.14	1513.94
