Data from 108_FLMS001491_004.txt Node
Date: Thu Apr 12 17:07:44 BST 2018
User: hsy
Spectrometer: FLMS00149
Trigger mode: 0
Integration Time (sec): 1.000000E-2
Scans to average: 10
Electric dark correction enabled: true
Nonlinearity correction enabled: false
Boxcar width: 0
XAxis mode: Wavelengths
Number of Pixels in Spectrum: 2048
>>>>>Begin Spectral Data<<<<<
341.393	-32.85
341.776	-32.85
342.16	-32.85
342.543	-57.48
342.927	-83.47
343.31	-64.04
343.693	-75.11
344.077	-64.72
344.46	-50.7
344.843	-63.59
345.226	-60.42
345.61	-4.38
345.993	-18.62
346.376	-23.13
346.759	-4.6
347.142	9.86
347.525	52.34
347.908	61.16
348.291	81.95
348.674	121.27
349.057	102.74
349.44	123.08
349.823	149.74
350.206	179.8
350.588	224.99
350.971	226.8
351.354	264.32
351.737	267.93
352.119	270.42
352.502	288.72
352.884	330.75
353.267	310.42
353.65	342.05
354.032	336.63
354.414	361.49
354.797	368.27
355.179	370.08
355.562	364.88
355.944	377.08
356.326	375.95
356.709	378.21
357.091	389.96
357.473	383.86
357.855	387.02
358.238	399.68
358.62	367.36
359.002	392.22
359.384	394.48
359.766	388.38
360.148	392
360.53	384.99
360.912	368.95
361.294	388.83
361.676	381.37
362.057	371.66
362.439	379.34
362.821	347.25
363.203	379.79
363.584	377.08
363.966	364.2
364.348	369.17
364.729	359.45
365.111	362.84
365.493	380.47
365.874	349.74
366.256	387.7
366.637	373.24
367.019	368.72
367.4	369.17
367.781	384.99
368.163	369.62
368.544	384.99
368.925	380.7
369.306	380.7
369.688	363.07
370.069	373.01
370.45	396.51
370.831	395.61
371.212	354.71
371.593	402.39
371.974	377.53
372.355	376.85
372.736	380.92
373.117	395.61
373.498	369.4
373.879	391.54
374.26	393.13
374.641	380.7
375.021	412.33
375.402	391.09
375.783	391.09
376.163	409.62
376.544	397.42
376.925	404.2
377.305	393.58
377.686	403.07
378.066	412.11
378.447	411.88
378.827	417.31
379.208	420.92
379.588	413.46
379.968	416.85
380.349	413.24
380.729	427.25
381.109	402.62
381.489	402.39
381.87	427.02
382.25	438.77
382.63	417.53
383.01	431.77
383.39	438.1
383.77	431.09
384.15	432.67
384.53	425.44
384.91	453.91
385.29	426.8
385.67	438.77
386.049	455.5
386.429	440.58
386.809	461.37
387.189	456.85
387.568	465.44
387.948	468.6
388.328	479.22
388.707	476.06
389.087	467.7
389.466	474.48
389.846	459.34
390.225	465.44
390.605	478.32
390.984	487.13
391.363	482.16
391.743	475.83
392.122	492.33
392.501	501.82
392.881	485.1
393.26	490.75
393.639	508.15
394.018	514.25
394.397	504.76
394.776	511.54
395.155	530.3
395.534	522.16
395.913	538.43
396.292	520.35
396.671	539.56
397.05	561.26
397.429	528.49
397.808	529.62
398.186	523.97
398.565	521.26
398.944	534.59
399.323	559
399.701	544.31
400.08	556.28
400.458	565.32
400.837	538.66
401.215	562.16
401.594	547.25
401.972	564.19
402.351	575.27
402.729	591.76
403.107	596.51
403.486	593.8
403.864	571.2
404.242	584.76
404.62	586.79
404.999	573.46
405.377	596.06
405.755	598.54
406.133	591.76
406.511	594.25
406.889	623.85
407.267	635.15
407.645	636.73
408.023	657.3
408.401	648.71
408.779	657.3
409.156	662.5
409.534	664.53
409.912	670.41
410.29	677.86
410.667	665.43
411.045	707.69
411.422	714.47
411.8	675.83
412.178	702.27
412.555	713.34
412.933	717.18
413.31	722.38
413.687	742.72
414.065	762.61
414.442	740.23
414.819	751.76
415.197	744.98
415.574	763.51
415.951	766.67
416.328	776.62
416.705	786.11
417.082	789.95
417.46	802.61
417.837	775.26
418.214	794.7
418.591	790.18
418.967	812.78
419.344	808.48
419.721	827.69
420.098	847.58
420.475	817.75
420.852	822.94
421.228	848.71
421.605	875.37
421.982	847.58
422.358	860.46
422.735	867.69
423.111	872.43
423.488	876.05
423.864	892.1
424.241	906.33
424.617	874.69
424.994	906.33
425.37	903.39
425.746	907.01
426.123	902.26
426.499	927.8
426.875	929.16
427.251	963.28
427.627	960.34
428.003	963.73
428.379	980.45
428.756	990.17
429.132	1007.8
429.507	1000.11
429.883	1022.71
430.259	1026.78
430.635	1025.65
431.011	1026.55
431.387	1041.92
431.763	1068.81
432.138	1079.89
432.514	1109.26
432.89	1107
433.265	1133.44
433.641	1142.48
434.016	1114.91
434.392	1132.77
434.767	1173.9
435.143	1155.82
435.518	1169.83
435.894	1182.93
436.269	1216.15
436.644	1205.99
437.02	1225.87
437.395	1209.37
437.77	1235.14
438.145	1252.54
438.52	1274.68
438.895	1268.13
439.271	1270.84
439.646	1275.36
440.021	1273.55
440.395	1317.62
440.77	1282.82
441.145	1306.55
441.52	1308.36
441.895	1352.65
442.27	1320.11
442.645	1335.02
443.019	1333.67
443.394	1375.25
443.769	1358.75
444.143	1351.52
444.518	1386.55
444.892	1366.88
445.267	1396.26
445.641	1387.68
446.016	1434
446.39	1440.1
446.764	1436.26
447.139	1411.63
447.513	1454.34
447.887	1429.93
448.262	1451.85
448.636	1458.86
449.01	1455.24
449.384	1469.48
449.758	1487.33
450.132	1519.42
450.506	1523.27
450.88	1542.25
451.254	1557.16
451.628	1585.18
452.002	1580.89
452.376	1599.87
452.75	1613.66
453.123	1590.61
453.497	1601.91
453.871	1702.47
454.244	1692.07
454.618	1697.27
454.992	1744.5
455.365	1722.81
455.739	1763.03
456.112	1788.12
456.486	1808.46
456.859	1842.35
457.232	1836.93
457.606	1841.45
457.979	1878.06
458.352	1912.86
458.725	1911.5
459.099	1965.51
459.472	1951.5
459.845	2005.06
460.218	2019.3
460.591	2025.17
460.964	2045.29
461.337	2054.55
461.71	2135.45
462.083	2126.86
462.456	2139.07
462.829	2138.84
463.201	2203.47
463.574	2196.69
463.947	2252.06
464.32	2263.36
464.692	2273.3
465.065	2276.47
465.438	2326.41
465.81	2321.44
466.183	2375.67
466.555	2419.51
466.928	2439.85
467.3	2448.21
467.672	2507.87
468.045	2508.1
468.417	2560.07
468.789	2570.92
469.161	2574.54
469.534	2636.46
469.906	2658.15
470.278	2684.14
470.65	2706.06
471.022	2777.24
471.394	2812.5
471.766	2815.66
472.138	2871.7
472.51	2921.87
472.882	2992.38
473.253	2984.02
473.625	3071.02
473.997	3153.73
474.369	3164.13
474.74	3186.05
475.112	3197.8
475.484	3296.1
475.855	3336.78
476.227	3348.75
476.598	3471.01
476.97	3535.19
477.341	3581.06
477.713	3647.5
478.084	3662.87
478.455	3774.28
478.827	3797.1
479.198	3897.67
479.569	3923.65
479.94	4094.27
480.311	4091.33
480.682	4169.52
481.053	4326.36
481.424	4343.3
481.795	4445.67
482.166	4491.32
482.537	4587.82
482.908	4729.73
483.279	4783.97
483.65	4880.01
484.021	5009.05
484.391	5049.95
484.762	5147.58
485.133	5246.56
485.503	5366.33
485.874	5502.14
486.244	5517.96
486.615	5666.21
486.985	5780.78
487.356	5891.29
487.726	6019.19
488.097	6270.94
488.467	6267.32
488.837	6444.72
489.207	6591.83
489.578	6720.64
489.948	6901.65
490.318	7050.8
490.688	7120.41
491.058	7338.48
491.428	7441.53
491.798	7617.79
492.168	7907.73
492.538	7991.12
492.908	8190.66
493.278	8323.31
493.648	8477.21
494.017	8720.14
494.387	8776.63
494.757	9091.2
495.126	9259.33
495.496	9435.37
495.866	9598.98
496.235	9808.02
496.605	9985.87
496.974	10151.51
497.344	10492.07
497.713	10635.79
498.082	10850.03
498.452	11092.5
498.821	11272.84
499.19	11470.35
499.559	11746.5
499.928	12018.58
500.298	12132.03
500.667	12508.74
501.036	12611.56
501.405	12852.01
501.774	13159.34
502.143	13406.12
502.512	13650.4
502.88	13995.93
503.249	14105.08
503.618	14471.85
503.987	14629.59
504.356	15004.04
504.724	15206.07
505.093	15472.05
505.462	15711.14
505.83	16023.22
506.199	16312.71
506.567	16671.57
506.936	16739.81
507.304	17325.11
507.672	17486.69
508.041	17716.29
508.409	18020.46
508.777	18452.31
509.145	18666.32
509.514	18755.35
509.882	19141.11
510.25	19375.45
510.618	19631.49
510.986	19885.72
511.354	20164.81
511.722	20578.81
512.09	20781.52
512.458	20974.5
512.826	21319.13
513.193	21417.43
513.561	21923.86
513.929	22079.56
514.297	22388.71
514.664	22630.51
515.032	22922.7
515.4	23237.95
515.767	23366.98
516.135	23655.34
516.502	23683.81
516.869	24190.92
517.237	24439.72
517.604	24427.07
517.972	24881.75
518.339	25177.78
518.706	25465.91
519.073	25624.1
519.44	25787.26
519.808	26303.18
520.175	26304.08
520.542	26714.24
520.909	26940.9
521.276	27109.94
521.643	27609.13
522.009	27760.09
522.376	28060.87
522.743	28191.72
523.11	28594.42
523.477	29024.01
523.843	29215.42
524.21	29699.7
524.577	29760.94
524.943	30150.76
525.31	30261.27
525.676	30723.63
526.043	30939.21
526.409	31204.74
526.776	31415.13
527.142	31578.75
527.508	31912.3
527.874	32288.78
528.241	32467.76
528.607	32684.93
528.973	33169.89
529.339	33240.4
529.705	33625.47
530.071	33861.17
530.437	33954.05
530.803	34306.58
531.169	34381.61
531.535	34626.12
531.901	34881.94
532.267	35141.59
532.632	35283.96
532.998	35548.81
533.364	35781.12
533.73	35885.3
534.095	36279.19
534.461	36426.53
534.826	36515.34
535.192	36725.96
535.557	37117.13
535.923	36899.51
536.288	37270.57
536.653	37504.01
537.019	37454.75
537.384	37551.92
537.749	37801.18
538.114	37968.63
538.479	38098.57
538.845	38300.6
539.21	38345.57
539.575	38409.07
539.94	38639.58
540.305	38860.36
540.67	38950.76
541.034	39060.13
541.399	39293.12
541.764	39379.22
542.129	39493.34
542.494	39723.84
542.858	39802.94
543.223	39757.97
543.587	40188.46
543.952	40176.26
544.316	40352.98
544.681	40338.97
545.045	40558.4
545.41	40665.51
545.774	40678.62
546.138	40771.5
546.503	40979.18
546.867	41218.94
547.231	41389.34
547.595	41412.84
547.959	41661.87
548.324	41673.17
548.688	41688.31
549.052	42091.01
549.416	42122.2
549.779	42074.06
550.143	42387.5
550.507	42437.9
550.871	42750.43
551.235	42861.16
551.599	43129.4
551.962	43128.05
552.326	43351.54
552.689	43523.52
553.053	43392.67
553.417	43566.23
553.78	44037.18
554.143	44224.29
554.507	44316.72
554.87	44355.81
555.234	44718.97
555.597	44525.75
555.96	44747.89
556.323	45029.92
556.686	44992.63
557.05	45362.79
557.413	45357.82
557.776	45456.8
558.139	45905.37
558.502	45982.44
558.865	45948.09
559.228	46388.07
559.59	46575.64
559.953	46662.19
560.316	47014.5
560.679	47059.24
561.041	47244.32
561.404	47475.96
561.767	47634.37
562.129	47692.9
562.492	48018.09
562.854	48012.44
563.217	48096.73
563.579	48211.53
563.941	48595.25
564.304	48651.52
564.666	49045.18
565.028	49081.11
565.39	49275.91
565.753	49393.64
566.115	49524.04
566.477	49769.23
566.839	49869.11
567.201	50190.91
567.563	50126.51
567.925	50485.59
568.287	50510.45
568.648	50533.5
569.01	50853.04
569.372	51015.3
569.734	51034.05
570.095	51336.42
570.457	51507.71
570.819	51609.86
571.18	51632
571.542	51834.26
571.903	51883.75
572.265	52019.79
572.626	52272.44
572.987	52334.13
573.349	52531.87
573.71	52556.5
574.071	52743.61
574.432	52818.41
574.794	53033.32
575.155	53104.06
575.516	53105.41
575.877	53274.22
576.238	53291.4
576.599	53453.88
576.96	53550.37
577.32	53566.64
577.681	53731.38
578.042	53870.14
578.403	53878.27
578.763	53941.32
579.124	54038.04
579.485	54224.93
579.845	54368.43
580.206	54331.37
580.566	54385.83
580.927	54483
581.287	54623.79
581.648	54450.46
582.008	54752.6
582.368	54839.38
582.728	54828.08
583.089	54882.99
583.449	54865.59
583.809	54973.16
584.169	55107.17
584.529	54996.21
584.889	55317.1
585.249	55074.4
585.609	55124.57
585.969	55290.66
586.329	55279.37
586.688	55407.72
587.048	55423.54
587.408	55492.92
587.768	55478.46
588.127	55613.14
588.487	55632.12
588.846	55805.91
589.206	55663.76
589.565	55732.91
589.925	55928.39
590.284	55863.98
590.643	55930.65
591.003	55972.68
591.362	56115.73
591.721	56116.18
592.08	56172.22
592.44	56307.36
592.799	56258.1
593.158	56344.2
593.517	56322.73
593.876	56476.17
594.235	56461.26
594.593	56491.99
594.952	56672.1
595.311	56595.04
595.67	56687.24
596.029	56814.24
596.387	56821.7
596.746	56967.91
597.104	56863.28
597.463	56928.81
597.822	57143.05
598.18	57011.52
598.538	57059.21
598.897	57333.77
599.255	57169.26
599.613	57484.05
599.972	57355.7
600.33	57385.75
600.688	57459.87
601.046	57496.71
601.404	57708
601.762	57676.14
602.12	57899.64
602.478	57818.06
602.836	57874.55
603.194	57750.49
603.552	57937.15
603.91	57889.47
604.268	57991.16
604.625	57950.26
604.983	58140.31
605.341	58008.11
605.698	58280.87
606.056	58310.47
606.413	58264.15
606.771	58465.04
607.128	58479.06
607.485	58461.88
607.843	58448.55
608.2	58543.69
608.557	58671.37
608.914	58665.27
609.272	58823
609.629	58848.54
609.986	58922.21
610.343	58871.59
610.7	59128.98
611.057	59133.95
611.414	59088.08
611.771	59234.74
612.127	59297.34
612.484	59367.62
612.841	59396.55
613.198	59354.29
613.554	59381.4
613.911	59505.7
614.267	59564.45
614.624	59545.47
614.98	59636.99
615.337	59783.65
615.693	59745.69
616.05	59800.6
616.406	59954.95
616.762	59825.69
617.118	59903.2
617.475	59943.88
617.831	59985.68
618.187	60114.94
618.543	60138.45
618.899	60270.87
619.255	60258.44
619.611	60226.35
619.967	60319.23
620.323	60478.78
620.678	60311.32
621.034	60367.37
621.39	60380.7
621.746	60345.45
622.101	60640.35
622.457	60397.2
622.812	60593.58
623.168	60603.29
623.523	60572.56
623.879	60665.66
624.234	60533.24
624.589	60595.16
624.945	60647.13
625.3	60728.71
625.655	60691.43
626.01	60668.6
626.365	60746.79
626.72	60644.42
627.075	60627.47
627.43	60665.89
627.785	60647.59
628.14	60696.17
628.495	60668.83
628.85	60740.01
629.205	60719.9
629.559	60736.4
629.914	60717.19
630.269	60703.86
630.623	60606.46
630.978	60607.36
631.332	60709.51
631.687	60750.41
632.041	60618.21
632.396	60638.09
632.75	60644.42
633.104	60704.76
633.459	60516.06
633.813	60522.17
634.167	60465.44
634.521	60454.14
634.875	60526.46
635.229	60419.34
635.583	60334.37
635.937	60378.67
636.291	60407.37
636.645	60391.55
636.999	60232.91
637.352	60324.66
637.706	60183.64
638.06	60244.21
638.413	60259.57
638.767	60161.72
639.121	60181.84
639.474	60058.9
639.828	60102.97
640.181	60016.64
640.534	60177.77
640.888	59985.68
641.241	59963.76
641.594	60002.41
641.947	59971.22
642.301	59901.84
642.654	59902.07
643.007	59845.35
643.36	59942.07
643.713	59852.58
644.066	59962.63
644.419	59729.42
644.771	59512.93
645.124	59301.63
645.477	59203.56
645.83	59151.13
646.182	59153.39
646.535	59089.89
646.888	59143.44
647.24	59073.84
647.593	59184.12
647.945	59082.66
648.298	58998.36
648.65	58819.16
649.002	58794.08
649.355	58802.66
649.707	58724.02
650.059	58747.52
650.411	59016.44
650.763	59138.7
651.115	59461.63
651.467	59331.24
651.819	59388.64
652.171	59312.71
652.523	59192.03
652.875	59272.48
653.227	59182.54
653.578	59376.89
653.93	59257.34
654.282	59101.64
654.633	59092.37
654.985	59176.44
655.337	59089.44
655.688	59143.22
656.039	59140.28
656.391	58934.41
656.742	58989.55
657.094	58952.26
657.445	59074.07
657.796	59001.53
658.147	58864.13
658.498	59006.73
658.849	58951.36
659.2	58891.02
659.551	58813.51
659.902	58982.77
660.253	58845.6
660.604	58932.83
660.955	58776.9
661.306	58884.92
661.656	58756.79
662.007	58770.57
662.358	58733.29
662.708	58763.34
663.059	58711.37
663.409	58584.14
663.76	58717.24
664.11	58696.45
664.461	58765.15
664.811	58690.12
665.161	58605.15
665.511	58634.76
665.862	58613.29
666.212	58688.77
666.562	58671.14
666.912	58640.18
667.262	58608.09
667.612	58602.67
667.962	58618.49
668.312	58561.77
668.662	58700.74
669.011	58645.38
669.361	58620.29
669.711	58625.49
670.06	58524.93
670.41	58492.84
670.76	58499.85
671.109	58609.67
671.459	58568.09
671.808	58539.62
672.157	58554.31
672.507	58442.45
672.856	58450.13
673.205	58534.42
673.554	58552.73
673.904	58456.46
674.253	58616.23
674.602	58446.74
674.951	58140.76
675.3	58104.6
675.649	58377.82
675.998	58453.52
676.346	58421.2
676.695	58497.36
677.044	58298.95
677.393	58395.67
677.741	58440.86
678.09	58335.33
678.438	58266.18
678.787	58440.41
679.135	58343.24
679.484	58230.47
679.832	58365.39
680.181	58230.02
680.529	58260.76
680.877	58151.38
681.225	58123.36
681.573	58300.08
681.922	58178.05
682.27	58097.37
682.618	58073.87
682.966	58026.64
683.314	58101.89
683.661	58034.77
684.009	57991.16
684.357	57955
684.705	57816.47
685.053	57909.35
685.4	57833.65
685.748	57730.83
686.095	57735.35
686.443	57608.57
686.79	57632.3
687.138	57735.12
687.485	57709.81
687.832	57533.77
688.18	57599.08
688.527	57463.72
688.874	57493.77
689.221	57430.5
689.568	57404.73
689.915	57347.56
690.262	57352.08
690.609	57246.55
690.956	57195.02
691.303	57161.35
691.65	57050.62
691.997	57010.62
692.344	56939.66
692.69	56889.04
693.037	56920
693.383	56630.74
693.73	56809.95
694.077	56638.65
694.423	56632.32
694.769	56583.29
695.116	56544.64
695.462	56447.02
695.808	56390.97
696.155	56350.98
696.501	56247.48
696.847	56267.59
697.193	56099.23
697.539	56149.85
697.885	55958.22
698.231	55874.83
698.577	55930.65
698.923	55901.04
699.269	55709.18
699.614	55641.62
699.96	55520.72
700.306	55583.54
700.651	55380.61
700.997	55378.8
701.342	55436.88
701.688	55194.85
702.033	55144.23
702.379	55196.66
702.724	55056.32
703.069	55088.86
703.415	54835.54
703.76	54891.58
704.105	54880.28
704.45	54788.31
704.795	54575.43
705.14	54576.33
705.485	54577.46
705.83	54375.43
706.175	54473.74
706.52	54331.14
706.865	54249.79
707.209	54202.78
707.554	54102
707.899	54136.12
708.243	54002.56
708.588	53993.75
708.932	53847.54
709.277	53858.16
709.621	53600.54
709.966	53549.24
710.31	53608
710.654	53395.57
710.998	53545.4
711.342	53438.06
711.687	53361.68
712.031	53279.87
712.375	53081.46
712.719	53115.81
713.063	52992.42
713.407	53152.87
713.75	53014.79
714.094	53025.64
714.438	52798.3
714.782	52844.63
715.125	52652.32
715.469	52818.41
715.812	52467.46
716.156	52482.15
716.499	52507.91
716.843	52521.02
717.186	52337.75
717.53	52462.49
717.873	52380.01
718.216	52266.56
718.559	52245.32
718.902	51994.25
719.246	52090.97
719.589	51978.66
719.932	51791.32
720.275	51885.78
720.617	51882.17
720.96	51708.16
721.303	51773.92
721.646	51853.02
721.989	51533.93
722.331	51630.2
722.674	51615.51
723.016	51570.54
723.359	51402.86
723.701	51369.41
724.044	51153.6
724.386	51109.08
724.729	51285.8
725.071	51219.36
725.413	51121.06
725.755	51128.06
726.097	50995.64
726.439	50871.35
726.782	50768.75
727.124	50938.01
727.465	50780.73
727.807	50665.93
728.149	50759.71
728.491	50625.25
728.833	50613.27
729.175	50536.44
729.516	50509.32
729.858	50395.65
730.199	50543.67
730.541	50381.19
730.882	50228.88
731.224	50199.27
731.565	50102.55
731.906	50115.43
732.248	50278.14
732.589	50121.99
732.93	50004.48
733.271	50041.76
733.612	49883.58
733.953	49992.73
734.294	49848.32
734.635	49755.44
734.976	49942.56
735.317	49711.15
735.658	49666.86
735.999	49560.87
736.339	49540.31
736.68	49590.7
737.021	49631.15
737.361	49457.6
737.702	49619.63
738.042	49465.73
738.383	49461.44
738.723	49449.24
739.063	49352.29
739.404	49460.54
739.744	49110.94
740.084	49173.54
740.424	49199.53
740.764	49080.88
741.104	49244.27
741.444	49108.91
741.784	48891.96
742.124	48953.2
742.464	48831.85
742.804	48801.8
743.143	48721.12
743.483	48849.25
743.823	48666.43
744.162	48701.01
744.502	48567.68
744.841	48400.68
745.181	48549.83
745.52	48438.19
745.86	48425.76
746.199	48472.99
746.538	48393.45
746.877	48291.75
747.216	48310.51
747.556	48227.35
747.895	48191.19
748.234	48115.71
748.573	48065.09
748.911	47865.78
749.25	47937.86
749.589	47867.36
749.928	47863.29
750.267	47941.71
750.605	47798.43
750.944	47699
751.283	47567.48
751.621	47490.19
751.96	47385.11
752.298	47405.45
752.636	47357.77
752.975	47211.33
753.313	47146.25
753.651	47357.09
753.989	47042.07
754.327	46968.62
754.666	46666.26
755.004	46879.13
755.342	46851.11
755.679	46814.28
756.017	46474.4
756.355	46491.57
756.693	46433.04
757.031	46472.37
757.368	46123
757.706	46099.95
758.044	46002.77
758.381	46034.86
758.719	45838.03
759.056	45855.21
759.394	45785.38
759.731	45422.45
760.068	45401.43
760.405	45447.76
760.743	45292.28
761.08	45331.6
761.417	45104.72
761.754	45052.52
762.091	44993.53
762.428	44689.36
762.765	44538.63
763.102	44555.58
763.438	44435.36
763.775	44200.33
764.112	44192.2
764.449	44010.51
764.785	43837.86
765.122	43698.43
765.458	43491.88
765.795	43504.08
766.131	43628.6
766.467	43290.98
766.804	42996.52
767.14	42943.42
767.476	42971.67
767.812	42901.16
768.148	42835.17
768.485	42614.39
768.821	42287.39
769.157	42086.49
769.492	42126.49
769.828	41989.55
770.164	41741.87
770.5	41556.11
770.836	41559.73
771.171	41421.65
771.507	41355.44
771.842	41136.23
772.178	41002
772.513	40967.88
772.849	40798.39
773.184	40763.59
773.519	40627.55
773.855	40430.94
774.19	40320.44
774.525	40131.52
774.86	40113.21
775.195	39899.66
775.53	39729.04
775.865	39542.83
776.2	39246.57
776.535	39090.41
776.87	39055.16
777.205	38829.85
777.539	38753.7
777.874	38710.99
778.209	38523.42
778.543	38423.31
778.878	38271.23
779.212	38174.5
779.547	37957.34
779.881	38005.7
780.215	37605.71
780.55	37747.17
780.884	37461.3
781.218	37260.18
781.552	37432.6
781.886	37024.03
782.22	36843.47
782.554	36724.6
782.888	36449.58
783.222	36386.08
783.556	36273.09
783.889	36208
784.223	35874
784.557	35933.66
784.89	35915.13
785.224	35720.11
785.557	35532.77
785.891	35344.75
786.224	35317.63
786.558	35311.76
786.891	35113.34
787.224	34943.18
787.557	34863.63
787.891	34788.83
788.224	34440.59
788.557	34424.32
788.89	34457.09
789.223	34243.99
789.556	34053.03
789.888	34016.2
790.221	33849.65
790.554	33702.31
790.887	33745.69
791.219	33395.65
791.552	33367.85
791.884	33179.38
792.217	33122.43
792.549	33006.05
792.882	32747.75
793.214	32665.95
793.546	32734.87
793.879	32573.3
794.211	32264.15
794.543	32427.99
794.875	32281.1
795.207	32248.33
795.539	32130.37
795.871	32123.14
796.203	31898.96
796.535	31675.69
796.867	31616.71
797.198	31383.95
797.53	31608.12
797.862	31235.48
798.193	31238.87
798.525	31026.44
798.856	31166.33
799.188	30866.22
799.519	30624.19
799.85	30640.01
800.182	30589.17
800.513	30584.2
800.844	30151.21
801.175	30416.06
801.506	30297.65
801.837	30210.42
802.168	30179.01
802.499	30175.62
802.83	29934.04
803.161	29796.19
803.491	29846.14
803.822	29946.92
804.153	29473.49
804.483	29369.54
804.814	29188.3
805.145	29270.11
805.475	29283.89
805.805	29113.95
806.136	29194.85
806.466	28995.31
806.796	28900.17
807.126	28882.32
807.457	28624.93
807.787	28717.8
808.117	28632.38
808.447	28461.77
808.777	28620.86
809.107	28228.1
809.436	28278.04
809.766	28215.44
810.096	28136.58
810.426	28135.45
810.755	28042.34
811.085	28010.93
811.414	27993.08
811.744	27784.5
812.073	27767.32
812.403	27618.4
812.732	27434.67
813.061	27695.91
813.39	27339.31
813.719	27412.98
814.049	27528
814.378	27319.42
814.707	27193.78
815.036	27122.37
815.365	26976.16
815.693	26817.52
816.022	26951.52
816.351	26801.47
816.68	26601.7
817.008	26741.13
817.337	26464.76
817.665	26499.11
817.994	26653.9
818.322	26536.39
818.651	26453.68
818.979	26391.09
819.307	26365.55
819.636	26395.38
819.964	26096.63
820.292	26302.73
820.62	26141.6
820.948	26177.98
821.276	26303.86
821.604	26195.61
821.932	26265.67
822.259	26088.27
822.587	26107.25
822.915	26115.84
823.243	26241.71
823.57	25991.1
823.898	26213.01
824.225	26070.64
824.553	26036.07
824.88	26125.56
825.207	26303.18
825.535	26074.26
825.862	26149.28
826.189	26138.89
826.516	26238.55
826.843	26234.93
827.17	26220.69
827.497	26253.01
827.824	26171.88
828.151	26193.35
828.478	26043.52
828.805	26335.95
829.131	26133.24
829.458	26205.55
829.785	25963.53
830.111	26110.87
830.438	26304.76
830.764	26306.34
831.09	26190.19
831.417	25901.61
831.743	26124.88
832.069	26111.77
832.395	26003.3
832.722	26088.27
833.048	26021.83
833.374	26053.02
833.7	25953.58
834.026	26002.85
834.351	25941.15
834.677	26079.46
835.003	25893.92
835.329	25855.51
835.654	25893.92
835.98	25753.14
836.306	25890.53
836.631	25714.95
836.956	25849.86
837.282	25831.1
837.607	25626.81
837.932	25669.3
838.258	25681.5
838.583	25626.13
838.908	25529.64
839.233	25660.71
839.558	25423.2
839.883	25341.85
840.208	25224.34
840.533	25363.54
840.858	25275.86
841.182	25271.79
841.507	25315.86
841.832	25074.96
842.156	25151.12
842.481	25037.9
842.805	25076.77
843.13	25011.69
843.454	24963.33
843.778	24785.93
844.103	24875.42
844.427	24772.6
844.751	24798.13
845.075	24616.22
845.399	24610.57
845.723	24410.12
846.047	24441.53
846.371	24321.31
846.695	24249
847.019	24037.7
847.343	24013.75
847.666	23883.36
847.99	23782.57
848.313	23655.56
848.637	23668.9
848.96	23489.47
849.284	23569.69
849.607	23350.49
849.931	23382.13
850.254	23194.33
850.577	22987.11
850.9	22938.97
851.223	22854.46
851.546	22829.82
851.869	22573.11
852.192	22818.75
852.515	22485.2
852.838	22357.75
853.161	22408.82
853.483	22313.68
853.806	22278.65
854.129	22138.54
854.451	22057.64
854.774	21961.6
855.096	21903.07
855.419	21814.93
855.741	21828.49
856.063	21774.26
856.385	21671.44
856.708	21573.59
857.03	21517.09
857.352	21419.92
857.674	21492.91
857.996	21352.12
858.318	21221.73
858.64	21332.46
858.961	21143.31
859.283	21114.61
859.605	21069.19
859.926	21039.81
860.248	20971.79
860.57	20893.83
860.891	20874.62
861.212	20835.3
861.534	20749.2
861.855	20591.46
862.176	20675.76
862.498	20597.57
862.819	20706.72
863.14	20558.7
863.461	20530
863.782	20422.66
864.103	20508.98
864.424	20205.49
864.745	20423.79
865.065	20277.12
865.386	20324.35
865.707	20278.48
866.027	20284.81
866.348	20092.72
866.668	20141.76
866.989	19992.84
867.309	19948.54
867.63	19949.45
867.95	19983.12
868.27	19890.69
868.59	19954.87
868.91	19858.38
869.23	19816.12
869.55	19795.1
869.87	19820.19
870.19	19610.47
870.51	19698.38
870.83	19786.97
871.15	19506.97
871.469	19539.51
871.789	19727.31
872.109	19591.94
872.428	19445.51
872.748	19526.18
873.067	19445.05
873.386	19422.23
873.706	19439.4
874.025	19361.89
874.344	19281.89
874.663	19285.28
874.982	19346.3
875.301	19304.04
875.62	19214.1
875.939	19226.75
876.258	19187.89
876.577	19018.62
876.896	19074.67
877.214	18982.24
877.533	19004.39
877.852	19079.19
878.17	19008.45
878.489	18965.29
878.807	18882.36
879.125	18947.89
879.444	18778.86
879.762	18806.43
880.08	18884.62
880.398	18749.7
880.716	18737.73
881.034	18675.81
881.352	18583.83
881.67	18608.47
881.988	18562.59
882.306	18502.25
882.624	18446.89
882.941	18393.56
883.259	18457.06
883.577	18328.92
883.894	18302.71
884.212	18212.54
884.529	18226.78
884.846	18131.19
885.164	18068.82
885.481	17944.75
885.798	18095.26
886.115	17974.81
886.432	18044.64
886.75	18022.27
887.067	18071.53
887.383	17832.21
887.7	17819.79
888.017	17712.22
888.334	17783.18
888.651	17773.23
888.967	17573.69
889.284	17479.68
889.6	17521.26
889.917	17536.4
890.233	17494.37
890.55	17407.59
890.866	17357.42
891.182	17264.77
891.498	17297.31
891.815	17161.95
892.131	17116.98
892.447	17078.56
892.763	16978.9
893.079	17007.15
893.395	16997.21
893.71	16836.53
894.026	16758.12
894.342	16745.01
894.657	16683.09
894.973	16543.89
895.289	16596.54
895.604	16534.85
895.92	16418.01
896.235	16445.58
896.55	16382.76
896.865	16370.56
897.181	16233.61
897.496	16236.78
897.811	16170.56
898.126	16072.04
898.441	16106.38
898.756	15993.17
899.071	15879.05
899.386	16118.14
899.7	15854.19
900.015	15747.07
900.33	15649
900.644	15536.91
900.959	15659.84
901.273	15569.9
901.588	15514.99
901.902	15401.77
902.216	15387.08
902.531	15393.63
902.845	15269.57
903.159	15174.43
903.473	15127.65
903.787	15069.12
904.101	15026.19
904.415	15030.25
904.729	14958.62
905.042	14901.22
905.356	14813.99
905.67	14832.07
905.984	14811.5
906.297	14700.77
906.611	14591.62
906.924	14552.53
907.237	14660.55
907.551	14453.55
907.864	14401.12
908.177	14452.64
908.491	14283.83
908.804	14191.41
909.117	14205.19
909.43	14037.96
909.743	14024.41
910.056	14070.51
910.368	13916.84
910.681	13970.17
910.994	13798.2
911.307	13743.73
911.619	13595.94
911.932	13663.28
912.244	13600.91
912.557	13546
912.869	13510.52
913.181	13439.56
913.494	13404.08
913.806	13287.93
914.118	13260.81
914.43	13233.47
914.742	13124.77
915.054	13075.96
915.366	13036.41
915.678	13054.26
915.99	12931.1
916.302	12828.28
916.613	12803.19
916.925	12846.81
917.236	12806.13
917.548	12643.42
917.859	12702.86
918.171	12602.3
918.482	12534.5
918.794	12430.77
919.105	12333.83
919.416	12272.13
919.727	12292.7
920.038	12259.71
920.349	12151.69
920.66	12100.39
920.971	12151.91
921.282	12061.07
921.593	11963.67
921.903	11915.76
922.214	11883.67
922.525	11873.73
922.835	11833.28
923.146	11691.81
923.456	11620.85
923.767	11574.3
924.077	11574.53
924.387	11562.55
924.697	11464.92
925.008	11423.12
925.318	11403.68
925.628	11390.58
925.938	11289.79
926.248	11152.16
926.558	11109.23
926.867	11150.58
927.177	10993.07
927.487	10988.1
927.796	10909.91
928.106	10919.85
928.416	10908.1
928.725	10857.93
929.034	10844.38
929.344	10766.41
929.653	10767.99
929.962	10631.95
930.271	10613.42
930.581	10544.5
930.89	10547.43
931.199	10460.43
931.508	10449.58
931.817	10379.98
932.125	10353.54
932.434	10226.99
932.743	10238.52
933.051	10173.21
933.36	10142.02
933.669	10087.11
933.977	10024.74
934.286	10060.89
934.594	9949.94
934.902	9888.69
935.21	9923.5
935.519	9835.36
935.827	9840.33
936.135	9778.19
936.443	9704.74
936.751	9664.52
937.059	9663.84
937.367	9595.6
937.674	9564.64
937.982	9516.05
938.29	9552.88
938.597	9470.4
938.905	9355.6
939.213	9285.09
939.52	9254.59
939.827	9387.47
940.135	9246
940.442	9183.63
940.749	9146.34
941.056	9160.8
941.363	9104.31
941.67	9071.09
941.977	8963.52
942.284	8884.65
942.591	8963.52
942.898	8850.76
943.205	8866.8
943.511	8768.72
943.818	8736.18
944.125	8710.19
944.431	8680.14
944.738	8654.83
945.044	8588.62
945.35	8533.02
945.657	8484.89
945.963	8458.9
946.269	8402.86
946.575	8385.23
946.881	8314.72
947.187	8326.25
947.493	8336.87
947.799	8298.45
948.105	8236.99
948.41	8228.4
948.716	8178.23
949.022	8118.8
949.327	8093.94
949.633	8035.86
949.938	8032.7
950.244	8010.78
950.549	7902.53
950.854	7854.62
951.16	7891.46
951.465	7808.3
951.77	7792.48
952.075	7763.78
952.38	7764.91
952.685	7715.64
952.99	7645.14
953.294	7568.53
953.599	7627.51
953.904	7549.1
954.209	7451.7
954.513	7497.35
954.818	7490.34
955.122	7492.37
955.426	7389.78
955.731	7320.4
956.035	7229.56
956.339	7295.32
956.643	7225.49
956.948	7171.93
957.252	7144.81
957.556	7173.29
957.86	7121.76
958.163	7090.35
958.467	7064.59
958.771	7023.01
959.075	7014.65
959.378	6904.37
959.682	6994.08
959.985	6883.8
960.289	6833.86
960.592	6837.7
960.896	6849.45
961.199	6783.69
961.502	6760.19
961.805	6747.99
962.108	6674.32
962.411	6699.63
962.714	6520.42
963.017	6570.82
963.32	6590.7
963.623	6573.3
963.926	6502.57
964.228	6502.34
964.531	6484.04
964.833	6489.69
965.136	6397.49
965.438	6399.75
965.741	6297.6
966.043	6320.2
966.345	6239.53
966.648	6235.23
966.95	6310.03
967.252	6196.59
967.554	6209.24
967.856	6164.5
968.158	6091.96
968.46	6055.8
968.761	6062.81
969.063	6036.14
969.365	6015.58
969.666	5999.53
969.968	5923.6
970.269	5889.25
970.571	5857.61
970.872	5913.43
971.174	5798.63
971.475	5828.01
971.776	5764.96
972.077	5716.38
972.378	5734.68
972.679	5687.68
972.98	5669.37
973.281	5653.33
973.582	5654.91
973.883	5569.71
974.183	5588.47
974.484	5566.55
974.785	5483.61
975.085	5489.49
975.386	5483.39
975.686	5387.8
975.986	5404.74
976.287	5401.58
976.587	5381.24
976.887	5342.6
977.187	5367.23
977.487	5302.37
977.787	5253.11
978.087	5211.08
978.387	5224.18
978.687	5228.93
978.987	5155.94
979.286	5132.21
979.586	5108.71
979.885	5109.61
980.185	5090.85
980.484	5094.92
980.784	5031.65
981.083	4974.7
981.382	4977.86
981.682	4966.34
981.981	4974.47
982.28	4876.4
982.579	4878.43
982.878	4917.53
983.177	4838.66
983.475	4803.4
983.774	4761.6
984.073	4743.75
984.372	4764.76
984.67	4736.06
984.969	4752.56
985.267	4695.39
985.566	4661.71
985.864	4663.3
986.162	4625.1
986.461	4594.6
986.759	4598.66
987.057	4541.72
987.355	4524.54
987.653	4508.05
987.951	4476.41
988.249	4432.34
988.547	4400.25
988.844	4415.17
989.142	4408.39
989.44	4378.33
989.737	4364.55
990.035	4329.07
990.332	4352.12
990.63	4306.92
990.927	4279.58
991.224	4264.21
991.521	4259.24
991.819	4228.05
992.116	4185.12
992.413	4193.25
992.71	4139.92
993.006	4118.23
993.303	4119.35
993.6	4105.12
993.897	4086.36
994.193	4059.02
994.49	4068.96
994.787	3998.23
995.083	3994.84
995.379	3983.54
995.676	3947.16
995.972	3928.4
996.268	3892.02
996.565	3878.68
996.861	3895.18
997.157	3853.83
997.453	3840.27
997.749	3800.04
998.044	3783.77
998.34	3739.25
998.636	3751.91
998.932	3719.82
999.227	3737.9
999.523	3678.24
999.818	3681.63
1000.114	3636.66
1000.409	3669.88
1000.704	3605.7
1001	3601.4
1001.295	3535.87
1001.59	3553.95
1001.885	3514.17
1002.18	3487.51
1002.475	3502.87
1002.77	3468.3
1003.065	3419.49
1003.359	3439.82
1003.654	3393.27
1003.949	3371.8
1004.243	3321.86
1004.538	3317.57
1004.832	3335.42
1005.127	3321.86
1005.421	3261.75
1005.715	3278.25
1006.009	3250.23
1006.304	3240.06
1006.598	3221.3
1006.892	3208.42
1007.186	3191.02
1007.48	3200.96
1007.773	3145.6
1008.067	3155.99
1008.361	3087.07
1008.655	3082.09
1008.948	3041.42
1009.242	3058.37
1009.535	3041.64
1009.829	2974.3
1010.122	2976.79
1010.415	3003.23
1010.708	2987.63
1011.001	2897.01
1011.295	2909.22
1011.588	2876.45
1011.881	2877.13
1012.173	2836.45
1012.466	2822.44
1012.759	2842.55
1013.052	2828.09
1013.344	2802.1
1013.637	2775.44
1013.93	2775.66
1014.222	2743.57
1014.514	2718.94
1014.807	2723.23
1015.099	2693.18
1015.391	2701.31
1015.683	2626.74
1015.976	2642.56
1016.268	2624.48
1016.56	2623.58
1016.851	2566.4
1017.143	2572.95
1017.435	2555.78
1017.727	2496.35
1018.018	2515.33
1018.31	2515.33
1018.602	2499.51
1018.893	2454.09
1019.185	2423.81
1019.476	2460.87
1019.767	2444.82
1020.058	2396.24
1020.35	2358.05
1020.641	2341.1
1020.932	2321.44
1021.223	2340.87
1021.514	2355.56
1021.804	2277.6
1022.095	2280.99
1022.386	2287.99
1022.677	2245.05
1022.967	2241.44
1023.258	2220.42
1023.548	2200.76
1023.839	2210.7
1024.129	2142.46
1024.419	2135
1024.709	2161.21
1025	2132.97
1025.29	2118.73
1025.58	2097.49
1025.87	2093.87
1026.16	2056.36
1026.449	2062.01
1026.739	2038.73
1027.029	2037.83
1027.319	2022.91
1027.608	1967.55
1027.898	1990.15
1028.187	1957.6
1028.477	1927.1
1028.766	1911.73
1029.055	1913.76
1029.344	1890.94
1029.634	1926.19
1029.923	1870.83
1030.212	1856.36
1030.501	1858.85
1030.79	1810.49
1031.078	1838.51
1031.367	1806.2
1031.656	1782.24
1031.945	1808.46
1032.233	1751.28
1032.522	1731.17
1032.81	1757.16
1033.099	1747.44
1033.387	1725.29
1033.675	1744.5
1033.963	1713.77
1034.251	1698.4
1034.54	1645.52
1034.828	1659.53
1035.116	1628.35
1035.403	1618.18
1035.691	1623.15
1035.979	1621.34
1036.267	1570.27
1036.554	1598.52
1036.842	1588.35
1037.129	1570.04
1037.417	1533.43
1037.704	1534.79
1037.992	1529.37
1038.279	1531.63
1038.566	1486.43
1038.853	1486.43
1039.14	1486.43
