Data from 108_FLMS001491_009.txt Node
Date: Thu Apr 12 17:07:55 BST 2018
User: hsy
Spectrometer: FLMS00149
Trigger mode: 0
Integration Time (sec): 1.000000E-2
Scans to average: 10
Electric dark correction enabled: true
Nonlinearity correction enabled: false
Boxcar width: 0
XAxis mode: Wavelengths
Number of Pixels in Spectrum: 2048
>>>>>Begin Spectral Data<<<<<
341.393	-9.67
341.776	-9.67
342.16	-9.67
342.543	-87.86
342.927	-80.41
343.31	-81.99
343.693	-75.21
344.077	-54.19
344.46	-51.48
344.843	-52.39
345.226	-42.67
345.61	-46.51
345.993	-28.88
346.376	-18.71
346.759	21.51
347.142	28.97
347.525	40.95
347.908	68.29
348.291	71.9
348.674	111
349.057	109.42
349.44	106.48
349.823	144.9
350.206	182.18
350.588	251.79
350.971	254.5
351.354	271.45
351.737	275.29
352.119	286.59
352.502	315.51
352.884	308.06
353.267	327.94
353.65	344.21
354.032	351.22
354.414	341.28
354.797	367.94
355.179	375.85
355.562	372.46
355.944	367.94
356.326	372.69
356.709	383.76
357.091	406.81
357.473	400.94
357.855	397.09
358.238	374.72
358.62	404.55
359.002	374.04
359.384	407.04
359.766	371.33
360.148	409.98
360.53	404.1
360.912	404.78
361.294	407.04
361.676	401.16
362.057	384.44
362.439	414.27
362.821	367.26
363.203	372.24
363.584	374.5
363.966	390.54
364.348	387.83
364.729	377.43
365.111	393.7
365.493	379.24
365.874	367.26
366.256	356.87
366.637	381.95
367.019	394.61
367.4	373.82
367.781	367.72
368.163	388.96
368.544	378.11
368.925	411.11
369.306	366.59
369.688	391.22
370.069	385.79
370.45	393.25
370.831	381.05
371.212	366.59
371.593	379.69
371.974	392.8
372.355	377.21
372.736	390.31
373.117	373.59
373.498	398.22
373.879	402.74
374.26	382.18
374.641	400.71
375.021	378.34
375.402	396.19
375.783	414.72
376.163	412.91
376.544	393.93
376.925	418.79
377.305	418.56
377.686	398.45
378.066	396.87
378.447	415.4
378.827	419.01
379.208	435.06
379.588	402.07
379.968	427.15
380.349	422.18
380.729	421.95
381.109	421.05
381.489	422.4
381.87	442.74
382.25	428.73
382.63	436.64
383.01	440.93
383.39	426.25
383.77	466.47
384.15	447.49
384.53	459.01
384.91	456.08
385.29	426.7
385.67	450.43
386.049	468.28
386.429	468.05
386.809	467.37
387.189	474.38
387.568	472.12
387.948	461.27
388.328	461.05
388.707	470.31
389.087	487.71
389.466	455.4
389.846	492.46
390.225	481.84
390.605	485.91
390.984	491.55
391.363	488.17
391.743	480.71
392.122	494.04
392.501	519.58
392.881	518.67
393.26	504.89
393.639	515.28
394.018	532.91
394.397	520.25
394.776	527.26
395.155	515.96
395.534	524.1
395.913	538.33
396.292	512.35
396.671	530.88
397.05	573.13
397.429	545.34
397.808	549.41
398.186	542.4
398.565	570.42
398.944	561.61
399.323	554.6
399.701	578.11
400.08	585.11
400.458	575.17
400.837	566.13
401.215	572.68
401.594	565.9
401.972	577.88
402.351	578.78
402.729	583.98
403.107	595.96
403.486	595.96
403.864	606.35
404.242	601.38
404.62	623.3
404.999	610.65
405.377	629.18
405.755	610.65
406.133	649.97
406.511	649.52
406.889	666.01
407.267	670.31
407.645	660.36
408.023	656.75
408.401	675.73
408.779	679.12
409.156	684.54
409.534	701.72
409.912	695.84
410.29	690.19
410.667	685
411.045	707.37
411.422	716.41
411.8	731.77
412.178	728.38
412.555	737.65
412.933	743.75
413.31	747.37
413.687	771.77
414.065	759.8
414.442	767.93
414.819	794.6
415.197	778.55
415.574	807.25
415.951	790.08
416.328	819.68
416.705	802.73
417.082	841.83
417.46	816.52
417.837	805.22
418.214	834.82
418.591	819.23
418.967	812.22
419.344	853.58
419.721	868.27
420.098	843.64
420.475	842.28
420.852	866.46
421.228	852.22
421.605	890.41
421.982	872.11
422.358	907.36
422.735	909.17
423.111	933.13
423.488	913.24
423.864	923.41
424.241	926.57
424.617	930.64
424.994	948.72
425.37	942.16
425.746	932.9
426.123	948.94
426.499	968.38
426.875	976.74
427.251	988.72
427.627	1006.34
428.003	1016.74
428.379	992.78
428.756	1021.94
429.132	1030.07
429.507	1036.85
429.883	1039.34
430.259	1059.22
430.635	1064.87
431.011	1067.81
431.387	1096.96
431.763	1095.15
432.138	1101.26
432.514	1108.94
432.89	1096.74
433.265	1160.69
433.641	1144.65
434.016	1165.21
434.392	1175.83
434.767	1217.19
435.143	1219.9
435.518	1232.1
435.894	1232.1
436.269	1258.54
436.644	1263.29
437.02	1268.03
437.395	1261.25
437.77	1275.26
438.145	1299.67
438.52	1310.06
438.895	1297.64
439.271	1299.44
439.646	1349.39
440.021	1344.64
440.395	1344.19
440.77	1368.37
441.145	1359.33
441.52	1398.2
441.895	1373.57
442.27	1391.42
442.645	1365.66
443.019	1409.95
443.394	1397.52
443.769	1414.92
444.143	1425.09
444.518	1442.94
444.892	1430.06
445.267	1442.04
445.641	1428.71
446.016	1469.61
446.39	1482.04
446.764	1477.52
447.139	1485.88
447.513	1507.57
447.887	1497.4
448.262	1490.17
448.636	1522.26
449.01	1529.95
449.384	1554.13
449.758	1579.89
450.132	1558.65
450.506	1587.8
450.88	1608.14
451.254	1592.99
451.628	1641.36
452.002	1640.23
452.376	1653.56
452.75	1689.26
453.123	1710.96
453.497	1709.15
453.871	1725.42
454.244	1750.28
454.618	1772.88
454.992	1814.68
455.365	1810.16
455.739	1838.86
456.112	1831.41
456.486	1873.21
456.859	1889.48
457.232	1951.63
457.606	1946.43
457.979	1961.35
458.352	2012.42
458.725	1978.52
459.099	2015.58
459.472	2056.49
459.845	2099.2
460.218	2067.78
460.591	2121.12
460.964	2153.21
461.337	2143.04
461.71	2233.66
462.083	2227.33
462.456	2248.12
462.829	2260.32
463.201	2330.6
463.574	2317.04
463.947	2351.17
464.32	2363.82
464.692	2387.1
465.065	2403.59
465.438	2412.63
465.81	2438.4
466.183	2483.59
466.555	2529.92
466.928	2549.58
467.3	2549.13
467.672	2556.59
468.045	2630.03
468.417	2652.4
468.789	2716.36
469.161	2717.94
469.534	2772.17
469.906	2807.65
470.278	2790.48
470.65	2844.49
471.022	2905.73
471.394	2910.02
471.766	3011.71
472.138	3014.2
472.51	3056.91
472.882	3088.32
473.253	3152.95
473.625	3201.31
473.997	3256.68
474.369	3246.96
474.74	3271.59
475.112	3339.62
475.484	3409.22
475.855	3517.24
476.227	3504.13
476.598	3605.6
476.97	3695.99
477.341	3679.27
477.713	3819.6
478.084	3839.49
478.455	3953.61
478.827	3980.95
479.198	4115.64
479.569	4102.76
479.94	4193.38
480.311	4251.23
480.682	4371.45
481.053	4491
481.424	4554.95
481.795	4687.15
482.166	4708.85
482.537	4781.39
482.908	4917.65
483.279	4982.74
483.65	5128.95
484.021	5180.7
484.391	5311.54
484.762	5418.88
485.133	5429.73
485.503	5592.44
485.874	5671.08
486.244	5807.57
486.615	6000.79
486.985	6101.12
487.356	6187.45
487.726	6289.59
488.097	6469.48
488.467	6562.58
488.837	6701.11
489.207	6858.85
489.578	7062.91
489.948	7187.88
490.318	7389.68
490.688	7408.21
491.058	7619.28
491.428	7867.86
491.798	7997.57
492.168	8214.97
492.538	8349.88
492.908	8481.4
493.278	8703.54
493.648	8892.24
494.017	9058.34
494.387	9234.6
494.757	9418.78
495.126	9635.72
495.496	9826.9
495.866	10055.82
496.235	10205.88
496.605	10432.31
496.974	10626.88
497.344	10860.55
497.713	11060.54
498.082	11298.73
498.452	11517.25
498.821	11771.03
499.19	11881.54
499.559	12231.13
499.928	12462.54
500.298	12709.31
500.667	12932.36
501.036	13166.93
501.405	13425.68
501.774	13580.25
502.143	13907.25
502.512	14116.28
502.88	14465.2
503.249	14699.54
503.618	14973.43
503.987	15169.59
504.356	15490.93
504.724	15812.73
505.093	16038.72
505.462	16196.9
505.83	16557.8
506.199	16885.25
506.567	17207.73
506.936	17392.13
507.304	17721.84
507.672	18084.31
508.041	18184.87
508.409	18581.93
508.777	18955.25
509.145	19300.1
509.514	19366.76
509.882	19691.05
510.25	19999.06
510.618	20326.74
510.986	20503.91
511.354	20904.8
511.722	21208.3
512.09	21602.41
512.458	21628.4
512.826	21977.32
513.193	22282.85
513.561	22523.29
513.929	22756.28
514.297	23122.6
514.664	23376.38
515.032	23570.04
515.4	23899.98
515.767	24184.49
516.135	24364.6
516.502	24360.08
516.869	24899.27
517.237	25229.44
517.604	25137.69
517.972	25754.85
518.339	25838.23
518.706	26132.24
519.073	26372.46
519.44	26516.86
519.808	27069.84
520.175	27095.15
520.542	27608.36
520.909	27837.73
521.276	27953.43
521.643	28320.65
522.009	28711.38
522.376	28968.77
522.743	29158.37
523.11	29375.77
523.477	29804.46
523.843	29969.42
524.21	30318.79
524.577	30641.5
524.943	30918.78
525.31	31120.81
525.676	31453.9
526.043	31916.94
526.409	32052.98
526.776	32317.16
527.142	32606.87
527.508	32821.55
527.874	33045.73
528.241	33432.38
528.607	33571.59
528.973	34014.06
529.339	34111.69
529.705	34502.19
530.071	34728.17
530.437	34925.45
530.803	35228.72
531.169	35351.88
531.535	35562.05
531.901	35765.2
532.267	35953.22
532.632	36385.53
532.998	36472.98
533.364	36687.67
533.73	36812.41
534.095	37178.5
534.461	37269.34
534.826	37542.11
535.192	37686.96
535.557	37993.39
535.923	37882.44
536.288	38138.93
536.653	38362.65
537.019	38407.85
537.384	38643.09
537.749	38721.28
538.114	38858.23
538.479	38829.53
538.845	39126.02
539.21	39094.61
539.575	39341.61
539.94	39549.28
540.305	39785.89
540.67	39861.59
541.034	40017.07
541.399	40213.67
541.764	40289.38
542.129	40385.42
542.494	40510.62
542.858	40729.59
543.223	40784.51
543.587	40859.53
543.952	40869.93
544.316	41168.23
544.681	41141.56
545.045	41471.72
545.41	41530.02
545.774	41514.21
546.138	41668.33
546.503	41860.86
546.867	41902.9
547.231	42298.59
547.595	42393.05
547.959	42525.7
548.324	42581.75
548.688	42789.65
549.052	42802.53
549.416	42872.36
549.779	42959.59
550.143	43080.49
550.507	43358.9
550.871	43534.26
551.235	43528.39
551.599	43904.88
551.962	43892
552.326	44175.15
552.689	44277.3
553.053	44173.12
553.417	44526.56
553.78	44899.88
554.143	44994.57
554.507	45102.59
554.87	45285.63
555.234	45659.18
555.597	45399.3
555.96	45564.04
556.323	45919.06
556.686	45849.46
557.05	46119.28
557.413	46386.62
557.776	46420.52
558.139	46631.58
558.502	46922.42
558.865	46926.49
559.228	47139.14
559.59	47188.86
559.953	47464.33
560.316	47805.34
560.679	47807.6
561.041	48073.35
561.404	48255.27
561.767	48544.53
562.129	48503.85
562.492	48805.76
562.854	48908.81
563.217	48977.96
563.579	49129.37
563.941	49461.34
564.304	49534.11
564.666	49946.75
565.028	49844.83
565.39	49963.25
565.753	50238.04
566.115	50360.07
566.477	50530.92
566.839	50582.89
567.201	50996.67
567.563	50990.57
567.925	51325.7
568.287	51266.49
568.648	51366.83
569.01	51643.66
569.372	51853.82
569.734	51796.42
570.095	51962.29
570.457	52284.77
570.819	52273.47
571.18	52259.46
571.542	52605.21
571.903	52563.41
572.265	52727.92
572.626	52939.89
572.987	52891.98
573.349	53140.11
573.71	53299.66
574.071	53353.22
574.432	53560.67
574.794	53797.95
575.155	53809.93
575.516	53674.11
575.877	53856.93
576.238	53951.17
576.599	54023.25
576.96	54179.63
577.32	54194.1
577.681	54342.34
578.042	54559.96
578.403	54483.81
578.763	54549.34
579.124	54642
579.485	54857.81
579.845	54930.8
580.206	54946.62
580.566	54998.6
580.927	54989.33
581.287	55199.49
581.648	55127.63
582.008	55320.4
582.368	55368.76
582.728	55405.82
583.089	55400.39
583.449	55486.04
583.809	55527.4
584.169	55689.65
584.529	55628.64
584.889	55838.57
585.249	55686.04
585.609	55682.19
585.969	55836.99
586.329	55790.67
586.688	56024.78
587.048	56033.6
587.408	56022.3
587.768	55987.72
588.127	56126.93
588.487	56100.94
588.846	56378
589.206	56180.94
589.565	56334.15
589.925	56444.89
590.284	56464.77
590.643	56500.48
591.003	56566.24
591.362	56669.51
591.721	56693.24
592.08	56702.28
592.44	56929.84
592.799	56799.23
593.158	56834.71
593.517	56872.9
593.876	57037.41
594.235	57002.16
594.593	57053.01
594.952	57138.88
595.311	57172.55
595.67	57238.76
596.029	57394.47
596.387	57431.3
596.746	57481.69
597.104	57414.8
597.463	57431.75
597.822	57618.87
598.18	57556.04
598.538	57612.99
598.897	57781.8
599.255	57660
599.613	58032.64
599.972	57906.32
600.33	57978.18
600.688	57900.67
601.046	58048.23
601.404	58256.59
601.762	58159.42
602.12	58361.22
602.478	58261.79
602.836	58370.71
603.194	58231.73
603.552	58358.28
603.91	58283.48
604.268	58529.8
604.625	58481.89
604.983	58618.16
605.341	58553.53
605.698	58725.96
606.056	58904.93
606.413	58685.5
606.771	58940.19
607.128	58918.72
607.485	58904.93
607.843	58910.81
608.2	59069.68
608.557	59174.53
608.914	59114.42
609.272	59291.14
609.629	59374.53
609.986	59459.04
610.343	59391.25
610.7	59566.16
611.057	59538.14
611.414	59450.91
611.771	59612.49
612.127	59708.98
612.484	59657.91
612.841	59802.99
613.198	59730.22
613.554	59810.9
613.911	59970.67
614.267	59987.17
614.624	59974.06
614.98	60022.19
615.337	60216.09
615.693	60186.93
616.05	60262.41
616.406	60338.57
616.762	60291.56
617.118	60319.81
617.475	60380.15
617.831	60480.94
618.187	60504.44
618.543	60528.17
618.899	60703.08
619.255	60565.23
619.611	60636.41
619.967	60736.07
620.323	60817.88
620.678	60732.23
621.034	60722.97
621.39	60780.14
621.746	60752.8
622.101	60960.47
622.457	60825.11
622.812	60946.24
623.168	61016.97
623.523	61012.68
623.879	61094.71
624.234	60986.91
624.589	61040.02
624.945	61111.66
625.3	61136.06
625.655	61129.28
626.01	61143.97
626.365	61169.28
626.72	61129.06
627.075	61108.27
627.43	61112.33
627.785	61158.66
628.14	61158.66
628.495	61153.69
628.85	61154.59
629.205	61150.75
629.559	61237.53
629.914	61095.61
630.269	61160.24
630.623	61073.24
630.978	61051.54
631.332	61162.73
631.687	61162.5
632.041	61152.56
632.396	61116.4
632.75	61096.52
633.104	61168.15
633.459	61008.83
633.813	61029.17
634.167	60991.66
634.521	61046.35
634.875	60963.41
635.229	60929.06
635.583	60843.41
635.937	60877.31
636.291	60818.1
636.645	60903.3
636.999	60770.2
637.352	60826.69
637.706	60676.19
638.06	60786.24
638.413	60712.34
638.767	60632.35
639.121	60740.37
639.474	60565.91
639.828	60570.88
640.181	60593.03
640.534	60628.96
640.888	60493.14
641.241	60421.05
641.594	60467.6
641.947	60498.11
642.301	60408.4
642.654	60446.59
643.007	60272.58
643.36	60385.35
643.713	60347.61
644.066	60385.12
644.419	60231.9
644.771	60010.67
645.124	59812.71
645.477	59751.01
645.83	59622.2
646.182	59600.28
646.535	59556.89
646.888	59587.85
647.24	59534.3
647.593	59718.7
647.945	59551.02
648.298	59492.94
648.65	59414.07
649.002	59276
649.355	59251.37
649.707	59203.91
650.059	59183.57
650.411	59592.83
650.763	59623.33
651.115	59928.41
651.467	59805.93
651.819	59847.06
652.171	59758.7
652.523	59674.63
652.875	59698.59
653.227	59589.89
653.578	59765.02
653.93	59677.57
654.282	59584.69
654.633	59555.99
654.985	59590.34
655.337	59586.27
655.688	59550.79
656.039	59570.23
656.391	59337.69
656.742	59396.22
657.094	59444.13
657.445	59395.99
657.796	59377.69
658.147	59352.83
658.498	59373.85
658.849	59466.95
659.2	59329.78
659.551	59279.84
659.902	59442.77
660.253	59253.4
660.604	59327.07
660.955	59260.18
661.306	59337.69
661.656	59185.15
662.007	59232.16
662.358	59180.18
662.708	59221.54
663.059	59163.46
663.409	59084.82
663.76	59230.35
664.11	59217.92
664.461	59259.95
664.811	59212.04
665.161	59197.13
665.511	59101.77
665.862	59148.77
666.212	59120.3
666.562	59166.17
666.912	59144.25
667.262	59030.81
667.612	59074.87
667.962	59027.19
668.312	59034.2
668.662	59127.98
669.011	59052.73
669.361	59029
669.711	59029.45
670.06	59004.82
670.41	58950.13
670.76	58990.13
671.109	59083.69
671.459	59021.54
671.808	59001.65
672.157	59077.59
672.507	58843.92
672.856	58838.72
673.205	58964.37
673.554	58957.14
673.904	58973.86
674.253	59019.73
674.602	58915.1
674.951	58579.75
675.3	58431.05
675.649	58920.98
675.998	58881.43
676.346	58889.57
676.695	58952.39
677.044	58739.51
677.393	58756.92
677.741	58864.03
678.09	58791.04
678.438	58770.93
678.787	58817.7
679.135	58774.54
679.484	58691.61
679.832	58805.95
680.181	58679.63
680.529	58659.06
680.877	58601.21
681.225	58668.1
681.573	58795.78
681.922	58570.03
682.27	58508.79
682.618	58513.76
682.966	58452.06
683.314	58470.82
683.661	58494.55
684.009	58352.63
684.357	58424.04
684.705	58266.98
685.053	58362.58
685.4	58288
685.748	58151.73
686.095	58170.72
686.443	58033.54
686.79	58090.04
687.138	58133.43
687.485	58073.09
687.832	57980.89
688.18	58021.12
688.527	57887.79
688.874	57878.07
689.221	57853.66
689.568	57770.73
689.915	57762.82
690.262	57757.62
690.609	57724.17
690.956	57640.11
691.303	57615.02
691.65	57560.11
691.997	57472.66
692.344	57322.15
692.69	57277.63
693.037	57412.32
693.383	57114.02
693.73	57222.27
694.077	57038.54
694.423	57115.15
694.769	57063.63
695.116	57016.62
695.462	56895.95
695.808	56842.62
696.155	56927.81
696.501	56644.65
696.847	56760.36
697.193	56604.66
697.539	56604.66
697.885	56481.04
698.231	56413.02
698.577	56431.33
698.923	56430.42
699.269	56206.47
699.614	56171.45
699.96	56043.77
700.306	56115.63
700.651	56024.11
700.997	55897.56
701.342	55892.13
701.688	55847.16
702.033	55687.39
702.379	55778.01
702.724	55633.16
703.069	55765.81
703.415	55358.13
703.76	55385.93
704.105	55412.37
704.45	55254.63
704.795	55126.73
705.14	55087.18
705.485	55100.06
705.83	54912.04
706.175	55082.21
706.52	54887.64
706.865	54729.9
707.209	54704.14
707.554	54712.5
707.899	54675.67
708.243	54589.79
708.588	54496.01
708.932	54311.16
709.277	54455.79
709.621	54378.73
709.966	54166.53
710.31	54127.21
710.654	54028.23
710.998	54001.79
711.342	54100.31
711.687	53910.49
712.031	53822.36
712.375	53661.68
712.719	53663.94
713.063	53586.43
713.407	53778.97
713.75	53542.59
714.094	53529.93
714.438	53395.25
714.782	53411.75
715.125	53290.62
715.469	53422.37
715.812	53218.08
716.156	53211.3
716.499	53094.01
716.843	53167.68
717.186	52960.23
717.53	53148.48
717.873	53046.33
718.216	52912.32
718.559	52861.7
718.902	52615.38
719.246	52668.26
719.589	52561.37
719.932	52441.83
720.275	52586.91
720.617	52473.24
720.96	52403.86
721.303	52369.96
721.646	52388.27
721.989	52215.17
722.331	52333.81
722.674	52210.42
723.016	52215.17
723.359	52068.5
723.701	52075.28
724.044	51925.23
724.386	51821.28
724.729	51982.63
725.071	51844.33
725.413	51834.39
725.755	51755.52
726.097	51616.99
726.439	51536.99
726.782	51440.5
727.124	51664.9
727.465	51541.29
727.807	51352.82
728.149	51462.64
728.491	51397.11
728.833	51321.63
729.175	51279.6
729.516	51159.15
729.858	51138.58
730.199	51306.49
730.541	51166.15
730.882	51065.37
731.224	51023.33
731.565	50841.87
731.906	50960.51
732.248	51003
732.589	50744.02
732.93	50631.93
733.271	50638.03
733.612	50655.43
733.953	50701.53
734.294	50477.81
734.635	50554.19
734.976	50595.1
735.317	50452.5
735.658	50289.12
735.999	50367.08
736.339	50265.84
736.68	50270.81
737.021	50259.29
737.361	50224.71
737.702	50435.55
738.042	50191.94
738.383	50137.93
738.723	50135.45
739.063	49916.24
739.404	50003.25
739.744	49952.18
740.084	49922.12
740.424	49960.31
740.764	49886.41
741.104	49983.36
741.444	49687.32
741.784	49537.5
742.124	49779.98
742.464	49611.62
742.804	49512.86
743.143	49495.92
743.483	49424.51
743.823	49401.23
744.162	49330.95
744.502	49307.9
744.841	49205.08
745.181	49364.85
745.52	49154.91
745.86	49171.63
746.199	49173.89
746.538	49017.06
746.877	49184.74
747.216	48954.91
747.556	48996.72
747.895	48883.28
748.234	48836.5
748.573	48849.61
748.911	48846.22
749.25	48822.26
749.589	48587.69
749.928	48660.68
750.267	48586.56
750.605	48400.8
750.944	48425.44
751.283	48362.61
751.621	48448.49
751.96	48148.38
752.298	48138.89
752.636	48182.73
752.975	48022.51
753.313	47964.88
753.651	48040.59
753.989	47780.03
754.327	47865
754.666	47462.07
755.004	47676.53
755.342	47467.27
755.679	47429.76
756.017	47138.46
756.355	47260.72
756.693	47138.92
757.031	47214.39
757.368	46929.2
757.706	46903.89
758.044	46822.99
758.381	46801.75
758.719	46557.24
759.056	46536.45
759.394	46437.69
759.731	46246.06
760.068	46314.3
760.405	46257.58
760.743	46081.54
761.08	46062.79
761.417	45760.87
761.754	45705.96
762.091	45646.3
762.428	45326.31
762.765	45266.2
763.102	45270.04
763.438	45198.63
763.775	44748.7
764.112	44987.11
764.449	44974.23
764.785	44798.64
765.122	44418.76
765.458	44262.83
765.795	44257.86
766.131	44284.08
766.467	44067.58
766.804	43780.81
767.14	43727.48
767.476	43569.74
767.812	43488.84
768.148	43484.55
768.485	43398.9
768.821	42996.88
769.157	43028.52
769.492	42858.8
769.828	42697
770.164	42416.1
770.5	42334.52
770.836	42379.72
771.171	42087.07
771.507	42045.49
771.842	41764.59
772.178	41721.66
772.513	41676.01
772.849	41496.35
773.184	41520.53
773.519	41264.95
773.855	41145.63
774.19	40971.85
774.525	40764.85
774.86	40790.61
775.195	40548.58
775.53	40363.95
775.865	40115.6
776.2	39963.06
776.535	39680.35
776.87	39723.74
777.205	39612.79
777.539	39482.85
777.874	39336.41
778.209	39029.07
778.543	39125.79
778.878	38805.12
779.212	38756.54
779.547	38696.65
779.881	38739.14
780.215	38288.98
780.55	38356.1
780.884	38012.83
781.218	37967.41
781.552	38037.46
781.886	37586.17
782.22	37526.51
782.554	37357.48
782.888	37030.93
783.222	37079.52
783.556	36857.6
783.889	36862.12
784.223	36524.73
784.557	36588.46
784.89	36540.1
785.224	36348.92
785.557	36184.18
785.891	36011.3
786.224	36134.01
786.558	36039.77
786.891	35717.3
787.224	35630.74
787.557	35292.45
787.891	35284.31
788.224	35060.36
788.557	35175.84
788.89	35017.88
789.223	34873.7
789.556	34640.71
789.888	34590.55
790.221	34478.01
790.554	34328.18
790.887	34179.48
791.219	34052.25
791.552	34059.94
791.884	33860.62
792.217	33849.77
792.549	33643.9
792.882	33403.23
793.214	33279.17
793.546	33231.03
793.879	33183.12
794.211	32812.06
794.543	33139.28
794.875	32908.78
795.207	32862
795.539	32718.28
795.871	32690.71
796.203	32492.52
796.535	32342.69
796.867	32330.49
797.198	32060.89
797.53	32022.93
797.862	31826.32
798.193	31799.21
798.525	31643.96
798.856	31748.59
799.188	31172.78
799.519	31223.18
799.85	31160.58
800.182	31204.19
800.513	31113.12
800.844	30864.99
801.175	30939.79
801.506	30935.95
801.837	30728.73
802.168	30613.02
802.499	30592.01
802.83	30443.31
803.161	30314.95
803.491	30315.86
803.822	30414.16
804.153	30035.86
804.483	29931.91
804.814	29768.98
805.145	29768.98
805.475	29854.17
805.805	29629.77
806.136	29529.21
806.466	29411.25
806.796	29428.87
807.126	29281.98
807.457	29245.6
807.787	29248.76
808.117	29043.8
808.447	28975.55
808.777	29079.05
809.107	28760.64
809.436	28817.36
809.766	28756.8
810.096	28757.48
810.426	28486.3
810.755	28635.22
811.085	28483.59
811.414	28456.47
811.744	28264.38
812.073	28239.07
812.403	28109.36
812.732	28162.47
813.061	28157.04
813.39	27880.67
813.719	27971.28
814.049	28090.83
814.378	28019.64
814.707	27716.15
815.036	27912.75
815.365	27594.8
815.693	27421.47
816.022	27393.9
816.351	27241.13
816.68	27240
817.008	27355.71
817.337	27074.13
817.665	27096.51
817.994	27018.99
818.322	27040.69
818.651	26880.24
818.979	26807.7
819.307	26882.5
819.636	26754.14
819.964	26693.8
820.292	26715.5
820.62	26631.21
820.948	26672.79
821.276	26817.19
821.604	26605.67
821.932	26652.22
822.259	26675.95
822.587	26591.89
822.915	26508.72
823.243	26468.05
823.57	26427.6
823.898	26617.42
824.225	26532
824.553	26412.23
824.88	26485.45
825.207	26611.32
825.535	26411.1
825.862	26640.92
826.189	26493.13
826.516	26595.5
826.843	26664.2
827.17	26595.5
827.497	26580.81
827.824	26596.86
828.151	26688.38
828.478	26543.98
828.805	26743.97
829.131	26527.93
829.458	26634.6
829.785	26393.7
830.111	26564.54
830.438	26619
830.764	26470.08
831.09	26547.82
831.417	26308.73
831.743	26666.46
832.069	26392.57
832.395	26407.26
832.722	26534.26
833.048	26463.98
833.374	26508.95
833.7	26371.33
834.026	26461.49
834.351	26325.9
834.677	26413.13
835.003	26338.33
835.329	26340.37
835.654	26323.19
835.98	26129.3
836.306	26376.3
836.631	26160.48
836.956	26321.16
837.282	26333.81
837.607	26111.22
837.932	26100.6
838.258	26105.12
838.583	26024.89
838.908	25817.89
839.233	25972.01
839.558	25807.73
839.883	25946.7
840.208	25670.33
840.533	25734.05
840.858	25713.94
841.182	25769.53
841.507	25728.63
841.832	25591.46
842.156	25582.87
842.481	25532.48
842.805	25392.37
843.13	25387.17
843.454	25415.65
843.778	25273.95
844.103	25257.91
844.427	25223.33
844.751	25169.55
845.075	25146.95
845.399	25046.16
845.723	24906.96
846.047	24964.58
846.371	24560.07
846.695	24556.01
847.019	24541.77
847.343	24466.52
847.666	24282.79
847.99	24258.84
848.313	24136.58
848.637	24083.48
848.96	24026.53
849.284	23999.41
849.607	23817.72
849.931	23775.46
850.254	23644.62
850.577	23450.5
850.9	23305.64
851.223	23350.84
851.546	23149.49
851.869	23029.95
852.192	23186.1
852.515	22835.6
852.838	22736.17
853.161	22803.28
853.483	22755.83
853.806	22735.49
854.129	22536.62
854.451	22523.74
854.774	22431.77
855.096	22297.31
855.419	22282.85
855.741	22251.21
856.063	22077.65
856.385	22066.58
856.708	22016.19
857.03	21956.3
857.352	21886.92
857.674	21850.99
857.996	21708.62
858.318	21647.83
858.64	21627.5
858.961	21556.09
859.283	21512.92
859.605	21408.97
859.926	21384.79
860.248	21267.28
860.57	21234.06
860.891	21286.94
861.212	21115.87
861.534	21017.57
861.855	21072.03
862.176	20982.32
862.498	20994.74
862.819	21037.46
863.14	20855.54
863.461	20883.34
863.782	20841.98
864.103	20851.7
864.424	20691.25
864.745	20808.31
865.065	20707.29
865.386	20455.55
865.707	20604.47
866.027	20572.38
866.348	20466.62
866.668	20430.01
866.989	20413.97
867.309	20391.6
867.63	20370.58
867.95	20326.06
868.27	20323.58
868.59	20341.65
868.91	20190.02
869.23	20134.43
869.55	20101.89
869.87	20213.52
870.19	20117.25
870.51	20025.05
870.83	19970.82
871.15	19864.15
871.469	19897.37
871.789	19917.03
872.109	19978.05
872.428	19883.59
872.748	19830.03
873.067	19746.64
873.386	19825.74
873.706	19757.71
874.025	19640.88
874.344	19639.3
874.663	19654.44
874.982	19636.81
875.301	19531.96
875.62	19471.62
875.939	19425.52
876.258	19409.02
876.577	19369.7
876.896	19370.38
877.214	19282.25
877.533	19390.27
877.852	19396.14
878.17	19376.26
878.489	19383.26
878.807	19258.29
879.125	19254.68
879.444	19066.43
879.762	19152.76
880.08	19119.54
880.398	19039.99
880.716	18979.43
881.034	18940.11
881.352	18957.96
881.67	18901.01
881.988	18786.44
882.306	18896.04
882.624	18874.35
882.941	18676.39
883.259	18728.14
883.577	18666.9
883.894	18629.16
884.212	18550.74
884.529	18421.48
884.846	18310.07
885.164	18283.4
885.481	18299.45
885.798	18338.54
886.115	18241.82
886.432	18304.65
886.75	18148.49
887.067	18196.17
887.383	18175.61
887.7	18090.19
888.017	17947.14
888.334	18020.13
888.651	17866.47
888.967	17937.65
889.284	17772.23
889.6	17824.66
889.917	17793.7
890.233	17717.77
890.55	17740.59
890.866	17614.72
891.182	17639.13
891.498	17605.91
891.815	17448.17
892.131	17346.25
892.447	17370.89
892.763	17336.54
893.079	17226.71
893.395	17196.2
893.71	17227.39
894.026	17124.56
894.342	17066.49
894.657	17069.88
894.973	17018.35
895.289	16899.03
895.604	16865.59
895.92	16811.35
896.235	16784.46
896.55	16631.7
896.865	16570.68
897.181	16517.8
897.496	16508.53
897.811	16427.18
898.126	16320.97
898.441	16361.65
898.756	16312.61
899.071	16209.79
899.386	16211.59
899.7	16062.9
900.015	16071.26
900.33	15939.74
900.644	15878.27
900.959	15835.11
901.273	15762.34
901.588	15786.07
901.902	15622.23
902.216	15643.25
902.531	15559.41
902.845	15460.43
903.159	15347.21
903.473	15424.04
903.787	15249.13
904.101	15289.58
904.415	15312.41
904.729	15149.7
905.042	15138.85
905.356	15111.06
905.67	15029.48
905.984	15045.52
906.297	15034.22
906.611	14795.81
906.924	14745.19
907.237	14727.56
907.551	14730.73
907.864	14675.59
908.177	14598.75
908.491	14525.76
908.804	14457.97
909.117	14433.34
909.43	14228.14
909.743	14246.9
910.056	14203.51
910.368	14178.88
910.681	14079.9
910.994	14055.04
911.307	13915.61
911.619	13862.73
911.932	13864.76
912.244	13820.92
912.557	13863.18
912.869	13619.35
913.181	13610.08
913.494	13671.55
913.806	13501.83
914.118	13437.66
914.43	13357.43
914.742	13298.68
915.054	13242.18
915.366	13260.03
915.678	13240.6
915.99	13208.73
916.302	13076.08
916.613	12995.86
916.925	13011
917.236	12938.91
917.548	12931.45
917.859	12842.87
918.171	12772.36
918.482	12739.82
918.794	12708.41
919.105	12641.29
919.416	12509.54
919.727	12475.65
920.038	12474.06
920.349	12290.79
920.66	12356.78
920.971	12383.67
921.282	12225.71
921.593	12226.84
921.903	12084.47
922.214	12095.77
922.525	11994.53
922.835	11996.11
923.146	11834.31
923.456	11898.26
923.767	11831.37
924.077	11798.83
924.387	11680.41
924.697	11620.53
925.008	11603.13
925.318	11569
925.628	11580.53
925.938	11557.7
926.248	11429.12
926.558	11310.03
926.867	11311.84
927.177	11206.08
927.487	11149.58
927.796	11143.7
928.106	11139.64
928.416	11113.65
928.725	11034.33
929.034	11011.5
929.344	10941.22
929.653	10964.95
929.962	10841.11
930.271	10816.93
930.581	10723.15
930.89	10643.6
931.199	10648.35
931.508	10602.93
931.817	10674.11
932.125	10522.48
932.434	10468.69
932.743	10376.94
933.051	10347.11
933.36	10351.63
933.669	10286.78
933.977	10225.08
934.286	10196.84
934.594	10202.71
934.902	10091.53
935.21	10098.53
935.519	9986.67
935.827	10009.04
936.135	9808.37
936.443	9900.57
936.751	9889.5
937.059	9814.02
937.367	9750.75
937.674	9687.47
937.982	9730.41
938.29	9650.86
938.597	9585.1
938.905	9496.97
939.213	9468.27
939.52	9463.97
939.827	9509.85
940.135	9374.71
940.442	9336.97
940.749	9280.25
941.056	9235.28
941.363	9117.99
941.67	9110.54
941.977	9073.02
942.284	9087.26
942.591	9071.22
942.898	9112.57
943.205	8978.11
943.511	8928.85
943.818	8953.25
944.125	8824.44
944.431	8765.01
944.738	8799.81
945.044	8765.46
945.35	8659.93
945.657	8666.71
945.963	8644.79
946.269	8612.7
946.575	8585.35
946.881	8504.68
947.187	8465.36
947.493	8438.24
947.799	8443.89
948.105	8401.4
948.41	8324.57
948.716	8300.39
949.022	8272.82
949.327	8252.48
949.633	8161.86
949.938	8137.91
950.244	8139.94
950.549	8065.14
950.854	7947.4
951.16	7992.37
951.465	7887.97
951.77	7906.95
952.075	7916.9
952.38	7858.14
952.685	7812.27
952.99	7802.55
953.294	7777.01
953.599	7699.27
953.904	7642.33
954.209	7653.4
954.513	7654.76
954.818	7521.88
955.122	7518.26
955.426	7567.08
955.731	7470.81
956.035	7430.13
956.339	7402.11
956.643	7331.6
956.948	7320.53
957.252	7272.17
957.556	7290.02
957.86	7244.37
958.163	7252.28
958.467	7168.89
958.771	7115.79
959.075	7116.24
959.378	7103.81
959.682	7056.13
959.985	6974.1
960.289	6945.4
960.592	6919.41
960.896	6966.86
961.199	6893.19
961.502	6866.08
961.805	6817.04
962.108	6761.9
962.411	6741.56
962.714	6672.41
963.017	6674.22
963.32	6662.92
963.623	6642.35
963.926	6595.8
964.228	6546.31
964.531	6548.8
964.833	6579.76
965.136	6478.52
965.438	6433.09
965.741	6426.99
966.043	6381.34
966.345	6370.5
966.648	6312.42
966.95	6316.94
967.252	6289.82
967.554	6317.62
967.856	6275.81
968.158	6224.96
968.46	6176.83
968.761	6173.67
969.063	6138.86
969.365	6135.47
969.666	6061.35
969.968	5992.65
970.269	6044.4
970.571	5968.92
970.872	5967.8
971.174	5926.21
971.475	5895.25
971.776	5816.84
972.077	5786.56
972.378	5793.79
972.679	5800.57
972.98	5775.03
973.281	5748.37
973.582	5793.11
973.883	5669.72
974.183	5642.15
974.484	5607.58
974.785	5602.83
975.085	5591.53
975.386	5534.81
975.686	5526.9
975.986	5520.12
976.287	5468.15
976.587	5461.37
976.887	5424.31
977.187	5432.44
977.487	5370.75
977.787	5343.4
978.087	5327.36
978.387	5283.97
978.687	5274.03
978.987	5241.71
979.286	5207.14
979.586	5201.94
979.885	5141.38
980.185	5224.54
980.484	5108.61
980.784	5080.59
981.083	5048.27
981.382	5063.41
981.682	5031.32
981.981	5034.94
982.28	4968.05
982.579	4935.51
982.878	4972.34
983.177	4914.72
983.475	4888.95
983.774	4879.46
984.073	4848.95
984.372	4795.4
984.67	4803.76
984.969	4788.62
985.267	4790.2
985.566	4736.42
985.864	4695.51
986.162	4700.71
986.461	4686.92
986.759	4635.17
987.057	4598.57
987.355	4559.7
987.653	4578
987.951	4581.16
988.249	4543.65
988.547	4509.53
988.844	4484.44
989.142	4526.48
989.44	4462.07
989.737	4426.14
990.035	4411.23
990.332	4364.45
990.63	4322.41
990.927	4357.44
991.224	4332.36
991.521	4290.78
991.819	4273.15
992.116	4282.42
992.413	4258.01
992.71	4203.77
993.006	4213.49
993.303	4174.17
993.6	4127.84
993.897	4123.55
994.193	4081.07
994.49	4080.61
994.787	4107.28
995.083	4004.68
995.379	4023.44
995.676	4050.56
995.972	3988.64
996.268	3953.38
996.565	3908.19
996.861	3939.83
997.157	3939.6
997.453	3892.82
997.749	3838.59
998.044	3835.87
998.34	3809.89
998.636	3832.03
998.932	3776.44
999.227	3719.49
999.523	3759.27
999.818	3747.97
1000.114	3695.76
1000.409	3651.47
1000.704	3658.25
1001	3660.29
1001.295	3587.29
1001.59	3599.04
1001.885	3560.85
1002.18	3539.61
1002.475	3539.16
1002.77	3515.88
1003.065	3472.95
1003.359	3477.01
1003.654	3453.28
1003.949	3438.6
1004.243	3405.15
1004.538	3403.57
1004.832	3373.29
1005.127	3385.49
1005.421	3322.67
1005.715	3327.86
1006.009	3309.79
1006.304	3261.43
1006.598	3271.59
1006.892	3218.71
1007.186	3161.77
1007.48	3243.12
1007.773	3196.34
1008.067	3138.49
1008.361	3157.93
1008.655	3122.9
1008.948	3093.52
1009.242	3105.27
1009.535	3040.64
1009.829	3048.32
1010.122	3025.27
1010.415	3026.86
1010.708	2998.38
1011.001	2975.33
1011.295	2944.82
1011.588	2890.59
1011.881	2883.58
1012.173	2921.32
1012.466	2891.04
1012.759	2880.19
1013.052	2821.89
1013.344	2829.57
1013.637	2827.76
1013.93	2794.55
1014.222	2762.23
1014.514	2766.75
1014.807	2732.85
1015.099	2731.04
1015.391	2726.07
1015.683	2696.69
1015.976	2660.76
1016.268	2666.64
1016.56	2623.25
1016.851	2633.87
1017.143	2601.78
1017.435	2600.88
1017.727	2571.5
1018.018	2547.09
1018.31	2521.56
1018.602	2542.35
1018.893	2477.72
1019.185	2479.75
1019.476	2462.8
1019.767	2451.96
1020.058	2437.49
1020.35	2428.23
1020.641	2352.52
1020.932	2381.45
1021.223	2322.02
1021.514	2343.03
1021.804	2319.53
1022.095	2321.79
1022.386	2279.98
1022.677	2281.79
1022.967	2257.84
1023.258	2235.24
1023.548	2230.27
1023.839	2247.89
1024.129	2196.14
1024.419	2219.19
1024.709	2163.83
1025	2157.95
1025.29	2131.74
1025.58	2140.33
1025.87	2116.14
1026.16	2081.8
1026.449	2056.26
1026.739	2070.27
1027.029	2025.3
1027.319	2024.4
1027.608	2023.04
1027.898	2009.03
1028.187	2004.96
1028.477	1925.19
1028.766	1960.89
1029.055	1943.72
1029.344	1923.83
1029.634	1925.42
1029.923	1871.18
1030.212	1851.75
1030.501	1883.16
1030.79	1847.9
1031.078	1866.21
1031.367	1835.7
1031.656	1832.08
1031.945	1808.81
1032.233	1799.09
1032.522	1768.36
1032.81	1778.98
1033.099	1759.77
1033.387	1720.22
1033.675	1730.39
1033.963	1705.99
1034.251	1719.77
1034.54	1691.3
1034.828	1695.14
1035.116	1672.99
1035.403	1656.72
1035.691	1625.76
1035.979	1630.96
1036.267	1607.46
1036.554	1580.34
1036.842	1556.39
1037.129	1581.24
1037.417	1583.28
1037.704	1567.91
1037.992	1543.05
1038.279	1517.29
1038.566	1539.89
1038.853	1539.89
1039.14	1539.89
