Data from 108_FLMS001491_010.txt Node
Date: Thu Apr 12 17:07:57 BST 2018
User: hsy
Spectrometer: FLMS00149
Trigger mode: 0
Integration Time (sec): 1.000000E-2
Scans to average: 10
Electric dark correction enabled: true
Nonlinearity correction enabled: false
Boxcar width: 0
XAxis mode: Wavelengths
Number of Pixels in Spectrum: 2048
>>>>>Begin Spectral Data<<<<<
341.393	-31.93
341.776	-31.93
342.16	-31.93
342.543	-58.15
342.927	-55.66
343.31	-89.11
343.693	-76.45
344.077	-61.99
344.46	-61.99
344.843	-51.59
345.226	-31.03
345.61	-29.45
345.993	-31.71
346.376	-19.28
346.759	25.47
347.142	21.62
347.525	41.74
347.908	64.79
348.291	77.44
348.674	100.94
349.057	120.6
349.44	113.15
349.823	142.3
350.206	154.28
350.588	233.14
350.971	262.07
351.354	280.83
351.737	281.5
352.119	288.06
352.502	306.81
352.884	292.8
353.267	328.96
353.65	319.24
354.032	343.42
354.414	347.04
354.797	358.79
355.179	347.72
355.562	368.73
355.944	375.51
356.326	375.96
356.709	387.49
357.091	390.88
357.473	389.75
357.855	380.94
358.238	395.17
358.62	383.87
359.002	401.95
359.384	389.52
359.766	373.7
360.148	389.07
360.53	389.3
360.912	377.55
361.294	375.51
361.676	378.45
362.057	375.74
362.439	370.09
362.821	380.03
363.203	349.98
363.584	395.17
363.966	377.32
364.348	359.24
364.729	362.18
365.111	382.52
365.493	395.85
365.874	368.96
366.256	363.99
366.637	379.35
367.019	365.12
367.4	371.67
367.781	377.55
368.163	367.15
368.544	361.73
368.925	371.67
369.306	387.04
369.688	363.76
370.069	373.7
370.45	375.51
370.831	378.68
371.212	337.32
371.593	369.19
371.974	396.53
372.355	364.21
372.736	375.74
373.117	381.84
373.498	390.2
373.879	370.54
374.26	392.69
374.641	367.83
375.021	360.82
375.402	388.85
375.783	385
376.163	395.4
376.544	398.79
376.925	361.95
377.305	400.82
377.686	390.43
378.066	417.77
378.447	398.79
378.827	401.5
379.208	405.79
379.588	397.89
379.968	419.81
380.349	412.8
380.729	396.98
381.109	427.71
381.489	421.84
381.87	420.03
382.25	419.58
382.63	438.34
383.01	415.51
383.39	451.67
383.77	455.74
384.15	426.13
384.53	435.4
384.91	434.72
385.29	448.73
385.67	441.5
386.049	450.31
386.429	445.34
386.809	458.9
387.189	454.38
387.568	443.99
387.948	444.66
388.328	450.31
388.707	455.74
389.087	467.26
389.466	463.87
389.846	479.01
390.225	485.79
390.605	460.93
390.984	486.47
391.363	474.95
391.743	470.43
392.122	482.4
392.501	494.15
392.881	501.61
393.26	486.02
393.639	512.46
394.018	514.94
394.397	502.74
394.776	512.23
395.155	501.39
395.534	490.76
395.913	516.53
396.292	519.92
396.671	520.59
397.05	525.57
397.429	520.59
397.808	520.59
398.186	540.25
398.565	538.67
398.944	537.99
399.323	527.6
399.701	535.06
400.08	533.25
400.458	545
400.837	541.16
401.215	552.23
401.594	547.71
401.972	555.17
402.351	567.37
402.729	543.64
403.107	560.59
403.486	568.95
403.864	570.08
404.242	574.6
404.62	588.39
404.999	592.91
405.377	601.95
405.755	587.26
406.133	610.53
406.511	623.42
406.889	610.08
407.267	604.43
407.645	629.07
408.023	639.46
408.401	637.88
408.779	633.36
409.156	643.75
409.534	651.21
409.912	659.35
410.29	663.87
410.667	671.78
411.045	670.19
411.422	697.31
411.8	681.72
412.178	691.66
412.555	698.67
412.933	685.11
413.31	726.01
413.687	746.8
414.065	705.67
414.442	727.59
414.819	739.57
415.197	752.68
415.574	764.43
415.951	749.51
416.328	756.52
416.705	759.23
417.082	760.36
417.46	775.28
417.837	780.7
418.214	775.28
418.591	771.66
418.967	816.41
419.344	804.43
419.721	821.15
420.098	811.66
420.475	809.63
420.852	835.16
421.228	817.31
421.605	815.28
421.982	825.9
422.358	865.22
422.735	843.97
423.111	867.7
423.488	874.48
423.864	855.27
424.241	890.3
424.617	891.88
424.994	887.82
425.37	905.22
425.746	898.21
426.123	912.67
426.499	897.08
426.875	924.65
427.251	919.68
427.627	926.68
428.003	934.82
428.379	951.54
428.756	969.62
429.132	977.08
429.507	995.38
429.883	1010.75
430.259	1002.16
430.635	1020.92
431.011	1017.53
431.387	1009.85
431.763	1077.19
432.138	1053.01
432.514	1039.45
432.89	1076.74
433.265	1090.52
433.641	1101.82
434.016	1097.3
434.392	1113.57
434.767	1129.84
435.143	1119.22
435.518	1129.62
435.894	1155.83
436.269	1163.51
436.644	1169.84
437.02	1184.53
437.395	1205.55
437.77	1194.02
438.145	1219.78
438.52	1213.68
438.895	1236.73
439.271	1257.3
439.646	1241.48
440.021	1262.04
440.395	1252.1
440.77	1259.33
441.145	1278.09
441.52	1318.31
441.895	1274.02
442.27	1295.04
442.645	1294.81
443.019	1318.76
443.394	1350.18
443.769	1322.61
444.143	1277.41
444.518	1321.93
444.892	1307.01
445.267	1359.67
445.641	1377.52
446.016	1361.48
446.39	1390.18
446.764	1383.4
447.139	1384.07
447.513	1402.83
447.887	1411.19
448.262	1406.45
448.636	1450.51
449.01	1453.22
449.384	1464.98
449.758	1449.16
450.132	1487.57
450.506	1506.1
450.88	1533
451.254	1505.88
451.628	1503.62
452.002	1538.19
452.376	1547.23
452.75	1548.14
453.123	1574.35
453.497	1602.6
453.871	1637.85
454.244	1602.83
454.618	1634.91
454.992	1651.86
455.365	1670.39
455.739	1706.55
456.112	1708.59
456.486	1724.86
456.859	1762.82
457.232	1815.93
457.606	1822.93
457.979	1831.75
458.352	1876.49
458.725	1856.6
459.099	1900.67
459.472	1924.17
459.845	1918.75
460.218	1924.17
460.591	1968.47
460.964	1972.08
461.337	1993.1
461.71	2045.3
462.083	2047.11
462.456	2069.93
462.829	2070.61
463.201	2122.81
463.574	2145.64
463.947	2170.95
464.32	2193.54
464.692	2209.36
465.065	2249.14
465.438	2260.43
465.81	2320.77
466.183	2278.51
466.555	2329.36
466.928	2363.94
467.3	2367.55
467.672	2385.63
468.045	2473.31
468.417	2438.28
468.789	2436.48
469.161	2552.18
469.534	2558.73
469.906	2552.63
470.278	2605.51
470.65	2627.2
471.022	2672.85
471.394	2685.73
471.766	2742.68
472.138	2806.18
472.51	2880.08
472.882	2848.22
473.253	2898.38
473.625	2939.51
473.997	3004.82
474.369	3023.58
474.74	3035.1
475.112	3144.48
475.484	3188.55
475.855	3227.19
476.227	3232.84
476.598	3366.39
476.97	3359.62
477.341	3446.39
477.713	3514.19
478.084	3506.73
478.455	3626.05
478.827	3666.05
479.198	3724.13
479.569	3788.53
479.94	3885.25
480.311	3971.8
480.682	4028.75
481.053	4177.22
481.424	4197.33
481.795	4273.94
482.166	4329.99
482.537	4412.92
482.908	4558.68
483.279	4614.5
483.65	4692.69
484.021	4818.33
484.391	4904.43
484.762	4969.06
485.133	5001.83
485.503	5153.92
485.874	5290.19
486.244	5357.75
486.615	5473.91
486.985	5602.95
487.356	5719.55
487.726	5791.19
488.097	5969.49
488.467	6022.82
488.837	6245.87
489.207	6344.17
489.578	6503.71
489.948	6630.49
490.318	6776.25
490.688	6866.19
491.058	7077.26
491.428	7246.52
491.798	7356.12
492.168	7608.54
492.538	7689.44
492.908	7923.56
493.278	8072.03
493.648	8227.51
494.017	8433.38
494.387	8576.2
494.757	8774.39
495.126	8942.52
495.496	9212.12
495.866	9321.72
496.235	9563.52
496.605	9742.5
496.974	9896.62
497.344	10146.56
497.713	10376.15
498.082	10566.88
498.452	10767.1
498.821	11011.17
499.19	11212.52
499.559	11383.36
499.928	11677.81
500.298	11952.84
500.667	12167.29
501.036	12334.29
501.405	12598.24
501.774	12840.95
502.143	13057.67
502.512	13302.4
502.88	13616.29
503.249	13791.88
503.618	14127.02
503.987	14376.95
504.356	14655.36
504.724	14903.72
505.093	15127.67
505.462	15336.93
505.83	15605.85
506.199	15961.09
506.567	16394.98
506.936	16568.53
507.304	16929.88
507.672	17179.82
508.041	17458
508.409	17720.14
508.777	18056.63
509.145	18345.89
509.514	18494.81
509.882	18859.32
510.25	19027.45
510.618	19328.23
510.986	19616.81
511.354	19896.13
511.722	20227.87
512.09	20580.63
512.458	20592.61
512.826	20877.35
513.193	21221.52
513.561	21395.07
513.929	21722.97
514.297	22161.15
514.664	22311.21
515.032	22545.33
515.4	22948.25
515.767	23112.32
516.135	23283.84
516.502	23396.6
516.869	23865.97
517.237	24117.49
517.604	24109.13
517.972	24664.14
518.339	24848.09
518.706	25120.17
519.073	25264.35
519.44	25369.21
519.808	25924.45
520.175	26122.41
520.542	26401.95
520.909	26608.04
521.276	26905.89
521.643	27149.72
522.009	27310.4
522.376	27662.93
522.743	27989.7
523.11	28326.64
523.477	28552.62
523.843	28730.25
524.21	29248.88
524.577	29516.44
524.943	29642.31
525.31	29898.13
525.676	30308.96
526.043	30487.72
526.409	30686.35
526.776	31109.17
527.142	31162.5
527.508	31526.33
527.874	31804.52
528.241	31957.28
528.607	32269.82
528.973	32618.51
529.339	32753.19
529.705	33065.95
530.071	33355.89
530.437	33660.97
530.803	33759.72
531.169	34074.29
531.535	34291.23
531.901	34454.39
532.267	34706.14
532.632	34947.94
532.998	35106.35
533.364	35283.3
533.73	35281.04
534.095	35839.21
534.461	35832.21
534.826	35968.02
535.192	36204.63
535.557	36464.28
535.923	36521.68
536.288	36843.03
536.653	36868.11
537.019	37003.25
537.384	37122.12
537.749	37336.57
538.114	37384.03
538.479	37517.81
538.845	37645.49
539.21	37723.91
539.575	38046.61
539.94	38081.64
540.305	38313.95
540.67	38387.17
541.034	38532.48
541.399	38538.58
541.764	38779.02
542.129	38990.32
542.494	39096.53
542.858	39220.14
543.223	39175.62
543.587	39439.12
543.952	39482.73
544.316	39699.45
544.681	39576.06
545.045	40092.66
545.41	40039.78
545.774	39969.27
546.138	40177.63
546.503	40522.03
546.867	40513.44
547.231	40701.68
547.595	40877.5
547.959	41159.53
548.324	41101.9
548.688	41228.45
549.052	41349.58
549.416	41508.44
549.779	41587.08
550.143	41833.86
550.507	41968.77
550.871	41978.03
551.235	42035.89
551.599	42542.99
551.962	42582.31
552.326	42714.29
552.689	42895.07
553.053	42653.05
553.417	42872.02
553.78	43379.13
554.143	43456.41
554.507	43608.73
554.87	43775.05
555.234	44049.17
555.597	43819.57
555.96	44185.21
556.323	44313.11
556.686	44290.52
557.05	44700.9
557.413	44826.55
557.776	44883.04
558.139	45150.15
558.502	45377.49
558.865	45440.54
559.228	45698.16
559.59	45787.43
559.953	45928.21
560.316	46444.81
560.679	46382.89
561.041	46647.52
561.404	46901.3
561.767	47150.33
562.129	47015.42
562.492	47377.21
562.854	47423.77
563.217	47591.22
563.579	47725.45
563.941	47965
564.304	48152.79
564.666	48522.95
565.028	48596.17
565.39	48635.03
565.753	48877.29
566.115	48967.68
566.477	49172.87
566.839	49460.1
567.201	49756.59
567.563	49673.65
567.925	50024.38
568.287	50093.98
568.648	50063.92
569.01	50386.18
569.372	50641.31
569.734	50659.39
570.095	50887.63
570.457	51209.88
570.819	51124.91
571.18	51181.41
571.542	51505.69
571.903	51423.44
572.265	51596.54
572.626	51785.46
572.987	51879.02
573.349	52038.34
573.71	52149.07
574.071	52326.24
574.432	52450.08
574.794	52651.88
575.155	52758.54
575.516	52709.5
575.877	52920.8
576.238	52902.72
576.599	53082.6
576.96	53167.57
577.32	53200.34
577.681	53289.6
578.042	53475.36
578.403	53490.05
578.763	53521.69
579.124	53690.27
579.485	53885.29
579.845	53934.1
580.206	53957.15
580.566	53965.52
580.927	53979.53
581.287	54171.84
581.648	54193.98
582.008	54326.41
582.368	54331.16
582.728	54412.28
583.089	54377.03
583.449	54514.2
583.809	54450.02
584.169	54626.74
584.529	54540.19
584.889	54848.66
585.249	54724.59
585.609	54641.66
585.969	54845.49
586.329	54844.59
586.688	55003
587.048	54916.68
587.408	54983.57
587.768	55048.65
588.127	55124.58
588.487	55092.04
588.846	55423.78
589.206	55171.36
589.565	55303.11
589.925	55511.92
590.284	55436.89
590.643	55525.25
591.003	55586.72
591.362	55732.25
591.721	55685.02
592.08	55769.08
592.44	55962.98
592.799	55865.13
593.158	55890.66
593.517	55871.68
593.876	56062.18
594.235	56071.9
594.593	56041.17
594.952	56109.41
595.311	56116.65
595.67	56206.81
596.029	56425.11
596.387	56454.94
596.746	56547.6
597.104	56441.61
597.463	56475.28
597.822	56695.39
598.18	56600.7
598.538	56602.06
598.897	56791.88
599.255	56668.95
599.613	57024.64
599.972	56939.68
600.33	57087.47
600.688	57042.27
601.046	57121.59
601.404	57313.22
601.762	57208.82
602.12	57408.14
602.478	57418.53
602.836	57397.06
603.194	57300.12
603.552	57483.39
603.91	57426.89
604.268	57600
604.625	57535.14
604.983	57761.35
605.341	57688.36
605.698	57813.1
606.056	57947.78
606.413	57875.24
606.771	58065.52
607.128	58067.1
607.485	58028.69
607.843	58114.56
608.2	58210.38
608.557	58321.56
608.914	58275.23
609.272	58500.76
609.629	58585.73
609.986	58665.05
610.343	58595.45
610.7	58744.83
611.057	58720.19
611.414	58688.33
611.771	58832.73
612.127	58914.31
612.484	58871.38
612.841	58981.43
613.198	58995.21
613.554	59048.32
613.911	59209.45
614.267	59186.4
614.624	59172.84
614.98	59301.87
615.337	59463
615.693	59445.37
616.05	59458.25
616.406	59594.75
616.762	59566.05
617.118	59577.35
617.475	59541.64
617.831	59713.39
618.187	59686.27
618.543	59795.42
618.899	59955.87
619.255	59879.71
619.611	59854.85
619.967	59957
620.323	60067.95
620.678	59987.96
621.034	59959.03
621.39	59986.83
621.746	60020.27
622.101	60321.51
622.457	60087.61
622.812	60242.19
623.168	60213.04
623.523	60224.79
623.879	60355.86
624.234	60168.06
624.589	60293.49
624.945	60277.44
625.3	60354.73
625.655	60325.57
626.01	60332.81
626.365	60392.24
626.72	60321.73
627.075	60290.77
627.43	60338.91
627.785	60346.59
628.14	60302.75
628.495	60421.17
628.85	60362.86
629.205	60347.5
629.559	60399.02
629.914	60274.05
630.269	60301.62
630.623	60197.67
630.978	60218.91
631.332	60308.63
631.687	60315.86
632.041	60271.11
632.396	60236.09
632.75	60164
633.104	60249.19
633.459	60147.95
633.813	60151.34
634.167	60107.73
634.521	60115.18
634.875	60119.03
635.229	60124
635.583	59971.69
635.937	60027.96
636.291	60002.42
636.645	59999.26
636.999	59900.28
637.352	59951.35
637.706	59821.41
638.06	59944.79
638.413	59898.69
638.767	59762.88
639.121	59855.3
639.474	59719.72
639.828	59747.74
640.181	59714.29
640.534	59740.28
640.888	59660.96
641.241	59555.88
641.594	59587.52
641.947	59655.31
642.301	59519.04
642.654	59615.76
643.007	59482.66
643.36	59532.15
643.713	59519.49
644.066	59600.17
644.419	59370.57
644.771	59152.5
645.124	58891.49
645.477	58800.87
645.83	58808.55
646.182	58785.5
646.535	58786.41
646.888	58726.97
647.24	58617.15
647.593	58811.26
647.945	58628.44
648.298	58569.46
648.65	58537.15
649.002	58383.25
649.355	58430.48
649.707	58338.96
650.059	58322.69
650.411	58724.04
650.763	58739.63
651.115	59137.81
651.467	59021.2
651.819	58990.47
652.171	58939.62
652.523	58825.05
652.875	58853.98
653.227	58785.5
653.578	58917.7
653.93	58820.3
654.282	58712.96
654.633	58633.19
654.985	58707.31
655.337	58701.21
655.688	58726.52
656.039	58737.59
656.391	58497.6
656.742	58570.37
657.094	58573.53
657.445	58583.47
657.796	58496.47
658.147	58493.08
658.498	58491.27
658.849	58544.15
659.2	58470.93
659.551	58367.66
659.902	58602
660.253	58342.8
660.604	58506.41
660.955	58362.24
661.306	58465.28
661.656	58348
662.007	58387.32
662.358	58370.15
662.708	58424.16
663.059	58293.09
663.409	58195.24
663.76	58316.59
664.11	58345.74
664.461	58291.96
664.811	58383.03
665.161	58336.02
665.511	58188
665.862	58373.54
666.212	58328.79
666.562	58345.29
666.912	58296.25
667.262	58239.53
667.612	58271.39
667.962	58213.77
668.312	58153.43
668.662	58358.85
669.011	58313.42
669.361	58195.69
669.711	58164.05
670.06	58115.24
670.41	58058.29
670.76	58103.94
671.109	58179.19
671.459	58134.9
671.808	58079.98
672.157	58106.42
672.507	58006.54
672.856	57969.25
673.205	58061.23
673.554	58041.34
673.904	57957.28
674.253	58202.69
674.602	58035.92
674.951	57716.6
675.3	57585.53
675.649	58061.91
675.998	58020.32
676.346	58018.06
676.695	57989.59
677.044	57850.39
677.393	57956.82
677.741	58049.7
678.09	57916.15
678.438	57823.04
678.787	57890.61
679.135	57978.74
679.484	57735.81
679.832	57875.92
680.181	57795.02
680.529	57856.49
680.877	57772.42
681.225	57695.14
681.573	57920.89
681.922	57665.31
682.27	57649.04
682.618	57694.01
682.966	57666.44
683.314	57600.9
683.661	57612.88
684.009	57556.83
684.357	57504.41
684.705	57411.75
685.053	57488.81
685.4	57335.37
685.748	57374.47
686.095	57283.85
686.443	57250.85
686.79	57241.59
687.138	57276.16
687.485	57220.35
687.832	57132.66
688.18	57100.8
688.527	56999.11
688.874	57087.69
689.221	57017.87
689.568	56917.75
689.915	56863.07
690.262	56925.44
690.609	56906.23
690.956	56707.82
691.303	56759.79
691.65	56593.92
691.997	56614.71
692.344	56527.26
692.69	56461.95
693.037	56561.15
693.383	56212.01
693.73	56406.81
694.077	56256.53
694.423	56217.66
694.769	56092.01
695.116	56122.97
695.462	56094.73
695.808	55928.85
696.155	56030.77
696.501	55776.32
696.847	55805.24
697.193	55748.97
697.539	55715.07
697.885	55463.1
698.231	55499.71
698.577	55503.78
698.923	55428.75
699.269	55214.3
699.614	55182.21
699.96	55146.28
700.306	55120.29
700.651	55003.45
700.997	54934.76
701.342	54848.2
701.688	54816.12
702.033	54661.32
702.379	54692.05
702.724	54639.62
703.069	54732.95
703.415	54393.53
703.76	54357.82
704.105	54388.78
704.45	54217.49
704.795	54218.84
705.14	54062.01
705.485	54109.24
705.83	53856.37
706.175	54008.68
706.52	53860.21
706.865	53810.27
707.209	53726.2
707.554	53688.91
707.899	53677.16
708.243	53512.42
708.588	53473.33
708.932	53346.32
709.277	53405.3
709.621	53316.49
709.966	53135.93
710.31	53139.55
710.654	52970.06
710.998	52991.76
711.342	53043.28
711.687	52827.69
712.031	52782.04
712.375	52715.15
712.719	52682.39
713.063	52581.82
713.407	52705.44
713.75	52538.66
714.094	52379.12
714.438	52422.05
714.782	52361.94
715.125	52120.14
715.469	52302.51
715.812	52106.58
716.156	51994.95
716.499	51918.56
716.843	52099.35
717.186	51833.59
717.53	52006.02
717.873	51996.3
718.216	51853.71
718.559	51699.81
718.902	51414.17
719.246	51537.11
719.589	51451.23
719.932	51339.6
720.275	51333.95
720.617	51380.73
720.96	51196.55
721.303	51262.31
721.646	51297.34
721.989	51070.22
722.331	51055.31
722.674	50902.09
723.016	50974.63
723.359	50761.98
723.701	50928.31
724.044	50727.41
724.386	50579.39
724.729	50741.19
725.071	50627.98
725.413	50625.49
725.755	50552.5
726.097	50290.81
726.439	50258.49
726.782	50232.96
727.124	50397.25
727.465	50230.47
727.807	50013.76
728.149	50069.57
728.491	49821.67
728.833	50099.63
729.175	49956.36
729.516	49877.26
729.858	49722.92
730.199	49938.28
730.541	49937.83
730.882	49679.98
731.224	49689.92
731.565	49590.49
731.906	49544.84
732.248	49565.18
732.589	49329.25
732.93	49328.35
733.271	49449.7
733.612	49270.95
733.953	49390.72
734.294	49256.49
734.635	49123.38
734.976	49419.65
735.317	49100.56
735.658	49157.05
735.999	48907.8
736.339	49016.04
736.68	48911.41
737.021	48830.28
737.361	48681.81
737.702	48938.76
738.042	48827.12
738.383	48794.58
738.723	48753.22
739.063	48557.52
739.404	48694.24
739.744	48539.67
740.084	48506.22
740.424	48520.24
740.764	48316.63
741.104	48484.08
741.444	48257.19
741.784	48201.83
742.124	48313.01
742.464	48143.3
742.804	48090.42
743.143	47951.89
743.483	48133.58
743.823	47865.79
744.162	47876.41
744.502	47927.48
744.841	47734.49
745.181	47872.34
745.52	47658.79
745.86	47789.63
746.199	47805.45
746.538	47626.93
746.877	47733.36
747.216	47644.55
747.556	47560.03
747.895	47528.62
748.234	47376.99
748.573	47350.1
748.911	47247.5
749.25	47351.9
749.589	47151.91
749.928	47173.83
750.267	47247.27
750.605	47085.25
750.944	46999.6
751.283	46928.41
751.621	46957.34
751.96	46512.6
752.298	46818.36
752.636	46754.86
752.975	46644.8
753.313	46403.23
753.651	46649.55
753.989	46288.66
754.327	46395.77
754.666	45991.49
755.004	46225.61
755.342	46128.89
755.679	46180.41
756.017	45822.23
756.355	45864.49
756.693	45796.47
757.031	45817.26
757.368	45540.88
757.706	45550.6
758.044	45270.38
758.381	45252.3
758.719	45204.39
759.056	45206.42
759.394	45062.93
759.731	44725.76
760.068	44860.22
760.405	44755.59
760.743	44588.36
761.08	44613.9
761.417	44353.11
761.754	44281.93
762.091	44285.32
762.428	44070.41
762.765	43872.9
763.102	43887.14
763.438	43726.01
763.775	43369.18
764.112	43516.75
764.449	43413.48
764.785	43211.45
765.122	43160.83
765.458	42862.08
765.795	42836.54
766.131	42816.88
766.467	42494.41
766.804	42339.16
767.14	42334.18
767.476	42108.2
767.812	41934.65
768.148	42157.01
768.485	41732.17
768.821	41673.18
769.157	41454.66
769.492	41433.42
769.828	41396.13
770.164	41094.89
770.5	40856.71
770.836	41083.59
771.171	40795.47
771.507	40650.84
771.842	40506.21
772.178	40403.84
772.513	40174.92
772.849	40068.93
773.184	40193
773.519	39927.02
773.855	39542.17
774.19	39576.06
774.525	39439.8
774.86	39385.79
775.195	39217.43
775.53	39174.04
775.865	38819.25
776.2	38633.72
776.535	38454.96
776.87	38398.02
777.205	38137.23
777.539	37977.69
777.874	38129.55
778.209	37713.97
778.543	37720.29
778.878	37564.37
779.212	37525.5
779.547	37196.92
779.881	37264.03
780.215	36968.22
780.55	36944.72
780.884	36725.07
781.218	36686.2
781.552	36740.66
781.886	36425.19
782.22	36219.99
782.554	35991.98
782.888	35851.64
783.222	35873.11
783.556	35660.23
783.889	35551.09
784.223	35318.32
784.557	35248.49
784.89	35334.59
785.224	35008.73
785.557	34850.76
785.891	34718.79
786.224	34732.8
786.558	34716.3
786.891	34476.76
787.224	34186.83
787.557	34111.12
787.891	34133.27
788.224	33960.39
788.557	33815.09
788.89	33784.58
789.223	33857.34
789.556	33555.88
789.888	33364.7
790.221	33359.5
790.554	33103.92
790.887	33119.96
791.219	32918.84
791.552	32848.11
791.884	32793.19
792.217	32633.65
792.549	32512.07
792.882	32207.44
793.214	32094.68
793.546	32157.5
793.879	31990.73
794.211	31819.88
794.543	31987.34
794.875	31725.2
795.207	31500.12
795.539	31520.91
795.871	31515.94
796.203	31353.91
796.535	31199.56
796.867	31293.8
797.198	30878.67
797.53	30903.75
797.862	30652.23
798.193	30765.9
798.525	30464.67
798.856	30572.23
799.188	30254.5
799.519	30070.55
799.85	29993.94
800.182	29968.41
800.513	30031.91
800.844	29628.3
801.175	29918.46
801.506	29814.29
801.837	29711.46
802.168	29545.14
802.499	29567.74
802.83	29312.6
803.161	29191.93
803.491	29246.84
803.822	29338.82
804.153	28954.42
804.483	28970.24
804.814	28706.29
805.145	28845.05
805.475	28701.77
805.805	28653.87
806.136	28606.18
806.466	28447.77
806.796	28368.45
807.126	28184.27
807.457	28293.87
807.787	28280.99
808.117	28188.57
808.447	28014.79
808.777	28114.67
809.107	27755.58
809.436	27639.43
809.766	27750.84
810.096	27721.01
810.426	27419.55
810.755	27588.36
811.085	27424.75
811.414	27430.85
811.744	27228.59
812.073	27285.31
812.403	27115.6
812.732	27027.92
813.061	27287.8
813.39	26882.16
813.719	26971.88
814.049	27027.69
814.378	26846.46
814.707	26730.3
815.036	26697.76
815.365	26595.61
815.693	26447.82
816.022	26498.22
816.351	26287.15
816.68	26184.33
817.008	26269.07
817.337	26123.31
817.665	26020.71
817.994	26099.36
818.322	26051.9
818.651	25917.44
818.979	25855.52
819.307	25870.66
819.636	25767.16
819.964	25589.31
820.292	25811.45
820.62	25689.42
820.948	25748.86
821.276	25834.5
821.604	25648.97
821.932	25797.9
822.259	25748.4
822.587	25599.71
822.915	25540.95
823.243	25594.96
823.57	25528.07
823.898	25672.47
824.225	25551.35
824.553	25468.86
824.88	25584.79
825.207	25637.45
825.535	25564.91
825.862	25630.67
826.189	25614.4
826.516	25765.13
826.843	25719.71
827.17	25709.54
827.497	25647.62
827.824	25753.38
828.151	25793.15
828.478	25653.04
828.805	25834.5
829.131	25648.29
829.458	25714.28
829.785	25550.44
830.111	25535.3
830.438	25715.19
830.764	25678.12
831.09	25682.87
831.417	25552.48
831.743	25656.66
832.069	25596.09
832.395	25502.31
832.722	25575.98
833.048	25502.76
833.374	25636.32
833.7	25508.41
834.026	25618.24
834.351	25518.13
834.677	25432.03
835.003	25475.64
835.329	25347.51
835.654	25461.41
835.98	25331.92
836.306	25492.82
836.631	25270.45
836.956	25396.55
837.282	25368.3
837.607	25267.97
837.932	25143
838.258	25260.06
838.583	25032.04
838.908	25102.77
839.233	25074.52
839.558	24888.31
839.883	24916.11
840.208	24764.25
840.533	24829.78
840.858	24771.03
841.182	24852.38
841.507	24840.63
841.832	24536.69
842.156	24676.12
842.481	24711.82
842.805	24599.96
843.13	24377.59
843.454	24433.41
843.778	24379.18
844.103	24306.18
844.427	24244.94
844.751	24262.57
845.075	24180.54
845.399	24195.68
845.723	24040.88
846.047	24176.02
846.371	23903.26
846.695	23762.92
847.019	23691.51
847.343	23627.56
847.666	23530.84
847.99	23512.98
848.313	23367
848.637	23338.98
848.96	23202.71
849.284	23175.82
849.607	23006.33
849.931	23026.22
850.254	22822.61
850.577	22624.42
850.9	22506.23
851.223	22525.89
851.546	22457.19
851.869	22357.31
852.192	22460.36
852.515	22248.38
852.838	22137.88
853.161	22134.94
853.483	21918.9
853.806	21866.93
854.129	21922.06
854.451	21726.82
854.774	21670.55
855.096	21620.6
855.419	21563.88
855.741	21583.77
856.063	21436.88
856.385	21359.37
856.708	21268.52
857.03	21211.35
857.352	21274.17
857.674	21133.39
857.996	20950.11
858.318	20877.35
858.64	20892.94
858.961	20800.96
859.283	20760.97
859.605	20674.19
859.926	20705.15
860.248	20497.92
860.57	20450.92
860.891	20493.18
861.212	20465.38
861.534	20324.82
861.855	20240.98
862.176	20276.46
862.498	20351.26
862.819	20338.38
863.14	20245.95
863.461	20101.32
863.782	20024.94
864.103	20095.67
864.424	19994.66
864.745	20062.68
865.065	19905.85
865.386	19816.81
865.707	19897.26
866.027	19941.1
866.348	19807.09
866.668	19783.36
866.989	19771.16
867.309	19549.25
867.63	19659.98
867.95	19693.42
868.27	19531.62
868.59	19661.33
868.91	19621.56
869.23	19533.88
869.55	19422.92
869.87	19509.25
870.19	19384.96
870.51	19441.23
870.83	19324.39
871.15	19259.31
871.469	19197.62
871.789	19298.63
872.109	19250.5
872.428	19083.5
872.748	19122.14
873.067	19082.37
873.386	19117.39
873.706	19128.47
874.025	19007.79
874.344	18873.33
874.663	19021.35
874.982	18962.59
875.301	18908.81
875.62	18966.66
875.939	18736.61
876.258	18760.11
876.577	18778.87
876.896	18683.05
877.214	18636.5
877.533	18707.91
877.852	18624.98
878.17	18712.21
878.489	18678.31
878.807	18523.74
879.125	18483.29
879.444	18518.99
879.762	18388.37
880.08	18496.62
880.398	18355.6
880.716	18319.45
881.034	18280.13
881.352	18295.49
881.67	18216.85
881.988	18191.54
882.306	18182.73
882.624	18087.59
882.941	18070.87
883.259	18058.66
883.577	17986.58
883.894	18036.74
884.212	17891.21
884.529	17846.69
884.846	17838.78
885.164	17662.52
885.481	17732.12
885.798	17739.58
886.115	17634.49
886.432	17728.95
886.75	17607.83
887.067	17629.07
887.383	17502.07
887.7	17406.7
888.017	17358.57
888.334	17327.38
888.651	17279.48
888.967	17224.79
889.284	17120.61
889.6	17142.53
889.917	17119.48
890.233	17033.38
890.55	17101.63
890.866	16994.51
891.182	16917.22
891.498	16980.95
891.815	16733.95
892.131	16769.21
892.447	16751.81
892.763	16688.98
893.079	16713.16
893.395	16674.29
893.71	16568.76
894.026	16543.68
894.342	16466.39
894.657	16316.79
894.973	16331.48
895.289	16288.99
895.604	16279.05
895.92	16175.32
896.235	16177.81
896.55	16130.13
896.865	16013.07
897.181	15949.79
897.496	15924.26
897.811	15898.95
898.126	15913.18
898.441	15806.07
898.756	15788.67
899.071	15639.52
899.386	15608.56
899.7	15516.13
900.015	15383.48
900.33	15321.79
900.644	15257.38
900.959	15351.39
901.273	15223.03
901.588	15218.74
901.902	15097.16
902.216	15006.31
902.531	15090.38
902.845	15030.27
903.159	14881.35
903.473	14831.86
903.787	14818.97
904.101	14715.7
904.415	14745.98
904.729	14644.74
905.042	14594.8
905.356	14597.74
905.67	14556.38
905.984	14510.06
906.297	14453.33
906.611	14341.25
906.924	14324.3
907.237	14286.79
907.551	14314.36
907.864	14180.8
908.177	14166.56
908.491	14047.24
908.804	13970.41
909.117	13869.62
909.43	13798.89
909.743	13775.84
910.056	13750.75
910.368	13645.22
910.681	13651.77
910.994	13526.13
911.307	13477.99
911.619	13476.41
911.932	13466.47
912.244	13326.58
912.557	13312.35
912.869	13187.15
913.181	13159.13
913.494	13123.2
913.806	13056.31
914.118	12948.97
914.43	12911
914.742	12911.45
915.054	12875.98
915.366	12814.51
915.678	12776.32
915.99	12666.26
916.302	12617.68
916.613	12511.46
916.925	12525.25
917.236	12492.71
917.548	12380.39
917.859	12387.4
918.171	12289.32
918.482	12155.54
918.794	12231.02
919.105	12199.83
919.416	12055.66
919.727	12066.96
920.038	12031.03
920.349	11938.37
920.66	11893.18
920.971	11922.33
921.282	11874.65
921.593	11692.96
921.903	11635.56
922.214	11687.98
922.525	11524.15
922.835	11509.68
923.146	11450.25
923.456	11427.43
923.767	11398.05
924.077	11334.55
924.387	11348.33
924.697	11267.43
925.008	11274.66
925.318	11193.53
925.628	11118.28
925.938	11145.85
926.248	10970.04
926.558	10951.51
926.867	10918.29
927.177	10895.24
927.487	10838.74
927.796	10719.87
928.106	10807.78
928.416	10670.38
928.725	10710.38
929.034	10622.93
929.344	10570.27
929.653	10578.86
929.962	10463.84
930.271	10407.79
930.581	10354.91
930.89	10372.54
931.199	10264.07
931.508	10313.78
931.817	10237.63
932.125	10191.53
932.434	10141.58
932.743	9965.77
933.051	9960.12
933.36	9957.63
933.669	9937.52
933.977	9843.06
934.286	9855.72
934.594	9818.88
934.902	9781.59
935.21	9761.71
935.519	9624.99
935.827	9616.85
936.135	9514.48
936.443	9502.05
936.751	9499.79
937.059	9534.82
937.367	9397.87
937.674	9411.66
937.982	9359.23
938.29	9297.76
938.597	9293.02
938.905	9169.18
939.213	9177.99
939.52	9089.18
939.827	9185.68
940.135	9122.4
940.442	9022.74
940.749	8947.04
941.056	9003.31
941.363	8900.71
941.67	8904.1
941.977	8785.24
942.284	8764.44
942.591	8775.07
942.898	8761.28
943.205	8738.68
943.511	8697.55
943.818	8649.65
944.125	8590.21
944.431	8571
944.738	8546.37
945.044	8464.57
945.35	8399.03
945.657	8278.81
945.963	8318.81
946.269	8225.7
946.575	8305.02
946.881	8204.91
947.187	8160.17
947.493	8158.81
947.799	8090.34
948.105	8018.7
948.41	7986.16
948.716	8018.93
949.022	7955.2
949.327	7972.38
949.633	7851.93
949.938	7861.87
950.244	7833.17
950.549	7741.19
950.854	7672.27
951.16	7724.92
951.465	7618.94
951.77	7626.85
952.075	7630.24
952.38	7531.93
952.685	7547.08
952.99	7517.7
953.294	7510.24
953.599	7409
953.904	7374.65
954.209	7369
954.513	7371.71
954.818	7282
955.122	7342.56
955.426	7306.86
955.731	7199.06
956.035	7178.72
956.339	7143.02
956.643	7145.28
956.948	7093.08
957.252	6974.66
957.556	7025.51
957.86	6978.95
958.163	6986.64
958.467	6957.71
958.771	6925.62
959.075	6950.03
959.378	6895.79
959.682	6825.96
959.985	6785.74
960.289	6779.19
960.592	6667.55
960.896	6728.11
961.199	6616.48
961.502	6665.06
961.805	6563.15
962.108	6557.72
962.411	6555.01
962.714	6568.12
963.017	6428.91
963.32	6492.41
963.623	6458.74
963.926	6378.29
964.228	6352.76
964.531	6340.33
964.833	6301.91
965.136	6290.84
965.438	6213.1
965.741	6244.74
966.043	6194.12
966.345	6147.79
966.648	6106.21
966.95	6072.99
967.252	6047.91
967.554	6070.5
967.856	6025.99
968.158	5979.21
968.46	5971.75
968.761	5996.16
969.063	5946.67
969.365	5856.5
969.666	5856.95
969.968	5821.47
970.269	5797.74
970.571	5773.34
970.872	5745.77
971.174	5708.25
971.475	5724.52
971.776	5702.83
972.077	5612.66
972.378	5634.81
972.679	5603.4
972.98	5623.51
973.281	5594.58
973.582	5551.87
973.883	5570.86
974.183	5512.55
974.484	5410.86
974.785	5439.79
975.085	5415.61
975.386	5425.78
975.686	5362.95
975.986	5325.44
976.287	5300.58
976.587	5274.37
976.887	5282.95
977.187	5233.24
977.487	5229.85
977.787	5230.07
978.087	5169.96
978.387	5169.51
978.687	5131.77
978.987	5096.52
979.286	5093.58
979.586	5081.38
979.885	5022.62
980.185	5034.37
980.484	4950.99
980.784	4904.43
981.083	4934.04
981.382	4926.81
981.682	4894.04
981.981	4907.37
982.28	4846.81
982.579	4806.81
982.878	4806.58
983.177	4789.86
983.475	4770.88
983.774	4706.7
984.073	4685.23
984.372	4643.42
984.67	4675.06
984.969	4648.17
985.267	4665.34
985.566	4608.4
985.864	4545.8
986.162	4565.01
986.461	4527.04
986.759	4486.14
987.057	4434.84
987.355	4463.31
987.653	4404.79
987.951	4420.38
988.249	4388.06
988.547	4335.18
988.844	4327.95
989.142	4347.84
989.44	4326.14
989.737	4238.46
990.035	4242.76
990.332	4253.38
990.63	4215.64
990.927	4223.55
991.224	4194.17
991.521	4180.16
991.819	4122.53
992.116	4150.55
992.413	4095.87
992.71	4076.66
993.006	4087.96
993.303	4031.91
993.6	4024.68
993.897	4000.28
994.193	4006.15
994.49	4029.65
994.787	3941.75
995.083	3954.63
995.379	3910.11
995.676	3915.31
995.972	3858.81
996.268	3833.5
996.565	3826.95
996.861	3812.26
997.157	3802.54
997.453	3776.78
997.749	3762.54
998.044	3726.16
998.34	3737.46
998.636	3664.24
998.932	3667.4
999.227	3614.98
999.523	3630.34
999.818	3596.9
1000.114	3575.88
1000.409	3555.99
1000.704	3527.07
1001	3506.28
1001.295	3506.05
1001.59	3491.36
1001.885	3507.41
1002.18	3431.03
1002.475	3419.05
1002.77	3416.11
1003.065	3398.03
1003.359	3378.82
1003.654	3354.19
1003.949	3310.12
1004.243	3313.29
1004.538	3273.52
1004.832	3318.26
1005.127	3282.78
1005.421	3251.37
1005.715	3198.04
1006.009	3174.54
1006.304	3158.72
1006.598	3182.44
1006.892	3131.82
1007.186	3128.66
1007.48	3117.59
1007.773	3092.5
1008.067	3062.45
1008.361	3040.08
1008.655	3037.59
1008.948	3000.53
1009.242	3004.14
1009.535	2997.36
1009.829	2980.19
1010.122	2957.14
1010.415	2938.84
1010.708	2896.12
1011.001	2921.21
1011.295	2853.19
1011.588	2842.11
1011.881	2845.05
1012.173	2856.8
1012.466	2828.1
1012.759	2794.43
1013.052	2776.58
1013.344	2731.83
1013.637	2721.44
1013.93	2709.24
1014.222	2736.13
1014.514	2688.45
1014.807	2637.37
1015.099	2630.59
1015.391	2638.05
1015.683	2612.52
1015.976	2591.5
1016.268	2588.79
1016.56	2555.34
1016.851	2512.63
1017.143	2547.21
1017.435	2540.2
1017.727	2488.23
1018.018	2486.42
1018.31	2473.31
1018.602	2454.55
1018.893	2432.41
1019.185	2370.94
1019.476	2441.22
1019.767	2396.25
1020.058	2350.83
1020.35	2335.24
1020.641	2352.64
1020.932	2318.51
1021.223	2321.68
1021.514	2285.29
1021.804	2212.07
1022.095	2243.94
1022.386	2213.43
1022.677	2225.86
1022.967	2197.61
1023.258	2181.79
1023.548	2163.94
1023.839	2137.95
1024.129	2116.48
1024.419	2142.02
1024.709	2088.01
1025	2122.59
1025.29	2058.86
1025.58	2032.64
1025.87	2027.67
1026.16	2036.49
1026.449	1994.23
1026.739	2000.55
1027.029	1981.57
1027.319	1945.87
1027.608	1965.53
1027.898	1941.57
1028.187	1938.18
1028.477	1950.16
1028.766	1922.59
1029.055	1879.88
1029.344	1886.21
1029.634	1853.89
1029.923	1827.23
1030.212	1812.31
1030.501	1807.11
1030.79	1811.63
1031.078	1803.05
1031.367	1775.93
1031.656	1755.36
1031.945	1771.86
1032.233	1751.3
1032.522	1734.35
1032.81	1697.51
1033.099	1697.06
1033.387	1715.82
1033.675	1672.65
1033.963	1648.93
1034.251	1660.68
1034.54	1634.69
1034.828	1599.89
1035.116	1589.04
1035.403	1609.83
1035.691	1613.67
1035.979	1589.49
1036.267	1582.49
1036.554	1591.53
1036.842	1553.11
1037.129	1532.32
1037.417	1522.38
1037.704	1515.37
1037.992	1510.17
1038.279	1490.06
1038.566	1488.93
1038.853	1488.93
1039.14	1488.93
