Data from 108_FLMS001491_005.txt Node
Date: Thu Apr 12 17:07:46 BST 2018
User: hsy
Spectrometer: FLMS00149
Trigger mode: 0
Integration Time (sec): 1.000000E-2
Scans to average: 10
Electric dark correction enabled: true
Nonlinearity correction enabled: false
Boxcar width: 0
XAxis mode: Wavelengths
Number of Pixels in Spectrum: 2048
>>>>>Begin Spectral Data<<<<<
341.393	0.21
341.776	0.21
342.16	0.21
342.543	-54.7
342.927	-68.94
343.31	-83.85
343.693	-82.72
344.077	-70.29
344.46	-58.32
344.843	-33.91
345.226	-46.11
345.61	-26
345.993	-18.54
346.376	3.6
346.759	-7.25
347.142	29.82
347.525	49.93
347.908	50.15
348.291	78.4
348.674	104.62
349.057	110.49
349.44	114.11
349.823	129.25
350.206	162.24
350.588	230.04
350.971	246.76
351.354	272.07
351.737	268.68
352.119	298.96
352.502	303.03
352.884	319.53
353.267	323.37
353.65	345.29
354.032	334.89
354.414	355
354.797	364.95
355.179	364.72
355.562	371.73
355.944	369.24
356.326	374.89
356.709	367.43
357.091	390.26
357.473	362.91
357.855	374.44
358.238	386.87
358.62	389.13
359.002	379.18
359.384	372.63
359.766	370.37
360.148	374.67
360.53	401.33
360.912	403.59
361.294	380.54
361.676	389.81
362.057	393.65
362.439	397.94
362.821	392.07
363.203	404.95
363.584	398.39
363.966	365.4
364.348	379.64
364.729	384.16
365.111	363.82
365.493	383.25
365.874	382.8
366.256	366.08
366.637	369.24
367.019	369.47
367.4	374.21
367.781	359.75
368.163	357.94
368.544	381.22
368.925	363.82
369.306	379.64
369.688	367.66
370.069	384.61
370.45	374.44
370.831	390.48
371.212	362.24
371.593	360.88
371.974	395.68
372.355	362.69
372.736	405.62
373.117	385.06
373.498	395.46
373.879	381.22
374.26	373.54
374.641	364.5
375.021	377.6
375.402	404.5
375.783	394.33
376.163	392.97
376.544	393.65
376.925	390.94
377.305	400.2
377.686	403.37
378.066	412.86
378.447	383.48
378.827	417.6
379.208	404.04
379.588	433.87
379.968	416.47
380.349	432.97
380.729	425.96
381.109	411.5
381.489	408.11
381.87	419.86
382.25	414.21
382.63	419.41
383.01	421.67
383.39	435.45
383.77	439.3
384.15	433.19
384.53	426.42
384.91	437.26
385.29	442.01
385.67	440.43
386.049	450.14
386.429	461.89
386.809	463.02
387.189	444.72
387.568	447.88
387.948	470.93
388.328	479.97
388.707	472.52
389.087	492.63
389.466	472.97
389.846	481.56
390.225	492.18
390.605	461.67
390.984	496.47
391.363	493.76
391.743	482.01
392.122	503.7
392.501	500.31
392.881	493.76
393.26	503.48
393.639	479.52
394.018	500.09
394.397	506.64
394.776	490.59
395.155	508.22
395.534	523.59
395.913	523.14
396.292	544.15
396.671	527.66
397.05	533.31
397.429	548.45
397.808	538.73
398.186	505.06
398.565	536.24
398.944	531.27
399.323	557.94
399.701	543.25
400.08	555.68
400.458	541.67
400.837	573.98
401.215	561.1
401.594	568.56
401.972	562
402.351	565.62
402.729	569.24
403.107	612.85
403.486	591.83
403.864	602
404.242	622.57
404.62	606.52
404.999	590.48
405.377	600.2
405.755	610.14
406.133	629.12
406.511	605.17
406.889	624.38
407.267	629.57
407.645	630.7
408.023	644.04
408.401	650.59
408.779	637.48
409.156	653.3
409.534	666.41
409.912	683.81
410.29	686.97
410.667	683.13
411.045	685.17
411.422	685.62
411.8	694.43
412.178	735.79
412.555	712.28
412.933	754.32
413.31	724.94
413.687	757.93
414.065	739.63
414.442	743.92
414.819	739.18
415.197	759.29
415.574	766.29
415.951	771.49
416.328	774.65
416.705	766.52
417.082	797.03
417.46	790.02
417.837	780.76
418.214	804.03
418.591	817.59
418.967	805.16
419.344	807.42
419.721	817.37
420.098	829.12
420.475	836.8
420.852	842.68
421.228	850.58
421.605	840.87
421.982	847.65
422.358	870.47
422.735	843.58
423.111	852.39
423.488	869.12
423.864	888.1
424.241	893.97
424.617	905.5
424.994	897.59
425.37	918.38
425.746	887.42
426.123	923.35
426.499	948.66
426.875	954.76
427.251	941.66
427.627	956.8
428.003	959.51
428.379	998.6
428.756	966.97
429.132	1006.74
429.507	1009.22
429.883	1004.48
430.259	1001.32
430.635	1026.17
431.011	1045.16
431.387	1065.27
431.763	1054.2
432.138	1066.17
432.514	1067.3
432.89	1089.67
433.265	1094.42
433.641	1096.68
434.016	1130.58
434.392	1150.46
434.767	1148.2
435.143	1140.52
435.518	1156.11
435.894	1190.69
436.269	1201.76
436.644	1193.85
437.02	1232.04
437.395	1237.47
437.77	1205.83
438.145	1257.13
438.52	1245.38
438.895	1282.21
439.271	1240.86
439.646	1284.47
440.021	1304.13
440.395	1291.25
440.77	1290.8
441.145	1284.02
441.52	1343.23
441.895	1322.66
442.27	1325.15
442.645	1348.42
443.019	1341.65
443.394	1354.3
443.769	1326.5
444.143	1352.94
444.518	1364.92
444.892	1366.73
445.267	1373.96
445.641	1414.41
446.016	1383.45
446.39	1415.99
446.764	1421.87
447.139	1445.15
447.513	1435.65
447.887	1450.8
448.262	1442.66
448.636	1432.72
449.01	1490.34
449.384	1469.78
449.758	1510.68
450.132	1549.78
450.506	1506.61
450.88	1528.53
451.254	1543.22
451.628	1557.46
452.002	1591.36
452.376	1556.78
452.75	1595.42
453.123	1620.96
453.497	1645.59
453.871	1672.26
454.244	1644.46
454.618	1672.94
454.992	1725.59
455.365	1734.18
455.739	1768.98
456.112	1739.38
456.486	1791.13
456.859	1800.16
457.232	1863.89
457.606	1827.51
457.979	1861.63
458.352	1901.86
458.725	1921.74
459.099	1922.2
459.472	1948.86
459.845	2004.45
460.218	1990.22
460.591	2039.03
460.964	2079.25
461.337	2069.08
461.71	2116.09
462.083	2112.25
462.456	2130.33
462.829	2125.58
463.201	2181.4
463.574	2160.83
463.947	2239.02
464.32	2249.42
464.692	2255.97
465.065	2302.52
465.438	2295.52
465.81	2335.74
466.183	2372.58
466.555	2393.82
466.928	2402.18
467.3	2417.78
467.672	2515.4
468.045	2524.44
468.417	2535.06
468.789	2557.66
469.161	2562.18
469.534	2601.05
469.906	2648.5
470.278	2703.87
470.65	2714.49
471.022	2754.49
471.394	2800.59
471.766	2825.22
472.138	2885.11
472.51	2940.02
472.882	2946.35
473.253	2961.26
473.625	3053.69
473.997	3081.49
474.369	3113.8
474.74	3151.99
475.112	3182.5
475.484	3272.89
475.855	3322.16
476.227	3368.03
476.598	3419.56
476.97	3472.44
477.341	3526.22
477.713	3566.67
478.084	3629.95
478.455	3735.03
478.827	3756.05
479.198	3881.01
479.569	3922.37
479.94	3958.98
480.311	4060.22
480.682	4153.55
481.053	4275.81
481.424	4314.45
481.795	4385.86
482.166	4485.07
482.537	4538.17
482.908	4648
483.279	4722.12
483.65	4855.68
484.021	4953.53
484.391	5033.07
484.762	5114.43
485.133	5186.74
485.503	5297.7
485.874	5459.73
486.244	5515.32
486.615	5686.84
486.985	5790.34
487.356	5905.37
487.726	5952.82
488.097	6146.94
488.467	6264.23
488.837	6393.94
489.207	6484.11
489.578	6700.83
489.948	6847.49
490.318	6966.81
490.688	7122.28
491.058	7233.47
491.428	7433.46
491.798	7557.3
492.168	7820.57
492.538	7945.31
492.908	8108.7
493.278	8254.01
493.648	8352.76
494.017	8649.02
494.387	8793.2
494.757	8979.41
495.126	9205.17
495.496	9333.75
495.866	9545.95
496.235	9784.36
496.605	9966.05
496.974	10112.04
497.344	10465.93
497.713	10564.45
498.082	10830.89
498.452	11022.75
498.821	11286.02
499.19	11460.25
499.559	11694.14
499.928	11967.13
500.298	12282.37
500.667	12467.91
501.036	12621.8
501.405	12867.22
501.774	13096.59
502.143	13418.39
502.512	13570.93
502.88	13952.16
503.249	14099.05
503.618	14474.86
503.987	14650
504.356	15024.68
504.724	15271.67
505.093	15521.39
505.462	15743.98
505.83	16049.96
506.199	16253.12
506.567	16750.05
506.936	16879.99
507.304	17240.66
507.672	17523.14
508.041	17676.58
508.409	18054.88
508.777	18290.35
509.145	18584.81
509.514	18738.7
509.882	19213.72
510.25	19345.92
510.618	19688.28
510.986	19884.89
511.354	20175.05
511.722	20528.03
512.09	20785.65
512.458	20887.8
512.826	21298.63
513.193	21522.36
513.561	21849.81
513.929	22061.55
514.297	22367.53
514.664	22764.36
515.032	23037.12
515.4	23250.22
515.767	23463.78
516.135	23654.05
516.502	23705.58
516.869	24206.81
517.237	24595.95
517.604	24505.33
517.972	24985.77
518.339	25178.76
518.706	25370.39
519.073	25502.37
519.44	25884.5
519.808	26270.71
520.175	26388.22
520.542	26713.18
520.909	26954.98
521.276	27171.47
521.643	27548.19
522.009	27825.47
522.376	27975.52
522.743	28352.23
523.11	28714.26
523.477	29071.09
523.843	29142.72
524.21	29510.85
524.577	29834.68
524.943	30161.68
525.31	30209.59
525.676	30726.41
526.043	30961.88
526.409	31143.12
526.776	31565.48
527.142	31505.37
527.508	31952.14
527.874	32344.22
528.241	32404.78
528.607	32580.37
528.973	33076.4
529.339	33136.97
529.705	33682.72
530.071	33907.12
530.437	34063.05
530.803	34309.37
531.169	34590.26
531.535	34643.82
531.901	34767.21
532.267	35051.27
532.632	35266.86
532.998	35481.99
533.364	35698.26
533.73	35822.55
534.095	36206.94
534.461	36259.82
534.826	36464.11
535.192	36683.32
535.557	37076.3
535.923	37022.06
536.288	37186.58
536.653	37427.93
537.019	37417.99
537.384	37714.47
537.749	37805.77
538.114	37842.83
538.479	37928.71
538.845	38163.95
539.21	38262.03
539.575	38304.29
539.94	38531.18
540.305	38809.13
540.67	38737.5
541.034	39066.08
541.399	39163.7
541.764	39266.3
542.129	39312.17
542.494	39587.65
542.858	39711.94
543.223	39697.25
543.587	39962.78
543.952	39983.57
544.316	40217.23
544.681	40167.29
545.045	40488.19
545.41	40577.68
545.774	40598.01
546.138	40658.58
546.503	40874.17
546.867	40901.51
547.231	41266.7
547.595	41360.93
547.959	41389.18
548.324	41498.1
548.688	41617.42
549.052	41703.3
549.416	41829.85
549.779	42022.61
550.143	42086.11
550.507	42385.54
550.871	42435.71
551.235	42514.35
551.599	42983.49
551.962	43043.6
552.326	43152.3
552.689	43235.46
553.053	43110.26
553.417	43264.84
553.78	43702.11
554.143	43773.98
554.507	43893.75
554.87	44087.41
555.234	44534.41
555.597	44277.92
555.96	44606.5
556.323	44841.52
556.686	44780.73
557.05	45302.98
557.413	45231.11
557.776	45364.22
558.139	45654.6
558.502	45852.34
558.865	45845.33
559.228	46200.8
559.59	46417.97
559.953	46374.59
560.316	46856.15
560.679	46869.71
561.041	47207.78
561.404	47364.84
561.767	47701.78
562.129	47576.14
562.492	47876.24
562.854	47868.11
563.217	48143.35
563.579	48167.53
563.941	48415.89
564.304	48616.11
564.666	48960.51
565.028	48946.27
565.39	49117.56
565.753	49403.21
566.115	49380.61
566.477	49691.33
566.839	49795.29
567.201	50084.54
567.563	50014.94
567.925	50321.6
568.287	50308.95
568.648	50536.96
569.01	50790.51
569.372	50983.96
569.734	50911.42
570.095	51314.12
570.457	51397.5
570.819	51402.25
571.18	51489.93
571.542	51694.9
571.903	51758.4
572.265	51998.39
572.626	52133.3
572.987	52153.64
573.349	52428.89
573.71	52504.82
574.071	52582.78
574.432	52752.95
574.794	52913.4
575.155	52886.73
575.516	53051.92
575.877	53057.12
576.238	53175.99
576.599	53370.11
576.96	53421.86
577.32	53453.5
577.681	53570.1
578.042	53736.88
578.403	53773.26
578.763	53766.48
579.124	53804.45
579.485	54047.6
579.845	54212.57
580.206	54158.34
580.566	54165.57
580.927	54330.31
581.287	54511.09
581.648	54382.96
582.008	54667.48
582.368	54608.04
582.728	54679.45
583.089	54695.95
583.449	54691.88
583.809	54822.73
584.169	54919.9
584.529	54824.98
584.889	55149.04
585.249	54994.47
585.609	54864.53
585.969	55146.33
586.329	55095.94
586.688	55232.43
587.048	55165.54
587.408	55299.55
587.768	55410.28
588.127	55415.7
588.487	55427
588.846	55671.74
589.206	55491.86
589.565	55558.53
589.925	55749.71
590.284	55765.75
590.643	55819.76
591.003	55898.4
591.362	56082.13
591.721	56088.68
592.08	55998.97
592.44	56191.95
592.799	56137.04
593.158	56276.7
593.517	56167.1
593.876	56323.25
594.235	56367.32
594.593	56365.28
594.952	56412.97
595.311	56395.79
595.67	56556.69
596.029	56736.57
596.387	56728.21
596.746	56850.47
597.104	56672.85
597.463	56805.95
597.822	56967.53
598.18	56927.08
598.538	57012.05
598.897	57181.08
599.255	56993.52
599.613	57407.52
599.972	57241.42
600.33	57281.87
600.688	57307.18
601.046	57430.79
601.404	57594.18
601.762	57537.68
602.12	57694.29
602.478	57687.06
602.836	57762.08
603.194	57576.1
603.552	57784.23
603.91	57739.26
604.268	57860.16
604.625	57877.11
604.983	58041.17
605.341	57895.64
605.698	58114.84
606.056	58277.78
606.413	58176.31
606.771	58293.59
607.128	58327.27
607.485	58264.89
607.843	58350.54
608.2	58477.32
608.557	58582.63
608.914	58546.47
609.272	58761.6
609.629	58813.13
609.986	58864.2
610.343	58816.07
610.7	58991.43
611.057	59056.96
611.414	58996.17
611.771	59124.31
612.127	59150.07
612.484	59161.37
612.841	59261.48
613.198	59243.63
613.554	59230.74
613.911	59391.87
614.267	59479.33
614.624	59447.01
614.98	59559.55
615.337	59684.97
615.693	59711.18
616.05	59737.85
616.406	59844.97
616.762	59769.26
617.118	59870.73
617.475	59858.98
617.831	60047.45
618.187	60038.63
618.543	60092.87
618.899	60231.17
619.255	60134
619.611	60103.94
619.967	60219.65
620.323	60238.4
620.678	60165.64
621.034	60166.31
621.39	60198.63
621.746	60244.28
622.101	60495.57
622.457	60262.36
622.812	60399.98
623.168	60438.85
623.523	60430.49
623.879	60511.39
624.234	60351.17
624.589	60555.23
624.945	60520.2
625.3	60564.04
625.655	60572.4
626.01	60610.37
626.365	60637.94
626.72	60554.78
627.075	60579.41
627.43	60677.71
627.785	60592.74
628.14	60602.91
628.495	60638.84
628.85	60663.48
629.205	60581.22
629.559	60714.55
629.914	60616.7
630.269	60577.6
630.623	60521.33
630.978	60434.1
631.332	60632.74
631.687	60659.18
632.041	60624.61
632.396	60598.39
632.75	60555.68
633.104	60606.08
633.459	60462.8
633.813	60460.77
634.167	60458.96
634.521	60491.73
634.875	60516.36
635.229	60436.59
635.583	60332.18
635.937	60287.89
636.291	60359.3
636.645	60388.91
636.999	60281.11
637.352	60375.8
637.706	60191.4
638.06	60280.66
638.413	60269.14
638.767	60140.1
639.121	60173.54
639.474	60056.94
639.828	60021.01
640.181	60056.49
640.534	60089.93
640.888	59984.62
641.241	59907.79
641.594	59945.75
641.947	59992.98
642.301	59942.59
642.654	59922.7
643.007	59855.14
643.36	59885.19
643.713	59857.4
644.066	59890.16
644.419	59702.37
644.771	59456.73
645.124	59301.48
645.477	59232.55
645.83	59118.21
646.182	59145.32
646.535	59094.48
646.888	59161.59
647.24	59065.55
647.593	59187.13
647.945	59067.59
648.298	58972.67
648.65	58853.13
649.002	58737.65
649.355	58696.07
649.707	58617.2
650.059	58698.33
650.411	59010.19
650.763	59052.22
651.115	59400.68
651.467	59296.96
651.819	59332.21
652.171	59301.03
652.523	59169.5
652.875	59221.93
653.227	59150.52
653.578	59243.4
653.93	59119.34
654.282	58995.95
654.633	59053.57
654.985	59070.98
655.337	59057.19
655.688	59052.67
656.039	59080.01
656.391	58838.44
656.742	58914.37
657.094	58889.96
657.445	58898.1
657.796	58946.01
658.147	58883.64
658.498	58931.77
658.849	58940.58
659.2	58807.93
659.551	58783.07
659.902	58854.48
660.253	58755.28
660.604	58867.82
660.955	58711.89
661.306	58828.27
661.656	58758.89
662.007	58704.21
662.358	58698.33
662.708	58684.77
663.059	58659.23
663.409	58581.27
663.76	58687.93
664.11	58691.55
664.461	58617.43
664.811	58705.33
665.161	58607.48
665.511	58602.96
665.862	58642.29
666.212	58693.13
666.562	58658.1
666.912	58588.73
667.262	58489.07
667.612	58557.09
667.962	58607.26
668.312	58519.58
668.662	58680.48
669.011	58594.6
669.361	58525.23
669.711	58581.72
670.06	58473.02
670.41	58444.32
670.76	58460.37
671.109	58547.37
671.459	58462.4
671.808	58406.59
672.157	58527.03
672.507	58306.25
672.856	58418.11
673.205	58433.93
673.554	58430.09
673.904	58345.12
674.253	58499.01
674.602	58400.26
674.951	58078.46
675.3	57906.71
675.649	58372.46
675.998	58402.07
676.346	58359.81
676.695	58377.43
677.044	58201.85
677.393	58245.23
677.741	58362.07
678.09	58313.71
678.438	58214.95
678.787	58282.3
679.135	58220.6
679.484	58138.8
679.832	58210.21
680.181	58163.43
680.529	58139.93
680.877	58067.39
681.225	57977.9
681.573	58254.27
681.922	58075.07
682.27	58030.32
682.618	57980.16
682.966	57905.81
683.314	57948.74
683.661	57900.16
684.009	57834.85
684.357	57832.36
684.705	57765.92
685.053	57817.22
685.4	57688.64
685.748	57720.05
686.095	57666.49
686.443	57530.68
686.79	57548.53
687.138	57589.88
687.485	57572.71
687.832	57410
688.18	57472.37
688.527	57375.88
688.874	57355.77
689.221	57394.41
689.568	57308.54
689.915	57204.58
690.262	57209.78
690.609	57122.1
690.956	57017.24
691.303	57075.77
691.65	56935.21
691.997	56905.16
692.344	56769.79
692.69	56778.83
693.037	56842.11
693.383	56572.06
693.73	56675.11
694.077	56548.1
694.423	56531.83
694.769	56420.2
695.116	56457.03
695.462	56259.3
695.808	56265.85
696.155	56331.16
696.501	56137.04
696.847	56158.51
697.193	55973.43
697.539	56075.8
697.885	55906.31
698.231	55884.62
698.577	55826.77
698.923	55832.19
699.269	55555.14
699.614	55537.28
699.96	55474.46
700.306	55580.22
700.651	55409.15
700.997	55352.65
701.342	55258.65
701.688	55267.23
702.033	55135.94
702.379	55135.94
702.724	55047.58
703.069	55060.01
703.415	54739.79
703.76	54821.6
704.105	54764.65
704.45	54634.48
704.795	54592.45
705.14	54475.39
705.485	54538.89
705.83	54303.19
706.175	54461.15
706.52	54311.1
706.865	54189.97
707.209	54166.7
707.554	54122.86
707.899	54060.94
708.243	53943.88
708.588	53891.9
708.932	53697.56
709.277	53799.93
709.621	53805.58
709.966	53580.05
710.31	53546.37
710.654	53335.76
710.998	53416.89
711.342	53441.97
711.687	53200.85
712.031	53206.5
712.375	53041.53
712.719	53140.06
713.063	52931.02
713.407	53154.07
713.75	52878.14
714.094	52844.92
714.438	52726.28
714.782	52714.08
715.125	52663.01
715.469	52728.54
715.812	52457.59
716.156	52474.31
716.499	52491.04
716.843	52381.43
717.186	52254.66
717.53	52375.33
717.873	52304.37
718.216	52254.43
718.559	52186.41
718.902	51930.6
719.246	51943.03
719.589	51931.73
719.932	51813.99
720.275	51735.57
720.617	51797.95
720.96	51639.08
721.303	51648.35
721.646	51744.61
721.989	51430.5
722.331	51525.18
722.674	51486.09
723.016	51444.28
723.359	51382.59
723.701	51438.18
724.044	51350.05
724.386	51111.41
724.729	51099.89
725.071	51168.13
725.413	51114.57
725.755	50972.2
726.097	50966.1
726.439	50849.5
726.782	50727.92
727.124	50992.09
727.465	50774.47
727.807	50740.12
728.149	50730.18
728.491	50502.84
728.833	50614.47
729.175	50512.33
729.516	50461.94
729.858	50408.6
730.199	50497.42
730.541	50427.13
730.882	50250.87
731.224	50284.54
731.565	50272.11
731.906	50186.46
732.248	50168.61
732.589	49960.25
732.93	49935.17
733.271	49821.5
733.612	49897.66
733.953	49967.49
734.294	49883.42
734.635	49622.64
734.976	49751.67
735.317	49714.16
735.658	49601.39
735.999	49520.27
736.339	49518.01
736.68	49492.7
737.021	49447.73
737.361	49260.61
737.702	49442.08
738.042	49269.88
738.383	49306.03
738.723	49375.64
739.063	49099.49
739.404	49219.48
739.744	49094.74
740.084	48957.57
740.424	49039.37
740.764	49017.23
741.104	49079.37
741.444	48828.53
741.784	48713.51
742.124	48814.97
742.464	48750.79
742.804	48676.67
743.143	48516
743.483	48652.94
743.823	48467.64
744.162	48522.1
744.502	48591.25
744.841	48367.53
745.181	48528.65
745.52	48319.17
745.86	48361.2
746.199	48210.92
746.538	48143.58
746.877	48213.86
747.216	48210.7
747.556	48134.09
747.895	48201.66
748.234	47983.81
748.573	47934.54
748.911	47859.97
749.25	47867.88
749.589	47677.6
749.928	47734.1
750.267	47720.31
750.605	47696.81
750.944	47523.71
751.283	47469.02
751.621	47582.01
751.96	47311.74
752.298	47324.84
752.636	47255.24
752.975	47109.93
753.313	46982.93
753.651	47140.67
753.989	46910.39
754.327	46939.99
754.666	46648.25
755.004	46716.72
755.342	46733.9
755.679	46562.15
756.017	46219.34
756.355	46392.66
756.693	46204.42
757.031	46226.57
757.368	46162.84
757.706	46021.37
758.044	45918.33
758.381	46044.88
758.719	45885.56
759.056	45773.47
759.394	45700.71
759.731	45481.95
760.068	45322.86
760.405	45410.77
760.743	45214.16
761.08	45114.73
761.417	44945.7
761.754	44765.14
762.091	44853.5
762.428	44555.2
762.765	44424.81
763.102	44465.26
763.438	44317.92
763.775	44083.12
764.112	44204.02
764.449	44080.41
764.785	43983.01
765.122	43567.43
765.458	43449.92
765.795	43475.23
766.131	43351.16
766.467	43242.69
766.804	42983.26
767.14	42714.12
767.476	42691.97
767.812	42517.29
768.148	42666.89
768.485	42618.07
768.821	42205.2
769.157	42066.68
769.492	42109.84
769.828	41999.56
770.164	41600.93
770.5	41499.69
770.836	41368.62
771.171	41405.68
771.507	41288.17
771.842	40830.1
772.178	40887.05
772.513	40854.05
772.849	40597.11
773.184	40597.34
773.519	40293.62
773.855	40283.67
774.19	40211.36
774.525	39967.75
774.86	39921.65
775.195	39585.61
775.53	39648.66
775.865	39303.81
776.2	39088.22
776.535	39000.77
776.87	39033.08
777.205	38696.14
777.539	38563.94
777.874	38668.12
778.209	38396.49
778.543	38265.42
778.878	38131.19
779.212	38161.24
779.547	37810.07
779.881	37864.3
780.215	37564.65
780.55	37647.58
780.884	37265.67
781.218	37152.91
781.552	37057.77
781.886	36944.78
782.22	36687.61
782.554	36542.3
782.888	36189.99
783.222	36296.66
783.556	36157.23
783.889	35917.23
784.223	35713.17
784.557	35705.71
784.89	35767.18
785.224	35549.79
785.557	35272.96
785.891	35427.3
786.224	35298.27
786.558	35121.77
786.891	34854.21
787.224	34817.6
787.557	34565.63
787.891	34655.8
788.224	34460.55
788.557	34384.84
788.89	34195.47
789.223	34216.26
789.556	33980.56
789.888	33887.46
790.221	33706.44
790.554	33616.96
790.887	33536.51
791.219	33376.74
791.552	33317.75
791.884	33179
792.217	33097.65
792.549	33003.86
792.882	32627.38
793.214	32641.61
793.546	32559.58
793.879	32383.77
794.211	32229.87
794.543	32276.65
794.875	32159.14
795.207	32090.22
795.539	31914.4
795.871	32075.3
796.203	31681.41
796.535	31545.37
796.867	31485.26
797.198	31401.65
797.53	31266.73
797.862	31136.79
798.193	31221.76
798.525	30989.45
798.856	31143.35
799.188	30673.76
799.519	30656.35
799.85	30465.63
800.182	30551.5
800.513	30656.13
800.844	30201.9
801.175	30418.85
801.506	30278.74
801.837	30141.79
802.168	29985.86
802.499	29975.92
802.83	29851.4
803.161	29622.71
803.491	29638.08
803.822	29638.53
804.153	29443.73
804.483	29252.78
804.814	29099.79
805.145	29216.62
805.475	29092.33
805.805	29023.4
806.136	28958.77
806.466	28976.85
806.796	28833.35
807.126	28599.91
807.457	28557.88
807.787	28635.17
808.117	28529.41
808.447	28419.58
808.777	28460.93
809.107	28138.23
809.436	28128.29
809.766	28191.56
810.096	28138.91
810.426	27926.03
810.755	28043.09
811.085	27954.28
811.414	27930.78
811.744	27647.17
812.073	27697.11
812.403	27652.14
812.732	27355.88
813.061	27622.08
813.39	27317.23
813.719	27284.24
814.049	27389.55
814.378	27199.5
814.707	27102.32
815.036	27072.72
815.365	26965.38
815.693	26807.64
816.022	26740.53
816.351	26741.88
816.68	26440.87
817.008	26640.42
817.337	26367.2
817.665	26424.6
817.994	26397.48
818.322	26374.89
818.651	26237.49
818.979	26223.7
819.307	26330.37
819.636	26213.53
819.964	26025.97
820.292	26144.16
820.62	26027.55
820.948	26195.91
821.276	26189.58
821.604	26059.41
821.932	26161.56
822.259	25985.52
822.587	25997.27
822.915	25941.22
823.243	26063.71
823.57	25915.24
823.898	25970.38
824.225	25897.61
824.553	25983.71
824.88	25857.61
825.207	26042.24
825.535	25925.86
825.862	26073.2
826.189	25911.17
826.516	26024.61
826.843	26156.36
827.17	26102.8
827.497	26082.24
827.824	26081.56
828.151	26113.42
828.478	25966.76
828.805	26076.14
829.131	26006.31
829.458	26085.63
829.785	25870.94
830.111	25867.33
830.438	26028
830.764	25896.25
831.09	25930.15
831.417	25921.56
831.743	26100.54
832.069	25979.42
832.395	25977.83
832.722	25972.41
833.048	25771.74
833.374	25940.77
833.7	25747.11
834.026	25948.91
834.351	25795.69
834.677	25852.41
835.003	25872.75
835.329	25743.49
835.654	25709.59
835.98	25576.94
836.306	25820.1
836.631	25671.4
836.956	25724.73
837.282	25630.5
837.607	25657.62
837.932	25643.38
838.258	25641.12
838.583	25522.93
838.908	25335.59
839.233	25417.4
839.558	25278.87
839.883	25177.18
840.208	25056.5
840.533	25217.18
840.858	25223.73
841.182	25209.49
841.507	25048.14
841.832	25000.68
842.156	25059.21
842.481	24976.96
842.805	24916.17
843.13	24713.01
843.454	24807.47
843.778	24680.92
844.103	24603.86
844.427	24564.76
844.751	24535.39
845.075	24526.12
845.399	24427.37
845.723	24329.06
846.047	24340.81
846.371	24101.73
846.695	24046.13
847.019	23941.05
847.343	23787.83
847.666	23757.1
847.99	23588.74
848.313	23661.28
848.637	23544.45
848.96	23529.31
849.284	23461.06
849.607	23216.55
849.931	23280.96
850.254	22969.1
850.577	22879.61
850.9	22822.89
851.223	22790.8
851.546	22739.5
851.869	22559.17
852.192	22743.57
852.515	22476.91
852.838	22289.12
853.161	22286.18
853.483	22113.3
853.806	22144.26
854.129	22111.04
854.451	22106.52
854.774	21874.66
855.096	21743.59
855.419	21836.93
855.741	21856.13
856.063	21647.78
856.385	21559.42
856.708	21481.45
857.03	21356.26
857.352	21385.64
857.674	21393.32
857.996	21115.36
858.318	20998.3
858.64	21094.8
858.961	21067.91
859.283	20962.15
859.605	20836.73
859.926	20935.93
860.248	20953.33
860.57	20718.09
860.891	20773.68
861.212	20606.45
861.534	20572.33
861.855	20483.97
862.176	20523.06
862.498	20533.23
862.819	20521.71
863.14	20447.13
863.461	20443.52
863.782	20293.92
864.103	20284.88
864.424	20219.12
864.745	20258.66
865.065	20141.15
865.386	19966.24
865.707	20134.15
866.027	20104.09
866.348	20090.98
866.668	20060.25
866.989	20010.99
867.309	19834.94
867.63	19791.56
867.95	19911.55
868.27	19759.01
868.59	19916.3
868.91	19788.17
869.23	19791.56
869.55	19644.22
869.87	19722.86
870.19	19557.21
870.51	19629.75
870.83	19485.35
871.15	19453.71
871.469	19417.33
871.789	19588.85
872.109	19482.64
872.428	19341.85
872.748	19455.75
873.067	19396.31
873.386	19335.3
873.706	19254.17
874.025	19191.12
874.344	19180.95
874.663	19325.13
874.982	19105.7
875.301	19177.56
875.62	19153.61
875.939	19092.59
876.258	18943.44
876.577	18964.23
876.896	18878.13
877.214	18974.85
877.533	18999.49
877.852	18905.7
878.17	18919.49
878.489	18983.22
878.807	18748.19
879.125	18790.68
879.444	18700.29
879.762	18629.55
880.08	18741.41
880.398	18633.17
880.716	18650.57
881.034	18586.39
881.352	18519.72
881.67	18429.56
881.988	18610.34
882.306	18389.56
882.624	18392.72
882.941	18169.23
883.259	18250.13
883.577	18192.73
883.894	18090.81
884.212	18119.28
884.529	18011.94
884.846	18010.13
885.164	17994.54
885.481	17983.92
885.798	17972.85
886.115	17801.33
886.432	17852.4
886.75	17697.6
887.067	17758.84
887.383	17733.3
887.7	17748.22
888.017	17587.55
888.334	17643.14
888.651	17646.75
888.967	17542.35
889.284	17319.53
889.6	17408.34
889.917	17280.21
890.233	17284.05
890.55	17258.29
890.866	17239.31
891.182	17193.66
891.498	17182.13
891.815	17011.97
892.131	17075.47
892.447	17003.61
892.763	16870.95
893.079	16843.84
893.395	16750.96
893.71	16762.71
894.026	16708.47
894.342	16771.52
894.657	16606.78
894.973	16545.31
895.289	16501.25
895.604	16499.44
895.92	16325.21
896.235	16372.66
896.55	16314.59
896.865	16286.34
897.181	16199.33
897.496	16181.48
897.811	16122.05
898.126	15974.03
898.441	15924.09
898.756	15932.45
899.071	15780.36
899.386	15855.61
899.7	15704.66
900.015	15684.09
900.33	15461.95
900.644	15525.91
900.959	15530.42
901.273	15460.37
901.588	15427.6
901.902	15329.53
902.216	15319.58
902.531	15300.83
902.845	15269.87
903.159	15095.18
903.473	15080.04
903.787	15064.67
904.101	14929.76
904.415	14902.64
904.729	14856.09
905.042	14747.17
905.356	14789.65
905.67	14687.51
905.984	14782.87
906.297	14638.7
906.611	14514.18
906.924	14459.49
907.237	14463.11
907.551	14380.17
907.864	14318.03
908.177	14312.83
908.491	14169.1
908.804	14143.79
909.117	14016.34
909.43	14010.46
909.743	13974.08
910.056	13993.74
910.368	13864.93
910.681	13796.46
910.994	13719.17
911.307	13803.92
911.619	13554.88
911.932	13667.2
912.244	13443.47
912.557	13606.18
912.869	13420.88
913.181	13389.69
913.494	13299.98
913.806	13267.43
914.118	13143.6
914.43	13146.31
914.742	13112.18
915.054	13038.29
915.366	13020.89
915.678	12920.78
915.99	12932.3
916.302	12792.64
916.613	12753.1
916.925	12675.13
917.236	12767.79
917.548	12680.56
917.859	12593.55
918.171	12539.09
918.482	12359.43
918.794	12436.04
919.105	12311.98
919.416	12315.14
919.727	12295.48
920.038	12262.04
920.349	12106.79
920.66	12145.2
920.971	12116.73
921.282	12049.61
921.593	11852.78
921.903	11867.02
922.214	11881.71
922.525	11803.97
922.835	11700.47
923.146	11679.9
923.456	11578.21
923.767	11582.28
924.077	11532.56
924.387	11554.94
924.697	11400.82
925.008	11343.64
925.318	11253.02
925.628	11326.24
925.938	11220.03
926.248	11129.41
926.558	11111.33
926.867	11055.06
927.177	11055.29
927.487	10945.69
927.796	10900.49
928.106	10924.9
928.416	10828.85
928.725	10828.18
929.034	10716.99
929.344	10760.15
929.653	10685.81
929.962	10600.84
930.271	10589.09
930.581	10532.14
930.89	10503.89
931.199	10478.35
931.508	10371.69
931.817	10339.38
932.125	10316.32
932.434	10257.12
932.743	10172.83
933.051	10200.4
933.36	10118.59
933.669	10021.19
933.977	9960.63
934.286	10020.06
934.594	9905.94
934.902	9870.46
935.21	9819.84
935.519	9777.58
935.827	9774.42
936.135	9734.65
936.443	9679.51
936.751	9587.3
937.059	9528.77
937.367	9522.22
937.674	9428.89
937.982	9512.73
938.29	9425.05
938.597	9361.77
938.905	9329.01
939.213	9309.57
939.52	9245.84
939.827	9291.49
940.135	9213.75
940.442	9181.21
940.749	9065.96
941.056	9151.61
941.363	9037.71
941.67	9012.18
941.977	8957.72
942.284	8934.67
942.591	8830.94
942.898	8829.13
943.205	8798.17
943.511	8707.78
943.818	8698.06
944.125	8669.81
944.431	8610.83
944.738	8634.79
945.044	8600.66
945.35	8543.49
945.657	8480.21
945.963	8466.66
946.269	8380.33
946.575	8385.98
946.881	8365.19
947.187	8334.91
947.493	8174.46
947.799	8206.32
948.105	8146.21
948.41	8177.17
948.716	8073.67
949.022	8030.74
949.327	8051.53
949.633	7935.6
949.938	7949.38
950.244	7940.57
950.549	7881.59
950.854	7818.76
951.16	7856.5
951.465	7775.37
951.77	7752.32
952.075	7723.4
952.38	7697.64
952.685	7666.68
952.99	7548.94
953.294	7627.81
953.599	7488.6
953.904	7517.08
954.209	7373.58
954.513	7469.17
954.818	7405.89
955.122	7350.08
955.426	7355.27
955.731	7263.52
956.035	7254.71
956.339	7287.93
956.643	7214.49
956.948	7173.13
957.252	7099.01
957.556	7106.01
957.86	7067.6
958.163	7090.65
958.467	6996.19
958.771	7022.17
959.075	7021.04
959.378	6942.18
959.682	6882.74
959.985	6818.34
960.289	6804.1
960.592	6797.55
960.896	6697.66
961.199	6700.15
961.502	6671.22
961.805	6653.6
962.108	6625.12
962.411	6548.29
962.714	6533.37
963.017	6568.63
963.32	6535.41
963.623	6500.61
963.926	6539.25
964.228	6455.64
964.531	6388.97
964.833	6412.92
965.136	6372.93
965.438	6261.52
965.741	6249.99
966.043	6258.8
966.345	6236.66
966.648	6198.69
966.95	6201.86
967.252	6111.01
967.554	6126.6
967.856	6104.46
968.158	6035.99
968.46	6012.03
968.761	6000.05
969.063	5972.48
969.365	5988.3
969.666	5932.71
969.968	5850.23
970.269	5823.11
970.571	5819.72
970.872	5810.91
971.174	5785.37
971.475	5726.39
971.776	5713.51
972.077	5690.46
972.378	5690.68
972.679	5604.36
972.98	5659.72
973.281	5611.59
973.582	5554.42
973.883	5520.52
974.183	5522.1
974.484	5539.73
974.785	5437.36
975.085	5473.29
975.386	5439.16
975.686	5424.48
975.986	5364.82
976.287	5362.33
976.587	5271.71
976.887	5284.37
977.187	5294.08
977.487	5205.95
977.787	5232.39
978.087	5179.96
978.387	5170.92
978.687	5128.21
978.987	5164.82
979.286	5094.54
979.586	5078.04
979.885	5054.99
980.185	5050.25
980.484	5035.11
980.784	5026.97
981.083	4982.45
981.382	4949.23
981.682	4905.39
981.981	4935.45
982.28	4887.54
982.579	4860.65
982.878	4827.2
983.177	4783.81
983.475	4810.93
983.774	4753.99
984.073	4737.94
984.372	4728.68
984.67	4688.68
984.969	4705.4
985.267	4662.91
985.566	4629.47
985.864	4585.4
986.162	4621.56
986.461	4562.8
986.759	4541.56
987.057	4499.08
987.355	4509.92
987.653	4497.27
987.951	4438.06
988.249	4445.29
988.547	4398.29
988.844	4377.27
989.142	4348.12
989.44	4343.37
989.737	4371.85
990.035	4329.59
990.332	4286.2
990.63	4257.05
990.927	4269.93
991.224	4237.16
991.521	4253.66
991.819	4201.46
992.116	4155.58
992.413	4150.39
992.71	4112.87
993.006	4065.42
993.303	4064.74
993.6	4048.47
993.897	4077.84
994.193	4015.93
994.49	4046.21
994.787	3977.96
995.083	3953.55
995.379	3935.7
995.676	3894.35
995.972	3918.98
996.268	3919.2
996.565	3893.44
996.861	3865.19
997.157	3832.88
997.453	3803.5
997.749	3789.26
998.044	3754.01
998.34	3730.96
998.636	3720.57
998.932	3715.14
999.227	3676.5
999.523	3686.22
999.818	3651.87
1000.114	3637.4
1000.409	3603.96
1000.704	3577.07
1001	3566.67
1001.295	3540.91
1001.59	3559.44
1001.885	3537.97
1002.18	3491.65
1002.475	3467.01
1002.77	3413.23
1003.065	3421.14
1003.359	3448.71
1003.654	3424.75
1003.949	3414.36
1004.243	3363.29
1004.538	3324.19
1004.832	3320.58
1005.127	3321.71
1005.421	3314.02
1005.715	3273.57
1006.009	3237.19
1006.304	3200.13
1006.598	3198.55
1006.892	3170.3
1007.186	3153.8
1007.48	3151.09
1007.773	3107.25
1008.067	3102.05
1008.361	3091.88
1008.655	3056.85
1008.948	3042.17
1009.242	3026.12
1009.535	2992.68
1009.829	3008.72
1010.122	2941.83
1010.415	2931.66
1010.708	2910.42
1011.001	2955.84
1011.295	2901.6
1011.588	2858.89
1011.881	2855.05
1012.173	2863.87
1012.466	2820.48
1012.759	2808.27
1013.052	2827.26
1013.344	2803.75
1013.637	2769.18
1013.93	2752.68
1014.222	2739.35
1014.514	2712.68
1014.807	2697.99
1015.099	2635.4
1015.391	2644.44
1015.683	2642.63
1015.976	2621.61
1016.268	2612.12
1016.56	2563.99
1016.851	2527.6
1017.143	2534.16
1017.435	2517.66
1017.727	2520.15
1018.018	2519.92
1018.31	2526.7
1018.602	2485.34
1018.893	2466.14
1019.185	2428.85
1019.476	2429.07
1019.767	2414.16
1020.058	2413.03
1020.35	2348.62
1020.641	2374.61
1020.932	2340.94
1021.223	2297.55
1021.514	2302.52
1021.804	2264.11
1022.095	2282.86
1022.386	2250.32
1022.677	2234.5
1022.967	2254.16
1023.258	2198.57
1023.548	2179.82
1023.839	2176.2
1024.129	2138.23
1024.419	2152.25
1024.709	2151.57
1025	2130.78
1025.29	2126.26
1025.58	2058.24
1025.87	2045.58
1026.16	2034.06
1026.449	2046.71
1026.739	2003.32
1027.029	1999.03
1027.319	2003.1
1027.608	2029.09
1027.898	1957.45
1028.187	1929.65
1028.477	1960.61
1028.766	1923.1
1029.055	1894.17
1029.344	1910.44
1029.634	1842.65
1029.923	1892.14
1030.212	1825.02
1030.501	1817.79
1030.79	1807.62
1031.078	1801.97
1031.367	1798.81
1031.656	1775.31
1031.945	1770.33
1032.233	1766.72
1032.522	1755.19
1032.81	1735.99
1033.099	1717.91
1033.387	1737.79
1033.675	1721.52
1033.963	1673.84
1034.251	1665.25
1034.54	1659.15
1034.828	1650.11
1035.116	1656.21
1035.403	1604.46
1035.691	1625.93
1035.979	1597.91
1036.267	1568.31
1036.554	1584.8
1036.842	1573.5
1037.129	1534.63
1037.417	1538.7
1037.704	1546.39
1037.992	1530.79
1038.279	1525.14
1038.566	1509.78
1038.853	1509.78
1039.14	1509.78
