Data from 108_FLMS001491_007.txt Node
Date: Thu Apr 12 17:07:51 BST 2018
User: hsy
Spectrometer: FLMS00149
Trigger mode: 0
Integration Time (sec): 1.000000E-2
Scans to average: 10
Electric dark correction enabled: true
Nonlinearity correction enabled: false
Boxcar width: 0
XAxis mode: Wavelengths
Number of Pixels in Spectrum: 2048
>>>>>Begin Spectral Data<<<<<
341.393	-12.56
341.776	-12.56
342.16	-12.56
342.543	-67.47
342.927	-68.6
343.31	-53.23
343.693	-70.18
344.077	-74.48
344.46	-67.47
344.843	-50.97
345.226	-48.04
345.61	-29.05
345.993	-28.6
346.376	-6.45
346.759	11.17
347.142	25.63
347.525	42.36
347.908	59.53
348.291	88.68
348.674	85.75
349.057	115.35
349.44	127.78
349.823	157.16
350.206	186.31
350.588	227.89
350.971	252.75
351.354	250.49
351.737	265.4
352.119	283.26
352.502	310.83
352.884	316.02
353.267	332.29
353.65	341.78
354.032	329.36
354.414	350.82
354.797	355.57
355.179	372.29
355.562	378.17
355.944	381.78
356.326	373.2
356.709	380.2
357.091	408
357.473	390.15
357.855	388.79
358.238	389.92
358.62	394.44
359.002	391.5
359.384	381.11
359.766	399.41
360.148	393.99
360.53	398.73
360.912	364.38
361.294	375
361.676	403.25
362.057	377.94
362.439	392.86
362.821	381.33
363.203	361.22
363.584	393.08
363.966	368
364.348	385.85
364.729	377.72
365.111	372.52
365.493	384.5
365.874	377.49
366.256	377.26
366.637	356.47
367.019	396.47
367.4	380.88
367.781	375.23
368.163	367.32
368.544	395.57
368.925	369.58
369.306	374.78
369.688	371.39
370.069	374.1
370.45	407.55
370.831	396.92
371.212	360.32
371.593	404.38
371.974	394.66
372.355	383.82
372.736	377.94
373.117	385.85
373.498	398.96
373.879	384.5
374.26	390.15
374.641	395.12
375.021	403.93
375.402	407.09
375.783	396.7
376.163	415
376.544	399.64
376.925	427.21
377.305	424.95
377.686	410.48
378.066	407.77
378.447	420.65
378.827	409.58
379.208	425.85
379.588	433.99
379.968	421.56
380.349	440.99
380.729	417.94
381.109	429.92
381.489	445.74
381.87	428.56
382.25	443.03
382.63	432.63
383.01	430.37
383.39	454.55
383.77	437.15
384.15	443.03
384.53	458.39
384.91	433.99
385.29	453.42
385.67	456.81
386.049	456.36
386.429	460.43
386.809	464.27
387.189	480.76
387.568	469.47
387.948	472.4
388.328	475.57
388.707	476.92
389.087	482.8
389.466	485.06
389.846	454.78
390.225	495.91
390.605	482.12
390.984	487.09
391.363	499.29
391.743	502.23
392.122	509.69
392.501	495.23
392.881	503.59
393.26	516.02
393.639	521.89
394.018	517.6
394.397	492.74
394.776	531.16
395.155	529.35
395.534	520.54
395.913	527.77
396.292	516.47
396.671	534.32
397.05	547.43
397.429	544.94
397.808	558.95
398.186	527.77
398.565	571.16
398.944	547.43
399.323	556.02
399.701	548.79
400.08	552.85
400.458	544.94
400.837	557.15
401.215	570.25
401.594	586.52
401.972	569.8
402.351	565.73
402.729	579.52
403.107	590.37
403.486	595.11
403.864	583.59
404.242	590.37
404.62	596.69
404.999	616.13
405.377	627.88
405.755	626.75
406.133	629.23
406.511	622
406.889	660.19
407.267	641.89
407.645	661.78
408.023	662.23
408.401	672.85
408.779	659.06
409.156	685.73
409.534	658.16
409.912	677.37
410.29	696.8
410.667	706.75
411.045	696.13
411.422	715.11
411.8	726.63
412.178	721.21
412.555	714.88
412.933	743.13
413.31	735.67
413.687	760.98
414.065	777.48
414.442	761.89
414.819	764.15
415.197	799.4
415.574	799.4
415.951	797.59
416.328	779.29
416.705	801.89
417.082	807.54
417.46	824.26
417.837	821.32
418.214	831.72
418.591	810.02
418.967	834.43
419.344	866.97
419.721	871.04
420.098	833.75
420.475	864.26
420.852	867.42
421.228	843.92
421.605	866.74
421.982	863.58
422.358	880.75
422.735	894.31
423.111	904.26
423.488	905.84
423.864	887.99
424.241	929.11
424.617	912.17
424.994	940.19
425.37	934.99
425.746	932.05
426.123	968.43
426.499	942.9
426.875	967.76
427.251	962.11
427.627	981.09
428.003	986.51
428.379	1006.63
428.756	991.94
429.132	1017.25
429.507	1047.3
429.883	1037.81
430.259	1054.53
430.635	1077.58
431.011	1069.68
431.387	1074.19
431.763	1097.92
432.138	1118.04
432.514	1120.75
432.89	1116.68
433.265	1127.75
433.641	1140.18
434.016	1166.85
434.392	1158.94
434.767	1207.75
435.143	1197.13
435.518	1189.9
435.894	1231.25
436.269	1217.24
436.644	1239.84
437.02	1250.01
437.395	1252.72
437.77	1287.07
438.145	1276
438.52	1303.12
438.895	1306.05
439.271	1309.89
439.646	1343.79
440.021	1348.99
440.395	1319.16
440.77	1310.12
441.145	1363.68
441.52	1374.07
441.895	1398.25
442.27	1362.1
442.645	1373.85
443.019	1392.15
443.394	1377.46
443.769	1399.38
444.143	1427.18
444.518	1431.93
444.892	1419.72
445.267	1439.61
445.641	1435.54
446.016	1436.9
446.39	1459.04
446.764	1485.71
447.139	1488.2
447.513	1496.78
447.887	1492.26
448.262	1480.51
448.636	1519.15
449.01	1536.33
449.384	1543.56
449.758	1525.03
450.132	1578.14
450.506	1547.63
450.88	1586.05
451.254	1567.97
451.628	1615.2
452.002	1663.33
452.376	1641.64
452.75	1657.46
453.123	1673.5
453.497	1700.39
453.871	1695.2
454.244	1758.47
454.618	1786.49
454.992	1761.18
455.365	1781.29
455.739	1813.38
456.112	1866.26
456.486	1861.97
456.859	1875.3
457.232	1893.38
457.606	1909.2
457.979	1914.4
458.352	1960.73
458.725	1976.32
459.099	2037.33
459.472	2006.83
459.845	2068.29
460.218	2100.16
460.591	2114.62
460.964	2111.68
461.337	2193.94
461.71	2214.96
462.083	2221.06
462.456	2270.55
462.829	2238.68
463.201	2292.24
463.574	2274.39
463.947	2304.22
464.32	2369.75
464.692	2376.08
465.065	2377.21
465.438	2424.67
465.81	2478.68
466.183	2501.28
466.555	2506.47
466.928	2550.09
467.3	2518.68
467.672	2557.55
468.045	2623.31
468.417	2661.95
468.789	2673.02
469.161	2708.05
469.534	2738.56
469.906	2767.26
470.278	2813.81
470.65	2845.22
471.022	2871.44
471.394	2932.45
471.766	2913.47
472.138	2996.86
472.51	3025.1
472.882	3053.8
473.253	3116.85
473.625	3194.59
473.997	3227.81
474.369	3281.82
474.74	3287.47
475.112	3345.77
475.484	3435.49
475.855	3467.35
476.227	3522.49
476.598	3590.29
476.97	3651.08
477.341	3723.39
477.713	3798.42
478.084	3793.45
478.455	3958.64
478.827	3942.82
479.198	4071.4
479.569	4104.4
479.94	4219.87
480.311	4218.29
480.682	4396.14
481.053	4471.39
481.424	4564.5
481.795	4589.13
482.166	4645.17
482.537	4802.01
482.908	4867.77
483.279	4936.69
483.65	5131.04
484.021	5217.36
484.391	5296.91
484.762	5320.64
485.133	5436.79
485.503	5597.24
485.874	5701.19
486.244	5765.15
486.615	5901.41
486.985	6036.1
487.356	6220.27
487.726	6287.84
488.097	6441.29
488.467	6580.04
488.837	6737.55
489.207	6859.13
489.578	7046.02
489.948	7137.76
490.318	7312.45
490.688	7441.26
491.058	7638.77
491.428	7756.51
491.798	7961.7
492.168	8158.08
492.538	8282.59
492.908	8464.06
493.278	8689.59
493.648	8782.24
494.017	9036.92
494.387	9212.96
494.757	9429.68
495.126	9595.1
495.496	9750.58
495.866	9963.9
496.235	10238.02
496.605	10368.87
496.974	10630.1
497.344	10823.32
497.713	11054.95
498.082	11245.9
498.452	11454.49
498.821	11624.65
499.19	11919.33
499.559	12154.36
499.928	12368.14
500.298	12699.2
500.667	12931.06
501.036	13120.66
501.405	13394.32
501.774	13566.3
502.143	13926.96
502.512	14120.18
502.88	14432.71
503.249	14667.96
503.618	14991.8
503.987	15189.08
504.356	15455.96
504.724	15695.28
505.093	15974.14
505.462	16279.67
505.83	16468.59
506.199	16743.16
506.567	17156.26
506.936	17422.47
507.304	17772.96
507.672	18089.57
508.041	18266.06
508.409	18618.82
508.777	18948.75
509.145	19214.73
509.514	19402.75
509.882	19719.81
510.25	19923.42
510.618	20256.52
510.986	20370.41
511.354	20784.19
511.722	21178.3
512.09	21440.89
512.458	21597.27
512.826	21999.07
513.193	22190.02
513.561	22437.48
513.929	22707.07
514.297	23031.81
514.664	23334.63
515.032	23473.38
515.4	23845.8
515.767	24124.44
516.135	24352.9
516.502	24344.77
516.869	24791.09
517.237	25173.45
517.604	25115.37
517.972	25542.7
518.339	25817.95
518.706	26122.58
519.073	26188.34
519.44	26574.32
519.808	26850.92
520.175	27140.18
520.542	27402.99
520.909	27707.62
521.276	27906.26
521.643	28243.2
522.009	28414.72
522.376	28779.91
522.743	29031.88
523.11	29403.17
523.477	29751.86
523.843	29853.33
524.21	30327.21
524.577	30526.53
524.943	30795.9
525.31	30922.68
525.676	31459.38
526.043	31620.74
526.409	31929.88
526.776	32257.33
527.142	32500.94
527.508	32746.81
527.874	33081.71
528.241	33323.74
528.607	33511.99
528.973	33897.06
529.339	33988.13
529.705	34507.44
530.071	34692.52
530.437	34896.13
530.803	35143.36
531.169	35392.84
531.535	35437.36
531.901	35722.1
532.267	35896.1
532.632	36116.44
532.998	36326.38
533.364	36594.39
533.73	36752.35
534.095	37098.56
534.461	37168.84
534.826	37446.8
535.192	37552.11
535.557	37903.28
535.923	37884.98
536.288	38136.5
536.653	38219.88
537.019	38353.21
537.384	38475.25
537.749	38638.63
538.114	38854.9
538.479	38853.99
538.845	39137.83
539.21	39218.95
539.575	39315.22
539.94	39513.64
540.305	39825.94
540.67	39736.91
541.034	39923.34
541.399	39929.22
541.764	40218.02
542.129	40396.32
542.494	40499.6
542.858	40681.06
543.223	40472.26
543.587	40837.67
543.952	40978
544.316	41071.34
544.681	41072.47
545.045	41400.37
545.41	41560.14
545.774	41624.32
546.138	41654.37
546.503	41822.5
546.867	41942.05
547.231	42201.02
547.595	42375.48
547.959	42418.87
548.324	42432.66
548.688	42549.71
549.052	42703.16
549.416	42820.22
549.779	42871.29
550.143	43106.76
550.507	43377.26
550.871	43526.19
551.235	43480.76
551.599	44106.28
551.962	43918.72
552.326	44149.9
552.689	44436.9
553.053	44054.08
553.417	44412.04
553.78	44848.41
554.143	44978.58
554.507	45007.28
554.87	45114.17
555.234	45538.79
555.597	45268.51
555.96	45506.47
556.323	45607.94
556.686	45841.61
557.05	46142.84
557.413	46186.46
557.776	46251.99
558.139	46541.02
558.502	46629.83
558.865	46704.63
559.228	47148.69
559.59	47222.59
559.953	47412.19
560.316	47735.34
560.679	47575.35
561.041	47975.79
561.404	48246.74
561.767	48502.33
562.129	48463.46
562.492	48741.19
562.854	48854.18
563.217	48915.87
563.579	48955.87
563.941	49325.58
564.304	49483.77
564.666	49871.1
565.028	49728.28
565.39	49952.46
565.753	50301.38
566.115	50250.75
566.477	50450.98
566.839	50523.52
567.201	50928.03
567.563	50870.63
567.925	51205.53
568.287	51206.21
568.648	51289.6
569.01	51646.42
569.372	51813.43
569.734	51806.42
570.095	52055
570.457	52181.1
570.819	52277.14
571.18	52292.74
571.542	52518.72
571.903	52525.05
572.265	52838.94
572.626	52878.93
572.987	52907.86
573.349	53073.28
573.71	53249.55
574.071	53381.97
574.432	53441.18
574.794	53711.68
575.155	53711.23
575.516	53760.95
575.877	53826.71
576.238	53882.07
576.599	54124.55
576.96	54163.19
577.32	54126.59
577.681	54282.06
578.042	54439.57
578.403	54471.89
578.763	54521.15
579.124	54529.96
579.485	54758.66
579.845	54754.37
580.206	54861.03
580.566	54947.58
580.927	54948.48
581.287	55133.11
581.648	55077.75
582.008	55205.2
582.368	55259.44
582.728	55347.34
583.089	55384.86
583.449	55438.64
583.809	55482.93
584.169	55566.77
584.529	55496.04
584.889	55818.29
585.249	55621.91
585.609	55574.68
585.969	55840.44
586.329	55856.48
586.688	55936.93
587.048	55992.07
587.408	55990.94
587.768	55980.77
588.127	56083.6
588.487	56112.75
588.846	56340.76
589.206	56039.53
589.565	56206.76
589.925	56432.29
590.284	56402.23
590.643	56400.88
591.003	56556.35
591.362	56696.46
591.721	56563.81
592.08	56634.09
592.44	56702.56
592.799	56788.89
593.158	56894.65
593.517	56806.97
593.876	56977.36
594.235	56910.47
594.593	56978.94
594.952	57057.13
595.311	57100.07
595.67	57226.84
596.029	57276.78
596.387	57363.11
596.746	57470.68
597.104	57395.65
597.463	57364.24
597.822	57552.48
598.18	57524.46
598.538	57535.76
598.897	57753.61
599.255	57596.1
599.613	58022.98
599.972	57779.14
600.33	57959.7
600.688	57815.75
601.046	57962.87
601.404	58154.73
601.762	58059.82
602.12	58215.74
602.478	58191.11
602.836	58255.29
603.194	58192.02
603.552	58293.71
603.91	58279.92
604.268	58392.46
604.625	58386.36
604.983	58557.43
605.341	58462.74
605.698	58641.95
606.056	58741.38
606.413	58682.4
606.771	58893.69
607.128	58914.71
607.485	58811.89
607.843	58893.92
608.2	58987.47
608.557	59159.67
608.914	59048.49
609.272	59181.37
609.629	59276.05
609.986	59388.82
610.343	59346.34
610.7	59589.94
611.057	59555.14
611.414	59497.97
611.771	59624.29
612.127	59745.42
612.484	59729.83
612.841	59799.88
613.198	59712.88
613.554	59728.7
613.911	59975.7
614.267	59972.53
614.624	59935.92
614.98	60038.75
615.337	60219.98
615.693	60182.02
616.05	60212.07
616.406	60277.84
616.762	60269.02
617.118	60356.7
617.475	60315.8
617.831	60432.18
618.187	60493.2
618.543	60544.95
618.899	60661.78
619.255	60621.33
619.611	60608
619.967	60720.08
620.323	60765.28
620.678	60687.77
621.034	60708.33
621.39	60761.44
621.746	60753.98
622.101	61050.7
622.457	60845.96
622.812	60956.69
623.168	60900.19
623.523	60904.71
623.879	61071.49
624.234	60873.3
624.589	60970.7
624.945	60976.8
625.3	61034.2
625.655	61087.08
626.01	61040.53
626.365	61077.59
626.72	61034.65
627.075	60996.01
627.43	61079.62
627.785	61034.65
628.14	61038.95
628.495	60997.37
628.85	61134.08
629.205	61035.78
629.559	61165.04
629.914	61104.48
630.269	61090.24
630.623	61015.9
630.978	60951.94
631.332	61083.46
631.687	61080.75
632.041	60982.45
632.396	60997.59
632.75	60977.93
633.104	60957.82
633.459	60924.15
633.813	60888.67
634.167	60904.94
634.521	60840.76
634.875	60937.25
635.229	60885.73
635.583	60748.56
635.937	60736.35
636.291	60731.84
636.645	60766.64
636.999	60611.16
637.352	60705.17
637.706	60556.25
638.06	60644.83
638.413	60584.04
638.767	60485.29
639.121	60580.43
639.474	60484.38
639.828	60437.38
640.181	60410.94
640.534	60501.11
640.888	60391.28
641.241	60282.36
641.594	60327.1
641.947	60379.3
642.301	60236.71
642.654	60297.72
643.007	60257.05
643.36	60232.41
643.713	60192.41
644.066	60327.55
644.419	60170.95
644.771	59861.8
645.124	59611.86
645.477	59640.11
645.83	59518.53
646.182	59466.78
646.535	59402.6
646.888	59489.16
647.24	59405.54
647.593	59573
647.945	59402.15
648.298	59351.98
648.65	59226.34
649.002	59135.27
649.355	59062.73
649.707	59061.6
650.059	59149.05
650.411	59424.75
650.763	59481.02
651.115	59856.15
651.467	59756.49
651.819	59725.31
652.171	59662.94
652.523	59653.67
652.875	59636.5
653.227	59480.12
653.578	59709.72
653.93	59591.98
654.282	59464.75
654.633	59460
654.985	59498.65
655.337	59511.08
655.688	59405.09
656.039	59539.78
656.391	59343.4
656.742	59385.2
657.094	59419.33
657.445	59373.45
657.796	59360.8
658.147	59300.91
658.498	59282.38
658.849	59398.76
659.2	59225.43
659.551	59228.82
659.902	59349.95
660.253	59260.46
660.604	59273.57
660.955	59220.69
661.306	59256.62
661.656	59145.21
662.007	59149.96
662.358	59141.59
662.708	59200.35
663.059	59176.85
663.409	59000.58
663.76	59133.23
664.11	59121.48
664.461	59197.86
664.811	59084.65
665.161	59081.03
665.511	59040.58
665.862	59031.54
666.212	59131.65
666.562	59124.65
666.912	59001.71
667.262	58937.76
667.612	58988.15
667.962	58995.61
668.312	59027.93
668.662	59066.79
669.011	59054.82
669.361	58947.93
669.711	58994.25
670.06	58972.11
670.41	58902.28
670.76	58866.35
671.109	58968.27
671.459	58924.2
671.808	58892.11
672.157	58958.1
672.507	58729.85
672.856	58837.42
673.205	58869.29
673.554	58901.6
673.904	58788.84
674.253	59008.04
674.602	58815.05
674.951	58467.94
675.3	58390.65
675.649	58842.85
675.998	58793.58
676.346	58771.66
676.695	58814.6
677.044	58662.74
677.393	58634.49
677.741	58718.33
678.09	58715.17
678.438	58680.36
678.787	58700.02
679.135	58646.24
679.484	58541.16
679.832	58650.76
680.181	58542.06
680.529	58649.18
680.877	58502.06
681.225	58499.13
681.573	58661.61
681.922	58492.8
682.27	58474.04
682.618	58480.14
682.966	58383.42
683.314	58380.48
683.661	58335.29
684.009	58287.61
684.357	58247.15
684.705	58164.9
685.053	58273.82
685.4	58140.27
685.748	58102.75
686.095	58057.33
686.443	57986.37
686.79	57976.43
687.138	58020.04
687.485	58048.52
687.832	57865.24
688.18	57944.56
688.527	57794.96
688.874	57761.07
689.221	57786.6
689.568	57655.08
689.915	57597.68
690.262	57687.62
690.609	57548.64
690.956	57507.51
691.303	57524.91
691.65	57336.22
691.997	57395.88
692.344	57231.81
692.69	57208.99
693.037	57215.77
693.383	56963.12
693.73	57133.29
694.077	56970.35
694.423	56982.56
694.769	56862.78
695.116	56852.39
695.462	56820.98
695.808	56729.68
696.155	56807.87
696.501	56638.16
696.847	56672.96
697.193	56459.63
697.539	56499.86
697.885	56345.06
698.231	56263.03
698.577	56260.77
698.923	56191.84
699.269	56057.16
699.614	56052.64
699.96	55955.69
700.306	55902.36
700.651	55910.49
700.997	55694.45
701.342	55579.65
701.688	55709.59
702.033	55493.55
702.379	55603.61
702.724	55413.56
703.069	55468.92
703.415	55145.77
703.76	55200.46
704.105	55178.76
704.45	55080.68
704.795	55062.61
705.14	54861.71
705.485	54971.31
705.83	54738.32
706.175	54769.05
706.52	54786.23
706.865	54605.67
707.209	54562.73
707.554	54461.94
707.899	54474.15
708.243	54379.69
708.588	54280.03
708.932	54131.78
709.277	54146.47
709.621	54038
709.966	53848.4
710.31	54038.68
710.654	53746.93
710.998	53842.98
711.342	53826.48
711.687	53702.42
712.031	53528.41
712.375	53457.9
712.719	53432.82
713.063	53412.71
713.407	53582.42
713.75	53366.15
714.094	53330.67
714.438	53228.08
714.782	53266.49
715.125	53046.39
715.469	53223.78
715.812	52971.59
716.156	52835.32
716.499	52844.81
716.843	52937.24
717.186	52653.63
717.53	52844.59
717.873	52746.73
718.216	52716.23
718.559	52597.36
718.902	52363.92
719.246	52386.52
719.589	52371.38
719.932	52186.3
720.275	52353.07
720.617	52236.69
720.96	52113.08
721.303	52183.59
721.646	52227.88
721.989	51993.08
722.331	51996.02
722.674	51944.72
723.016	51902.46
723.359	51811.17
723.701	51802.35
724.044	51671.51
724.386	51634.22
724.729	51663.15
725.071	51649.36
725.413	51695.46
725.755	51558.07
726.097	51306.09
726.439	51311.07
726.782	51313.1
727.124	51418.18
727.465	51155.59
727.807	51092.77
728.149	51180
728.491	51072.88
728.833	51067.91
729.175	50930.74
729.516	50943.84
729.858	50817.07
730.199	50829.5
730.541	50974.13
730.882	50757.86
731.224	50792.66
731.565	50561.26
731.906	50666.79
732.248	50640.8
732.589	50542.27
732.93	50442.61
733.271	50404.65
733.612	50335.05
733.953	50598.54
734.294	50237.65
734.635	50177.54
734.976	50370.07
735.317	50194.94
735.658	50145.45
735.999	49958.79
736.339	49987.26
736.68	50102.74
737.021	49981.61
737.361	49807.38
737.702	50019.8
738.042	49855.74
738.383	49876.08
738.723	49780.48
739.063	49712.24
739.404	49789.98
739.744	49610.77
740.084	49575.97
740.424	49627.95
740.764	49454.62
741.104	49574.39
741.444	49467.05
741.784	49377.33
742.124	49540.49
742.464	49198.35
742.804	49133.27
743.143	49140.28
743.483	49178.24
743.823	49032.93
744.162	48968.3
744.502	48974.18
744.841	48929.21
745.181	49023.44
745.52	48742.77
745.86	48939.6
746.199	48869.32
746.538	48815.09
746.877	48913.62
747.216	48806.05
747.556	48714.75
747.895	48641.08
748.234	48509.56
748.573	48414.65
748.911	48361.09
749.25	48406.28
749.589	48264.82
749.928	48284.48
750.267	48215.1
750.605	48165.16
750.944	48053.52
751.283	47974.2
751.621	48045.84
751.96	47893.53
752.298	47663.03
752.636	47765.85
752.975	47652.86
753.313	47575.12
753.651	47740.99
753.989	47401.11
754.327	47486.31
754.666	47113.66
755.004	47257.39
755.342	47229.82
755.679	47152.08
756.017	47002.93
756.355	47062.82
756.693	46845.87
757.031	46889.71
757.368	46657.86
757.706	46686.1
758.044	46475.71
758.381	46488.59
758.719	46248.6
759.056	46386.45
759.394	46094.03
759.731	45810.42
760.068	45855.62
760.405	45848.84
760.743	45676.64
761.08	45680.48
761.417	45646.13
761.754	45363.88
762.091	45421.05
762.428	45111
762.765	45090.44
763.102	45057.67
763.438	44892.25
763.775	44710.79
764.112	44657.46
764.449	44630.79
764.785	44406.84
765.122	44202.33
765.458	44092.72
765.795	44051.82
766.131	43916.01
766.467	43908.55
766.804	43510.14
767.14	43523.02
767.476	43327.32
767.812	43219.3
768.148	43316.7
768.485	43023.6
768.821	42784.06
769.157	42622.48
769.492	42532.54
769.828	42481.47
770.164	42066.11
770.5	41978.88
770.836	42103.62
771.171	41836.96
771.507	41709.28
771.842	41378.45
772.178	41444.88
772.513	41305.45
772.849	41194.04
773.184	41351.78
773.519	41086.02
773.855	40857.78
774.19	40620.05
774.525	40611.91
774.86	40451.24
775.195	40312.26
775.53	40068.65
775.865	39743.46
776.2	39713.63
776.535	39362.91
776.87	39458.95
777.205	39285.39
777.539	39081.78
777.874	39193.87
778.209	38774.45
778.543	38796.59
778.878	38733.09
779.212	38632.3
779.547	38238.19
779.881	38283.84
780.215	37978.54
780.55	38188.7
780.884	37662.39
781.218	37733.57
781.552	37694.7
781.886	37435.72
782.22	37266.92
782.554	37178.56
782.888	36877.55
783.222	36835.06
783.556	36555.07
783.889	36425.36
784.223	36284.79
784.557	36276.66
784.89	36278.24
785.224	36066.5
785.557	35806.16
785.891	35749.44
786.224	35777.69
786.558	35656.56
786.891	35409.34
787.224	35163.69
787.557	34920.31
787.891	35057.26
788.224	34890.25
788.557	34792.18
788.89	34601
789.223	34684.38
789.556	34236.03
789.888	34310.84
790.221	34204.62
790.554	33994.69
790.887	34114.46
791.219	33806.22
791.552	33749.27
791.884	33562.38
792.217	33559.44
792.549	33439.9
792.882	33213.01
793.214	33100.47
793.546	33062.05
793.879	32875.39
794.211	32665.45
794.543	32691.67
794.875	32777.77
795.207	32597.89
795.539	32491.67
795.871	32347.27
796.203	32119.48
796.535	31851.92
796.867	32045.36
797.198	31774.4
797.53	31681.07
797.862	31647.85
798.193	31593.39
798.525	31401.31
798.856	31525.82
799.188	31002.67
799.519	30993.86
799.85	30907.76
800.182	31061.66
800.513	31056.46
800.844	30562.69
801.175	30771.04
801.506	30670.93
801.837	30462.12
802.168	30375.57
802.499	30409.24
802.83	30307.55
803.161	30115.92
803.491	30190.94
803.822	30150.72
804.153	29919.54
804.483	29724.97
804.814	29529.94
805.145	29655.36
805.475	29494.46
805.805	29630.28
806.136	29547.12
806.466	29327.01
806.796	29294.24
807.126	29123.85
807.457	29073.23
807.787	29061.03
808.117	28989.62
808.447	28824.88
808.777	28944.2
809.107	28667.82
809.436	28652.23
809.766	28516.19
810.096	28632.79
810.426	28366.36
810.755	28479.58
811.085	28338.11
811.414	28449.97
811.744	28040.27
812.073	28027.38
812.403	28017.44
812.732	27871.68
813.061	27888.41
813.39	27721.86
813.719	27706.49
814.049	27781.97
814.378	27660.39
814.707	27480.05
815.036	27516.44
815.365	27340.62
815.693	27124.81
816.022	27283.45
816.351	27209.1
816.68	27092.04
817.008	27134.98
817.337	26779.06
817.665	26800.3
817.994	26779.28
818.322	26876
818.651	26681.66
818.979	26669.45
819.307	26751.94
819.636	26535.22
819.964	26426.3
820.292	26467.65
820.62	26537.93
820.948	26420.65
821.276	26633.52
821.604	26376.58
821.932	26560.98
822.259	26475.33
822.587	26423.81
822.915	26403.7
823.243	26422.91
823.57	26396.92
823.898	26479.4
824.225	26320.76
824.553	26154.44
824.88	26343.81
825.207	26400.08
825.535	26259.75
825.862	26398.05
826.189	26314.21
826.516	26571.6
826.843	26506.75
827.17	26508.1
827.497	26453.41
827.824	26472.4
828.151	26542.68
828.478	26348.56
828.805	26508.55
829.131	26511.94
829.458	26419.07
829.785	26194.21
830.111	26351.27
830.438	26418.61
830.764	26208.22
831.09	26386.3
831.417	26179.98
831.743	26497.93
832.069	26310.59
832.395	26069.92
832.722	26290.71
833.048	26125.29
833.374	26368.9
833.7	26118.06
834.026	26139.98
834.351	26209.81
834.677	26192.4
835.003	26089.13
835.329	26194.66
835.654	26138.85
835.98	26031.28
836.306	26179.52
836.631	26010.04
836.956	26174.33
837.282	26092.52
837.607	25855.01
837.932	25939.53
838.258	25819.08
838.583	25797.61
838.908	25700.89
839.233	25818.63
839.558	25737.73
839.883	25500.9
840.208	25472.2
840.533	25636.49
840.858	25624.51
841.182	25486.43
841.507	25550.39
841.832	25445.31
842.156	25390.17
842.481	25352.2
842.805	25323.73
843.13	25176.61
843.454	25274.01
843.778	25033.79
844.103	25031.31
844.427	24951.76
844.751	24969.61
845.075	24856.39
845.399	24896.85
845.723	24735.95
846.047	24806.45
846.371	24537.98
846.695	24393.58
847.019	24456.4
847.343	24310.42
847.666	24204.89
847.99	23987.72
848.313	24018.45
848.637	23903.2
848.96	23794.73
849.284	23860.04
849.607	23600.83
849.931	23535.98
850.254	23461.18
850.577	23302.31
850.9	23132.6
851.223	23198.13
851.546	23007.63
851.869	22855.77
852.192	23009.44
852.515	22660.75
852.838	22626.17
853.161	22638.15
853.483	22638.37
853.806	22413.52
854.129	22558.15
854.451	22439.73
854.774	22327.65
855.096	22214.88
855.419	22092.85
855.741	22031.16
856.063	21886.76
856.385	21987.32
856.708	21856.47
857.03	21648.34
857.352	21752.75
857.674	21718.85
857.996	21556.14
858.318	21404.06
858.64	21543.71
858.961	21369.93
859.283	21413.32
859.605	21228.47
859.926	21272.08
860.248	21273.21
860.57	21107.34
860.891	21086.1
861.212	20959.77
861.534	21021.92
861.855	20844.52
862.176	20909.83
862.498	20879.55
862.819	20780.8
863.14	20782.15
863.461	20795.03
863.782	20661.7
864.103	20665.77
864.424	20529.95
864.745	20602.5
865.065	20430.52
865.386	20458.77
865.707	20429.39
866.027	20384.42
866.348	20404.99
866.668	20382.84
866.989	20249.06
867.309	20102.85
867.63	20250.64
867.95	20231.43
868.27	20088.16
868.59	20208.16
868.91	20086.8
869.23	20018.56
869.55	20027.82
869.87	19922.96
870.19	19967.94
870.51	19899.01
870.83	19950.76
871.15	19762.29
871.469	19718.9
871.789	19861.95
872.109	19797.54
872.428	19642.07
872.748	19668.51
873.067	19765.23
873.386	19676.19
873.706	19661.73
874.025	19519.13
874.344	19436.42
874.663	19517.78
874.982	19457.89
875.301	19501.96
875.62	19500.83
875.939	19357.1
876.258	19266.26
876.577	19241.4
876.896	19185.58
877.214	19208.41
877.533	19223.77
877.852	19211.35
878.17	19224.23
878.489	19190.55
878.807	19142.19
879.125	19007.73
879.444	19000.96
879.762	18963.44
880.08	18929.32
880.398	18916.66
880.716	18931.35
881.034	18837.57
881.352	18732.71
881.67	18840.73
881.988	18697.46
882.306	18618.59
882.624	18608.42
882.941	18643.45
883.259	18558.25
883.577	18602.32
883.894	18439.84
884.212	18341.99
884.529	18311.71
884.846	18292.73
885.164	18240.3
885.481	18188.55
885.798	18277.81
886.115	18168.43
886.432	18250.01
886.75	18203.01
887.067	18129.34
887.383	18057.03
887.7	18052.73
888.017	17963.24
888.334	17866.07
888.651	17875.79
888.967	17868.78
889.284	17755.11
889.6	17733.64
889.917	17604.61
890.233	17693.19
890.55	17546.3
890.866	17577.04
891.182	17492.97
891.498	17468.79
891.815	17188.35
892.131	17175.47
892.447	17303.6
892.763	17212.08
893.079	17077.39
893.395	16968.47
893.71	17006.21
894.026	17033.78
894.342	17016.83
894.657	16842.14
894.973	16820.45
895.289	16739.09
895.604	16741.81
895.92	16651.19
896.235	16713.33
896.55	16622.03
896.865	16498.2
897.181	16457.29
897.496	16485.54
897.811	16362.83
898.126	16250.75
898.441	16280.35
898.756	16191.54
899.071	16163.29
899.386	16072.9
899.7	16111.77
900.015	15827.25
900.33	15851.43
900.644	15716.3
900.959	15769.18
901.273	15660.48
901.588	15645.56
901.902	15680.82
902.216	15516.08
902.531	15468.39
902.845	15483.08
903.159	15284.44
903.473	15386.13
903.787	15140.49
904.101	15178.46
904.415	15158.34
904.729	15131.9
905.042	15033.6
905.356	14964
905.67	14890.78
905.984	14975.52
906.297	14924.23
906.611	14757.22
906.924	14731.91
907.237	14663.89
907.551	14645.82
907.864	14539.83
908.177	14539.38
908.491	14485.59
908.804	14338.25
909.117	14284.47
909.43	14212.83
909.743	14204.02
910.056	14231.59
910.368	14178.48
910.681	14078.15
910.994	14025.49
911.307	13919.51
911.619	13808.78
911.932	13834.31
912.244	13664.15
912.557	13613.3
912.869	13611.49
913.181	13590.93
913.494	13606.52
913.806	13410.14
914.118	13347.32
914.43	13333.53
914.742	13285.85
915.054	13192.97
915.366	13117.49
915.678	13136.7
915.99	13058.51
916.302	13000.89
916.613	12830.72
916.925	12994.33
917.236	12884.05
917.548	12807.9
917.859	12840.67
918.171	12690.16
918.482	12576.27
918.794	12622.82
919.105	12518.87
919.416	12387.12
919.727	12396.84
920.038	12408.59
920.349	12227.35
920.66	12194.13
920.971	12232.77
921.282	12162.72
921.593	12051.99
921.903	12048.6
922.214	12066.45
922.525	11899.22
922.835	11835.72
923.146	11778.09
923.456	11709.4
923.767	11758.21
924.077	11639.57
924.387	11612
924.697	11481.15
925.008	11553.02
925.318	11440.7
925.628	11454.49
925.938	11512.34
926.248	11301.04
926.558	11271.89
926.867	11231.67
927.177	11210.2
927.487	11094.5
927.796	11016.08
928.106	11044.1
928.416	11038
928.725	10972.92
929.034	10888.17
929.344	10913.94
929.653	10882.3
929.962	10748.52
930.271	10687.5
930.581	10656.99
930.89	10623.55
931.199	10595.53
931.508	10607.05
931.817	10592.81
932.125	10451.12
932.434	10390.56
932.743	10269.89
933.051	10234.63
933.36	10219.27
933.669	10250.9
933.977	10144.24
934.286	10153.05
934.594	10066.95
934.902	10041.42
935.21	9981.53
935.519	9896.34
935.827	10012.26
936.135	9860.18
936.443	9757.58
936.751	9718.04
937.059	9701.31
937.367	9689.34
937.674	9701.54
937.982	9617.93
938.29	9559.17
938.597	9548.55
938.905	9465.16
939.213	9475.33
939.52	9426.29
939.827	9389.46
940.135	9317.14
940.442	9260.65
940.749	9259.29
941.056	9265.84
941.363	9158.95
941.67	9094.1
941.977	9058.84
942.284	9028.11
942.591	9022.69
942.898	8988.79
943.205	8933.42
943.511	8902.69
943.818	8896.59
944.125	8805.52
944.431	8753.77
944.738	8674.22
945.044	8769.36
945.35	8691.4
945.657	8625.18
945.963	8642.58
946.269	8565.3
946.575	8540.44
946.881	8420.44
947.187	8439.65
947.493	8382.03
947.799	8404.4
948.105	8278.53
948.41	8232.2
948.716	8281.69
949.022	8239.43
949.327	8218.41
949.633	8051.64
949.938	8065.88
950.244	8054.12
950.549	7985.65
950.854	8000.11
951.16	7944.75
951.465	7907.01
951.77	7881.25
952.075	7823.4
952.38	7768.48
952.685	7792.44
952.99	7702.27
953.294	7660.91
953.599	7659.11
953.904	7620.01
954.209	7526.23
954.513	7618.88
954.818	7548.37
955.122	7515.38
955.426	7513.57
955.731	7396.06
956.035	7386.12
956.339	7351.09
956.643	7300.47
956.948	7249.63
957.252	7239
957.556	7259.57
957.86	7181.15
958.163	7222.28
958.467	7127.82
958.771	7102.29
959.075	7078.33
959.378	6989.29
959.682	7083.53
959.985	6956.07
960.289	6980.48
960.592	6919.46
960.896	6882.86
961.199	6863.42
961.502	6819.81
961.805	6779.81
962.108	6763.08
962.411	6710.2
962.714	6699.36
963.017	6643.09
963.32	6700.94
963.623	6572.81
963.926	6575.97
964.228	6501.17
964.531	6539.14
964.833	6509.53
965.136	6422.08
965.438	6447.39
965.741	6374.17
966.043	6343.89
966.345	6294.17
966.648	6300.05
966.95	6267.96
967.252	6234.29
967.554	6239.71
967.856	6236.55
968.158	6167.17
968.46	6185.92
968.761	6139.37
969.063	6086.72
969.365	6058.02
969.666	6029.32
969.968	5988.19
970.269	5950.9
970.571	5921.3
970.872	5950.9
971.174	5891.02
971.475	5900.28
971.776	5787.74
972.077	5809.89
972.378	5761.76
972.679	5803.11
972.98	5724.92
973.281	5696.9
973.582	5652.15
973.883	5651.02
974.183	5637.92
974.484	5565.15
974.785	5565.6
975.085	5572.61
975.386	5556.79
975.686	5487.19
975.986	5467.75
976.287	5484.25
976.587	5374.19
976.887	5411.26
977.187	5407.19
977.487	5362.22
977.787	5333.29
978.087	5328.32
978.387	5280.19
978.687	5264.14
978.987	5243.8
979.286	5225.95
979.586	5209.23
979.885	5118.16
980.185	5139.17
980.484	5097.82
980.784	5090.13
981.083	5094.2
981.382	5039.29
981.682	5021.89
981.981	4962.68
982.28	4983.92
982.579	4914.55
982.878	4952.29
983.177	4889.69
983.475	4913.19
983.774	4872.74
984.073	4812.18
984.372	4795.9
984.67	4799.97
984.969	4796.81
985.267	4815.57
985.566	4719.75
985.864	4704.38
986.162	4693.76
986.461	4659.64
986.759	4616.7
987.057	4620.99
987.355	4606.31
987.653	4531.96
987.951	4514.33
988.249	4524.5
988.547	4474.33
988.844	4460.09
989.142	4474.11
989.44	4434.56
989.737	4362.92
990.035	4382.58
990.332	4344.62
990.63	4349.36
990.927	4345.75
991.224	4321.12
991.521	4273.21
991.819	4260.78
992.116	4217.39
992.413	4232.76
992.71	4204.73
993.006	4186.88
993.303	4177.84
993.6	4143.49
993.897	4133.1
994.193	4106.66
994.49	4037.73
994.787	4020.11
995.083	4057.39
995.379	4002.03
995.676	3999.99
995.972	3917.51
996.268	3934.68
996.565	3903.73
996.861	3922.03
997.157	3892.2
997.453	3848.13
997.749	3829.38
998.044	3842.71
998.34	3802.26
998.636	3786.67
998.932	3696.72
999.227	3744.41
999.523	3741.47
999.818	3710.28
1000.114	3680.91
1000.409	3648.14
1000.704	3651.98
1001	3649.04
1001.295	3571.76
1001.59	3566.33
1001.885	3569.5
1002.18	3536.73
1002.475	3516.84
1002.77	3487.24
1003.065	3514.36
1003.359	3477.3
1003.654	3440.69
1003.949	3424.87
1004.243	3422.61
1004.538	3364.08
1004.832	3358.2
1005.127	3328.82
1005.421	3315.04
1005.715	3298.77
1006.009	3290.63
1006.304	3301.03
1006.598	3255.15
1006.892	3219.9
1007.186	3186.23
1007.48	3172.9
1007.773	3157.3
1008.067	3146.68
1008.361	3108.94
1008.655	3110.98
1008.948	3099.68
1009.242	3064.2
1009.535	3025.56
1009.829	3006.12
1010.122	3002.73
1010.415	2992.34
1010.708	2991.43
1011.001	2962.28
1011.295	2960.02
1011.588	2878.67
1011.881	2877.31
1012.173	2887.71
1012.466	2843.87
1012.759	2820.14
1013.052	2836.18
1013.344	2835.28
1013.637	2811.55
1013.93	2771.33
1014.222	2759.35
1014.514	2743.98
1014.807	2712.34
1015.099	2738.11
1015.391	2717.99
1015.683	2681.84
1015.976	2651.55
1016.268	2645.68
1016.56	2627.15
1016.851	2604.78
1017.143	2564.55
1017.435	2564.1
1017.727	2566.36
1018.018	2524.78
1018.31	2537.21
1018.602	2489.3
1018.893	2454.5
1019.185	2490.43
1019.476	2468.51
1019.767	2419.7
1020.058	2397.1
1020.35	2391
1020.641	2359.58
1020.932	2353.03
1021.223	2309.19
1021.514	2334.27
1021.804	2292.47
1022.095	2282.52
1022.386	2268.97
1022.677	2237.1
1022.967	2220.83
1023.258	2190.32
1023.548	2207.05
1023.839	2175.41
1024.129	2176.99
1024.419	2163.88
1024.709	2135.18
1025	2130.21
1025.29	2130.21
1025.58	2110.78
1025.87	2077.11
1026.16	2097.44
1026.449	2048.41
1026.739	2016.77
1027.029	2026.03
1027.319	2011.8
1027.608	2007.05
1027.898	1968.63
1028.187	1963.66
1028.477	1973.15
1028.766	1953.95
1029.055	1911.91
1029.344	1923.21
1029.634	1891.8
1029.923	1908.3
1030.212	1849.54
1030.501	1850.45
1030.79	1818.36
1031.078	1868.75
1031.367	1802.99
1031.656	1804.8
1031.945	1803.22
1032.233	1785.81
1032.522	1775.42
1032.81	1753.5
1033.099	1755.53
1033.387	1720.96
1033.675	1706.49
1033.963	1704.46
1034.251	1717.34
1034.54	1690.9
1034.828	1672.6
1035.116	1622.66
1035.403	1670.11
1035.691	1655.2
1035.979	1634.41
1036.267	1607.06
1036.554	1608.87
1036.842	1583.79
1037.129	1586.27
1037.417	1570.68
1037.704	1566.39
1037.992	1554.63
1038.279	1546.95
1038.566	1514.86
1038.853	1514.86
1039.14	1514.86
