Data from 108_FLMS001491_001.txt Node
Date: Thu Apr 12 17:07:38 BST 2018
User: hsy
Spectrometer: FLMS00149
Trigger mode: 0
Integration Time (sec): 1.000000E-2
Scans to average: 10
Electric dark correction enabled: true
Nonlinearity correction enabled: false
Boxcar width: 0
XAxis mode: Wavelengths
Number of Pixels in Spectrum: 2048
>>>>>Begin Spectral Data<<<<<
341.393	-5.47
341.776	-5.47
342.16	-5.47
342.543	-51.79
342.927	-63.54
343.31	-76.65
343.693	-83.88
344.077	-73.03
344.46	-48.85
344.843	-37.56
345.226	-37.1
345.61	-60.83
345.993	-12.02
346.376	6.29
346.759	6.96
347.142	29.34
347.525	32.5
347.908	57.13
348.291	89.9
348.674	107.3
349.057	100.52
349.44	128.54
349.823	140.74
350.206	172.38
350.588	234.08
350.971	248.31
351.354	255.54
351.737	265.26
352.119	287.86
352.502	313.62
352.884	298.48
353.267	340.06
353.65	359.5
354.032	341.87
354.414	340.97
354.797	344.81
355.179	354.3
355.562	341.87
355.944	387.29
356.326	392.72
356.709	351.13
357.091	392.04
357.473	370.12
357.855	394.3
358.238	404.47
358.62	372.38
359.002	397.91
359.384	387.29
359.766	388.2
360.148	382.77
360.53	397.01
360.912	378.03
361.294	368.54
361.676	391.13
362.057	404.24
362.439	371.02
362.821	367.86
363.203	368.99
363.584	360.4
363.966	402.21
364.348	389.55
364.729	374.64
365.111	373.96
365.493	380.74
365.874	355.65
366.256	363.56
366.637	371.25
367.019	348.42
367.4	368.31
367.781	356.11
368.163	385.48
368.544	356.33
368.925	365.37
369.306	372.15
369.688	351.81
370.069	362.89
370.45	367.86
370.831	372.15
371.212	390.23
371.593	388.65
371.974	384.81
372.355	379.16
372.736	390.68
373.117	373.51
373.498	366.28
373.879	381.64
374.26	351.59
374.641	368.76
375.021	408.08
375.402	383.22
375.783	388.87
376.163	401.53
376.544	397.69
376.925	395.65
377.305	400.17
377.686	384.81
378.066	423.45
378.447	394.75
378.827	415.54
379.208	403.56
379.588	407.86
379.968	395.88
380.349	413.05
380.729	423.68
381.109	420.06
381.489	407.63
381.87	405.14
382.25	411.7
382.63	426.39
383.01	425.03
383.39	421.42
383.77	436.56
384.15	427.29
384.53	440.85
384.91	428.87
385.29	428.42
385.67	444.24
386.049	441.3
386.429	460.28
386.809	438.36
387.189	453.28
387.568	446.95
387.948	450.57
388.328	459.38
388.707	460.96
389.087	469.1
389.466	465.71
389.846	474.97
390.225	457.35
390.605	482.43
390.984	476.1
391.363	485.37
391.743	483.33
392.122	480.17
392.501	482.2
392.881	489.44
393.26	501.64
393.639	499.15
394.018	504.13
394.397	502.77
394.776	495.09
395.155	499.38
395.534	535.31
395.913	519.04
396.292	515.65
396.671	522.2
397.05	535.54
397.429	531.92
397.808	522.88
398.186	521.98
398.565	528.31
398.944	552.71
399.323	546.16
399.701	535.54
400.08	537.8
400.458	553.62
400.837	537.8
401.215	528.08
401.594	551.13
401.972	574.18
402.351	569.66
402.729	575.99
403.107	585.7
403.486	568.3
403.864	578.02
404.242	601.98
404.62	592.94
404.999	596.1
405.377	577.8
405.755	598.81
406.133	612.6
406.511	607.85
406.889	618.25
407.267	612.37
407.645	621.18
408.023	628.19
408.401	627.74
408.779	633.39
409.156	656.66
409.534	672.26
409.912	672.71
410.29	686.27
410.667	675.19
411.045	672.93
411.422	666.83
411.8	693.72
412.178	702.54
412.555	720.39
412.933	696.66
413.31	720.39
413.687	717.9
414.065	716.32
414.442	711.58
414.819	731.01
415.197	740.73
415.574	743.21
415.951	757.68
416.328	787.28
416.705	775.98
417.082	786.83
417.46	772.82
417.837	770.33
418.214	780.95
418.591	787.96
418.967	792.48
419.344	811.01
419.721	810.33
420.098	823.44
420.475	841.74
420.852	809.2
421.228	832.25
421.605	835.87
421.982	831.8
422.358	837.68
422.735	867.96
423.111	827.51
423.488	854.17
423.864	860.95
424.241	855.08
424.617	869.54
424.994	883.78
425.37	876.09
425.746	896.66
426.123	901.85
426.499	902.08
426.875	932.14
427.251	917.9
427.627	942.98
428.003	952.47
428.379	961.51
428.756	960.84
429.132	966.03
429.507	991.34
429.883	976.66
430.259	1013.72
430.635	1021.85
431.011	1028.63
431.387	1036.09
431.763	1065.47
432.138	1040.16
432.514	1095.97
432.89	1062.53
433.265	1102.53
433.641	1096.65
434.016	1115.41
434.392	1104.11
434.767	1151.79
435.143	1131.91
435.518	1113.37
435.894	1138.68
436.269	1166.93
436.644	1179.81
437.02	1178.91
437.395	1174.16
437.77	1227.95
438.145	1241.51
438.52	1206.48
438.895	1229.98
439.271	1236.08
439.646	1288.74
440.021	1274.27
440.395	1257.55
440.77	1256.65
441.145	1261.17
441.52	1287.16
441.895	1297.78
442.27	1299.81
442.645	1311.79
443.019	1340.49
443.394	1319.92
443.769	1324.89
444.143	1356.76
444.518	1350.2
444.892	1352.69
445.267	1360.37
445.641	1346.36
446.016	1390.88
446.39	1372.35
446.764	1386.36
447.139	1389.07
447.513	1382.07
447.887	1379.36
448.262	1415.97
448.636	1425.23
449.01	1434.5
449.384	1457.55
449.758	1462.29
450.132	1469.3
450.506	1496.19
450.88	1463.65
451.254	1488.05
451.628	1510.65
452.002	1543.87
452.376	1545.68
452.75	1565.11
453.123	1545.91
453.497	1602.18
453.871	1610.08
454.244	1614.15
454.618	1635.85
454.992	1667.03
455.365	1662.29
455.739	1716.3
456.112	1731.66
456.486	1756.52
456.859	1778.67
457.232	1814.15
457.606	1806.92
457.979	1830.42
458.352	1869.29
458.725	1855.5
459.099	1904.54
459.472	1889.85
459.845	1932.11
460.218	1957.65
460.591	1987.02
460.964	1977.53
461.337	2024.99
461.71	2073.12
462.083	2052.11
462.456	2061.82
462.829	2068.83
463.201	2144.99
463.574	2138.43
463.947	2162.61
464.32	2186.57
464.692	2218.43
465.065	2231.76
465.438	2241.48
465.81	2271.31
466.183	2322.38
466.555	2362.83
466.928	2378.43
467.3	2366.9
467.672	2405.09
468.045	2438.99
468.417	2454.81
468.789	2478.08
469.161	2504.52
469.534	2538.65
469.906	2563.73
470.278	2643.5
470.65	2639.21
471.022	2697.97
471.394	2704.75
471.766	2769.83
472.138	2791.52
472.51	2841.92
472.882	2876.72
473.253	2902.93
473.625	2934.8
473.997	2984.74
474.369	3020.67
474.74	3071.74
475.112	3103.15
475.484	3161.23
475.855	3205.98
476.227	3282.58
476.598	3349.25
476.97	3345.63
477.341	3479.64
477.713	3556.7
478.084	3535.01
478.455	3643.48
478.827	3676.02
479.198	3798.73
479.569	3814.77
479.94	3942
480.311	3961.89
480.682	4033.52
481.053	4163.69
481.424	4236.91
481.795	4328.66
482.166	4413.85
482.537	4459.28
482.908	4575.66
483.279	4605.94
483.65	4709.89
484.021	4837.8
484.391	4910.11
484.762	5008.19
485.133	5108.07
485.503	5207.96
485.874	5334.96
486.244	5440.72
486.615	5569.75
486.985	5654.95
487.356	5744.21
487.726	5844.78
488.097	6079.57
488.467	6137.2
488.837	6292.22
489.207	6384.2
489.578	6637.3
489.948	6728.37
490.318	6906.22
490.688	6979.21
491.058	7142.59
491.428	7322.7
491.798	7482.92
492.168	7663.48
492.538	7810.37
492.908	8030.93
493.278	8199.06
493.648	8315.67
494.017	8562.44
494.387	8768.54
494.757	8868.2
495.126	9121.53
495.496	9256.89
495.866	9496.43
496.235	9660.49
496.605	9901.84
496.974	10175.51
497.344	10306.13
497.713	10491.21
498.082	10742.73
498.452	10979.1
498.821	11196.27
499.19	11432.65
499.559	11733.21
499.928	11928.01
500.298	12132.75
500.667	12378.84
501.036	12542.68
501.405	12918.94
501.774	13011.59
502.143	13317.12
502.512	13648.41
502.88	13890.89
503.249	14097.67
503.618	14438.22
503.987	14524.32
504.356	14981.94
504.724	15224.87
505.093	15401.36
505.462	15622.37
505.83	15940.78
506.199	16269.81
506.567	16659.86
506.936	16813.98
507.304	17210.13
507.672	17492.15
508.041	17689.89
508.409	18045.13
508.777	18418.68
509.145	18589.3
509.514	18901.38
509.882	19024.09
510.25	19380.01
510.618	19578.65
510.986	19789.49
511.354	20175.7
511.722	20470.61
512.09	20880.99
512.458	20966.41
512.826	21258.83
513.193	21500.64
513.561	21760.29
513.929	22030.56
514.297	22403.21
514.664	22629.19
515.032	22819.7
515.4	23398.44
515.767	23400.7
516.135	23726.34
516.502	23643.86
516.869	24162.03
517.237	24466.66
517.604	24351.63
517.972	24884.95
518.339	25075.23
518.706	25325.62
519.073	25637.93
519.44	25803.35
519.808	26253.96
520.175	26331.47
520.542	26679.26
520.909	27025.69
521.276	27163.09
521.643	27585.45
522.009	27793.35
522.376	28098.65
522.743	28262.49
523.11	28603.95
523.477	29048.69
523.843	29164.39
524.21	29610.48
524.577	29843.24
524.943	30094.76
525.31	30262.21
525.676	30692.48
526.043	30914.17
526.409	31084.56
526.776	31439.13
527.142	31690.42
527.508	31939.91
527.874	32259
528.241	32446.79
528.607	32634.58
528.973	33088.58
529.339	33115.47
529.705	33576.93
530.071	33858.28
530.437	33927.65
530.803	34312.28
531.169	34562.44
531.535	34728.54
531.901	34830.91
532.267	35170.56
532.632	35318.8
532.998	35364.68
533.364	35736.42
533.73	35836.3
534.095	36262.96
534.461	36347.25
534.826	36485.78
535.192	36613.91
535.557	37080.34
535.923	37030.4
536.288	37267.9
536.653	37403.27
537.019	37446.88
537.384	37761
537.749	37799.19
538.114	37941.56
538.479	38031.95
538.845	38268.78
539.21	38257.93
539.575	38416.57
539.94	38692.95
540.305	38779.28
540.67	38801.2
541.034	39065.6
541.399	39013.62
541.764	39295.65
542.129	39474.85
542.494	39607.28
542.858	39829.87
543.223	39608.18
543.587	39941.05
543.952	39999.36
544.316	40299.46
544.681	40277.09
545.045	40431.21
545.41	40647.02
545.774	40605.44
546.138	40676.18
546.503	40944.19
546.867	40937.64
547.231	41385.54
547.595	41310.96
547.959	41469.83
548.324	41651.52
548.688	41744.85
549.052	41787.11
549.416	41893.32
549.779	42051.28
550.143	42204.27
550.507	42476.81
550.871	42558.84
551.235	42510.93
551.599	42953.18
551.962	43093.97
552.326	43156.11
552.689	43355.88
553.053	43187.75
553.417	43378.7
553.78	43894.17
554.143	43975.75
554.507	44032.47
554.87	44279.92
555.234	44548.16
555.597	44492.57
555.96	44599.69
556.323	44777.76
556.686	44803.75
557.05	45198.32
557.413	45297.75
557.776	45427.92
558.139	45722.15
558.502	45617.29
558.865	45843.27
559.228	46211.4
559.59	46334.11
559.953	46370.72
560.316	46837.37
560.679	46975.9
561.041	46966.18
561.404	47270.35
561.767	47556.22
562.129	47555.09
562.492	47945.14
562.854	47941.52
563.217	48039.6
563.579	48230.55
563.941	48402.07
564.304	48593.03
564.666	48909.63
565.028	48907.82
565.39	49153.69
565.753	49320.24
566.115	49482.5
566.477	49651.53
566.839	49855.82
567.201	50210.39
567.563	50074.57
567.925	50410.84
568.287	50385.53
568.648	50533.77
569.01	50779.87
569.372	51083.81
569.734	50902.57
570.095	51243.36
570.457	51415.55
570.819	51507.53
571.18	51557.92
571.542	51708.2
571.903	51831.82
572.265	52082.88
572.626	52264.57
572.987	52274.29
573.349	52381.18
573.71	52559.71
574.071	52699.81
574.432	52856.19
574.794	53061.61
575.155	53111.56
575.516	53113.14
575.877	53203.98
576.238	53248.5
576.599	53464.77
576.96	53469.51
577.32	53496.86
577.681	53619.79
578.042	53770.52
578.403	53847.13
578.763	53810.29
579.124	53908.14
579.485	54126.22
579.845	54274.46
580.206	54193.56
580.566	54238.53
580.927	54283.28
581.287	54510.61
581.648	54406.66
582.008	54619.31
582.368	54693.21
582.728	54726.88
583.089	54775.92
583.449	54791.06
583.809	54896.59
584.169	54939.98
584.529	54894.33
584.889	55136.81
585.249	55050.04
585.609	54916.48
585.969	55192.18
586.329	55097.72
586.688	55217.26
587.048	55280.99
587.408	55345.62
587.768	55391.04
588.127	55488.44
588.487	55480.31
588.846	55700.87
589.206	55463.13
589.565	55574.99
589.925	55780.41
590.284	55719.17
590.643	55807.08
591.003	55879.84
591.362	56033.96
591.721	55976.56
592.08	56043.68
592.44	56182.21
592.799	56141.53
593.158	56197.58
593.517	56180.18
593.876	56328.19
594.235	56343.56
594.593	56355.76
594.952	56481.86
595.311	56441.64
595.67	56472.37
596.029	56661.52
596.387	56785.36
596.746	56881.4
597.104	56695.87
597.463	56763.89
597.822	56994.62
598.18	56812.25
598.538	56894.51
598.897	57147.38
599.255	56959.59
599.613	57319.58
599.972	57124.11
600.33	57291.56
600.688	57286.59
601.046	57375.85
601.404	57540.82
601.762	57483.19
602.12	57635.05
602.478	57624.88
602.836	57686.58
603.194	57693.81
603.552	57767.93
603.91	57664.66
604.268	57860.81
604.625	57749.85
604.983	58025.55
605.341	57843.63
605.698	58026.68
606.056	58235.94
606.413	58110.97
606.771	58322.94
607.128	58309.38
607.485	58282.49
607.843	58314.58
608.2	58477.74
608.557	58581.02
608.914	58491.98
609.272	58625.99
609.629	58773.1
609.986	58837.51
610.343	58850.39
610.7	58992.3
611.057	59012.19
611.414	58935.58
611.771	59133.54
612.127	59131.74
612.484	59153.66
612.841	59298.06
613.198	59235.01
613.554	59199.98
613.911	59423.25
614.267	59380.32
614.624	59380.77
614.98	59488.34
615.337	59657.82
615.693	59624.38
616.05	59606.3
616.406	59773.98
616.762	59680.42
617.118	59746.64
617.475	59754.32
617.831	59854.88
618.187	59923.13
618.543	59924.71
618.899	60101.65
619.255	60038.83
619.611	60066.85
619.967	60190.24
620.323	60262.55
620.678	60142.11
621.034	60150.47
621.39	60185.72
621.746	60218.94
622.101	60481.31
622.457	60294.42
622.812	60420.97
623.168	60458.48
623.523	60392.04
623.879	60468.88
624.234	60427.75
624.589	60441.31
624.945	60500.29
625.3	60529.21
625.655	60522.21
626.01	60539.61
626.365	60618.02
626.72	60517.69
627.075	60518.14
627.43	60527.41
627.785	60564.24
628.14	60518.59
628.495	60616.89
628.85	60637.46
629.205	60564.69
629.559	60677.23
629.914	60578.25
630.269	60607.4
630.623	60482.44
630.978	60440.18
631.332	60590.45
631.687	60595.43
632.041	60613.05
632.396	60546.16
632.75	60535.09
633.104	60566.73
633.459	60431.81
633.813	60471.59
634.167	60446.05
634.521	60441.76
634.875	60448.76
635.229	60423
635.583	60246.51
635.937	60303
636.291	60259.16
636.645	60337.81
636.999	60135.33
637.352	60222.33
637.706	60062.56
638.06	60239.96
638.413	60150.24
638.767	60039.28
639.121	60074.08
639.474	60013.75
639.828	60028.89
640.181	59992.96
640.534	60073.18
640.888	59953.41
641.241	59829.8
641.594	59863.92
641.947	59873.64
642.301	59864.15
642.654	59880.19
643.007	59790.48
643.36	59840.64
643.713	59745.51
644.066	59914.99
644.419	59698.73
644.771	59454.67
645.124	59205.41
645.477	59156.37
645.83	59052.19
646.182	59022.36
646.535	58981.68
646.888	59089.03
647.24	58924.96
647.593	59074.56
647.945	58979.88
648.298	58832.08
648.65	58780.78
649.002	58686.32
649.355	58612.65
649.707	58626.89
650.059	58534.92
650.411	58959.76
650.763	59051.51
651.115	59408.11
651.467	59289.7
651.819	59270.94
652.171	59278.4
652.523	59107.33
652.875	59171.74
653.227	59091.74
653.578	59271.85
653.93	59155.46
654.282	59051.74
654.633	59012.42
654.985	59035.02
655.337	59068.46
655.688	58982.59
656.039	59084.28
656.391	58749.6
656.742	58823.5
657.094	58851.97
657.445	58922.02
657.796	58917.73
658.147	58806.1
658.498	58845.19
658.849	58947.11
659.2	58729.71
659.551	58664.86
659.902	58918.63
660.253	58699.21
660.604	58782.82
660.955	58652.43
661.306	58745.53
661.656	58657.85
662.007	58699.21
662.358	58617.17
662.708	58654.01
663.059	58583.73
663.409	58417.4
663.76	58614.01
664.11	58598.87
664.461	58676.38
664.811	58617.63
665.161	58630.51
665.511	58547.8
665.862	58577.63
666.212	58577.4
666.562	58604.07
666.912	58544.86
667.262	58481.58
667.612	58483.84
667.962	58454.69
668.312	58435.03
668.662	58573.78
669.011	58543.73
669.361	58434.81
669.711	58451.08
670.06	58472.54
670.41	58392.32
670.76	58417.18
671.109	58457.63
671.459	58452.43
671.808	58423.51
672.157	58440.45
672.507	58296.73
672.856	58322.94
673.205	58300.12
673.554	58324.53
673.904	58278.88
674.253	58488.14
674.602	58311.87
674.951	57965.89
675.3	57887.7
675.649	58291.53
675.998	58251.08
676.346	58319.33
676.695	58333.34
677.044	58149.62
677.393	58163.17
677.741	58304.19
678.09	58202.72
678.438	58126.34
678.787	58138.54
679.135	58174.25
679.484	58051.31
679.832	58126.34
680.181	58083.63
680.529	58068.71
680.877	57997.75
681.225	57960.69
681.573	58133.34
681.922	57992.56
682.27	57917.08
682.618	57986
682.966	57881.6
683.314	57950.07
683.661	57846.12
684.009	57741.72
684.357	57798.44
684.705	57706.69
685.053	57726.12
685.4	57613.58
685.748	57597.31
686.095	57630.31
686.443	57444.55
686.79	57454.72
687.138	57517.54
687.485	57550.53
687.832	57416.98
688.18	57398.45
688.527	57289.52
688.874	57320.03
689.221	57265.34
689.568	57221.73
689.915	57179.7
690.262	57202.07
690.609	57115.07
690.956	56990.55
691.303	57067.16
691.65	56916.65
691.997	56864.23
692.344	56786.04
692.69	56707.39
693.037	56738.35
693.383	56537.23
693.73	56635.3
694.077	56457.23
694.423	56473.73
694.769	56469.21
695.116	56349.89
695.462	56281.19
695.808	56235.09
696.155	56229.67
696.501	56005.49
696.847	56133.85
697.193	55925.72
697.539	56032.16
697.885	55828.09
698.231	55830.35
698.577	55772.73
698.923	55763.24
699.269	55565.95
699.614	55624.48
699.96	55480.08
700.306	55464.71
700.651	55418.84
700.997	55303.59
701.342	55234.89
701.688	55211.16
702.033	55110.6
702.379	55063.59
702.724	54904.95
703.069	55087.32
703.415	54735.69
703.76	54675.13
704.105	54730.72
704.45	54618.63
704.795	54547.45
705.14	54436.49
705.485	54415.93
705.83	54223.62
706.175	54372.31
706.52	54240.57
706.865	54133.22
707.209	54063.17
707.554	53982.04
707.899	53998.99
708.243	53850.75
708.588	53809.84
708.932	53783.18
709.277	53729.84
709.621	53618.43
709.966	53449.85
710.31	53458.66
710.654	53256.18
710.998	53290.08
711.342	53315.84
711.687	53173.25
712.031	53161.95
712.375	53025.68
712.719	52962.18
713.063	53012.58
713.407	53081.27
713.75	52893.93
714.094	52859.58
714.438	52709.08
714.782	52739.36
715.125	52605.58
715.469	52691
715.812	52438.35
716.156	52378.24
716.499	52413.27
716.843	52289.88
717.186	52170.56
717.53	52345.47
717.873	52275.65
718.216	52204.91
718.559	52108.64
718.902	51792.95
719.246	51832.49
719.589	51750.69
719.932	51656
720.275	51759.95
720.617	51760.63
720.96	51568.32
721.303	51691.25
721.646	51648.54
721.989	51419.85
722.331	51556.12
722.674	51368.1
723.016	51380.75
723.359	51212.17
723.701	51283.13
724.044	51289.23
724.386	50966.53
724.729	51125.62
725.071	51070.25
725.413	51048.78
725.755	50974.44
726.097	50809.47
726.439	50804.95
726.782	50763.37
727.124	50898.05
727.465	50785.06
727.807	50663.71
728.149	50651.28
728.491	50438.86
728.833	50583.94
729.175	50418.52
729.516	50312.08
729.858	50419.87
730.199	50421
730.541	50374.45
730.882	50129.26
731.224	50216.94
731.565	50092.43
731.906	50036.38
732.248	50158.41
732.589	49823.51
732.93	49851.75
733.271	49934.69
733.612	49820.57
733.953	49944.18
734.294	49794.81
734.635	49704.87
734.976	49756.84
735.317	49657.63
735.658	49717.07
735.999	49493.8
736.339	49452.44
736.68	49532.67
737.021	49543.29
737.361	49274.59
737.702	49556.39
738.042	49303.07
738.383	49369.06
738.723	49437.53
739.063	49142.17
739.404	49354.82
739.744	49169.96
740.084	49040.93
740.424	49080.48
740.764	49026.92
741.104	49116.63
741.444	48878.9
741.784	48790.77
742.124	48919.8
742.464	48877.09
742.804	48799.8
743.143	48710.99
743.483	48730.88
743.823	48456.54
744.162	48478.23
744.502	48568.4
744.841	48388.52
745.181	48469.87
745.52	48220.38
745.86	48387.39
746.199	48317.78
746.538	48274.85
746.877	48259.71
747.216	48077.34
747.556	48127.05
747.895	48130.22
748.234	47952.82
748.573	48019.26
748.911	47812.03
749.25	47847.06
749.589	47639.61
749.928	47683.22
750.267	47740.62
750.605	47649.78
750.944	47537.92
751.283	47462.44
751.621	47461.76
751.96	47255.89
752.298	47189
752.636	47231.94
752.975	47174.76
753.313	47002.34
753.651	47238.72
753.989	46878.05
754.327	46871.72
754.666	46620.2
755.004	46779.29
755.342	46666.53
755.679	46635.79
756.017	46436.93
756.355	46542.01
756.693	46219.31
757.031	46427.66
757.368	46052.08
757.706	46046.43
758.044	46048.24
758.381	45919.88
758.719	45796.95
759.056	45640.79
759.394	45700
759.731	45370.97
760.068	45268.15
760.405	45373.91
760.743	45121.94
761.08	45022.95
761.417	44870.42
761.754	44867.48
762.091	44671.55
762.428	44488.05
762.765	44275.4
763.102	44483.53
763.438	44189.76
763.775	43961.06
764.112	43864.34
764.449	43947.5
764.785	43668.87
765.122	43432.71
765.458	43334.19
765.795	43207.64
766.131	43315.88
766.467	43145.26
766.804	42911.6
767.14	42654.43
767.476	42619.63
767.812	42543.25
768.148	42638.84
768.485	42345.74
768.821	42095.12
769.157	42084.73
769.492	41932.19
769.828	41700.56
770.164	41388.25
770.5	41473.22
770.836	41421.69
771.171	41300.79
771.507	41165.88
771.842	40877.07
772.178	40881.37
772.513	40745.1
772.849	40565.67
773.184	40543.3
773.519	40384.66
773.855	40158.45
774.19	40101.05
774.525	39749.19
774.86	39800.04
775.195	39697.9
775.53	39477.56
775.865	39289.32
776.2	39127.74
776.535	38794.42
776.87	38922.32
777.205	38671.94
777.539	38526.85
777.874	38570.02
778.209	38188.33
778.543	38305.62
778.878	37941.56
779.212	38057.71
779.547	37668.57
779.881	37622.92
780.215	37444.85
780.55	37443.49
780.884	37096.16
781.218	37141.58
781.552	37226.78
781.886	36812.1
782.22	36723.96
782.554	36605.55
782.888	36246.69
783.222	36082.62
783.556	36029.97
783.889	35887.15
784.223	35630.21
784.557	35576.2
784.89	35756.31
785.224	35304.11
785.557	35093.27
785.891	35155.87
786.224	35095.76
786.558	35119.49
786.891	34771.25
787.224	34625.04
787.557	34453.74
787.891	34311.37
788.224	34288.1
788.557	34220.07
788.89	34071.6
789.223	33984.37
789.556	33804.72
789.888	33761.1
790.221	33709.35
790.554	33581.9
790.887	33395.46
791.219	33274.34
791.552	33141.69
791.884	33011.07
792.217	32839.09
792.549	32821.47
792.882	32502.38
793.214	32489.72
793.546	32517.97
793.879	32278.88
794.211	32219.68
794.543	32175.61
794.875	32100.81
795.207	32054.48
795.539	31916.63
795.871	31949.4
796.203	31679.35
796.535	31455.4
796.867	31466.25
797.198	31252.47
797.53	31292.02
797.862	30993.49
798.193	31009.76
798.525	30903.33
798.856	30966.83
799.188	30639.83
799.519	30508.99
799.85	30458.59
800.182	30410.68
800.513	30535.2
800.844	30089.34
801.175	30246.62
801.506	30220.41
801.837	30066.29
802.168	29995.1
802.499	29899.51
802.83	29750.14
803.161	29601.89
803.491	29572.06
803.822	29588.56
804.153	29338.85
804.483	29232.86
804.814	29015.01
805.145	29227.66
805.475	29144.05
805.805	28950.61
806.136	29044.62
806.466	28975.24
806.796	28900.67
807.126	28550.85
807.457	28563.73
807.787	28654.57
808.117	28339.55
808.447	28254.58
808.777	28493.9
809.107	28113.57
809.436	28059.56
809.766	28156.51
810.096	27994.93
810.426	27865.89
810.755	27864.31
811.085	27770.75
811.414	27766.91
811.744	27652.79
812.073	27534.6
812.403	27561.72
812.732	27289.41
813.061	27439.46
813.39	27182.97
813.719	27086.48
814.049	27262.29
814.378	27417.77
814.707	26927.84
815.036	26961.73
815.365	26824.34
815.693	26631.57
816.022	26718.13
816.351	26559.71
816.68	26536.44
817.008	26612.37
817.337	26232.71
817.665	26413.5
817.994	26383.67
818.322	26489.66
818.651	26218.48
818.979	26177.8
819.307	26169.44
819.636	26092.38
819.964	26058.03
820.292	26157.24
820.62	25986.17
820.948	26116.33
821.276	26172.38
821.604	26008.99
821.932	26183.68
822.259	25970.8
822.587	25972.61
822.915	25972.38
823.243	26072.49
823.57	25941.2
823.898	26030.69
824.225	25888.99
824.553	25825.95
824.88	25873.18
825.207	26153.39
825.535	25820.07
825.862	25944.36
826.189	25889.22
826.516	26040.18
826.843	26154.3
827.17	26054.87
827.497	25966.28
827.824	26201.3
828.151	26057.58
828.478	25990.46
828.805	26142.32
829.131	25971.7
829.458	25948.65
829.785	25760.86
830.111	25982.78
830.438	25924.25
830.764	25999.05
831.09	25991.59
831.417	25841.09
831.743	26056.22
832.069	25939.39
832.395	25798.15
832.722	25952.27
833.048	25929.9
833.374	25899.16
833.7	25757.47
834.026	25847.19
834.351	25711.15
834.677	25893.29
835.003	25790.01
835.329	25691.03
835.654	25689
835.98	25566.97
836.306	25770.58
836.631	25591.38
836.956	25707.3
837.282	25646.06
837.607	25578.49
837.932	25519.29
838.258	25438.61
838.583	25388.67
838.908	25305.28
839.233	25284.49
839.558	25368.78
839.883	25239.52
840.208	25075.46
840.533	25223.93
840.858	25153.19
841.182	25102.12
841.507	25041.11
841.832	24969.02
842.156	24989.81
842.481	24983.93
842.805	24912.3
843.13	24814.45
843.454	24813.32
843.778	24694.45
844.103	24660.78
844.427	24569.93
844.751	24638.63
845.075	24581.01
845.399	24400.67
845.723	24339.2
846.047	24450.16
846.371	24286.32
846.695	24085.2
847.019	24050.17
847.343	23866.22
847.666	23734.7
847.99	23663.97
848.313	23506.68
848.637	23565.67
848.96	23524.08
849.284	23547.59
849.607	23219.91
849.931	23281.38
850.254	23171.78
850.577	22929.3
850.9	22811.56
851.223	22797.1
851.546	22660.83
851.869	22488.18
852.192	22565.47
852.515	22383.32
852.838	22291.12
853.161	22359.82
853.483	22010.68
853.806	22148.98
854.129	22002.54
854.451	22082.31
854.774	21973.84
855.096	21841.42
855.419	21747.86
855.741	21867.41
856.063	21538.6
856.385	21632.61
856.708	21434.87
857.03	21437.59
857.352	21388.1
857.674	21339.51
857.996	21171.15
858.318	21044.83
858.64	21143.81
858.961	21009.8
859.283	21087.54
859.605	20918.28
859.926	20861.78
860.248	20734.33
860.57	20684.39
860.891	20695.23
861.212	20654.56
861.534	20631.05
861.855	20490.94
862.176	20533.43
862.498	20525.97
862.819	20477.39
863.14	20379.53
863.461	20424.73
863.782	20304.96
864.103	20351.74
864.424	20341.57
864.745	20322.59
865.065	20202.59
865.386	20094.12
865.707	20076.72
866.027	20109.71
866.348	20039.88
866.668	20122.37
866.989	19916.5
867.309	19826.1
867.63	19799.89
867.95	19935.48
868.27	19765.99
868.59	19893.22
868.91	19766.67
869.23	19690.74
869.55	19570.74
869.87	19690.29
870.19	19554.02
870.51	19517.64
870.83	19570.74
871.15	19462.27
871.469	19462.95
871.789	19542.04
872.109	19470.18
872.428	19452.78
872.748	19462.5
873.067	19316.29
873.386	19340.92
873.706	19335.04
874.025	19251.2
874.344	19200.81
874.663	19237.64
874.982	19174.14
875.301	19185.44
875.62	19082.62
875.939	19041.49
876.258	19154.03
876.577	18965.56
876.896	18947.26
877.214	18936.63
877.533	19007.59
877.852	18872.91
878.17	18840.59
878.489	18802.63
878.807	18786.58
879.125	18711.56
879.444	18658.22
879.762	18720.37
880.08	18629.3
880.398	18618.9
880.716	18604.21
881.034	18527.83
881.352	18629.52
881.67	18482.86
881.988	18379.81
882.306	18465.91
882.624	18379.59
882.941	18343.66
883.259	18244.22
883.577	18316.76
883.894	18212.13
884.212	18092.14
884.529	18041.52
884.846	18051.23
885.164	17923.78
885.481	18001.97
885.798	17844.46
886.115	17839.71
886.432	17850.11
886.75	17819.83
887.067	17878.81
887.383	17658.7
887.7	17681.3
888.017	17590.23
888.334	17570.34
888.651	17577.57
888.967	17463.23
889.284	17412.83
889.6	17413.51
889.917	17302.1
890.233	17259.84
890.55	17288.09
890.866	17228.88
891.182	17228.21
891.498	17180.97
891.815	16998.83
892.131	16918.16
892.447	16940.3
892.763	16816.01
893.079	16897.59
893.395	16766.07
893.71	16703.47
894.026	16710.7
894.342	16707.09
894.657	16592.29
894.973	16593.65
895.289	16522.24
895.604	16370.37
895.92	16291.96
896.235	16284.95
896.55	16310.49
896.865	16216.25
897.181	16148.46
897.496	16127.67
897.811	16068.69
898.126	15983.27
898.441	15951.18
898.756	15925.87
899.071	15851.74
899.386	15887.22
899.7	15694.69
900.015	15672.09
900.33	15530.62
900.644	15621.24
900.959	15560.9
901.273	15407.24
901.588	15473
901.902	15373.56
902.216	15336.05
902.531	15174.7
902.845	15160.01
903.159	15010.64
903.473	15055.61
903.787	14914.59
904.101	14896.74
904.415	14917.31
904.729	14875.27
905.042	14745.56
905.356	14760.47
905.67	14661.72
905.984	14675.28
906.297	14600.03
906.611	14509.63
906.924	14521.38
907.237	14369.75
907.551	14372.24
907.864	14213.37
908.177	14213.37
908.491	14194.39
908.804	14078.01
909.117	14024.67
909.43	13939.93
909.743	13884.11
910.056	14010.89
910.368	13887.73
910.681	13871.68
910.994	13749.65
911.307	13733.38
911.619	13609.09
911.932	13598.92
912.244	13491.58
912.557	13497.23
912.869	13433.05
913.181	13402.54
913.494	13428.98
913.806	13235.54
914.118	13099.05
914.43	13134.53
914.742	13106.73
915.054	13099.27
915.366	12970.69
915.678	12952.16
915.99	12895.21
916.302	12841.2
916.613	12753.97
916.925	12737.48
917.236	12623.58
917.548	12611.38
917.859	12559.63
918.171	12514.66
918.482	12395.56
918.794	12441.89
919.105	12332.74
919.416	12272.4
919.727	12219.75
920.038	12133.88
920.349	12042.58
920.66	12074.22
920.971	12105.63
921.282	12013.43
921.593	11890.27
921.903	11852.98
922.214	11769.82
922.525	11773.66
922.835	11674.45
923.146	11680.78
923.456	11605.3
923.767	11504.74
924.077	11493.21
924.387	11480.56
924.697	11497.28
925.008	11448.7
925.318	11307.46
925.628	11346.78
925.938	11284.41
926.248	11192.66
926.558	11067.92
926.867	11113.34
927.177	11087.8
927.487	10986.34
927.796	10900.69
928.106	10858.66
928.416	10822.72
928.725	10861.59
929.034	10760.8
929.344	10734.14
929.653	10694.37
929.962	10596.29
930.271	10526.46
930.581	10553.13
930.89	10435.84
931.199	10405.11
931.508	10342.96
931.817	10399.01
932.125	10283.53
932.434	10258.22
932.743	10121.5
933.051	10039.47
933.36	10048.51
933.669	9986.36
933.977	10006.02
934.286	9936.65
934.594	9911.34
934.902	9872.24
935.21	9823.88
935.519	9709.31
935.827	9802.86
936.135	9632.7
936.443	9607.84
936.751	9570.78
937.059	9575.98
937.367	9589.54
937.674	9547.28
937.982	9493.27
938.29	9473.61
938.597	9461.18
938.905	9252.6
939.213	9351.8
939.52	9255.76
939.827	9286.49
940.135	9305.02
940.442	9206.5
940.749	9099.83
941.056	9142.99
941.363	9003.11
941.67	9000.85
941.977	8933.73
942.284	8936.67
942.591	8892.61
942.898	8817.8
943.205	8778.26
943.511	8779.61
943.818	8731.25
944.125	8665.72
944.431	8621.65
944.738	8597.25
945.044	8574.87
945.35	8462.33
945.657	8455.55
945.963	8479.51
946.269	8383.24
946.575	8327.42
946.881	8251.27
947.187	8317.93
947.493	8239.74
947.799	8199.74
948.105	8235.22
948.41	8096.92
948.716	8100.08
949.022	8115
949.327	8031.61
949.633	7938.51
949.938	7974.21
950.244	7937.83
950.549	7934.89
950.854	7838.4
951.16	7849.02
951.465	7792.52
951.77	7715.46
952.075	7733.77
952.38	7770.83
952.685	7648.12
952.99	7582.13
953.294	7546.65
953.599	7482.7
953.904	7494.68
954.209	7395.02
954.513	7459.2
954.818	7432.98
955.122	7418.52
955.426	7380.78
955.731	7298.3
956.035	7267.79
956.339	7221.24
956.643	7191.86
956.948	7135.82
957.252	7144.63
957.556	7136.72
957.86	7031.86
958.163	7020.79
958.467	7033.9
958.771	6994.58
959.075	6941.7
959.378	6876.61
959.682	6828.93
959.985	6901.02
960.289	6805.2
960.592	6782.38
960.896	6765.2
961.199	6738.31
961.502	6744.41
961.805	6666.9
962.108	6618.31
962.411	6574.7
962.714	6600.69
963.017	6536.73
963.32	6569.05
963.623	6513.23
963.926	6489.5
964.228	6421.48
964.531	6416.06
964.833	6415.16
965.136	6361.6
965.438	6302.84
965.741	6282.28
966.043	6233.92
966.345	6216.52
966.648	6190.98
966.95	6163.41
967.252	6145.78
967.554	6133.36
967.856	6150.3
968.158	6045.9
968.46	6010.42
968.761	6031.66
969.063	5991.89
969.365	5969.74
969.666	5916.86
969.968	5835.96
970.269	5817.43
970.571	5840.93
970.872	5827.83
971.174	5772.01
971.475	5809.75
971.776	5739.24
972.077	5692.69
972.378	5643.65
972.679	5653.82
972.98	5639.58
973.281	5636.42
973.582	5576.76
973.883	5558
974.183	5554.84
974.484	5504.45
974.785	5472.36
975.085	5443.43
975.386	5497.89
975.686	5348.74
975.986	5441.62
976.287	5389.19
976.587	5307.84
976.887	5325.47
977.187	5315.52
977.487	5249.09
977.787	5260.61
978.087	5250.89
978.387	5215.64
978.687	5207.73
978.987	5110.11
979.286	5117.56
979.586	5093.38
979.885	5061.07
980.185	5029.2
980.484	5033.72
980.784	4998.47
981.083	4992.82
981.382	4951.01
981.682	4997.57
981.981	4909.43
982.28	4887.74
982.579	4844.58
982.878	4833.95
983.177	4809.1
983.475	4856.33
983.774	4782.2
984.073	4741.98
984.372	4740.85
984.67	4758.7
984.969	4713.05
985.267	4710.34
985.566	4643.68
985.864	4601.87
986.162	4598.25
986.461	4584.92
986.759	4585.83
987.057	4533.17
987.355	4512.16
987.653	4474.64
987.951	4452.72
988.249	4475.77
988.547	4407.75
988.844	4401.65
989.142	4391.03
989.44	4353.74
989.737	4340.18
990.035	4291.82
990.332	4327.75
990.63	4275.33
990.927	4238.72
991.224	4259.28
991.521	4204.59
991.819	4236
992.116	4161.43
992.413	4160.3
992.71	4144.93
993.006	4091.6
993.303	4142
993.6	4063.58
993.897	4065.39
994.193	4041.89
994.49	4068.55
994.787	3975.67
995.083	3952.85
995.379	3947.88
995.676	3945.39
995.972	3945.84
996.268	3940.19
996.565	3883.02
996.861	3831.5
997.157	3883.02
997.453	3789.91
997.749	3789.91
998.044	3743.36
998.34	3738.62
998.636	3754.66
998.932	3737.71
999.227	3659.75
999.523	3692.74
999.818	3676.47
1000.114	3628.79
1000.409	3622.91
1000.704	3615.46
1001	3572.75
1001.295	3513.31
1001.59	3538.4
1001.885	3528.45
1002.18	3466.99
1002.475	3473.09
1002.77	3448.91
1003.065	3410.94
1003.359	3408.68
1003.654	3379.08
1003.949	3419.08
1004.243	3353.54
1004.538	3325.07
1004.832	3318.97
1005.127	3328.23
1005.421	3289.14
1005.715	3261.57
1006.009	3329.59
1006.304	3250.72
1006.598	3208.69
1006.892	3151.74
1007.186	3161.91
1007.48	3125.3
1007.773	3111.06
1008.067	3060.89
1008.361	3096.37
1008.655	3036.49
1008.948	3023.83
1009.242	2984.74
1009.535	3029.93
1009.829	3005.75
1010.122	2987.22
1010.415	2934.12
1010.708	2932.76
1011.001	2948.81
1011.295	2903.16
1011.588	2931.41
1011.881	2840.79
1012.173	2850.05
1012.466	2836.49
1012.759	2837.85
1013.052	2825.65
1013.344	2774.8
1013.637	2741.81
1013.93	2741.35
1014.222	2761.01
1014.514	2711.07
1014.807	2701.81
1015.099	2686.44
1015.391	2667.91
1015.683	2630.4
1015.976	2610.74
1016.268	2624.52
1016.56	2594.92
1016.851	2563.96
1017.143	2538.87
1017.435	2525.09
1017.727	2494.58
1018.018	2530.96
1018.31	2441.02
1018.602	2470.63
1018.893	2456.84
1019.185	2436.73
1019.476	2428.37
1019.767	2409.16
1020.058	2384.75
1020.35	2350.4
1020.641	2356.28
1020.932	2308.15
1021.223	2339.56
1021.514	2262.5
1021.804	2330.97
1022.095	2299.11
1022.386	2221.59
1022.677	2261.14
1022.967	2208.04
1023.258	2178.66
1023.548	2178.21
1023.839	2180.47
1024.129	2155.61
1024.419	2156.96
1024.709	2130.07
1025	2135.95
1025.29	2069.06
1025.58	2067.47
1025.87	2057.08
1026.16	2067.93
1026.449	2069.06
1026.739	2044.88
1027.029	1981.37
1027.319	1959.91
1027.608	1965.1
1027.898	1997.42
1028.187	1946.35
1028.477	1942.28
1028.766	1919.68
1029.055	1923.3
1029.344	1883.07
1029.634	1881.49
1029.923	1854.6
1030.212	1843.98
1030.501	1851.21
1030.79	1855.73
1031.078	1819.8
1031.367	1788.16
1031.656	1799.46
1031.945	1810.31
1032.233	1751.1
1032.522	1738.44
1032.81	1753.36
1033.099	1711.1
1033.387	1706.35
1033.675	1712.68
1033.963	1641.27
1034.251	1689.18
1034.54	1653.25
1034.828	1638.11
1035.116	1632.91
1035.403	1645.56
1035.691	1611.21
1035.979	1616.86
1036.267	1606.7
1036.554	1573.48
1036.842	1575.96
1037.129	1560.82
1037.417	1553.14
1037.704	1505.23
1037.992	1520.6
1038.279	1490.54
1038.566	1501.39
1038.853	1501.39
1039.14	1501.39
