Data from 12-0727_FLMS001491_003.txt Node
Date: Thu Apr 12 17:09:03 BST 2018
User: hsy
Spectrometer: FLMS00149
Trigger mode: 0
Integration Time (sec): 1.000000E-2
Scans to average: 10
Electric dark correction enabled: true
Nonlinearity correction enabled: false
Boxcar width: 0
XAxis mode: Wavelengths
Number of Pixels in Spectrum: 2048
>>>>>Begin Spectral Data<<<<<
341.393	-16.23
341.776	-16.23
342.16	-16.23
342.543	-41.99
342.927	-99.16
343.31	-68.2
343.693	-78.6
344.077	-43.57
344.46	-53.74
344.843	-55.32
345.226	-47.64
345.61	-43.8
345.993	-25.04
346.376	-16.91
346.759	-3.12
347.142	37.56
347.525	51.34
347.908	82.98
348.291	67.16
348.674	95.63
349.057	101.28
349.44	115.75
349.823	141.73
350.206	166.59
350.588	238.23
350.971	262.41
351.354	267.61
351.737	273.26
352.119	274.16
352.502	283.65
352.884	298.57
353.267	323.65
353.65	319.81
354.032	322.97
354.414	346.47
354.797	346.02
355.179	360.48
355.562	360.71
355.944	354.16
356.326	367.94
356.709	375.63
357.091	385.34
357.473	381.95
357.855	365.23
358.238	399.35
358.62	364.33
359.002	359.58
359.384	381.28
359.766	358.45
360.148	372.46
360.53	383.99
360.912	372.91
361.294	383.54
361.676	364.33
362.057	374.95
362.439	365
362.821	375.63
363.203	354.61
363.584	362.74
363.966	370.2
364.348	366.81
364.729	366.59
365.111	357.32
365.493	373.14
365.874	379.02
366.256	368.62
366.637	373.59
367.019	370.88
367.4	369.75
367.781	362.74
368.163	361.84
368.544	356.19
368.925	346.93
369.306	360.94
369.688	384.21
370.069	371.56
370.45	366.13
370.831	353.25
371.212	360.03
371.593	375.85
371.974	383.08
372.355	381.28
372.736	396.64
373.117	395.96
373.498	365.23
373.879	376.3
374.26	386.92
374.641	371.78
375.021	375.4
375.402	393.48
375.783	376.08
376.163	393.03
376.544	387.15
376.925	383.54
377.305	384.89
377.686	396.64
378.066	386.25
378.447	400.48
378.827	396.42
379.208	419.01
379.588	414.95
379.968	404.55
380.349	397.55
380.729	397.55
381.109	415.17
381.489	398.22
381.87	408.62
382.25	413.82
382.63	419.24
383.01	421.27
383.39	425.57
383.77	403.2
384.15	431.22
384.53	421.95
384.91	423.31
385.29	447.04
385.67	474.38
386.049	440.93
386.429	443.65
386.809	443.42
387.189	452.91
387.568	468.73
387.948	452.23
388.328	453.59
388.707	456.08
389.087	475.51
389.466	452.46
389.846	455.62
390.225	475.51
390.605	476.19
390.984	490.88
391.363	491.1
391.743	492.01
392.122	483.65
392.501	485.68
392.881	488.84
393.26	521.16
393.639	497.43
394.018	507.37
394.397	520.48
394.776	512.57
395.155	521.61
395.534	533.36
395.913	522.06
396.292	527.94
396.671	521.16
397.05	537.66
397.429	531.55
397.808	550.54
398.186	534.04
398.565	535.4
398.944	544.66
399.323	538.56
399.701	558.22
400.08	548.05
400.458	563.42
400.837	579.69
401.215	576.98
401.594	567.94
401.972	573.81
402.351	588.28
402.729	589.86
403.107	576.3
403.486	565.45
403.864	586.69
404.242	590.08
404.62	639.35
404.999	611.33
405.377	599.8
405.755	623.08
406.133	624.43
406.511	628.05
406.889	637.31
407.267	658.78
407.645	642.06
408.023	660.82
408.401	680.25
408.779	672.79
409.156	689.29
409.534	694.04
409.912	701.27
410.29	716.18
410.667	713.92
411.045	734.49
411.422	728.61
411.8	742.17
412.178	728.38
412.555	735.84
412.933	748.5
413.31	806.35
413.687	803.19
414.065	797.99
414.442	816.52
414.819	826.24
415.197	830.3
415.574	822.85
415.951	862.62
416.328	837.31
416.705	856.07
417.082	854.03
417.46	881.6
417.837	890.87
418.214	868.49
418.591	903.52
418.967	883.86
419.344	909.85
419.721	930.64
420.098	905.33
420.475	921.15
420.852	908.72
421.228	922.28
421.605	970.41
421.982	971.99
422.358	951.88
422.735	965.44
423.111	970.64
423.488	974.93
423.864	961.6
424.241	1003.86
424.617	1018.77
424.994	1033.24
425.37	1032.11
425.746	1034.82
426.123	1049.73
426.499	1054.7
426.875	1078.43
427.251	1073.01
427.627	1096.96
428.003	1094.93
428.379	1100.58
428.756	1124.31
429.132	1120.01
429.507	1161.59
429.883	1173.12
430.259	1172.21
430.635	1185.55
431.011	1179.9
431.387	1227.35
431.763	1226
432.138	1250.63
432.514	1261.03
432.89	1249.95
433.265	1295.83
433.641	1305.32
434.016	1319.78
434.392	1325.21
434.767	1329.95
435.143	1350.06
435.518	1353.23
435.894	1374.92
436.269	1383.96
436.644	1400.91
437.02	1406.11
437.395	1425.99
437.77	1409.5
438.145	1465.09
438.52	1477.52
438.895	1461.47
439.271	1476.39
439.646	1501.7
440.021	1506.9
440.395	1536.73
440.77	1488.82
441.145	1517.52
441.52	1536.95
441.895	1560.45
442.27	1578.76
442.645	1583.96
443.019	1571.53
443.394	1582.15
443.769	1608.36
444.143	1593.22
444.518	1616.5
444.892	1599.1
445.267	1613.79
445.641	1674.8
446.016	1637.29
446.39	1632.54
446.764	1657.63
447.139	1694.24
447.513	1685.65
447.887	1686.33
448.262	1700.34
448.636	1703.05
449.01	1763.16
449.384	1774.01
449.758	1763.16
450.132	1812.42
450.506	1782.14
450.88	1823.5
451.254	1809.26
451.628	1855.81
452.002	1866.89
452.376	1858.3
452.75	1885.42
453.123	1901.46
453.497	1957.51
453.871	1933.32
454.244	1990.05
454.618	1987.79
454.992	2023.72
455.365	2026.43
455.739	2069.59
456.112	2088.58
456.486	2141.91
456.859	2141
457.232	2179.65
457.606	2171.96
457.979	2212.19
458.352	2279.53
458.725	2323.37
459.099	2284.28
459.472	2326.08
459.845	2376.7
460.218	2394.33
460.591	2418.51
460.964	2438.4
461.337	2484.95
461.71	2503.03
462.083	2563.82
462.456	2544.83
462.829	2585.06
463.201	2609.92
463.574	2583.48
463.947	2655.57
464.32	2696.47
464.692	2732.63
465.065	2747.77
465.438	2790.03
465.81	2827.09
466.183	2821.21
466.555	2882.45
466.928	2921.77
467.3	2929.68
467.672	2984.14
468.045	3011.26
468.417	2999.74
468.789	3075.67
469.161	3087.42
469.534	3171.03
469.906	3211.94
470.278	3247.41
470.65	3223.46
471.022	3339.16
471.394	3333.06
471.766	3405.6
472.138	3453.28
472.51	3496.9
472.882	3549.1
473.253	3580.74
473.625	3653.05
473.997	3716.78
474.369	3764.92
474.74	3801.07
475.112	3896.44
475.484	3907.06
475.855	3960.84
476.227	4100.95
476.598	4161.06
476.97	4225.47
477.341	4272.92
477.713	4334.17
478.084	4407.61
478.455	4526.7
478.827	4508.17
479.198	4688.28
479.569	4733.03
479.94	4839.01
480.311	4879.91
480.682	5017.31
481.053	5168.27
481.424	5243.07
481.795	5274.93
482.166	5396.28
482.537	5489.16
482.908	5564.19
483.279	5678.99
483.65	5842.15
484.021	5929.83
484.391	6007.12
484.762	6104.51
485.133	6228.58
485.503	6331.18
485.874	6532.98
486.244	6596.25
486.615	6790.82
486.985	6895.91
487.356	7008.9
487.726	7140.19
488.097	7400.75
488.467	7464.48
488.837	7694.08
489.207	7783.34
489.578	7984.47
489.948	8140.62
490.318	8354.17
490.688	8405.7
491.058	8607.95
491.428	8786.7
491.798	8981.28
492.168	9199.12
492.538	9337.42
492.908	9601.6
493.278	9698.54
493.648	9835.94
494.017	10131.98
494.387	10271.86
494.757	10408.13
495.126	10621.91
495.496	10783.26
495.866	10989.36
496.235	11186.87
496.605	11457.59
496.974	11654.88
497.344	11909.79
497.713	11997.02
498.082	12270.23
498.452	12460.05
498.821	12710.44
499.19	12902.53
499.559	13114.95
499.928	13294.61
500.298	13559.69
500.667	13814.82
501.036	13950.86
501.405	14240.8
501.774	14373.22
502.143	14732.31
502.512	14843.49
502.88	15168.23
503.249	15412.29
503.618	15556.24
503.987	15794.66
504.356	16066.74
504.724	16237.13
505.093	16525.26
505.462	16711.92
505.83	16898.58
506.199	17332.02
506.567	17593.7
506.936	17743.3
507.304	18049.06
507.672	18244.76
508.041	18501.25
508.409	18786.67
508.777	19068.47
509.145	19345.75
509.514	19414.45
509.882	19756.36
510.25	19903.47
510.618	20225.05
510.986	20416
511.354	20663.45
511.722	21003.56
512.09	21300.5
512.458	21406.71
512.826	21651.9
513.193	21885.57
513.561	22087.15
513.929	22175.73
514.297	22589.96
514.664	22849.39
515.032	23074.46
515.4	23406.88
515.767	23465.64
516.135	23620.89
516.502	23726.2
516.869	24271.04
517.237	24343.81
517.604	24498.61
517.972	24851.59
518.339	25098.37
518.706	25334.97
519.073	25497.23
519.44	25701.97
519.808	26063.99
520.175	26136.98
520.542	26505.11
520.909	26795.27
521.276	26785.78
521.643	27230.06
522.009	27631.18
522.376	27708.24
522.743	27991.17
523.11	28326.53
523.477	28627.99
523.843	28920.41
524.21	29180.07
524.577	29391.81
524.943	29717
525.31	29819.82
525.676	30178.91
526.043	30397.89
526.409	30571.89
526.776	30917.65
527.142	31144.53
527.508	31330.74
527.874	31678.08
528.241	31902.48
528.607	32189.7
528.973	32541.33
529.339	32427.21
529.705	33011.83
530.071	33119.17
530.437	33348.54
530.803	33584.47
531.169	33804.35
531.535	33861.07
531.901	34104.23
532.267	34371.12
532.632	34581.05
532.998	34718.23
533.364	35042.28
533.73	35044.54
534.095	35523.63
534.461	35469.17
534.826	35702.15
535.192	35737.18
535.557	36092.43
535.923	36134.69
536.288	36326.54
536.653	36510.72
537.019	36426.43
537.384	36614.9
537.749	36843.59
538.114	36875
538.479	37056.24
538.845	37196.58
539.21	37233.19
539.575	37404.03
539.94	37518.38
540.305	37779.16
540.67	37893.51
541.034	38103.45
541.399	38220.28
541.764	38197.91
542.129	38293.95
542.494	38357.9
542.858	38629.31
543.223	38739.36
543.587	38912.24
543.952	38815.07
544.316	39159.92
544.681	39006.47
545.045	39404.66
545.41	39497.53
545.774	39557.87
546.138	39539.34
546.503	39757.19
546.867	39907.92
547.231	40166.67
547.595	40316.72
547.959	40355.37
548.324	40381.58
548.688	40549.26
549.052	40750.61
549.416	40737.28
549.779	40836.93
550.143	40939.53
550.507	41283.93
550.871	41434.43
551.235	41393.3
551.599	41867.42
551.962	41791.26
552.326	42017.47
552.689	42115.55
553.053	41953.29
553.417	42235.09
553.78	42685.7
554.143	42624.68
554.507	42829.65
554.87	42995.97
555.234	43313.93
555.597	43123.2
555.96	43191.45
556.323	43634.6
556.686	43647.71
557.05	43989.39
557.413	44030.3
557.776	44160.69
558.139	44440.68
558.502	44543.05
558.865	44502.15
559.228	44933.32
559.59	45062.59
559.953	45093.55
560.316	45611.27
560.679	45567.43
561.041	45967.65
561.404	45992.05
561.767	46335.1
562.129	46295.32
562.492	46593.17
562.854	46732.82
563.217	46862.76
563.579	46929.88
563.941	47149.54
564.304	47429.3
564.666	47759.69
565.028	47630.88
565.39	47853.25
565.753	48207.81
566.115	48183.18
566.477	48470.63
566.839	48568.71
567.201	48860.9
567.563	48904.52
567.925	49212.76
568.287	49237.39
568.648	49390.61
569.01	49646.87
569.372	49977.94
569.734	49742.46
570.095	50079.86
570.457	50338.38
570.819	50437.81
571.18	50372.5
571.542	50693.62
571.903	50712.16
572.265	51000.74
572.626	51053.39
572.987	51133.84
573.349	51324.57
573.71	51392.14
574.071	51628.74
574.432	51720.49
574.794	51903.31
575.155	51998.22
575.516	51967.72
575.877	52220.82
576.238	52166.13
576.599	52425.33
576.96	52369.74
577.32	52448.38
577.681	52554.59
578.042	52763.17
578.403	52817.18
578.763	52820.35
579.124	52851.53
579.485	53118.42
579.845	53235.48
580.206	53122.04
580.566	53217.4
580.927	53256.27
581.287	53444.51
581.648	53318.41
582.008	53589.82
582.368	53579.42
582.728	53681.57
583.089	53708.91
583.449	53753.43
583.809	53810.6
584.169	53939.42
584.529	53769.02
584.889	54095.8
585.249	53982.8
585.609	53970.83
585.969	54132.86
586.329	54110.94
586.688	54282.68
587.048	54235.45
587.408	54242.23
587.768	54282
588.127	54386.41
588.487	54409.23
588.846	54614.43
589.206	54395
589.565	54472.73
589.925	54746.4
590.284	54653.97
590.643	54698.72
591.003	54796.79
591.362	54992.72
591.721	54889.45
592.08	54943.46
592.44	55115.43
592.799	55001.31
593.158	55080.4
593.517	55049.44
593.876	55173.96
594.235	55175.99
594.593	55342.99
594.952	55318.14
595.311	55226.61
595.67	55378.02
596.029	55512.48
596.387	55618.47
596.746	55727.84
597.104	55577.11
597.463	55642.42
597.822	55799.48
598.18	55701.4
598.538	55790.89
598.897	55954.73
599.255	55861.62
599.613	56202.18
599.972	56084.44
600.33	56132.8
600.688	56128.74
601.046	56234.72
601.404	56397.43
601.762	56385.68
602.12	56438.33
602.478	56494.38
602.836	56519.91
603.194	56451.21
603.552	56541.83
603.91	56516.3
604.268	56673.58
604.625	56691.21
604.983	56831.32
605.341	56740.47
605.698	56916.06
606.056	57061.82
606.413	56973.46
606.771	57175.04
607.128	57084.64
607.485	57035.6
607.843	57101.14
608.2	57281.47
608.557	57389.27
608.914	57381.58
609.272	57488.25
609.629	57542.48
609.986	57595.82
610.343	57570.05
610.7	57858.63
611.057	57768.01
611.414	57768.69
611.771	57871.74
612.127	57971.63
612.484	57975.92
612.841	58050.27
613.198	58038.06
613.554	57996.71
613.911	58199.42
614.267	58254.33
614.624	58267.66
614.98	58287.32
615.337	58470.82
615.693	58433.76
616.05	58396.25
616.406	58602.8
616.762	58606.86
617.118	58561.67
617.475	58571.38
617.831	58723.7
618.187	58778.38
618.543	58796.24
618.899	58937.93
619.255	58902.9
619.611	58880.98
619.967	59000.52
620.323	59099.51
620.678	59033.29
621.034	59029.22
621.39	58984.48
621.746	59037.36
622.101	59311.03
622.457	59113.06
622.812	59251.82
623.168	59245.26
623.523	59278.94
623.879	59371.36
624.234	59192.84
624.589	59302.21
624.945	59314.41
625.3	59398.71
625.655	59465.15
626.01	59478.7
626.365	59475.09
626.72	59433.28
627.075	59304.25
627.43	59387.41
627.785	59411.36
628.14	59365.94
628.495	59455.43
628.85	59454.75
629.205	59446.61
629.559	59584.24
629.914	59435.32
630.269	59461.08
630.623	59366.17
630.978	59285.72
631.332	59415.66
631.687	59438.48
632.041	59370.01
632.396	59417.24
632.75	59373.17
633.104	59339.95
633.459	59213.85
633.813	59208.88
634.167	59270.57
634.521	59202.55
634.875	59209.56
635.229	59179.28
635.583	59101.31
635.937	59117.13
636.291	59063.8
636.645	59059.05
636.999	58995.1
637.352	59040.98
637.706	58922.11
638.06	58984.93
638.413	58922.79
638.767	58844.82
639.121	58894.76
639.474	58747.2
639.828	58717.14
640.181	58773.19
640.534	58827.42
640.888	58695.45
641.241	58628.78
641.594	58633.08
641.947	58784.03
642.301	58612.06
642.654	58635.79
643.007	58594.43
643.36	58592.17
643.713	58516.92
644.066	58566.64
644.419	58444.61
644.771	58195.8
645.124	58006.65
645.477	57941.34
645.83	57849.37
646.182	57833.1
646.535	57770.95
646.888	57806.88
647.24	57667.23
647.593	57820.89
647.945	57734.8
648.298	57682.59
648.65	57563.95
649.002	57496.38
649.355	57462.26
649.707	57458.19
650.059	57372.32
650.411	57711.75
650.763	57797.84
651.115	58122.58
651.467	57986.09
651.819	58050.49
652.171	57977.73
652.523	57874.23
652.875	57938.63
653.227	57787.9
653.578	57965.98
653.93	57895.7
654.282	57748.81
654.633	57770.5
654.985	57789.03
655.337	57805.08
655.688	57787
656.039	57817.05
656.391	57623.39
656.742	57631.07
657.094	57645.98
657.445	57690.05
657.796	57675.36
658.147	57612.31
658.498	57627
658.849	57648.47
659.2	57601.47
659.551	57455.03
659.902	57606.66
660.253	57532.54
660.604	57558.75
660.955	57492.09
661.306	57529.15
661.656	57356.5
662.007	57406.44
662.358	57453.9
662.708	57422.04
663.059	57377.52
663.409	57300.23
663.76	57392.21
664.11	57373.68
664.461	57456.84
664.811	57354.01
665.161	57321.47
665.511	57293.23
665.862	57332.77
666.212	57390.17
666.562	57344.52
666.912	57264.3
667.262	57246.9
667.612	57232.89
667.962	57285.32
668.312	57265.43
668.662	57349.95
669.011	57351.3
669.361	57281.7
669.711	57309.72
670.06	57223.85
670.41	57172.1
670.76	57148.14
671.109	57249.38
671.459	57196.05
671.808	57223.85
672.157	57194.02
672.507	57048.49
672.856	56999.22
673.205	57044.64
673.554	57147.24
673.904	57026.57
674.253	57250.51
674.602	57076.06
674.951	56775.72
675.3	56660.47
675.649	57047.13
675.998	57050.52
676.346	57039.22
676.695	57157.64
677.044	56934.36
677.393	57011.2
677.741	57030.63
678.09	57000.58
678.438	56866.8
678.787	56949.51
679.135	56932.56
679.484	56803.52
679.832	56921.94
680.181	56803.52
680.529	56856.63
680.877	56744.77
681.225	56753.35
681.573	56916.96
681.922	56770.98
682.27	56690.08
682.618	56650.53
682.966	56598.33
683.314	56684.88
683.661	56612.11
684.009	56531.66
684.357	56469.97
684.705	56374.83
685.053	56580.48
685.4	56372.12
685.748	56342.97
686.095	56346.13
686.443	56217.32
686.79	56333.48
687.138	56316.08
687.485	56257.32
687.832	56120.6
688.18	56140.04
688.527	56111.79
688.874	56038.12
689.221	56074.5
689.568	55911.11
689.915	55868.18
690.262	55922.19
690.609	55892.13
690.956	55824.11
691.303	55791.34
691.65	55633.38
691.997	55576.43
692.344	55502.54
692.69	55489.88
693.037	55402.88
693.383	55358.59
693.73	55430.45
694.077	55218.48
694.423	55181.19
694.769	55151.13
695.116	55133.96
695.462	55023.45
695.808	54935.55
696.155	55089.44
696.501	54789.56
696.847	54839.05
697.193	54698.49
697.539	54683.58
697.885	54537.14
698.231	54448.55
698.577	54459.63
698.923	54437.48
699.269	54251.72
699.614	54266.41
699.96	54169.24
700.306	54200.65
700.651	54032.75
700.997	53960.66
701.342	53909.59
701.688	53952.75
702.033	53771.74
702.379	53723.6
702.724	53639.99
703.069	53708.23
703.415	53408.58
703.76	53350.5
704.105	53447.68
704.45	53269.15
704.795	53224.63
705.14	52989.84
705.485	53023.05
705.83	52834.59
706.175	53010.63
706.52	52911.65
706.865	52747.58
707.209	52659.9
707.554	52655.83
707.899	52680.01
708.243	52498.77
708.588	52442.05
708.932	52322.96
709.277	52344.65
709.621	52132.23
709.966	51899.69
710.31	51991.22
710.654	51775.86
710.998	51883.65
711.342	51866.7
711.687	51643.43
712.031	51702.64
712.375	51626.26
712.719	51601.62
713.063	51419.26
713.407	51597.56
713.75	51390.56
714.094	51373.61
714.438	51130
714.782	51141.52
715.125	51080.51
715.469	51182.43
715.812	50932.49
716.156	50892.49
716.499	50805.26
716.843	50856.33
717.186	50636
717.53	50768.88
717.873	50781.76
718.216	50702.44
718.559	50537.92
718.902	50278.49
719.246	50339.74
719.589	50223.35
719.932	50150.36
720.275	50109.91
720.617	50101.55
720.96	49982.91
721.303	50024.26
721.646	50037.37
721.989	49855.91
722.331	49913.08
722.674	49775.46
723.016	49884.61
723.359	49664.73
723.701	49774.33
724.044	49549.47
724.386	49397.61
724.729	49516.03
725.071	49531.85
725.413	49474.67
725.755	49396.03
726.097	49291.18
726.439	49150.84
726.782	49123.27
727.124	49142.03
727.465	49093.44
727.807	48885.54
728.149	48933.9
728.491	48882.37
728.833	48860.68
729.175	48701.36
729.516	48586.11
729.858	48538.65
730.199	48747.24
730.541	48724.64
730.882	48582.72
731.224	48534.81
731.565	48347.7
731.906	48341.14
732.248	48369.39
732.589	48173.46
732.93	48132.11
733.271	48081.49
733.612	48054.37
733.953	48236.06
734.294	48065.22
734.635	47923.08
734.976	48140.02
735.317	47943.87
735.658	47882.17
735.999	47680.37
736.339	47652.8
736.68	47809.86
737.021	47567.61
737.361	47500.26
737.702	47681.5
738.042	47502.97
738.383	47426.14
738.723	47494.61
739.063	47397.89
739.404	47483.54
739.744	47349.08
740.084	47246.71
740.424	47331.68
740.764	47274.51
741.104	47326.26
741.444	47063.44
741.784	46910.22
742.124	47059.6
742.464	46985.47
742.804	46871.13
743.143	46800.17
743.483	46867.28
743.823	46626.39
744.162	46602.88
744.502	46674.52
744.841	46529.44
745.181	46691.92
745.52	46499.38
745.86	46559.04
746.199	46326.06
746.538	46369.9
746.877	46409.9
747.216	46224.59
747.556	46284.48
747.895	46191.6
748.234	46077.25
748.573	46046.97
748.911	45902.11
749.25	45972.84
749.589	45756.35
749.928	45746.64
750.267	45821.66
750.605	45723.81
750.944	45707.77
751.283	45592.52
751.621	45532.4
751.96	45269.81
752.298	45336.7
752.636	45368.12
752.975	45258.06
753.313	45056.48
753.651	45331.28
753.989	44971.06
754.327	45070.27
754.666	44738.3
755.004	44757.96
755.342	44837.51
755.679	44749.37
756.017	44518.19
756.355	44582.37
756.693	44439.33
757.031	44581.7
757.368	44050.18
757.706	44176.96
758.044	44066.45
758.381	44048.83
758.719	43888.38
759.056	43920.7
759.394	43752.34
759.731	43322.52
760.068	43372.01
760.405	43436.41
760.743	43275.06
761.08	43284.78
761.417	43017.44
761.754	42981.96
762.091	42883.21
762.428	42606.38
762.765	42465.59
763.102	42715.3
763.438	42489.77
763.775	42214.07
764.112	42148.76
764.449	42173.4
764.785	41974.08
765.122	41709.68
765.458	41631.26
765.795	41550.81
766.131	41590.81
766.467	41308.79
766.804	41186.08
767.14	41003.48
767.476	40940.66
767.812	40848.01
768.148	40783.38
768.485	40591.29
768.821	40277.63
769.157	40169.38
769.492	40193.79
769.828	40072.21
770.164	39743.18
770.5	39668.6
770.836	39725.78
771.171	39409.18
771.507	39229.75
771.842	39216.41
772.178	39096.19
772.513	38836.08
772.849	38865.46
773.184	38752.47
773.519	38571.91
773.855	38465.02
774.19	38356.77
774.525	38110.68
774.86	38094.41
775.195	37890.8
775.53	37761.08
775.865	37512.95
776.2	37413.97
776.535	37256.92
776.87	37363.13
777.205	37042.68
777.539	36797.04
777.874	36854.44
778.209	36624.16
778.543	36490.16
778.878	36368.58
779.212	36331.06
779.547	36024.41
779.881	36059.89
780.215	35716.62
780.55	35768.59
780.884	35462.16
781.218	35428.94
781.552	35446.79
781.886	35225.78
782.22	35031.66
782.554	34927.71
782.888	34575.86
783.222	34602.97
783.556	34363.66
783.889	34439.36
784.223	34112.59
784.557	33986.04
784.89	34117.56
785.224	33941.75
785.557	33707.4
785.891	33566.39
786.224	33688.42
786.558	33577.01
786.891	33285.04
787.224	33147.42
787.557	32925.28
787.891	32954.43
788.224	32730.03
788.557	32735
788.89	32607.77
789.223	32659.3
789.556	32301.79
789.888	32284.84
790.221	32104.28
790.554	32012.76
790.887	31948.81
791.219	31799.21
791.552	31711.98
791.884	31528.7
792.217	31410.97
792.549	31468.37
792.882	31176.17
793.214	31126.46
793.546	31061.37
793.879	30945.22
794.211	30679.01
794.543	30842.85
794.875	30714.49
795.207	30498.68
795.539	30389.75
795.871	30485.79
796.203	30328.51
796.535	30086.93
796.867	30112.24
797.198	29914.28
797.53	29843.1
797.862	29611.92
798.193	29754.74
798.525	29520.4
798.856	29625.93
799.188	29263.91
799.519	29180.52
799.85	29071.59
800.182	29033.18
800.513	29063.68
800.844	28670.47
801.175	28893.97
801.506	28911.6
801.837	28625.73
802.168	28634.32
802.499	28687.42
802.83	28397.94
803.161	28305.51
803.491	28418.28
803.822	28468.67
804.153	28114.11
804.483	27928.35
804.814	27875.92
805.145	28040.21
805.475	27822.36
805.805	27759.54
806.136	27778.07
806.466	27720.67
806.796	27493.33
807.126	27337.63
807.457	27361.13
807.787	27403.62
808.117	27164.98
808.447	27122.72
808.777	27170.4
809.107	26878.66
809.436	26909.62
809.766	26774.25
810.096	26795.04
810.426	26679.11
810.755	26687.25
811.085	26534.49
811.414	26707.14
811.744	26496.29
812.073	26282.29
812.403	26231.22
812.732	26093.37
813.061	26303.98
813.39	26047.04
813.719	25933.6
814.049	26116.64
814.378	25969.98
814.707	25788.29
815.036	25874.16
815.365	25693.6
815.693	25607.5
816.022	25547.17
816.351	25453.84
816.68	25468.3
817.008	25364.35
817.337	25101.98
817.665	25327.51
817.994	25329.09
818.322	25260.85
818.651	25132.26
818.979	25071.47
819.307	25094.3
819.636	24937.47
819.964	24806.62
820.292	24925.26
820.62	24867.19
820.948	24981.98
821.276	25068.76
821.604	24909.22
821.932	25007.75
822.259	24997.35
822.587	24920.07
822.915	24772.05
823.243	24849.11
823.57	24748.32
823.898	24974.53
824.225	24861.31
824.553	24702.67
824.88	24832.84
825.207	24890.46
825.535	24784.93
825.862	24868.32
826.189	24707.87
826.516	24920.97
826.843	24897.69
827.17	24996.67
827.497	24848.88
827.824	24864.47
828.151	25019.72
828.478	24829.67
828.805	24879.61
829.131	24785.61
829.458	24806.85
829.785	24638.26
830.111	24629.45
830.438	24765.72
830.764	24798.71
831.09	24786.96
831.417	24618.38
831.743	24843
832.069	24633.07
832.395	24764.14
832.722	24810.01
833.048	24591.94
833.374	24630.58
833.7	24570.02
834.026	24669
834.351	24706.96
834.677	24634.87
835.003	24626.74
835.329	24610.24
835.654	24555.33
835.98	24475.33
836.306	24550.58
836.631	24393.53
836.956	24522.56
837.282	24502
837.607	24358.05
837.932	24420.87
838.258	24386.75
838.583	24292.51
838.908	24225.17
839.233	24183.81
839.558	24175.68
839.883	23996.47
840.208	23989.24
840.533	23966.42
840.858	23945.85
841.182	24062.69
841.507	24032.63
841.832	23862.01
842.156	23956.02
842.481	23835.12
842.805	23874.44
843.13	23699.53
843.454	23697.72
843.778	23660.21
844.103	23612.53
844.427	23466.09
844.751	23546.54
845.075	23521.46
845.399	23301.8
845.723	23160.79
846.047	23236.27
846.371	23097.06
846.695	23033.11
847.019	23001.25
847.343	22831.53
847.666	22680.8
847.99	22575.95
848.313	22469.51
848.637	22519.22
848.96	22396.74
849.284	22389.74
849.607	22204.43
849.931	22121.49
850.254	21947.04
850.577	21792.69
850.9	21693.26
851.223	21704.33
851.546	21559.7
851.869	21502.3
852.192	21657.78
852.515	21373.94
852.838	21223.44
853.161	21283.78
853.483	21133.27
853.806	21013.73
854.129	20893.73
854.451	20975.76
854.774	20813.51
855.096	20768.08
855.419	20750.01
855.741	20583.46
856.063	20534.19
856.385	20542.33
856.708	20491.71
857.03	20519.5
857.352	20531.03
857.674	20382.56
857.996	20268.89
858.318	20117.25
858.64	20178.95
858.961	20100.3
859.283	20033.19
859.605	19837.49
859.926	19958.61
860.248	19867.99
860.57	19781.67
860.891	19773.31
861.212	19731.73
861.534	19576.48
861.855	19613.76
862.176	19573.99
862.498	19525.4
862.819	19573.54
863.14	19387.1
863.461	19348.69
863.782	19277.95
864.103	19298.52
864.424	19305.07
864.745	19430.49
865.065	19253.32
865.386	19176.94
865.707	19283.6
866.027	19190.72
866.348	19022.14
866.668	19099.2
866.989	18966.78
867.309	18919.77
867.63	18917.06
867.95	18995.48
868.27	18786.89
868.59	18930.39
868.91	18809.72
869.23	18842.26
869.55	18677.29
869.87	18825.54
870.19	18596.16
870.51	18722.49
870.83	18630.74
871.15	18567.92
871.469	18546
871.789	18606.11
872.109	18603.17
872.428	18451.99
872.748	18517.75
873.067	18484.53
873.386	18468.26
873.706	18472.1
874.025	18409.5
874.344	18283.4
874.663	18371.31
874.982	18247.7
875.301	18265.1
875.62	18175.84
875.939	18109.17
876.258	18211.54
876.577	18066.23
876.896	18021.49
877.214	18033.92
877.533	18048.61
877.852	17985.78
878.17	17990.08
878.489	17942.62
878.807	17929.51
879.125	17970.42
879.444	17759.35
879.762	17765.9
880.08	17840.93
880.398	17714.6
880.716	17717.32
881.034	17616.08
881.352	17713.25
881.67	17588.51
881.988	17587.15
882.306	17520.94
882.624	17382.64
882.941	17351
883.259	17546.25
883.577	17405.69
883.894	17366.14
884.212	17384.22
884.529	17309.19
884.846	17164.56
885.164	17144.22
885.481	17108.75
885.798	17167.05
886.115	17006.15
886.432	17069.88
886.75	16942.65
887.067	17090.67
887.383	16965.25
887.7	16852.48
888.017	16738.13
888.334	16798.02
888.651	16746.49
888.967	16703.56
889.284	16649.1
889.6	16603.45
889.917	16575.43
890.233	16489.33
890.55	16492.49
890.866	16327.75
891.182	16451.14
891.498	16450.23
891.815	16291.82
892.131	16171.59
892.447	16259.05
892.763	16124.36
893.079	16044.82
893.395	16023.35
893.71	15985.16
894.026	16075.78
894.342	15944.93
894.657	15857.7
894.973	15814.09
895.289	15828.1
895.604	15720.31
895.92	15670.59
896.235	15512.4
896.55	15573.42
896.865	15542.68
897.181	15445.06
897.496	15495.68
897.811	15424.5
898.126	15340.2
898.441	15295.91
898.756	15273.31
899.071	15144.5
899.386	15228.34
899.7	15046.43
900.015	14958.29
900.33	14928.92
900.644	14906.54
900.959	14862.02
901.273	14814.12
901.588	14766.89
901.902	14700.9
902.216	14666.78
902.531	14552.65
902.845	14604.86
903.159	14418.19
903.473	14380.91
903.787	14315.82
904.101	14204.19
904.415	14179.78
904.729	14203.96
905.042	14129.16
905.356	14061.37
905.67	14007.81
905.984	14057.75
906.297	13980.24
906.611	13822.73
906.924	13790.19
907.237	13794.48
907.551	13696.86
907.864	13657.76
908.177	13571.89
908.491	13575.05
908.804	13535.05
909.117	13342.29
909.43	13354.04
909.743	13237.66
910.056	13306.13
910.368	13302.07
910.681	13166.25
910.994	13118.79
911.307	13052.13
911.619	12947.5
911.932	12984.79
912.244	12882.64
912.557	12819.82
912.869	12782.76
913.181	12765.36
913.494	12760.84
913.806	12646.26
914.118	12540.96
914.43	12589.09
914.742	12441.52
915.054	12373.05
915.366	12382.99
915.678	12266.84
915.99	12230.91
916.302	12160.85
916.613	12210.12
916.925	12107.07
917.236	12012.61
917.548	12015.32
917.859	11885.83
918.171	11889.22
918.482	11887.41
918.794	11859.62
919.105	11745.5
919.416	11691.94
919.727	11631.15
920.038	11610.58
920.349	11491.72
920.66	11476.12
920.971	11461.89
921.282	11409.69
921.593	11375.79
921.903	11231.84
922.214	11276.81
922.525	11175.34
922.835	11157.72
923.146	11112.97
923.456	10990.49
923.767	10935.57
924.077	11004.72
924.387	10910.26
924.697	10847.21
925.008	10840.21
925.318	10815.8
925.628	10780.55
925.938	10750.72
926.248	10608.58
926.558	10582.81
926.867	10548.92
927.177	10510.27
927.487	10433.89
927.796	10397.28
928.106	10365.42
928.416	10306.44
928.725	10216.95
929.034	10276.16
929.344	10279.09
929.653	10147.35
929.962	10065.31
930.271	10064.18
930.581	10043.62
930.89	9969.05
931.199	9909.84
931.508	9860.12
931.817	9781.25
932.125	9817.86
932.434	9794.14
932.743	9713.46
933.051	9596.17
933.36	9617.42
933.669	9552.33
933.977	9503.52
934.286	9504.43
934.594	9464.65
934.902	9443.86
935.21	9386.24
935.519	9348.72
935.827	9322.28
936.135	9266.24
936.443	9143.98
936.751	9176.3
937.059	9099.92
937.367	9071.44
937.674	9022.86
937.982	9019.92
938.29	8996.19
938.597	9005.46
938.905	8936.3
939.213	8839.36
939.52	8794.61
939.827	8816.99
940.135	8788.29
940.442	8667.39
940.749	8646.37
941.056	8730.89
941.363	8572.25
941.67	8628.29
941.977	8472.14
942.284	8449.54
942.591	8473.27
942.898	8436.43
943.205	8359.82
943.511	8360.27
943.818	8353.04
944.125	8252.48
944.431	8200.5
944.738	8198.92
945.044	8155.76
945.35	8058.14
945.657	8091.81
945.963	8020.85
946.269	7999.38
946.575	7989.21
946.881	7914.64
947.187	7971.81
947.493	7812.27
947.799	7865.82
948.105	7790.57
948.41	7666.96
948.716	7701.99
949.022	7737.69
949.327	7670.58
949.633	7622.67
949.938	7505.38
950.244	7573.85
950.549	7523.01
950.854	7489.11
951.16	7500.86
951.465	7403.01
951.77	7356.46
952.075	7360.07
952.38	7326.18
952.685	7279.85
952.99	7214.54
953.294	7222.23
953.599	7164.83
953.904	7130.48
954.209	7114.88
954.513	7132.74
954.818	7081.21
955.122	7042.57
955.426	6994.66
955.731	6933.42
956.035	6896.36
956.339	6930.93
956.643	6892.29
956.948	6824.95
957.252	6753.76
957.556	6786.53
957.86	6737.94
958.163	6740.66
958.467	6669.25
958.771	6671.96
959.075	6623.37
959.378	6590.6
959.682	6575.01
959.985	6537.95
960.289	6488.91
960.592	6510.83
960.896	6485.3
961.199	6430.83
961.502	6379.76
961.805	6377.05
962.108	6336.6
962.411	6388.35
962.714	6250.27
963.017	6196.26
963.32	6243.27
963.623	6217.96
963.926	6169.6
964.228	6134.34
964.531	6118.3
964.833	6124.4
965.136	6021.58
965.438	6065.19
965.741	5989.04
966.043	5965.31
966.345	5931.19
966.648	5935.48
966.95	5884.41
967.252	5873.56
967.554	5792.88
967.856	5809.61
968.158	5779.1
968.46	5727.35
968.761	5735.03
969.063	5684.64
969.365	5695.71
969.666	5631.53
969.968	5600.12
970.269	5607.58
970.571	5589.73
970.872	5555.83
971.174	5512.67
971.475	5558.99
971.776	5511.31
972.077	5493.68
972.378	5458.88
972.679	5439.45
972.98	5347.25
973.281	5360.81
973.582	5337.53
973.883	5329.62
974.183	5310.19
974.484	5275.84
974.785	5224.09
975.085	5225.44
975.386	5202.84
975.686	5148.61
975.986	5124.2
976.287	5108.83
976.587	5070.42
976.887	5104.31
977.187	5112.22
977.487	5056.41
977.787	4967.37
978.087	4994.94
978.387	4938.67
978.687	4941.16
978.987	4928.27
979.286	4922.17
979.586	4883.76
979.885	4858.9
980.185	4869.97
980.484	4753.14
980.784	4768.96
981.083	4732.57
981.382	4717.66
981.682	4705.46
981.981	4687.38
982.28	4693.48
982.579	4628.4
982.878	4651.45
983.177	4640.6
983.475	4594.95
983.774	4569.87
984.073	4505.01
984.372	4492.35
984.67	4512.01
984.969	4496.65
985.267	4467.5
985.566	4452.81
985.864	4415.75
986.162	4426.82
986.461	4365.58
986.759	4321.28
987.057	4331.45
987.355	4310.21
987.653	4272.25
987.951	4247.61
988.249	4246.26
988.547	4265.92
988.844	4192.93
989.142	4237.67
989.44	4175.75
989.737	4128.07
990.035	4088.75
990.332	4075.87
990.63	4095.08
990.927	4064.79
991.224	4050.33
991.521	4021.63
991.819	3983.44
992.116	3912.03
992.413	3959.94
992.71	3962.65
993.006	3946.83
993.303	3953.16
993.6	3908.87
993.897	3872.48
994.193	3817.8
994.49	3873.84
994.787	3824.12
995.083	3771.47
995.379	3749.32
995.676	3789.55
995.972	3712.49
996.268	3713.84
996.565	3712.94
996.861	3654.41
997.157	3662.09
997.453	3644.01
997.749	3562.43
998.044	3614.86
998.34	3594.3
998.636	3525.15
998.932	3582.77
999.227	3531.47
999.523	3532.38
999.818	3509.33
1000.114	3469.56
1000.409	3503.23
1000.704	3468.88
1001	3425.49
1001.295	3366.51
1001.59	3387.98
1001.885	3330.58
1002.18	3271.82
1002.475	3309.33
1002.77	3308.43
1003.065	3260.07
1003.359	3316.57
1003.654	3239.73
1003.949	3201.31
1004.243	3199.96
1004.538	3135.33
1004.832	3147.3
1005.127	3151.15
1005.421	3144.59
1005.715	3117.02
1006.009	3095.33
1006.304	3072.96
1006.598	3084.93
1006.892	3013.75
1007.186	3012.39
1007.48	2992.05
1007.773	2969.46
1008.067	2994.54
1008.361	2947.54
1008.655	2927.42
1008.948	2891.04
1009.242	2910.93
1009.535	2880.64
1009.829	2853.98
1010.122	2832.28
1010.415	2831.83
1010.708	2834.09
1011.001	2782.12
1011.295	2782.34
1011.588	2748.22
1011.881	2699.63
1012.173	2712.97
1012.466	2733.98
1012.759	2687.88
1013.052	2660.09
1013.344	2679.75
1013.637	2650.59
1013.93	2608.34
1014.222	2588.22
1014.514	2600.2
1014.807	2578.51
1015.099	2562.01
1015.391	2548.9
1015.683	2529.92
1015.976	2517.49
1016.268	2491.05
1016.56	2481.11
1016.851	2463.03
1017.143	2439.53
1017.435	2421
1017.727	2408.57
1018.018	2386.65
1018.31	2423.48
1018.602	2395.91
1018.893	2344.39
1019.185	2310.26
1019.476	2295.8
1019.767	2261.45
1020.058	2286.08
1020.35	2263.49
1020.641	2241.34
1020.932	2230.04
1021.223	2239.76
1021.514	2205.41
1021.804	2184.39
1022.095	2166.77
1022.386	2173.09
1022.677	2175.13
1022.967	2115.02
1023.258	2112.98
1023.548	2095.58
1023.839	2113.66
1024.129	2041.12
1024.419	2070.72
1024.709	2053.32
1025	2026.43
1025.29	1997.73
1025.58	2000.89
1025.87	1967.45
1026.16	1961.12
1026.449	1954.79
1026.739	1937.62
1027.029	1950.73
1027.319	1899.43
1027.608	1938.52
1027.898	1903.72
1028.187	1895.81
1028.477	1881.57
1028.766	1821.92
1029.055	1822.82
1029.344	1835.02
1029.634	1795.48
1029.923	1796.38
1030.212	1770.17
1030.501	1783.27
1030.79	1745.76
1031.078	1730.17
1031.367	1721.13
1031.656	1705.31
1031.945	1711.86
1032.233	1671.41
1032.522	1689.26
1032.81	1684.74
1033.099	1622.82
1033.387	1632.77
1033.675	1631.64
1033.963	1625.54
1034.251	1633.67
1034.54	1602.03
1034.828	1569.04
1035.116	1567.23
1035.403	1534.01
1035.691	1550.51
1035.979	1514.58
1036.267	1518.19
1036.554	1524.07
1036.842	1504.86
1037.129	1520.68
1037.417	1473
1037.704	1467.12
1037.992	1458.54
1038.279	1444.52
1038.566	1420.8
1038.853	1420.8
1039.14	1420.8
