Data from 12-0727_FLMS001491_005.txt Node
Date: Thu Apr 12 17:09:08 BST 2018
User: hsy
Spectrometer: FLMS00149
Trigger mode: 0
Integration Time (sec): 1.000000E-2
Scans to average: 10
Electric dark correction enabled: true
Nonlinearity correction enabled: false
Boxcar width: 0
XAxis mode: Wavelengths
Number of Pixels in Spectrum: 2048
>>>>>Begin Spectral Data<<<<<
341.393	-26.62
341.776	-26.62
342.16	-26.62
342.543	-71.82
342.927	-67.53
343.31	-69.79
343.693	-58.26
344.077	-68.88
344.46	-63.23
344.843	-46.74
345.226	-33.4
345.61	-39.05
345.993	-14.87
346.376	3.43
346.759	9.08
347.142	47.5
347.525	29.42
347.908	49.76
348.291	64.45
348.674	85.01
349.057	105.58
349.44	115.75
349.823	129.3
350.206	179.92
350.588	221.28
350.971	244.1
351.354	291.79
351.737	293.82
352.119	263.54
352.502	327.27
352.884	327.49
353.267	336.98
353.65	354.16
354.032	331.11
354.414	346.47
354.797	370.43
355.179	365
355.562	365.68
355.944	358.68
356.326	359.81
356.709	380.37
357.091	382.86
357.473	387.15
357.855	350.09
358.238	399.13
358.62	383.54
359.002	404.33
359.384	404.1
359.766	390.31
360.148	387.6
360.53	388.28
360.912	358.23
361.294	383.99
361.676	404.78
362.057	365.91
362.439	363.87
362.821	366.59
363.203	386.92
363.584	353.48
363.966	379.92
364.348	374.72
364.729	380.82
365.111	382.18
365.493	378.11
365.874	386.7
366.256	351.22
366.637	356.64
367.019	376.53
367.4	376.53
367.781	354.84
368.163	366.13
368.544	364.33
368.925	369.75
369.306	362.97
369.688	346.25
370.069	375.4
370.45	350.32
370.831	358.23
371.212	368.62
371.593	348.73
371.974	398.22
372.355	366.81
372.736	383.31
373.117	373.59
373.498	374.72
373.879	376.76
374.26	385.57
374.641	371.78
375.021	364.55
375.402	369.07
375.783	390.54
376.163	386.47
376.544	402.74
376.925	395.51
377.305	391.9
377.686	392.8
378.066	404.1
378.447	413.82
378.827	403.65
379.208	415.62
379.588	405
379.968	415.17
380.349	426.47
380.729	412.23
381.109	421.05
381.489	421.5
381.87	419.69
382.25	436.42
382.63	421.05
383.01	431.44
383.39	409.52
383.77	413.36
384.15	433.7
384.53	419.24
384.91	447.71
385.29	457.43
385.67	444.32
386.049	451.56
386.429	451.56
386.809	427.38
387.189	440.71
387.568	454.04
387.948	462.63
388.328	449.07
388.707	453.82
389.087	486.36
389.466	461.5
389.846	487.26
390.225	468.05
390.605	489.52
390.984	488.62
391.363	464.66
391.743	512.35
392.122	510.76
392.501	499.46
392.881	477.09
393.26	493.59
393.639	506.02
394.018	527.26
394.397	502.4
394.776	508.5
395.155	511.44
395.534	523.87
395.913	517.32
396.292	514.83
396.671	527.26
397.05	521.84
397.429	529.52
397.808	536.75
398.186	527.94
398.565	567.94
398.944	541.95
399.323	559.12
399.701	567.94
400.08	568.84
400.458	571.78
400.837	559.58
401.215	572.68
401.594	577.2
401.972	581.5
402.351	593.93
402.729	596.86
403.107	584.21
403.486	563.19
403.864	602.74
404.242	624.88
404.62	603.19
404.999	616.75
405.377	620.59
405.755	614.49
406.133	620.59
406.511	623.53
406.889	635.51
407.267	633.47
407.645	651.78
408.023	661.72
408.401	677.31
408.779	696.52
409.156	676.41
409.534	676.86
409.912	678.89
410.29	692.23
410.667	713.7
411.045	708.05
411.422	739.91
411.8	708.72
412.178	746.69
412.555	758.89
412.933	769.97
413.31	769.74
413.687	806.57
414.065	802.73
414.442	797.99
414.819	816.97
415.197	807.03
415.574	840.47
415.951	823.75
416.328	856.07
416.705	836.18
417.082	849.29
417.46	864.88
417.837	876.4
418.214	872.34
418.591	889.06
418.967	892
419.344	892.45
419.721	901.49
420.098	900.81
420.475	920.92
420.852	924.31
421.228	924.09
421.605	924.31
421.982	961.15
422.358	965.21
422.735	976.06
423.111	973.12
423.488	965.67
423.864	978.55
424.241	1006.57
424.617	1006.8
424.994	1023.52
425.37	1043.4
425.746	1022.61
426.123	1030.98
426.499	1088.83
426.875	1054.7
427.251	1074.14
427.627	1108.94
428.003	1080.01
428.379	1092.67
428.756	1122.72
429.132	1128.83
429.507	1139.22
429.883	1141.03
430.259	1155.04
430.635	1166.11
431.011	1178.54
431.387	1192.55
431.763	1228.48
432.138	1238.65
432.514	1237.07
432.89	1250.63
433.265	1250.4
433.641	1274.36
434.016	1266
434.392	1280.23
434.767	1316.84
435.143	1343.28
435.518	1361.14
435.894	1348.48
436.269	1354.58
436.644	1361.81
437.02	1384.64
437.395	1407.91
437.77	1388.03
438.145	1427.12
438.52	1450.85
438.895	1445.65
439.271	1456.28
439.646	1493.79
440.021	1498.31
440.395	1497.86
440.77	1483.62
441.145	1487.46
441.52	1542.6
441.895	1535.6
442.27	1565.65
442.645	1538.08
443.019	1563.39
443.394	1550.28
443.769	1564.75
444.143	1571.53
444.518	1548.02
444.892	1551.41
445.267	1586.44
445.641	1638.87
446.016	1613.56
446.39	1621.69
446.764	1643.39
447.139	1634.58
447.513	1655.82
447.887	1672.31
448.262	1663.95
448.636	1717.51
449.01	1699.21
449.384	1746.44
449.758	1727
450.132	1782.14
450.506	1753.67
450.88	1754.12
451.254	1802.71
451.628	1802.03
452.002	1837.28
452.376	1835.02
452.75	1870.28
453.123	1874.12
453.497	1887
453.871	1906.43
454.244	1919.77
454.618	1970.61
454.992	2004.96
455.365	2009.26
455.739	2071.63
456.112	2043.38
456.486	2095.35
456.859	2151.17
457.232	2134.9
457.606	2172.41
457.979	2183.49
458.352	2253.77
458.725	2249.02
459.099	2268.46
459.472	2276.37
459.845	2323.6
460.218	2344.39
460.591	2379.41
460.964	2392.3
461.337	2454.89
461.71	2479.53
462.083	2479.07
462.456	2492.18
462.829	2524.27
463.201	2581.22
463.574	2569.01
463.947	2611.27
464.32	2649.01
464.692	2658.28
465.065	2704.6
465.438	2739.63
465.81	2768.11
466.183	2773.08
466.555	2823.02
466.928	2857.59
467.3	2877.71
467.672	2917.93
468.045	2964.94
468.417	2945.5
468.789	3005.61
469.161	3028.21
469.534	3074.09
469.906	3148.21
470.278	3167.87
470.65	3201.99
471.022	3263.23
471.394	3298.94
471.766	3353.17
472.138	3407.18
472.51	3419.16
472.882	3521.53
473.253	3514.3
473.625	3559.5
473.997	3641.98
474.369	3667.52
474.74	3762.43
475.112	3788.87
475.484	3846.04
475.855	3911.35
476.227	3934.18
476.598	4073.16
476.97	4138.24
477.341	4185.7
477.713	4170.55
478.084	4304.79
478.455	4422.98
478.827	4451.9
479.198	4600.83
479.569	4630.43
479.94	4800.14
480.311	4834.04
480.682	4959.01
481.053	5022.51
481.424	5141.15
481.795	5219.57
482.166	5257.08
482.537	5396.06
482.908	5513.57
483.279	5596.73
483.65	5716.5
484.021	5840.11
484.391	5968.92
484.762	6062.93
485.133	6110.62
485.503	6195.36
485.874	6401.91
486.244	6542.47
486.615	6670.6
486.985	6798.28
487.356	6971.16
487.726	7071.49
488.097	7262.45
488.467	7338.61
488.837	7598.49
489.207	7659.05
489.578	7837.8
489.948	7979.27
490.318	8248.41
490.688	8328.86
491.058	8495.41
491.428	8756.65
491.798	8867.15
492.168	9099.69
492.538	9197.77
492.908	9450.42
493.278	9582.39
493.648	9748.49
494.017	9963.62
494.387	10177.63
494.757	10224.18
495.126	10529.48
495.496	10661.68
495.866	10909.13
496.235	11075.46
496.605	11316.81
496.974	11518.38
497.344	11754.08
497.713	11914.98
498.082	12069.1
498.452	12439.04
498.821	12585.25
499.19	12803.77
499.559	13069.3
499.928	13252.12
500.298	13503.42
500.667	13763.75
501.036	13935.72
501.405	14260.01
501.774	14436.05
502.143	14659.32
502.512	14856.15
502.88	15185.86
503.249	15389.47
503.618	15656.58
503.987	15821.32
504.356	16086.85
504.724	16410.68
505.093	16540.62
505.462	16799.83
505.83	16924.12
506.199	17372.01
506.567	17757.09
506.936	17777.65
507.304	18225.33
507.672	18438.65
508.041	18659.21
508.409	18888.59
508.777	19193.44
509.145	19422.58
509.514	19503.71
509.882	19797.71
510.25	20109.8
510.618	20397.25
510.986	20494.42
511.354	20839.04
511.722	21173.27
512.09	21428.63
512.458	21478.8
512.826	21825.23
513.193	21960.82
513.561	22263.64
513.929	22541.37
514.297	22769.84
514.664	23046.22
515.032	23221.8
515.4	23488.69
515.767	23673.54
516.135	24011.84
516.502	23930.49
516.869	24372.28
517.237	24618.15
517.604	24689.11
517.972	25019.05
518.339	25214.97
518.706	25374.29
519.073	25666.49
519.44	25880.72
519.808	26266.92
520.175	26337.88
520.542	26637.76
520.909	26933.35
521.276	27168.37
521.643	27528.58
522.009	27640.67
522.376	28029.59
522.743	28222.8
523.11	28558.16
523.477	28813.07
523.843	29037.92
524.21	29388.65
524.577	29781.18
524.943	29922.87
525.31	30124.22
525.676	30467.26
526.043	30645.11
526.409	30993.8
526.776	31232.67
527.142	31438.54
527.508	31731.19
527.874	31957.62
528.241	32240.32
528.607	32504.05
528.973	32842.34
529.339	32984.26
529.705	33385.83
530.071	33356
530.437	33709.21
530.803	33881.19
531.169	34245.02
531.535	34280.95
531.901	34493.82
532.267	34727.94
532.632	34881.39
532.998	35043.19
533.364	35264.88
533.73	35427.81
534.095	35698.54
534.461	35863.05
534.826	36064.86
535.192	36233.89
535.557	36388.46
535.923	36509.36
536.288	36750.26
536.653	37008.33
537.019	36985.96
537.384	37133.53
537.749	37273.64
538.114	37482.67
538.479	37397.03
538.845	37668.66
539.21	37710.24
539.575	38027.52
539.94	38101.41
540.305	38227.96
540.67	38265.48
541.034	38412.37
541.399	38613.72
541.764	38683.32
542.129	38847.83
542.494	38956.98
542.858	39244.89
543.223	39154.49
543.587	39271.1
543.952	39385.45
544.316	39495.73
544.681	39565.78
545.045	39893.91
545.41	40017.07
545.774	39936.62
546.138	40204.18
546.503	40275.59
546.867	40263.39
547.231	40530.73
547.595	40752.87
547.959	40824.05
548.324	40833.54
548.688	41022.92
549.052	41183.14
549.416	41318.5
549.779	41268.34
550.143	41528.22
550.507	41765.95
550.871	41770.02
551.235	41834.65
551.599	42300.4
551.962	42298.14
552.326	42479.83
552.689	42609.09
553.053	42529.09
553.417	42725.92
553.78	43204.56
554.143	43191.45
554.507	43362.07
554.87	43534.72
555.234	43727.03
555.597	43597.99
555.96	43970.19
556.323	44097.87
556.686	44113.46
557.05	44483.62
557.413	44616.72
557.776	44600.45
558.139	45071.17
558.502	45013.1
558.865	45090.83
559.228	45440.2
559.59	45556.13
559.953	45643.36
560.316	46046.52
560.679	46106.4
561.041	46275.89
561.404	46547.75
561.767	46886.27
562.129	46795.87
562.492	47234.28
562.854	47233.83
563.217	47184.79
563.579	47323.54
563.941	47759.46
564.304	47866.13
564.666	48231.77
565.028	48080.13
565.39	48363.06
565.753	48695.94
566.115	48735.03
566.477	48943.39
566.839	49024.29
567.201	49352.19
567.563	49374.34
567.925	49550.15
568.287	49714.67
568.648	49774.33
569.01	49972.74
569.372	50280.75
569.734	50356.01
570.095	50553.97
570.457	50779.27
570.819	50744.92
571.18	50844.13
571.542	51092.71
571.903	51203.22
572.265	51381.06
572.626	51487.28
572.987	51582.64
573.349	51701.51
573.71	51835.52
574.071	51983.31
574.432	52122.06
574.794	52352.79
575.155	52338.33
575.516	52322.96
575.877	52608.6
576.238	52560.92
576.599	52762.95
576.96	52859.67
577.32	52953.45
577.681	53027.8
578.042	53143.96
578.403	53243.39
578.763	53288.81
579.124	53369.94
579.485	53522.02
579.845	53556.6
580.206	53590.05
580.566	53700.33
580.927	53660.78
581.287	53819.19
581.648	53798.63
582.008	53936.03
582.368	53959.98
582.728	54126.75
583.089	54051.73
583.449	54114.55
583.809	54260.31
584.169	54364.94
584.529	54355
584.889	54563.35
585.249	54344.6
585.609	54335.79
585.969	54612.39
586.329	54568.33
586.688	54582.34
587.048	54684.71
587.408	54745.95
587.768	54705.72
588.127	54859.16
588.487	54866.17
588.846	55076.33
589.206	54832.5
589.565	54919.5
589.925	55143.45
590.284	55110.68
590.643	55167.41
591.003	55291.7
591.362	55384.35
591.721	55351.58
592.08	55472.03
592.44	55599.03
592.799	55447.85
593.158	55587.73
593.517	55617.34
593.876	55734.4
594.235	55580.5
594.593	55718.13
594.952	55818.69
595.311	55843.09
595.67	55872.47
596.029	56032.02
596.387	56161.73
596.746	56233.14
597.104	56131.45
597.463	56179.36
597.822	56300.71
598.18	56264.55
598.538	56265.91
598.897	56543.64
599.255	56388.39
599.613	56757.65
599.972	56602.4
600.33	56636.75
600.688	56653.92
601.046	56759.68
601.404	56951.09
601.762	56829.73
602.12	56940.92
602.478	56957.64
602.836	57045.1
603.194	56851.88
603.552	57087.58
603.91	57025.44
604.268	57135.72
604.625	57090.52
604.983	57339.1
605.341	57226.56
605.698	57415.26
606.056	57572.99
606.413	57449.15
606.771	57610.5
607.128	57669.49
607.485	57617.06
607.843	57636.49
608.2	57719.88
608.557	57869.48
608.914	57839.88
609.272	57937.28
609.629	58004.39
609.986	58083.49
610.343	58028.57
610.7	58283.48
611.057	58162.13
611.414	58217.49
611.771	58347.21
612.127	58409.81
612.484	58479.63
612.841	58552.18
613.198	58477.15
613.554	58480.99
613.911	58670.82
614.267	58629.24
614.624	58662
614.98	58772.96
615.337	58895.44
615.693	58896.8
616.05	58890.47
616.406	58998.49
616.762	58965.27
617.118	59029
617.475	59010.24
617.831	59190.8
618.187	59150.58
618.543	59242.1
618.899	59366.62
619.255	59289.78
619.611	59324.13
619.967	59437.12
620.323	59469.67
620.678	59366.39
621.034	59341.76
621.39	59419.04
621.746	59450.46
622.101	59665.59
622.457	59473.96
622.812	59564.58
623.168	59630.11
623.523	59665.14
623.879	59726.38
624.234	59625.14
624.589	59688.64
624.945	59708.53
625.3	59786.49
625.655	59769.77
626.01	59702.88
626.365	59816.77
626.72	59761.18
627.075	59768.41
627.43	59806.61
627.785	59788.75
628.14	59807.28
628.495	59793.95
628.85	59807.74
629.205	59765.25
629.559	59866.94
629.914	59741.97
630.269	59831.01
630.623	59657.46
630.978	59685.03
631.332	59811.35
631.687	59795.08
632.041	59781.97
632.396	59737.23
632.75	59704.46
633.104	59703.78
633.459	59623.11
633.813	59598.7
634.167	59606.61
634.521	59669.43
634.875	59645.48
635.229	59595.54
635.583	59439.38
635.937	59456.11
636.291	59458.82
636.645	59505.37
636.999	59410.46
637.352	59370.46
637.706	59290.91
638.06	59457.24
638.413	59307.18
638.767	59223.8
639.121	59304.92
639.474	59179.28
639.828	59183.8
640.181	59148.32
640.534	59277.81
640.888	59153.74
641.241	59047.76
641.594	59095.44
641.947	59152.39
642.301	59049.56
642.654	59079.84
643.007	58964.14
643.36	59021.32
643.713	58986.06
644.066	59057.7
644.419	58827.87
644.771	58587.88
645.124	58376.59
645.477	58325.51
645.83	58297.04
646.182	58220.88
646.535	58169.13
646.888	58155.35
647.24	58158.06
647.593	58298.85
647.945	58151.96
648.298	58028.35
648.65	57942.25
649.002	57834.68
649.355	57850.5
649.707	57772.99
650.059	57757.17
650.411	58113.09
650.763	58218.4
651.115	58541.1
651.467	58411.84
651.819	58418.39
652.171	58295.91
652.523	58247.55
652.875	58263.82
653.227	58255.01
653.578	58351.28
653.93	58259.53
654.282	58097.95
654.633	58114.9
654.985	58198.74
655.337	58171.62
655.688	58124.39
656.039	58183.37
656.391	58008.91
656.742	57953.77
657.094	58053.88
657.445	58015.92
657.796	58081.45
658.147	57951.96
658.498	57962.59
658.849	58029.48
659.2	57974.11
659.551	57845.98
659.902	57995.13
660.253	57855.02
660.604	57931.63
660.955	57835.58
661.306	57891.18
661.656	57839.2
662.007	57851.4
662.358	57853.44
662.708	57854.11
663.059	57797.84
663.409	57630.62
663.76	57820.89
664.11	57844.85
664.461	57839.65
664.811	57777.73
665.161	57742.03
665.511	57681.46
665.862	57724.85
666.212	57802.82
666.562	57799.2
666.912	57719.65
667.262	57663.61
667.612	57664.97
667.962	57653.44
668.312	57575.7
668.662	57724.63
669.011	57680.33
669.361	57617.74
669.711	57641.46
670.06	57577.96
670.41	57582.71
670.76	57560.79
671.109	57654.12
671.459	57660.67
671.808	57566.89
672.157	57652.09
672.507	57474.46
672.856	57452.77
673.205	57515.82
673.554	57509.04
673.904	57393.11
674.253	57637.62
674.602	57478.98
674.951	57147.92
675.3	57027.7
675.649	57488.93
675.998	57403.5
676.346	57440.79
676.695	57478.53
677.044	57302.04
677.393	57378.42
677.741	57445.54
678.09	57386.78
678.438	57308.14
678.787	57359.21
679.135	57355.6
679.484	57205.54
679.832	57259.33
680.181	57205.77
680.529	57253
680.877	57217.29
681.225	57164.87
681.573	57373.9
681.922	57180.69
682.27	57116.05
682.618	57152.66
682.966	57004.87
683.314	57092.33
683.661	57046
684.009	56991.54
684.357	56910.64
684.705	56840.81
685.053	56887.59
685.4	56765.56
685.748	56771.66
686.095	56820.02
686.443	56700.92
686.79	56585.22
687.138	56699.12
687.485	56691.43
687.832	56542.96
688.18	56620.93
688.527	56494.38
688.874	56563.75
689.221	56488.73
689.568	56364.21
689.915	56346.13
690.262	56333.25
690.609	56321.73
690.956	56155.63
691.303	56176.19
691.65	56065.23
691.997	56030.66
692.344	55933.94
692.69	55934.84
693.037	55894.62
693.383	55739.59
693.73	55839.25
694.077	55705.7
694.423	55706.37
694.769	55672.93
695.116	55542.99
695.462	55442.88
695.808	55367.63
696.155	55399.26
696.501	55208.08
696.847	55240.85
697.193	54987.52
697.539	55105.26
697.885	54932.38
698.231	54931.93
698.577	54900.52
698.923	54856.23
699.269	54698.49
699.614	54645.16
699.96	54587.53
700.306	54580.98
700.651	54462.34
700.997	54383.25
701.342	54327.88
701.688	54254.89
702.033	54036.81
702.379	54110.71
702.724	54001.79
703.069	54043.82
703.415	53727.22
703.76	53699.42
704.105	53696.94
704.45	53701
704.795	53621.68
705.14	53513.44
705.485	53523.83
705.83	53285.87
706.175	53377.62
706.52	53321.8
706.865	53145.99
707.209	53124.07
707.554	53078.65
707.899	53063.51
708.243	52895.6
708.588	52778.32
708.932	52741.25
709.277	52742.16
709.621	52666
709.966	52448.61
710.31	52598.43
710.654	52324.32
710.998	52382.62
711.342	52412.68
711.687	52218.1
712.031	52183.53
712.375	52115.28
712.719	51965.68
713.063	51914.16
713.407	52082.74
713.75	51860.15
714.094	51881.62
714.438	51717.33
714.782	51656.54
715.125	51566.6
715.469	51667.61
715.812	51400.5
716.156	51307.39
716.499	51323.89
716.843	51361.18
717.186	51128.42
717.53	51333.61
717.873	51299.48
718.216	51180.17
718.559	51035.54
718.902	50781.98
719.246	50913.05
719.589	50760.06
719.932	50649.11
720.275	50751.93
720.617	50642.33
720.96	50602.1
721.303	50620.41
721.646	50687.98
721.989	50466.74
722.331	50394.88
722.674	50216.12
723.016	50395.1
723.359	50155.33
723.701	50184.71
724.044	50087.54
724.386	49888
724.729	50142
725.071	49966.86
725.413	49892.74
725.755	49959.18
726.097	49731.84
726.439	49639.87
726.782	49657.04
727.124	49749.47
727.465	49617.72
727.807	49397.39
728.149	49595.8
728.491	49406.2
728.833	49475.8
729.175	49363.26
729.516	49289.37
729.858	49286.43
730.199	49257.05
730.541	49295.7
730.882	48999.88
731.224	49065.19
731.565	48944.52
731.906	48945.87
732.248	49053.89
732.589	48743.17
732.93	48733
733.271	48733.45
733.612	48636.05
733.953	48748.37
734.294	48674.69
734.635	48451.65
734.976	48699.33
735.317	48470.86
735.658	48575.04
735.999	48292.56
736.339	48349.73
736.68	48268.38
737.021	48126.46
737.361	48138.89
737.702	48432.22
738.042	48154.71
738.383	48060.25
738.723	48149.96
739.063	47907.48
739.404	47997.2
739.744	48046.69
740.084	47859.8
740.424	47890.31
740.764	47869.97
741.104	47913.36
741.444	47655.74
741.784	47457.33
742.124	47734.38
742.464	47542.52
742.804	47367.84
743.143	47448.74
743.483	47418.46
743.823	47276.54
744.162	47293.49
744.502	47265.47
744.841	47087.39
745.181	47300.72
745.52	47107.73
745.86	47017.56
746.199	47133.04
746.538	46993.61
746.877	47029.09
747.216	46994.74
747.556	46846.95
747.895	46751.58
748.234	46743.67
748.573	46603.79
748.911	46671.36
749.25	46698.93
749.589	46345.04
749.928	46546.39
750.267	46509.1
750.605	46367.18
750.944	46230.47
751.283	46113.18
751.621	46262.55
751.96	45933.07
752.298	45835.45
752.636	46022.79
752.975	45903.02
753.313	45698.05
753.651	45809.01
753.989	45569.69
754.327	45629.8
754.666	45227.33
755.004	45477.49
755.342	45417.61
755.679	45228.46
756.017	45045.64
756.355	45368.57
756.693	44988.69
757.031	45111.85
757.368	44947.79
757.706	44831.86
758.044	44627.12
758.381	44597.74
758.719	44392.55
759.056	44409.5
759.394	44256.96
759.731	44052.44
760.068	44090.86
760.405	44044.31
760.743	43689.74
761.08	43786.01
761.417	43585.56
761.754	43472.8
762.091	43447.49
762.428	43122.07
762.765	43025.58
763.102	43060.83
763.438	42960.49
763.775	42730.9
764.112	42726.83
764.449	42728.64
764.785	42538.58
765.122	42303.11
765.458	42073.29
765.795	41978.37
766.131	42141.31
766.467	41928.66
766.804	41707.42
767.14	41570.25
767.476	41441.21
767.812	41274.21
768.148	41271.5
768.485	41180.2
768.821	40711.29
769.157	40817.5
769.492	40699.09
769.828	40620.22
770.164	40388.81
770.5	40140.23
770.836	40315.59
771.171	40065.43
771.507	39681.26
771.842	39493.24
772.178	39655.72
772.513	39495.28
772.849	39283.53
773.184	39250.76
773.519	39129.86
773.855	38912.01
774.19	38808.74
774.525	38747.72
774.86	38569.65
775.195	38395.19
775.53	38132.83
775.865	37943.68
776.2	37894.41
776.535	37719.05
776.87	37605.16
777.205	37500.3
777.539	37291.94
777.874	37489.45
778.209	36960.88
778.543	37125.17
778.878	36849.92
779.212	36835.01
779.547	36543.04
779.881	36595.46
780.215	36347.56
780.55	36363.38
780.884	35997.97
781.218	36045.2
781.552	35911.87
781.886	35763.85
782.22	35536.96
782.554	35347.81
782.888	35118.89
783.222	35022.85
783.556	34884.1
783.889	34823.76
784.223	34515.29
784.557	34566.82
784.89	34586.25
785.224	34340.38
785.557	34202.31
785.891	34012.71
786.224	34003.67
786.558	34098.35
786.891	33723.45
787.224	33475.32
787.557	33423.57
787.891	33379.73
788.224	33131.37
788.557	33144.93
788.89	33064.48
789.223	32995.33
789.556	32769.12
789.888	32698.84
790.221	32548.34
790.554	32370.94
790.887	32269.93
791.219	32221.57
791.552	32185.86
791.884	32032.19
792.217	31920.33
792.549	31874.01
792.882	31562.83
793.214	31502.49
793.546	31529.61
793.879	31391.31
794.211	31013.46
794.543	31365.55
794.875	31097.98
795.207	31060.69
795.539	30841.27
795.871	30975.73
796.203	30836.07
796.535	30569.18
796.867	30394.05
797.198	30358.11
797.53	30187.27
797.862	30071.57
798.193	29989.31
798.525	29919.71
798.856	30004
799.188	29613.73
799.519	29552.03
799.85	29411.25
800.182	29495.99
800.513	29616.66
800.844	29221.42
801.175	29443.11
801.506	29310.46
801.837	29113.85
802.168	29045.15
802.499	29100.52
802.83	28752.73
803.161	28709.12
803.491	28697.14
803.822	28784.37
804.153	28501.44
804.483	28294.67
804.814	28142.58
805.145	28244.95
805.475	28159.3
805.805	28025.52
806.136	28147.78
806.466	28042.69
806.796	27908.69
807.126	27747.34
807.457	27726.54
807.787	27760.22
808.117	27610.62
808.447	27352.09
808.777	27457.17
809.107	27314.58
809.436	27203.62
809.766	27154.36
810.096	27193.45
810.426	27108.26
810.755	26911.65
811.085	26877.98
811.414	26836.62
811.744	26732.22
812.073	26698.1
812.403	26623.75
812.732	26521.15
813.061	26605.44
813.39	26310.76
813.719	26203.2
814.049	26358.9
814.378	26346.02
814.707	26196.19
815.036	26080.03
815.365	26020.38
815.693	25914.16
816.022	25894.73
816.351	25896.31
816.68	25675.07
817.008	25693.38
817.337	25335.87
817.665	25540.16
817.994	25528.86
818.322	25680.27
818.651	25535.19
818.979	25315.53
819.307	25347.62
819.636	25288.87
819.964	25090.46
820.292	25329.55
820.62	25271.92
820.948	25181.53
821.276	25277.34
821.604	25150.57
821.932	25270.11
822.259	25245.93
822.587	25199.61
822.915	25001.87
823.243	25228.76
823.57	25017.01
823.898	25126.61
824.225	25054.98
824.553	25125.26
824.88	25089.33
825.207	25250
825.535	25052.49
825.862	25181.3
826.189	25045.71
826.516	25281.19
826.843	25274.86
827.17	25245.48
827.497	25206.16
827.824	25269.21
828.151	25201.87
828.478	25073.51
828.805	25216.78
829.131	25155.99
829.458	25189.21
829.785	25028.31
830.111	25065.82
830.438	25127.97
830.764	25085.03
831.09	25217.46
831.417	24917.13
831.743	25124.58
832.069	25075.77
832.395	24982.21
832.722	25103.56
833.048	25022.44
833.374	25047.97
833.7	24979.72
834.026	25037.12
834.351	24872.16
834.677	25024.92
835.003	25044.13
835.329	24958.26
835.654	24922.1
835.98	24813.85
836.306	24891.37
836.631	24767.3
836.956	24907.86
837.282	24837.13
837.607	24701.09
837.932	24632.39
838.258	24686.17
838.583	24621.99
838.908	24515.78
839.233	24586.29
839.558	24379.97
839.883	24440.3
840.208	24323.02
840.533	24339.06
840.858	24303.58
841.182	24259.07
841.507	24278.27
841.832	24064.95
842.156	24138.84
842.481	24138.84
842.805	24049.35
843.13	23954.44
843.454	23943.82
843.778	23792.19
844.103	23763.94
844.427	23776.59
844.751	23732.53
845.075	23808.91
845.399	23545.64
845.723	23517.16
846.047	23546.09
846.371	23310.16
846.695	23170.28
847.019	23141.13
847.343	23048.7
847.666	23087.12
847.99	22905.88
848.313	22748.6
848.637	22749.95
848.96	22767.35
849.284	22599.22
849.607	22396.06
849.931	22397.87
850.254	22272
850.577	22186.35
850.9	22004.44
851.223	22006.47
851.546	21945.68
851.869	21678.12
852.192	22016.86
852.515	21703.43
852.838	21551.34
853.161	21536.88
853.483	21427.28
853.806	21412.59
854.129	21342.76
854.451	21269.77
854.774	21141.18
855.096	21123.78
855.419	21010.11
855.741	20950.9
856.063	20956.55
856.385	20859.83
856.708	20794.52
857.03	20783
857.352	20808.08
857.674	20626.39
857.996	20624.36
858.318	20380.75
858.64	20549.78
858.961	20440.63
859.283	20386.85
859.605	20247.19
859.926	20288.55
860.248	20103.02
860.57	20092.62
860.891	20075.45
861.212	20029.57
861.534	19890.37
861.855	19818.05
862.176	19983.47
862.498	19905.73
862.819	19812.4
863.14	19753.2
863.461	19751.61
863.782	19720.2
864.103	19710.26
864.424	19556.36
864.745	19638.4
865.065	19573.76
865.386	19382.36
865.707	19531.05
866.027	19481.34
866.348	19442.47
866.668	19456.93
866.989	19287.9
867.309	19111.4
867.63	19210.38
867.95	19351.62
868.27	19153.21
868.59	19202.48
868.91	19010.39
869.23	19133.1
869.55	19036.83
869.87	19129.71
870.19	18948.92
870.51	18962.26
870.83	18950.5
871.15	18823.95
871.469	18800.9
871.789	18831.19
872.109	18866.44
872.428	18774.69
872.748	18761.81
873.067	18757.74
873.386	18689.27
873.706	18746.67
874.025	18590.29
874.344	18512.32
874.663	18613.56
874.982	18671.19
875.301	18482.95
875.62	18460.8
875.939	18383.29
876.258	18444.08
876.577	18335.15
876.896	18295.15
877.214	18268.26
877.533	18305.55
877.852	18214.93
878.17	18322.5
878.489	18258.55
878.807	18191.2
879.125	18145.1
879.444	18130.19
879.762	18048.16
880.08	18089.74
880.398	17946.69
880.716	18014.26
881.034	17942.85
881.352	17872.34
881.67	17810.87
881.988	17846.8
882.306	17792.57
882.624	17757.77
882.941	17717.54
883.259	17713.02
883.577	17632.57
883.894	17654.72
884.212	17527.72
884.529	17428.06
884.846	17461.5
885.164	17303.09
885.481	17385.35
885.798	17407.72
886.115	17308.29
886.432	17332.02
886.75	17293.37
887.067	17243.66
887.383	17202.75
887.7	17226.71
888.017	16982.65
888.334	17080.05
888.651	16933.83
888.967	16904.68
889.284	16878.92
889.6	16761.86
889.917	16748.08
890.233	16743.56
890.55	16659.94
890.866	16664.46
891.182	16559.15
891.498	16526.84
891.815	16472.6
892.131	16420.85
892.447	16338.37
892.763	16295.66
893.079	16330.23
893.395	16251.82
893.71	16193.06
894.026	16187.64
894.342	16090.01
894.657	15933.41
894.973	15985.38
895.289	16031.49
895.604	15874.88
895.92	15840.3
896.235	15828.33
896.55	15846.63
896.865	15736.35
897.181	15669.91
897.496	15647.31
897.811	15499.3
898.126	15453.2
898.441	15448
898.756	15479.18
899.071	15308.57
899.386	15361.45
899.7	15226.99
900.015	15108.57
900.33	15090.49
900.644	15063.15
900.959	15021.34
901.273	14943.83
901.588	14887.11
901.902	14883.49
902.216	14781.8
902.531	14676.49
902.845	14738.64
903.159	14563.95
903.473	14525.99
903.787	14483.28
904.101	14415.71
904.415	14481.47
904.729	14346.56
905.042	14256.62
905.356	14243.28
905.67	14191.99
905.984	14240.57
906.297	14110.63
906.611	14007.36
906.924	13947.02
907.237	14010.75
907.551	13928.49
907.864	13780.92
908.177	13824.09
908.491	13756.74
908.804	13684.65
909.117	13576.41
909.43	13534.6
909.743	13417.77
910.056	13469.97
910.368	13354.27
910.681	13242.63
910.994	13298.68
911.307	13249.64
911.619	12994.28
911.932	13127.83
912.244	12986.37
912.557	13001.73
912.869	12884.9
913.181	12926.48
913.494	12947.27
913.806	12780.05
914.118	12696.66
914.43	12738.46
914.742	12721.29
915.054	12569.2
915.366	12525.36
915.678	12522.2
915.99	12437.23
916.302	12383.67
916.613	12344.8
916.925	12352.94
917.236	12209.89
917.548	12161.76
917.859	12149.33
918.171	12075.88
918.482	11979.16
918.794	12016.45
919.105	11887.41
919.416	11894.64
919.727	11820.52
920.038	11752.28
920.349	11648.78
920.66	11691.49
920.971	11715.21
921.282	11616.91
921.593	11566.29
921.903	11450.59
922.214	11450.81
922.525	11343.7
922.835	11316.81
923.146	11224.83
923.456	11270.93
923.767	11242.91
924.077	11139.86
924.387	11053.31
924.697	11029.58
925.008	10949.13
925.318	10968.34
925.628	10979.64
925.938	10908.23
926.248	10807.44
926.558	10742.58
926.867	10697.61
927.177	10589.59
927.487	10603.83
927.796	10572.87
928.106	10514.79
928.416	10482.48
928.725	10436.15
929.034	10383.72
929.344	10384.18
929.653	10355.93
929.962	10230.73
930.271	10153.45
930.581	10218.76
930.89	10100.12
931.199	10030.74
931.508	10024.64
931.817	10002.94
932.125	9964.98
932.434	9889.73
932.743	9863.51
933.051	9828.03
933.36	9746.9
933.669	9673.91
933.977	9707.36
934.286	9730.86
934.594	9562.73
934.902	9558.89
935.21	9496.52
935.519	9501.04
935.827	9442.96
936.135	9438.66
936.443	9299.46
936.751	9274.6
937.059	9283.19
937.367	9229.4
937.674	9182.17
937.982	9204.55
938.29	9139.46
938.597	9094.49
938.905	8997.09
939.213	8993.93
939.52	8935.63
939.827	8957.09
940.135	8842.3
940.442	8811.79
940.749	8753.71
941.056	8881.39
941.363	8644.79
941.67	8649.53
941.977	8607.05
942.284	8584
942.591	8587.16
942.898	8490.21
943.205	8453.61
943.511	8448.41
943.818	8448.18
944.125	8362.31
944.431	8304.23
944.738	8305.36
945.044	8286.83
945.35	8242.54
945.657	8155.31
945.963	8188.3
946.269	8110.34
946.575	8094.07
946.881	8102.2
947.187	8030.57
947.493	8005.26
947.799	7918.7
948.105	7883.9
948.41	7895.2
948.716	7880.97
949.022	7836.9
949.327	7750.35
949.633	7643.46
949.938	7675.09
950.244	7662.21
950.549	7609.79
950.854	7513.52
951.16	7570.92
951.465	7520.75
951.77	7484.14
952.075	7439.62
952.38	7418.15
952.685	7394.2
952.99	7340.19
953.294	7329.34
953.599	7285.5
953.904	7262.9
954.209	7205.05
954.513	7178.61
954.818	7134.54
955.122	7197.82
955.426	7088.44
955.731	7041.67
956.035	7022.46
956.339	6973.64
956.643	6994.21
956.948	6897.49
957.252	6881.44
957.556	6875.57
957.86	6866.3
958.163	6894.32
958.467	6742.46
958.771	6788.34
959.075	6744.27
959.378	6617.72
959.682	6669.7
959.985	6650.49
960.289	6589.02
960.592	6534.11
960.896	6526.88
961.199	6520.32
961.502	6509.7
961.805	6480.78
962.108	6385.64
962.411	6436.71
962.714	6346.99
963.017	6359.65
963.32	6306.32
963.623	6307.9
963.926	6236.71
964.228	6201.24
964.531	6182.48
964.833	6173.67
965.136	6165.53
965.438	6138.86
965.741	6080.79
966.043	6066.32
966.345	6056.15
966.648	6002.37
966.95	5972.99
967.252	5915.82
967.554	5973.44
967.856	5956.04
968.158	5886.44
968.46	5829.95
968.761	5803.28
969.063	5789.04
969.365	5760.79
969.666	5728.03
969.968	5682.38
970.269	5698.2
970.571	5663.62
970.872	5611.42
971.174	5587.47
971.475	5555.83
971.776	5553.79
972.077	5494.81
972.378	5485.77
972.679	5486.23
972.98	5435.38
973.281	5452.78
973.582	5449.62
973.883	5349.73
974.183	5377.53
974.484	5333.46
974.785	5275.38
975.085	5277.42
975.386	5251.43
975.686	5220.47
975.986	5250.98
976.287	5222.73
976.587	5119.46
976.887	5138.21
977.187	5134.14
977.487	5092.79
977.787	5075.62
978.087	5047.37
978.387	5007.14
978.687	5012.79
978.987	4953.13
979.286	4956.97
979.586	4943.87
979.885	4890.31
980.185	4854.15
980.484	4868.84
980.784	4808.73
981.083	4801.27
981.382	4821.84
981.682	4788.84
981.981	4792.01
982.28	4722.86
982.579	4710.65
982.878	4723.31
983.177	4683.99
983.475	4618
983.774	4614.61
984.073	4626.81
984.372	4581.84
984.67	4543.65
984.969	4546.14
985.267	4544.56
985.566	4464.78
985.864	4458.23
986.162	4443.09
986.461	4389.08
986.759	4419.59
987.057	4354.73
987.355	4332.81
987.653	4346.14
987.951	4332.58
988.249	4288.29
988.547	4302.98
988.844	4308.63
989.142	4255.75
989.44	4157.22
989.737	4199.25
990.035	4203.77
990.332	4195.41
990.63	4194.51
990.927	4112.93
991.224	4113.38
991.521	4064.79
991.819	4093.72
992.116	4063.89
992.413	4044
992.71	3982.08
993.006	3953.16
993.303	3982.08
993.6	3981.18
993.897	3906.15
994.193	3914.74
994.49	3892.82
994.787	3879.49
995.083	3819.83
995.379	3847.62
995.676	3826.83
995.972	3803.11
996.268	3795.65
996.565	3728.76
996.861	3737.12
997.157	3704.13
997.453	3703.9
997.749	3690.11
998.044	3664.58
998.34	3631.81
998.636	3604.69
998.932	3602.66
999.227	3574.64
999.523	3552.49
999.818	3564.69
1000.114	3487.41
1000.409	3491.93
1000.704	3480.63
1001	3449.67
1001.295	3406.05
1001.59	3390.24
1001.885	3393.85
1002.18	3357.47
1002.475	3360.41
1002.77	3347.3
1003.065	3320.18
1003.359	3289
1003.654	3279.73
1003.949	3281.31
1004.243	3213.07
1004.538	3181.65
1004.832	3216.91
1005.127	3185.04
1005.421	3189.56
1005.715	3149.56
1006.009	3112.5
1006.304	3096.01
1006.598	3118.15
1006.892	3061.66
1007.186	3017.36
1007.48	3023.01
1007.773	3029.12
1008.067	3002
1008.361	2968.33
1008.655	2980.53
1008.948	2975.33
1009.242	2940.08
1009.535	2913.19
1009.829	2889.46
1010.122	2877.48
1010.415	2868.67
1010.708	2869.57
1011.001	2799.97
1011.295	2790.25
1011.588	2791.38
1011.881	2754.09
1012.173	2747.99
1012.466	2733.3
1012.759	2711.84
1013.052	2725.17
1013.344	2672.29
1013.637	2647.66
1013.93	2640.65
1014.222	2643.14
1014.514	2638.17
1014.807	2622.8
1015.099	2596.36
1015.391	2596.58
1015.683	2531.28
1015.976	2535.57
1016.268	2526.08
1016.56	2530.82
1016.851	2505.51
1017.143	2468.23
1017.435	2469.36
1017.727	2457.6
1018.018	2398.17
1018.31	2419.64
1018.602	2406.98
1018.893	2352.75
1019.185	2379.87
1019.476	2332.86
1019.767	2305.52
1020.058	2315.46
1020.35	2281.11
1020.641	2258.29
1020.932	2278.4
1021.223	2244.73
1021.514	2216.26
1021.804	2207.44
1022.095	2243.83
1022.386	2152.08
1022.677	2161.79
1022.967	2119.76
1023.258	2117.27
1023.548	2106.2
1023.839	2093.55
1024.129	2075.92
1024.419	2057.84
1024.709	2070.04
1025	2025.75
1025.29	2018.75
1025.58	1997.28
1025.87	1969.71
1026.16	1981.23
1026.449	1965.87
1026.739	1936.49
1027.029	1950.95
1027.319	1908.24
1027.608	1916.15
1027.898	1876.6
1028.187	1868.47
1028.477	1883.83
1028.766	1878.41
1029.055	1863.5
1029.344	1856.49
1029.634	1831.41
1029.923	1811.52
1030.212	1792.54
1030.501	1783.72
1030.79	1745.08
1031.078	1756.83
1031.367	1739.66
1031.656	1746.66
1031.945	1710.73
1032.233	1712.09
1032.522	1684.52
1032.81	1674.35
1033.099	1658.08
1033.387	1657.85
1033.675	1627.8
1033.963	1654.69
1034.251	1634.12
1034.54	1605.42
1034.828	1586.22
1035.116	1597.74
1035.403	1548.02
1035.691	1563.62
1035.979	1541.24
1036.267	1553
1036.554	1507.12
1036.842	1528.82
1037.129	1496.05
1037.417	1497.86
1037.704	1489.04
1037.992	1512.54
1038.279	1440.46
1038.566	1484.75
1038.853	1484.75
1039.14	1484.75
