Data from 12-0727_FLMS001491_008.txt Node
Date: Thu Apr 12 17:09:14 BST 2018
User: hsy
Spectrometer: FLMS00149
Trigger mode: 0
Integration Time (sec): 1.000000E-2
Scans to average: 10
Electric dark correction enabled: true
Nonlinearity correction enabled: false
Boxcar width: 0
XAxis mode: Wavelengths
Number of Pixels in Spectrum: 2048
>>>>>Begin Spectral Data<<<<<
341.393	-16.82
341.776	-16.82
342.16	-16.82
342.543	-42.81
342.927	-48.23
343.31	-75.8
343.693	-62.7
344.077	-74.9
344.46	-35.13
344.843	-46.65
345.226	-39.87
345.61	-57.5
345.993	-2.81
346.376	-9.59
346.759	-7.1
347.142	29.5
347.525	39.9
347.908	46.91
348.291	80.13
348.674	93.46
349.057	122.16
349.44	140.24
349.823	142.5
350.206	179.11
350.588	221.82
350.971	246.45
351.354	260.91
351.737	263.4
352.119	299.55
352.502	287.8
352.884	317.18
353.267	321.47
353.65	341.36
354.032	332.32
354.414	333.45
354.797	362.38
355.179	351.76
355.562	365.77
355.944	358.54
356.326	398.76
356.709	385.88
357.091	370.29
357.473	397.86
357.855	394.47
358.238	401.02
358.62	397.63
359.002	382.04
359.384	385.43
359.766	396.73
360.148	408.93
360.53	384.3
360.912	376.16
361.294	370.06
361.676	371.19
362.057	358.54
362.439	394.24
362.821	382.94
363.203	362.6
363.584	382.72
363.966	397.86
364.348	393.34
364.729	377.29
365.111	373
365.493	388.59
365.874	377.74
366.256	383.62
366.637	383.17
367.019	372.55
367.4	375.26
367.781	375.26
368.163	370.51
368.544	376.61
368.925	383.85
369.306	373.45
369.688	389.04
370.069	390.85
370.45	389.04
370.831	396.95
371.212	386.33
371.593	372.32
371.974	376.16
372.355	374.58
372.736	380
373.117	388.14
373.498	387.24
373.879	381.59
374.26	371.87
374.641	386.56
375.021	379.55
375.402	402.83
375.783	389.27
376.163	409.61
376.544	396.5
376.925	398.99
377.305	401.7
377.686	396.05
378.066	391.08
378.447	410.06
378.827	401.92
379.208	398.31
379.588	411.64
379.968	398.08
380.349	417.97
380.729	411.19
381.109	424.75
381.489	458.42
381.87	400.34
382.25	429.04
382.63	409.83
383.01	426.33
383.39	453.9
383.77	441.7
384.15	449.15
384.53	443.96
384.91	411.64
385.29	433.11
385.67	462.94
386.049	436.05
386.429	441.7
386.809	439.44
387.189	450.51
387.568	445.54
387.948	463.39
388.328	466.56
388.707	485.99
389.087	475.37
389.466	459.1
389.846	477.85
390.225	492.09
390.605	482.83
390.984	477.85
391.363	476.05
391.743	502.03
392.122	488.25
392.501	497.29
392.881	505.2
393.26	509.04
393.639	489.15
394.018	501.13
394.397	520.57
394.776	511.07
395.155	511.53
395.534	543.16
395.913	529.38
396.292	533.22
396.671	538.42
397.05	538.42
397.429	544.29
397.808	529.38
398.186	546.33
398.565	541.81
398.944	550.62
399.323	542.71
399.701	540.68
400.08	546.55
400.458	555.37
400.837	571.19
401.215	563.5
401.594	568.47
401.972	582.48
402.351	586.55
402.729	590.85
403.107	589.94
403.486	605.08
403.864	593.78
404.242	616.16
404.62	604.18
404.999	616.16
405.377	632.65
405.755	624.29
406.133	643.05
406.511	641.47
406.889	641.47
407.267	684.18
407.645	665.65
408.023	702.48
408.401	654.8
408.779	703.16
409.156	709.71
409.534	703.39
409.912	699.54
410.29	728.47
410.667	748.81
411.045	753.55
411.422	744.51
411.8	754.68
412.178	758.98
412.555	751.07
412.933	774.57
413.31	781.12
413.687	780.22
414.065	815.02
414.442	787.9
414.819	815.92
415.197	827.45
415.574	847.79
415.951	847.11
416.328	871.74
416.705	881.69
417.082	839.65
417.46	863.16
417.837	898.63
418.214	909.71
418.591	888.69
418.967	885.53
419.344	909.48
419.721	903.61
420.098	900.22
420.475	910.16
420.852	922.14
421.228	941.35
421.605	940.44
421.982	969.59
422.358	968.24
422.735	977.05
423.111	976.6
423.488	975.02
423.864	999.42
424.241	1021.34
424.617	1043.04
424.994	1031.74
425.37	1039.65
425.746	1025.86
426.123	1026.09
426.499	1021.8
426.875	1055.92
427.251	1081.91
427.627	1087.56
428.003	1095.47
428.379	1129.59
428.756	1126.43
429.132	1148.8
429.507	1146.99
429.883	1192.19
430.259	1158.74
430.635	1196.48
431.011	1173.66
431.387	1213.2
431.763	1256.37
432.138	1234.44
432.514	1250.49
432.89	1277.38
433.265	1287.78
433.641	1308.12
434.016	1316.02
434.392	1317.15
434.767	1336.59
435.143	1337.95
435.518	1342.92
435.894	1369.13
436.269	1374.55
436.644	1403.03
437.02	1391.05
437.395	1424.95
437.77	1398.51
438.145	1426.53
438.52	1461.11
438.895	1468.11
439.271	1449.35
439.646	1475.34
440.021	1534.1
440.395	1492.07
440.77	1518.28
441.145	1511.5
441.52	1542.01
441.895	1537.71
442.27	1549.01
442.645	1552.85
443.019	1576.81
443.394	1549.01
443.769	1548.79
444.143	1599.41
444.518	1598.5
444.892	1613.87
445.267	1608.22
445.641	1635.34
446.016	1631.04
446.39	1674.66
446.764	1683.02
447.139	1631.04
447.513	1691.83
447.887	1687.31
448.262	1674.89
448.636	1695
449.01	1736.8
449.384	1729.57
449.758	1756.01
450.132	1736.35
450.506	1743.13
450.88	1793.75
451.254	1759.63
451.628	1835.79
452.002	1840.3
452.376	1872.39
452.75	1876.69
453.123	1918.04
453.497	1930.47
453.871	1926.86
454.244	1953.75
454.618	1989
454.992	1999.17
455.365	2015.67
455.739	2041.43
456.112	2080.07
456.486	2087.08
456.859	2123.24
457.232	2177.25
457.606	2181.99
457.979	2208.66
458.352	2244.81
458.725	2258.82
459.099	2286.62
459.472	2282.55
459.845	2369.56
460.218	2376.34
460.591	2394.19
460.964	2394.64
461.337	2457.24
461.71	2478.25
462.083	2510.57
462.456	2552.6
462.829	2526.61
463.201	2602.77
463.574	2572.49
463.947	2619.49
464.32	2627.63
464.692	2708.08
465.065	2708.98
465.438	2751.47
465.81	2751.47
466.183	2812.93
466.555	2889.54
466.928	2875.76
467.3	2894.97
467.672	2920.73
468.045	3005.02
468.417	3019.26
468.789	3028.07
469.161	3052.7
469.534	3062.87
469.906	3141.51
470.278	3218.12
470.65	3232.36
471.022	3286.14
471.394	3346.71
471.766	3376.54
472.138	3410.21
472.51	3483.2
472.882	3545.12
473.253	3559.58
473.625	3586.7
473.997	3696.08
474.369	3721.84
474.74	3754.15
475.112	3863.75
475.484	3896.52
475.855	3974.49
476.227	4001.6
476.598	4090.19
476.97	4179.45
477.341	4249.51
477.713	4348.04
478.084	4359.11
478.455	4440.01
478.827	4518.2
479.198	4661.02
479.569	4652.21
479.94	4805.65
480.311	4852.43
480.682	4986.44
481.053	5113.89
481.424	5141.69
481.795	5259.88
482.166	5371.06
482.537	5506.2
482.908	5585.07
483.279	5700.09
483.65	5776.25
484.021	5924.49
484.391	6021.89
484.762	6154.09
485.133	6182.56
485.503	6338.04
485.874	6495.78
486.244	6576.23
486.615	6754.3
486.985	6879.95
487.356	7035.65
487.726	7178.24
488.097	7339.82
488.467	7450.33
488.837	7657.33
489.207	7786.36
489.578	7958.56
489.948	8163.75
490.318	8340.47
490.688	8427.02
491.058	8608.26
491.428	8817.75
491.798	9015.03
492.168	9173.45
492.538	9352.88
492.908	9517.39
493.278	9740.21
493.648	9863.37
494.017	10089.58
494.387	10282.57
494.757	10441.66
495.126	10704.7
495.496	10830.58
495.866	10993.96
496.235	11240.51
496.605	11428.53
496.974	11613.61
497.344	11854.05
497.713	12099.7
498.082	12296.75
498.452	12470.53
498.821	12803.86
499.19	12961.14
499.559	13200.01
499.928	13461.69
500.298	13645.42
500.667	13966.09
501.036	13975.8
501.405	14365.63
501.774	14435
502.143	14801.32
502.512	15048.09
502.88	15305.94
503.249	15418.7
503.618	15719.49
503.987	16000.84
504.356	16243.77
504.724	16502.52
505.093	16696.86
505.462	16924.88
505.83	17150.64
506.199	17376.85
506.567	17824.97
506.936	17911.75
507.304	18231.74
507.672	18393.99
508.041	18673.08
508.409	18952.62
508.777	19238.72
509.145	19531.82
509.514	19764.58
509.882	19893.39
510.25	20122.99
510.618	20435.07
510.986	20623.09
511.354	20882.97
511.722	21221.72
512.09	21542.61
512.458	21712.1
512.826	21918.19
513.193	22091.52
513.561	22293.1
513.929	22558.4
514.297	22887.21
514.664	23109.58
515.032	23350.25
515.4	23539.4
515.767	23871.36
516.135	24000.85
516.502	24093.73
516.869	24433.61
517.237	24704.34
517.604	24769.19
517.972	25235.62
518.339	25333.02
518.706	25626.12
519.073	25851.65
519.44	26063.17
519.808	26421.58
520.175	26581.58
520.542	26840.1
520.909	27078.06
521.276	27215.23
521.643	27586.29
522.009	27794.2
522.376	28020.18
522.743	28308.99
523.11	28714.63
523.477	29007.95
523.843	29162.75
524.21	29567.26
524.577	29700.59
524.943	29935.39
525.31	30064.42
525.676	30510.06
526.043	30687.23
526.409	31021.46
526.776	31387.1
527.142	31568.79
527.508	31843.36
527.874	32014.88
528.241	32209.68
528.607	32457.8
528.973	32889.66
529.339	32998.36
529.705	33340.49
530.071	33568.96
530.437	33832.68
530.803	34101.15
531.169	34303.86
531.535	34314.71
531.901	34554.02
532.267	34724.64
532.632	35016.16
532.998	35071.3
533.364	35464.28
533.73	35592.64
534.095	35925.51
534.461	35971.61
534.826	36090.48
535.192	36287.53
535.557	36540.64
535.923	36650.69
536.288	36729.33
536.653	36924.35
537.019	37043.22
537.384	37111.24
537.749	37297.9
538.114	37500.84
538.479	37479.59
538.845	37691.11
539.21	37805.01
539.575	37969.75
539.94	38151.67
540.305	38429.63
540.67	38298.1
541.034	38546.01
541.399	38530.19
541.764	38769.28
542.129	38890.18
542.494	39113.22
542.858	39281.35
543.223	39239.1
543.587	39669.37
543.952	39522.7
544.316	39731.06
544.681	39710.5
545.045	39928.57
545.41	40053.09
545.774	40011.28
546.138	40197.94
546.503	40300.31
546.867	40483.36
547.231	40522.23
547.595	40746.17
547.959	40884.25
548.324	41001.76
548.688	41122.21
549.052	41368.08
549.416	41353.16
549.779	41467.51
550.143	41646.94
550.507	41869.08
550.871	42135.29
551.235	42123.09
551.599	42238.56
551.962	42435.85
552.326	42623.19
552.689	42875.61
553.053	42571.44
553.417	42855.5
553.78	43116.28
554.143	43262.94
554.507	43309.95
554.87	43525.31
555.234	43942.47
555.597	43683.05
555.96	43954.45
556.323	44204.39
556.686	44178.17
557.05	44593.76
557.413	44652.51
557.776	44852.06
558.139	45065.38
558.502	45223.8
558.865	45204.36
559.228	45539.72
559.59	45799.15
559.953	45831.46
560.316	46232.58
560.679	46237.1
561.041	46434.84
561.404	46784.66
561.767	46925.45
562.129	46924.32
562.492	47349.39
562.854	47533.57
563.217	47409.5
563.579	47583.51
563.941	47900.34
564.304	47999.77
564.666	48357.27
565.028	48351.85
565.39	48401.57
565.753	48683.82
566.115	48820.54
566.477	49051.27
566.839	49245.39
567.201	49521.99
567.563	49373.07
567.925	49798.14
568.287	49750.46
568.648	49861.19
569.01	50064.57
569.372	50490.1
569.734	50323.1
570.095	50640.83
570.457	50790.2
570.819	50805.57
571.18	50881.05
571.542	51116.75
571.903	51277.87
572.265	51441.71
572.626	51543.86
572.987	51690.29
573.349	51801.93
573.71	51959.89
574.071	52106.55
574.432	52227.45
574.794	52565.98
575.155	52548.12
575.516	52553.55
575.877	52602.36
576.238	52669.02
576.599	52882.13
576.96	52917.15
577.32	52900.88
577.681	53087.32
578.042	53388.78
578.403	53363.02
578.763	53469.46
579.124	53419.29
579.485	53696.79
579.845	53803.68
580.206	53641.2
580.566	53739.51
580.927	53768.66
581.287	53894.08
581.648	53923.68
582.008	54133.62
582.368	54198.02
582.728	54204.13
583.089	54242.54
583.449	54239.15
583.809	54344.91
584.169	54516.66
584.529	54337.91
584.889	54599.37
585.249	54539.03
585.609	54445.48
585.969	54800.49
586.329	54664
586.688	54829.87
587.048	54820.83
587.408	54897.67
587.768	54956.87
588.127	54972.47
588.487	54898.57
588.846	55154.84
589.206	54960.04
589.565	55044.1
589.925	55183.76
590.284	55125.46
590.643	55289.07
591.003	55300.14
591.362	55470.08
591.721	55472.57
592.08	55517.31
592.44	55619.91
592.799	55592.11
593.158	55727.02
593.517	55677.08
593.876	55817.64
594.235	55807.47
594.593	55831.43
594.952	55885.89
595.311	55875.04
595.67	56014.25
596.029	56168.59
596.387	56190.51
596.746	56266.44
597.104	56082.72
597.463	56194.58
597.822	56265.09
598.18	56257.4
598.538	56254.24
598.897	56492.65
599.255	56427.12
599.613	56670.5
599.972	56558.19
600.33	56673.89
600.688	56633.67
601.046	56714.79
601.404	56872.3
601.762	56905.98
602.12	56957.05
602.478	56958.63
602.836	57044.28
603.194	56969.93
603.552	57016.03
603.91	57000.66
604.268	57143.26
604.625	57149.58
604.983	57284.72
605.341	57193.43
605.698	57342.57
606.056	57565.17
606.413	57441.1
606.771	57602.68
607.128	57532.63
607.485	57531.95
607.843	57531.5
608.2	57713.19
608.557	57860.3
608.914	57724.26
609.272	57907.08
609.629	57985.04
609.986	58066.62
610.343	57985.27
610.7	58185.49
611.057	58126.51
611.414	58174.19
611.771	58262.55
612.127	58307.75
612.484	58374.19
612.841	58454.18
613.198	58425.94
613.554	58417.35
613.911	58595.65
614.267	58608.98
614.624	58597.46
614.98	58729.2
615.337	58829.54
615.693	58808.07
616.05	58941.85
616.406	58987.95
616.762	58940.05
617.118	59035.19
617.475	58989.99
617.831	59167.84
618.187	59195.18
618.543	59162.41
618.899	59401.05
619.255	59333.03
619.611	59343.65
619.967	59438.34
620.323	59490.09
620.678	59381.39
621.034	59366.25
621.39	59412.8
621.746	59426.14
622.101	59683.76
622.457	59509.52
622.812	59634.27
623.168	59593.36
623.523	59665.22
623.879	59731.89
624.234	59554.72
624.589	59674.26
624.945	59722.4
625.3	59731.44
625.655	59709.07
626.01	59798.1
626.365	59857.54
626.72	59732.57
627.075	59722.17
627.43	59736.64
627.785	59768.95
628.14	59781.61
628.495	59764.43
628.85	59834.49
629.205	59756.97
629.559	59866.8
629.914	59731.44
630.269	59799.91
630.623	59644.21
630.978	59660.25
631.332	59754.94
631.687	59770.08
632.041	59768.05
632.396	59736.64
632.75	59686.02
633.104	59760.59
633.459	59635.4
633.813	59662.29
634.167	59641.72
634.521	59642.63
634.875	59613.7
635.229	59624.77
635.583	59439.47
635.937	59490.54
636.291	59501.39
636.645	59512.01
636.999	59365.8
637.352	59440.37
637.706	59309.53
638.06	59421.16
638.413	59345.91
638.767	59289.87
639.121	59320.6
639.474	59157.89
639.828	59206.71
640.181	59142.98
640.534	59225.91
640.888	59153.37
641.241	59021.63
641.594	59064.79
641.947	59147.72
642.301	59055.98
642.654	59043.09
643.007	59028.18
643.36	59005.13
643.713	58968.52
644.066	59127.39
644.419	58898.47
644.771	58651.01
645.124	58391.13
645.477	58389.33
645.83	58296.9
646.182	58287.18
646.535	58246.28
646.888	58341.19
647.24	58128.09
647.593	58279.5
647.945	58200.86
648.298	58046.96
648.65	58009.22
649.002	57873.41
649.355	57828.66
649.707	57777.59
650.059	57809.45
650.411	58169.22
650.763	58259.39
651.115	58555.42
651.467	58458.48
651.819	58446.5
652.171	58413.28
652.523	58315.88
652.875	58338.71
653.227	58178.48
653.578	58385.03
653.93	58339.16
654.282	58271.14
654.633	58148.43
654.985	58225.71
655.337	58190.69
655.688	58158.6
656.039	58269.78
656.391	58063.91
656.742	58107.98
657.094	58069.33
657.445	58104.36
657.796	58041.09
658.147	57985.04
658.498	58053.52
658.849	58093.51
659.2	58022.78
659.551	57935.55
659.902	58041.54
660.253	57922.22
660.604	58016.68
660.955	57830.47
661.306	58011.48
661.656	57796.8
662.007	57818.95
662.358	57796.12
662.708	57846.52
663.059	57801.77
663.409	57704.82
663.76	57815.56
664.11	57844.03
664.461	57829.34
664.811	57843.58
665.161	57815.56
665.511	57695.56
665.862	57797.93
666.212	57804.71
666.562	57759.74
666.912	57731.49
667.262	57604.26
667.612	57664.83
667.962	57649.23
668.312	57569.69
668.662	57691.04
669.011	57686.29
669.361	57613.08
669.711	57649.23
670.06	57542.57
670.41	57557.26
670.76	57467.77
671.109	57648.55
671.459	57546.18
671.808	57430.48
672.157	57555.68
672.507	57416.24
672.856	57433.87
673.205	57526.98
673.554	57551.83
673.904	57395
674.253	57672.96
674.602	57486.75
674.951	57162.92
675.3	56973.32
675.649	57475
675.998	57445.4
676.346	57427.09
676.695	57453.31
677.044	57283.82
677.393	57378.51
677.741	57485.85
678.09	57341.9
678.438	57272.29
678.787	57383.03
679.135	57338.28
679.484	57216.25
679.832	57353.65
680.181	57178.28
680.529	57280.88
680.877	57143.03
681.225	57113.88
681.573	57289.69
681.922	57148.68
682.27	57146.42
682.618	57002.47
682.966	57063.26
683.314	57026.2
683.661	57008.57
684.009	56954.34
684.357	56845.41
684.705	56856.49
685.053	56917.5
685.4	56793.44
685.748	56736.71
686.095	56814.23
686.443	56597.51
686.79	56679.54
687.138	56712.99
687.485	56641.12
687.832	56585.53
688.18	56594.57
688.527	56482.48
688.874	56475.03
689.221	56437.51
689.568	56352.54
689.915	56277.74
690.262	56336.72
690.609	56300.79
690.956	56233.9
691.303	56238.2
691.65	56066.22
691.997	56043.63
692.344	55872.1
692.69	55861.26
693.037	55924.76
693.383	55677.99
693.73	55792.11
694.077	55610.87
694.423	55653.81
694.769	55637.76
695.116	55535.84
695.462	55481.83
695.808	55364.32
696.155	55494.49
696.501	55153.93
696.847	55350.08
697.193	55116.87
697.539	55150.32
697.885	54971.56
698.231	54979.47
698.577	54902.41
698.923	54877.1
699.269	54762.75
699.614	54622.65
699.96	54529.99
700.306	54540.61
700.651	54368.64
700.997	54351.24
701.342	54297.23
701.688	54336.78
702.033	54146.5
702.379	54163.67
702.724	54068.54
703.069	54114.86
703.415	53783.8
703.76	53820.18
704.105	53756
704.45	53616.34
704.795	53691.82
705.14	53475.11
705.485	53582.45
705.83	53343.13
706.175	53468.1
706.52	53361.21
706.865	53311.72
707.209	53144.72
707.554	53096.36
707.899	53142.23
708.243	52992.86
708.588	53053.2
708.932	52771.17
709.277	52819.53
709.621	52670.15
709.966	52462.93
710.31	52567.78
710.654	52324.4
710.998	52430.39
711.342	52452.53
711.687	52233.56
712.031	52207.57
712.375	52049.61
712.719	52029.95
713.063	51992.21
713.407	52190.39
713.75	51923.28
714.094	51934.13
714.438	51688.26
714.782	51789.95
715.125	51583.18
715.469	51651.42
715.812	51495.5
716.156	51355.61
716.499	51440.36
716.843	51418.44
717.186	51206.01
717.53	51328.72
717.873	51401.49
718.216	51170.08
718.559	51085.11
718.902	50836.53
719.246	50934.16
719.589	50856.87
719.932	50563.77
720.275	50681.73
720.617	50679.47
720.96	50625.69
721.303	50639.47
721.646	50546.59
721.989	50432.93
722.331	50333.94
722.674	50321.52
723.016	50299.82
723.359	50162.42
723.701	50247.85
724.044	50104.35
724.386	50015.54
724.729	50038.36
725.071	50104.35
725.413	49970.79
725.755	49936.89
726.097	49754.53
726.439	49688.09
726.782	49688.54
727.124	49792.94
727.465	49615.09
727.807	49437.02
728.149	49512.95
728.491	49380.75
728.833	49372.39
729.175	49393.86
729.516	49281.54
729.858	49240.19
730.199	49298.94
730.541	49159.51
730.882	49103.02
731.224	49212.17
731.565	49026.18
731.906	49085.16
732.248	49114.32
732.589	48700.09
732.93	48770.6
733.271	48769.47
733.612	48661.67
733.953	48707.55
734.294	48557.04
734.635	48535.57
734.976	48699.41
735.317	48489.25
735.658	48351.85
735.999	48300.78
736.339	48280.67
736.68	48400.66
737.021	48407.89
737.361	48067.11
737.702	48365.64
738.042	48264.85
738.383	48245.19
738.723	48272.08
739.063	47985.08
739.404	48061.69
739.744	47941.01
740.084	47802.26
740.424	47955.25
740.764	47792.54
741.104	47783.5
741.444	47731.3
741.784	47508.71
742.124	47782.6
742.464	47626.22
742.804	47646.56
743.143	47397.3
743.483	47582.83
743.823	47288.83
744.162	47360.01
744.502	47495.15
744.841	47141.94
745.181	47423.06
745.52	47117.98
745.86	47305.78
746.199	47059
746.538	47006.57
746.877	46978.55
747.216	47030.3
747.556	46919.12
747.895	46824.21
748.234	46822.4
748.573	46693.59
748.911	46670.09
749.25	46745.34
749.589	46532.91
749.928	46524.55
750.267	46569.52
750.605	46365.01
750.944	46407.72
751.283	46254.28
751.621	46398.91
751.96	46112.13
752.298	45967.51
752.636	46021.97
752.975	45840.73
753.313	45763.9
753.651	45882.76
753.989	45707.4
754.327	45578.82
754.666	45376.56
755.004	45629.21
755.342	45418.14
755.679	45478.48
756.017	45159.39
756.355	45306.73
756.693	45078.26
757.031	45220.18
757.368	44949.23
757.706	44979.96
758.044	44727.54
758.381	44667.43
758.719	44522.35
759.056	44667.2
759.394	44418.62
759.731	44208.68
760.068	44045.3
760.405	44140.44
760.743	43838.52
761.08	43857.73
761.417	43694.12
761.754	43592.65
762.091	43618.19
762.428	43317.63
762.765	43151.99
763.102	43347.24
763.438	43049.84
763.775	42905.67
764.112	42745.22
764.449	42720.81
764.785	42556.07
765.122	42370.09
765.458	42266.81
765.795	42253.03
766.131	42123.31
766.467	41958.8
766.804	41693.95
767.14	41615.53
767.476	41419.83
767.812	41491.92
768.148	41463.22
768.485	41152.27
768.821	40956.34
769.157	40921.31
769.492	40906.85
769.828	40750.02
770.164	40242.01
770.5	40308.22
770.836	40231.84
771.171	40035.01
771.507	39976.7
771.842	39698.74
772.178	39713.43
772.513	39552.76
772.849	39467.56
773.184	39331.07
773.519	39243.16
773.855	39157.06
774.19	38828.71
774.525	38795.04
774.86	38645.89
775.195	38470.3
775.53	38294.49
775.865	38203.64
776.2	37998.45
776.535	37730.43
776.87	37633.26
777.205	37497.45
777.539	37469.2
777.874	37413.83
778.209	37121.41
778.543	37111.24
778.878	36831.25
779.212	36910.8
779.547	36490.47
779.881	36584.7
780.215	36273.52
780.55	36433.75
780.884	35989.46
781.218	36050.93
781.552	36086.41
781.886	35842.8
782.22	35623.82
782.554	35503.6
782.888	35133.67
783.222	35242.14
783.556	34980.22
783.889	34855.93
784.223	34662.04
784.557	34592.21
784.89	34681.48
785.224	34376.62
785.557	34293.24
785.891	34083.52
786.224	34127.37
786.558	34027.48
786.891	33834.72
787.224	33656.19
787.557	33534.84
787.891	33487.16
788.224	33324.67
788.557	33307.27
788.89	33222.3
789.223	33124.23
789.556	32919.26
789.888	32941.18
790.221	32739.38
790.554	32522.21
790.887	32451.48
791.219	32401.08
791.552	32295.32
791.884	32148.43
792.217	31957.48
792.549	31928.33
792.882	31670.25
793.214	31579.18
793.546	31484.5
793.879	31503.71
794.211	31164.51
794.543	31403.14
794.875	31270.49
795.207	31031.85
795.539	31131.06
795.871	31008.58
796.203	30917.05
796.535	30600
796.867	30570.62
797.198	30389.61
797.53	30322.49
797.862	30165.66
798.193	30220.8
798.525	30234.81
798.856	30105.32
799.188	29794.6
799.519	29576.75
799.85	29579.69
800.182	29512.8
800.513	29587.37
800.844	29178.79
801.175	29526.58
801.506	29361.61
801.837	29268.74
802.168	29104.22
802.499	29081.4
802.83	28900.38
803.161	28839.14
803.491	28848.41
803.822	28760.27
804.153	28568.19
804.483	28386.95
804.814	28283.45
805.145	28365.26
805.475	28274.64
805.805	28219.72
806.136	28182.89
806.466	28053.4
806.796	27962.56
807.126	27691.83
807.457	27807.76
807.787	27766.63
808.117	27567.09
808.447	27546.97
808.777	27565.05
809.107	27447.32
809.436	27274.89
809.766	27299.97
810.096	27247.55
810.426	27073.77
810.755	27245.06
811.085	26914.45
811.414	27031.28
811.744	26838.97
812.073	26813.66
812.403	26715.13
812.732	26520.11
813.061	26731.4
813.39	26479.43
813.719	26355.14
814.049	26567.34
814.378	26458.64
814.707	26388.13
815.036	26271.07
815.365	26111.76
815.693	25893.91
816.022	25992.44
816.351	25869.5
816.68	25762.39
817.008	25938.88
817.337	25621.83
817.665	25685.55
817.994	25582.73
818.322	25694.59
818.651	25620.02
818.979	25479.23
819.307	25486.69
819.636	25427.71
819.964	25297.99
820.292	25476.75
820.62	25286.24
820.948	25389.06
821.276	25416.63
821.604	25329.4
821.932	25269.29
822.259	25344.55
822.587	25229.29
822.915	25258.22
823.243	25387.03
823.57	25216.87
823.898	25240.82
824.225	25233.81
824.553	25245.79
824.88	25260.25
825.207	25441.94
825.535	25144.55
825.862	25318.56
826.189	25248.05
826.516	25434.71
826.843	25326.47
827.17	25359.23
827.497	25191.56
827.824	25370.99
828.151	25390.65
828.478	25236.75
828.805	25339.57
829.131	25180.71
829.458	25323.3
829.785	25067.49
830.111	25179.58
830.438	25362.4
830.764	25232.01
831.09	25224.32
831.417	25208.73
831.743	25276.52
832.069	25150.43
832.395	25209.41
832.722	25214.61
833.048	25049.19
833.374	25167.15
833.7	25048.73
834.026	25125.79
834.351	25010.77
834.677	25110.65
835.003	25063.87
835.329	25034.05
835.654	24965.57
835.98	24860.04
836.306	25012.35
836.631	24832.92
836.956	24978.68
837.282	24919.7
837.607	24831.11
837.932	24825.46
838.258	24865.69
838.583	24652.36
838.908	24695.52
839.233	24752.47
839.558	24591.12
839.883	24479.26
840.208	24392.03
840.533	24533.27
840.858	24376.66
841.182	24408.98
841.507	24488.75
841.832	24287.17
842.156	24319.71
842.481	24265.7
842.805	24153.84
843.13	24122.2
843.454	24103.22
843.778	23942.1
844.103	23965.15
844.427	23980.29
844.751	23941.87
845.075	23890.8
845.399	23803.8
845.723	23605.38
846.047	23693.52
846.371	23469.79
846.695	23440.41
847.019	23273.64
847.343	23302.11
847.666	23186.18
847.99	22944.38
848.313	22960.43
848.637	22941.44
848.96	22777.16
849.284	22834.33
849.607	22564.51
849.931	22621.68
850.254	22461.23
850.577	22224.63
850.9	22108.47
851.223	22079.09
851.546	22130.39
851.869	21895.6
852.192	22026.67
852.515	21870.29
852.838	21695.38
853.161	21718.88
853.483	21531.99
853.806	21528.83
854.129	21457.42
854.451	21428.49
854.774	21289.96
855.096	21325.22
855.419	21192.11
855.741	21111.44
856.063	20941.27
856.385	21048.84
856.708	20815.17
857.03	20821.5
857.352	20778.34
857.674	20713.93
857.996	20658.57
858.318	20612.47
858.64	20495.86
858.961	20371.79
859.283	20433.71
859.605	20309.65
859.926	20294.51
860.248	20247.5
860.57	20181.29
860.891	20195.75
861.212	20037.11
861.534	20007.96
861.855	19932.26
862.176	19938.59
862.498	19932.94
862.819	19924.35
863.14	19801.19
863.461	19804.58
863.782	19807.52
864.103	19831.24
864.424	19673.73
864.745	19765.26
865.065	19565.71
865.386	19568.65
865.707	19538.14
866.027	19550.35
866.348	19447.75
866.668	19489.56
866.989	19362.1
867.309	19199.4
867.63	19279.39
867.95	19316.68
868.27	19206.85
868.59	19202.33
868.91	19162.34
869.23	19224.71
869.55	19146.06
869.87	19134.09
870.19	19063.35
870.51	19043.47
870.83	19018.38
871.15	18931.61
871.469	18950.14
871.789	18976.8
872.109	18941.1
872.428	18907.65
872.748	18902.68
873.067	18776.36
873.386	18741.33
873.706	18738.62
874.025	18701.1
874.344	18683.93
874.663	18675.12
874.982	18637.83
875.301	18634.67
875.62	18552.86
875.939	18531.62
876.258	18518.96
876.577	18466.08
876.896	18481.9
877.214	18415.24
877.533	18396.71
877.852	18382.69
878.17	18349.93
878.489	18345.41
878.807	18216.82
879.125	18241.23
879.444	18308.12
879.762	18224.96
880.08	18202.59
880.398	18072.65
880.716	18107.9
881.034	17916.49
881.352	18059.09
881.67	17944.06
881.988	17882.82
882.306	17827.23
882.624	17941.8
882.941	17777.96
883.259	17751.75
883.577	17722.82
883.894	17694.35
884.212	17684.63
884.529	17609.61
884.846	17549.5
885.164	17399.9
885.481	17445.09
885.798	17451.19
886.115	17293.68
886.432	17418.88
886.75	17307.92
887.067	17369.16
887.383	17181.82
887.7	17259.56
888.017	17062.96
888.334	17068.83
888.651	17042.39
888.967	17071.77
889.284	16919.23
889.6	16893.02
889.917	16861.83
890.233	16818.44
890.55	16801.04
890.866	16720.37
891.182	16655.51
891.498	16770.31
891.815	16552.46
892.131	16505.68
892.447	16482.18
892.763	16496.42
893.079	16387.72
893.395	16221.4
893.71	16184.33
894.026	16285.57
894.342	16205.8
894.657	16186.14
894.973	16091.46
895.289	16124.67
895.604	15975.3
895.92	16002.42
896.235	15815.08
896.55	15887.17
896.865	15776.44
897.181	15751.35
897.496	15695.53
897.811	15634.29
898.126	15597.91
898.441	15555.65
898.756	15546.84
899.071	15379.16
899.386	15385.03
899.7	15307.07
900.015	15245.15
900.33	15074.31
900.644	15149.11
900.959	15176.9
901.273	15041.09
901.588	14969
901.902	14889.68
902.216	14805.16
902.531	14871.15
902.845	14822.11
903.159	14658.5
903.473	14606.07
903.787	14615.11
904.101	14576.69
904.415	14532.4
904.729	14420.99
905.042	14336.47
905.356	14313.88
905.67	14241.56
905.984	14309.13
906.297	14180.55
906.611	14125.41
906.924	14134.9
907.237	14021
907.551	14001.57
907.864	13867.56
908.177	13925.64
908.491	13849.71
908.804	13754.79
909.117	13631.18
909.43	13569.94
909.743	13521.13
910.056	13498.53
910.368	13483.16
910.681	13431.86
910.994	13435.48
911.307	13244.75
911.619	13252.66
911.932	13239.55
912.244	13148.71
912.557	13165.66
912.869	13008.6
913.181	12998.43
913.494	13004.76
913.806	12981.93
914.118	12797.3
914.43	12754.37
914.742	12746.91
915.054	12677.99
915.366	12569.06
915.678	12533.58
915.99	12557.09
916.302	12482.74
916.613	12372.01
916.925	12399.8
917.236	12341.27
917.548	12257.88
917.859	12285
918.171	12129.98
918.482	12026.48
918.794	12098.79
919.105	12057.21
919.416	11869.19
919.727	11916.42
920.038	11852.02
920.349	11678.69
920.66	11794.85
920.971	11713.94
921.282	11646.6
921.593	11608.64
921.903	11545.36
922.214	11487.96
922.525	11424.69
922.835	11357.57
923.146	11326.61
923.456	11273.5
923.767	11258.36
924.077	11280.06
924.387	11159.61
924.697	11148.08
925.008	11038.03
925.318	11050.91
925.628	10988.54
925.938	10969.56
926.248	10878.26
926.558	10771.82
926.867	10784.7
927.177	10707.64
927.487	10679.39
927.796	10697.25
928.106	10655.89
928.416	10539.29
928.725	10588.1
929.034	10495.44
929.344	10409.57
929.653	10431.04
929.962	10347.2
930.271	10292.29
930.581	10242.57
930.89	10137.94
931.199	10113.08
931.508	10082.35
931.817	10071.27
932.125	10025.17
932.434	9993.31
932.743	9907.66
933.051	9840.09
933.36	9866.08
933.669	9824.73
933.977	9761.23
934.286	9786.54
934.594	9644.62
934.902	9589.93
935.21	9552.19
935.519	9526.2
935.827	9497.96
936.135	9480.78
936.443	9436.26
936.751	9346.55
937.059	9372.08
937.367	9318.53
937.674	9314.01
937.982	9177.74
938.29	9197.63
938.597	9106.78
938.905	9069.72
939.213	9048.25
939.52	8976.39
939.827	9058.42
940.135	8977.52
940.442	8926.45
940.749	8898.88
941.056	8863.85
941.363	8750.63
941.67	8777.07
941.977	8756.06
942.284	8609.39
942.591	8693.68
942.898	8538.89
943.205	8589.05
943.511	8545.67
943.818	8526
944.125	8466.35
944.431	8406.01
944.738	8343.64
945.044	8317.65
945.35	8317.65
945.657	8286.69
945.963	8268.84
946.269	8168.05
946.575	8199.91
946.881	8094.38
947.187	8111.1
947.493	8062.06
947.799	8019.8
948.105	8001.5
948.41	7895.06
948.716	7936.19
949.022	7864.33
949.327	7853.93
949.633	7726.48
949.938	7766.02
950.244	7758.57
950.549	7659.59
950.854	7615.29
951.16	7553.6
951.465	7585.46
951.77	7486.71
952.075	7473.38
952.38	7430.67
952.685	7458.69
952.99	7352.93
953.294	7357.9
953.599	7348.86
953.904	7247.62
954.209	7230.45
954.513	7197
954.818	7249.65
955.122	7194.51
955.426	7189.32
955.731	7093.27
956.035	7035.2
956.339	7044.24
956.643	7019.15
956.948	6958.81
957.252	6944.8
957.556	6955.88
957.86	6889.89
958.163	6836.78
958.467	6817.12
958.771	6794.07
959.075	6811.7
959.378	6747.29
959.682	6726.73
959.985	6673.62
960.289	6670.91
960.592	6583.23
960.896	6602.67
961.199	6547.98
961.502	6541.88
961.805	6495.32
962.108	6428.21
962.411	6434.53
962.714	6377.36
963.017	6387.98
963.32	6346.85
963.623	6321.54
963.926	6299.85
964.228	6311.6
964.531	6257.14
964.833	6230.7
965.136	6210.81
965.438	6184.15
965.741	6104.37
966.043	6115.67
966.345	6066.18
966.648	6057.82
966.95	6048.1
967.252	5929.91
967.554	5973.08
967.856	5940.54
968.158	5883.36
968.46	5912.74
968.761	5815.34
969.063	5827.32
969.365	5785.96
969.666	5803.59
969.968	5707.32
970.269	5717.04
970.571	5697.83
970.872	5644.95
971.174	5641.56
971.475	5626.42
971.776	5611.05
972.077	5571.05
972.378	5528.57
972.679	5520.89
972.98	5507.1
973.281	5514.33
973.582	5452.19
973.883	5418.29
974.183	5397.5
974.484	5418.52
974.785	5314.11
975.085	5316.15
975.386	5346.2
975.686	5244.96
975.986	5237.96
976.287	5244.51
976.587	5136.26
976.887	5180.1
977.187	5233.66
977.487	5118.86
977.787	5118.41
978.087	5089.03
978.387	5075.02
978.687	5067.79
978.987	4976.27
979.286	4990.28
979.586	5019.2
979.885	4956.38
980.185	4947.57
980.484	4882.26
980.784	4902.15
981.083	4883.16
981.382	4841.13
981.682	4802.94
981.981	4793.9
982.28	4760.91
982.579	4743.28
982.878	4744.64
983.177	4694.69
983.475	4699.44
983.774	4674.58
984.073	4636.84
984.372	4616.05
984.67	4627.12
984.969	4591.42
985.267	4592.77
985.566	4517.52
985.864	4475.94
986.162	4497.18
986.461	4448.6
986.759	4442.95
987.057	4426.9
987.355	4428.26
987.653	4318.66
987.951	4349.62
988.249	4328.15
988.547	4323.18
988.844	4255.38
989.142	4290.41
989.44	4252.9
989.737	4221.49
990.035	4206.34
990.332	4237.08
990.63	4167.48
990.927	4135.61
991.224	4131.77
991.521	4134.71
991.819	4134.71
992.116	4072.34
992.413	4033.02
992.71	4039.34
993.006	3995.5
993.303	3979.01
993.6	3951.66
993.897	3964.54
994.193	3899.91
994.49	3889.97
994.787	3855.84
995.083	3895.39
995.379	3865.34
995.676	3865.34
995.972	3809.74
996.268	3822.63
996.565	3790.99
996.861	3794.6
997.157	3743.31
997.453	3693.14
997.749	3707.37
998.044	3670.99
998.34	3706.92
998.636	3647.94
998.932	3621.05
999.227	3557.77
999.523	3572.69
999.818	3527.72
1000.114	3536.08
1000.409	3488.85
1000.704	3532.92
1001	3460.38
1001.295	3448.62
1001.59	3454.73
1001.885	3408.4
1002.18	3400.49
1002.475	3369.53
1002.77	3367.72
1003.065	3336.99
1003.359	3330.66
1003.654	3309.87
1003.949	3300.83
1004.243	3282.53
1004.538	3227.84
1004.832	3233.04
1005.127	3201.4
1005.421	3186.03
1005.715	3155.07
1006.009	3144.9
1006.304	3153.04
1006.598	3087.28
1006.892	3132.25
1007.186	3058.13
1007.48	3093.83
1007.773	3040.27
1008.067	3073.72
1008.361	2990.56
1008.655	2995.75
1008.948	2927.06
1009.242	2946.26
1009.535	2913.5
1009.829	2875.31
1010.122	2872.59
1010.415	2884.8
1010.708	2881.86
1011.001	2794.63
1011.295	2823.33
1011.588	2832.6
1011.881	2783.78
1012.173	2780.17
1012.466	2765.93
1012.759	2726.61
1013.052	2750.11
1013.344	2698.59
1013.637	2699.04
1013.93	2662.2
1014.222	2650.45
1014.514	2670.79
1014.807	2607.06
1015.099	2596.67
1015.391	2631.02
1015.683	2610.45
1015.976	2570.68
1016.268	2566.84
1016.56	2524.58
1016.851	2524.35
1017.143	2467.41
1017.435	2470.12
1017.727	2427.86
1018.018	2450.01
1018.31	2428.76
1018.602	2437.13
1018.893	2406.84
1019.185	2354.87
1019.476	2357.58
1019.767	2339.27
1020.058	2356
1020.35	2325.04
1020.641	2315.55
1020.932	2279.39
1021.223	2263.8
1021.514	2256.11
1021.804	2235.32
1022.095	2237.81
1022.386	2183.12
1022.677	2167.98
1022.967	2188.77
1023.258	2156.45
1023.548	2164.36
1023.839	2163.69
1024.129	2108.55
1024.419	2103.57
1024.709	2090.02
1025	2061.99
1025.29	2053.41
1025.58	2034.88
1025.87	2033.29
1026.16	2001.88
1026.449	2029.45
1026.739	2012.05
1027.029	1991.04
1027.319	1941.77
1027.608	1901.55
1027.898	1922.34
1028.187	1894.77
1028.477	1931.83
1028.766	1869
1029.055	1847.99
1029.344	1837.82
1029.634	1848.44
1029.923	1804.15
1030.212	1830.59
1030.501	1801.44
1030.79	1797.59
1031.078	1753.98
1031.367	1776.13
1031.656	1750.82
1031.945	1739.06
1032.233	1732.51
1032.522	1718.73
1032.81	1718.73
1033.099	1692.96
1033.387	1678.05
1033.675	1676.69
1033.963	1672.85
1034.251	1639.63
1034.54	1652.29
1034.828	1626.98
1035.116	1608.45
1035.403	1589.69
1035.691	1573.19
1035.979	1567.09
1036.267	1548.33
1036.554	1552.85
1036.842	1558.73
1037.129	1524.15
1037.417	1517.38
1037.704	1528.45
1037.992	1531.84
1038.279	1467.89
1038.566	1469.02
1038.853	1469.02
1039.14	1469.02
