Data from 12-0727_FLMS001491_007.txt Node
Date: Thu Apr 12 17:09:12 BST 2018
User: hsy
Spectrometer: FLMS00149
Trigger mode: 0
Integration Time (sec): 1.000000E-2
Scans to average: 10
Electric dark correction enabled: true
Nonlinearity correction enabled: false
Boxcar width: 0
XAxis mode: Wavelengths
Number of Pixels in Spectrum: 2048
>>>>>Begin Spectral Data<<<<<
341.393	-14.03
341.776	-14.03
342.16	-14.03
342.543	-76.62
342.927	-73.01
343.31	-76.62
343.693	-100.12
344.077	-56.06
344.46	-54.02
344.843	-20.35
345.226	-32.56
345.61	-32.33
345.993	-13.8
346.376	-9.51
346.759	36.82
347.142	1.57
347.525	15.13
347.908	42.47
348.291	87.22
348.674	85.63
349.057	126.54
349.44	127.21
349.823	163.37
350.206	164.73
350.588	239.08
350.971	249.92
351.354	255.8
351.737	282.92
352.119	282.69
352.502	291.5
352.884	317.49
353.267	318.17
353.65	330.6
354.032	347.77
354.414	361.11
354.797	348.68
355.179	368.56
355.562	361.33
355.944	365.17
356.326	393.2
356.709	376.93
357.091	383.93
357.473	383.93
357.855	396.36
358.238	402.46
358.62	386.42
359.002	385.06
359.384	387.77
359.766	382.8
360.148	407.43
360.53	380.54
360.912	379.86
361.294	380.09
361.676	366.98
362.057	404.04
362.439	390.71
362.821	376.25
363.203	381.22
363.584	364.5
363.966	370.15
364.348	377.83
364.729	378.28
365.111	376.02
365.493	376.02
365.874	380.99
366.256	362.24
366.637	369.92
367.019	379.18
367.4	370.82
367.781	347.1
368.163	363.14
368.544	368.34
368.925	366.76
369.306	395.46
369.688	369.69
370.069	383.03
370.45	375.12
370.831	377.83
371.212	367.89
371.593	385.06
371.974	364.95
372.355	379.18
372.736	401.78
373.117	380.54
373.498	378.06
373.879	374.44
374.26	379.41
374.641	367.43
375.021	359.3
375.402	389.35
375.783	388
376.163	410.82
376.544	399.52
376.925	419.86
377.305	423.03
377.686	413.08
378.066	388.45
378.447	392.97
378.827	421.44
379.208	406.98
379.588	401.33
379.968	402.91
380.349	395
380.729	388.45
381.109	413.31
381.489	421.22
381.87	437.94
382.25	423.93
382.63	430.71
383.01	438.84
383.39	413.08
383.77	416.92
384.15	440.2
384.53	416.47
384.91	442.46
385.29	470.03
385.67	453.53
386.049	452.63
386.429	449.24
386.809	458.73
387.189	462.8
387.568	437.26
387.948	472.29
388.328	456.25
388.707	458.73
389.087	462.8
389.466	473.42
389.846	482.01
390.225	489.92
390.605	460.09
390.984	491.05
391.363	491.05
391.743	463.48
392.122	484.04
392.501	475.68
392.881	481.78
393.26	503.48
393.639	499.63
394.018	494.66
394.397	506.64
394.776	501.89
395.155	512.97
395.534	510.25
395.913	505.28
396.292	521.78
396.671	534.66
397.05	536.92
397.429	532.63
397.808	523.59
398.186	545.96
398.565	532.63
398.944	534.66
399.323	557.49
399.701	568.11
400.08	539.63
400.458	548.22
400.837	565.17
401.215	579.41
401.594	572.4
401.972	571.5
402.351	583.47
402.729	558.84
403.107	597.71
403.486	584.38
403.864	614.88
404.242	590.25
404.62	603.81
404.999	617.14
405.377	623.02
405.755	613.53
406.133	633.64
406.511	643.36
406.889	614.88
407.267	641.78
407.645	620.08
408.023	636.81
408.401	676.35
408.779	678.39
409.156	698.27
409.534	685.84
409.912	710.48
410.29	720.19
410.667	716.13
411.045	727.42
411.422	725.16
411.8	751.38
412.178	734.66
412.555	753.86
412.933	770.36
413.31	767.65
413.687	776.91
414.065	766.07
414.442	785.95
414.819	825.5
415.197	821.89
415.574	811.49
415.951	839.29
416.328	842.45
416.705	856.91
417.082	843.13
417.46	828.21
417.837	846.29
418.214	891.94
418.591	846.52
418.967	876.57
419.344	893.97
419.721	896.91
420.098	872.05
420.475	909.57
420.852	914.76
421.228	916.35
421.605	940.3
421.982	937.59
422.358	964.93
422.735	961.77
423.111	978.04
423.488	984.82
423.864	994.31
424.241	969.45
424.617	998.38
424.994	983.01
425.37	1018.26
425.746	1004.25
426.123	1004.71
426.499	1044.25
426.875	1038.6
427.251	1053.29
427.627	1071.14
428.003	1072.05
428.379	1084.03
428.756	1106.85
429.132	1110.01
429.507	1138.71
429.883	1117.47
430.259	1144.36
430.635	1151.14
431.011	1143.91
431.387	1151.14
431.763	1193.85
432.138	1188.43
432.514	1217.35
432.89	1239.5
433.265	1277.92
433.641	1256.22
434.016	1279.27
434.392	1306.84
434.767	1293.06
435.143	1317.69
435.518	1335.54
435.894	1322.44
436.269	1346.17
436.644	1356.56
437.02	1429.33
437.395	1377.8
437.77	1370.57
438.145	1403.34
438.52	1434.3
438.895	1452.15
439.271	1426.39
439.646	1498.93
440.021	1467.52
440.395	1446.73
440.77	1432.72
441.145	1502.55
441.52	1516.56
441.895	1504.81
442.27	1540.51
442.645	1511.13
443.019	1524.47
443.394	1520.62
443.769	1554.75
444.143	1525.6
444.518	1567.63
444.892	1581.87
445.267	1583.22
445.641	1597.46
446.016	1613.73
446.39	1624.35
446.764	1625.03
447.139	1575.54
447.513	1625.03
447.887	1646.72
448.262	1649.43
448.636	1639.04
449.01	1664.57
449.384	1691.69
449.758	1703.44
450.132	1726.49
450.506	1731.69
450.88	1744.35
451.254	1749.54
451.628	1769.2
452.002	1794.29
452.376	1827.73
452.75	1822.99
453.123	1817.11
453.497	1853.95
453.871	1876.77
454.244	1956.54
454.618	1938.24
454.992	1992.02
455.365	1979.59
455.739	2010.33
456.112	2054.4
456.486	2012.14
456.859	2090.1
457.232	2108.41
457.606	2134.62
457.979	2164.9
458.352	2219.81
458.725	2217.33
459.099	2215.07
459.472	2269.08
459.845	2257.33
460.218	2270.21
460.591	2297.1
460.964	2324.67
461.337	2380.04
461.71	2396.98
462.083	2472.01
462.456	2483.99
462.829	2486.25
463.201	2552.91
463.574	2519.47
463.947	2546.36
464.32	2585
464.692	2633.81
465.065	2647.15
465.438	2695.51
465.81	2708.84
466.183	2732.57
466.555	2777.31
466.928	2817.31
467.3	2763.08
467.672	2825.9
468.045	2891.66
468.417	2903.64
468.789	2895.5
469.161	2987.25
469.534	3010.3
469.906	3039.23
470.278	3106.12
470.65	3134.14
471.022	3174.14
471.394	3204.2
471.766	3247.36
472.138	3326.23
472.51	3362.38
472.882	3418.88
473.253	3457.75
473.625	3509.5
473.997	3571.19
474.369	3595.6
474.74	3598.31
475.112	3682.37
475.484	3748.59
475.855	3828.59
476.227	3852.54
476.598	3966.21
476.97	3989.26
477.341	4022.93
477.713	4149.71
478.084	4163.72
478.455	4306.99
478.827	4333.66
479.198	4471.28
479.569	4507.66
479.94	4634.44
480.311	4703.14
480.682	4818.62
481.053	4933.64
481.424	5007.54
481.795	5067.42
482.166	5130.02
482.537	5302.22
482.908	5339.96
483.279	5470.8
483.65	5561.87
484.021	5745.37
484.391	5797.35
484.762	5949.66
485.133	6029.66
485.503	6075.53
485.874	6233.72
486.244	6326.83
486.615	6500.15
486.985	6631.45
487.356	6756.42
487.726	6858.79
488.097	7046.58
488.467	7169.29
488.837	7338.32
489.207	7428.72
489.578	7689.73
489.948	7833
490.318	7939.21
490.688	8114.35
491.058	8293.33
491.428	8470.95
491.798	8631.17
492.168	8909.81
492.538	8948.9
492.908	9178.73
493.278	9383.02
493.648	9546.4
494.017	9705.95
494.387	9881.31
494.757	10045.82
495.126	10266.16
495.496	10412.37
495.866	10645.58
496.235	10829.53
496.605	11121.95
496.974	11279.01
497.344	11406.69
497.713	11638.55
498.082	11775.95
498.452	12090.06
498.821	12341.36
499.19	12501.8
499.559	12707
499.928	12966.88
500.298	13215.68
500.667	13434.66
501.036	13569.8
501.405	13842.56
501.774	14058.6
502.143	14315.09
502.512	14568.64
502.88	14786.26
503.249	14943.32
503.618	15253.14
503.987	15431.22
504.356	15699.91
504.724	15974.03
505.093	16202.5
505.462	16361.36
505.83	16537.18
506.199	16865.08
506.567	17273.88
506.936	17347.1
507.304	17692.4
507.672	17993.41
508.041	18058.95
508.409	18488.54
508.777	18742.32
509.145	18901.41
509.514	19102.08
509.882	19291.23
510.25	19455.07
510.618	19923.53
510.986	20028.16
511.354	20369.85
511.722	20544.98
512.09	20987.68
512.458	20932.99
512.826	21328.46
513.193	21498.63
513.561	21672.64
513.929	21905.62
514.297	22396.91
514.664	22541.99
515.032	22618.37
515.4	22998.25
515.767	23271.01
516.135	23486.6
516.502	23372.48
516.869	23737.44
517.237	24119.35
517.604	24079.35
517.972	24576.51
518.339	24759.33
518.706	25012.21
519.073	25110.29
519.44	25296.72
519.808	25711.63
520.175	25818.74
520.542	26158.62
520.909	26489.23
521.276	26607.65
521.643	27013.06
522.009	27086.05
522.376	27390
522.743	27613.72
523.11	27927.16
523.477	28268.17
523.843	28455.96
524.21	28882.62
524.577	29137.07
524.943	29251.87
525.31	29463.84
525.676	29804.17
526.043	30103.15
526.409	30233.54
526.776	30643.47
527.142	30738.84
527.508	30982.9
527.874	31337.47
528.241	31496.56
528.607	31726.84
528.973	32095.41
529.339	32190.78
529.705	32668.05
530.071	32821.72
530.437	33052.45
530.803	33253.12
531.169	33484.98
531.535	33596.62
531.901	33772.21
532.267	33947.79
532.632	34212.42
532.998	34341.91
533.364	34590.94
533.73	34673.2
534.095	34984.83
534.461	35049.23
534.826	35437.92
535.192	35354.54
535.557	35830.23
535.923	35864.35
536.288	36018.02
536.653	36209.88
537.019	36305.25
537.384	36327.39
537.749	36462.3
538.114	36725.57
538.479	36604.67
538.845	36944.1
539.21	36897.55
539.575	37179.8
539.94	37198.56
540.305	37484.88
540.67	37602.61
541.034	37667.7
541.399	37768.71
541.764	37955.15
542.129	38111.53
542.494	38211.18
542.858	38403.72
543.223	38218.87
543.587	38673.09
543.952	38699.08
544.316	38838.51
544.681	38826.76
545.045	39069.69
545.41	39218.84
545.774	39204.38
546.138	39242.12
546.503	39342.68
546.867	39469.91
547.231	39766.62
547.595	39966.84
547.959	40049.78
548.324	40027.86
548.688	40146.27
549.052	40420.39
549.416	40364.35
549.779	40632.82
550.143	40716.43
550.507	40951.9
550.871	41103.09
551.235	41103.09
551.599	41539.46
551.962	41570.42
552.326	41675.95
552.689	41729.28
553.053	41741.49
553.417	42027.81
553.78	42385.31
554.143	42284.07
554.507	42555.93
554.87	42561.58
555.234	42994.56
555.597	42848.8
555.96	43137.61
556.323	43288.11
556.686	43397.49
557.05	43670.93
557.413	43775.11
557.776	43925.16
558.139	44255.32
558.502	44296.45
558.865	44216.22
559.228	44744.12
559.59	44720.39
559.953	44926.49
560.316	45349.75
560.679	45241.96
561.041	45513.37
561.404	45841.94
561.767	46097.3
562.129	46043.07
562.492	46490.06
562.854	46530.06
563.217	46562.15
563.579	46747.91
563.941	47063.61
564.304	47254.79
564.666	47500.43
565.028	47602.12
565.39	47654.78
565.753	47901.55
566.115	47952.4
566.477	48245.95
566.839	48392.16
567.201	48732.26
567.563	48795.76
567.925	48993.05
568.287	48974.29
568.648	49108.07
569.01	49339.25
569.372	49645.91
569.734	49708.06
570.095	49862.4
570.457	50080.7
570.819	50064.21
571.18	50215.61
571.542	50498.55
571.903	50485.44
572.265	50646.34
572.626	50842.72
572.987	50986.22
573.349	51154.57
573.71	51275.02
574.071	51401.35
574.432	51609.7
574.794	51814.22
575.155	51835.01
575.516	51732.86
575.877	51962.46
576.238	52010.37
576.599	52101.89
576.96	52255.56
577.32	52276.35
577.681	52399.06
578.042	52639.96
578.403	52591.37
578.763	52617.59
579.124	52763.8
579.485	52913.4
579.845	53075.43
580.206	52998.14
580.566	53090.57
580.927	53198.36
581.287	53239.72
581.648	53230.68
582.008	53404.68
582.368	53471.8
582.728	53512.48
583.089	53477.9
583.449	53575.07
583.809	53626.82
584.169	53741.62
584.529	53597.67
584.889	54015.74
585.249	53802.86
585.609	53748.63
585.969	54011.67
586.329	54019.58
586.688	54121.5
587.048	54145.68
587.408	54187.04
587.768	54196.75
588.127	54251.67
588.487	54231.55
588.846	54456.63
589.206	54304.55
589.565	54442.62
589.925	54582.05
590.284	54470.87
590.643	54675.61
591.003	54700.69
591.362	54879.45
591.721	54796.06
592.08	54866.34
592.44	54982.27
592.799	54996.96
593.158	55022.27
593.517	54963.29
593.876	55151.3
594.235	55143.39
594.593	55134.58
594.952	55250.06
595.311	55127.12
595.67	55342.26
596.029	55498.19
596.387	55478.3
596.746	55581.12
597.104	55483.5
597.463	55484.4
597.822	55724.17
598.18	55605.53
598.538	55738.63
598.897	55964.62
599.255	55724.4
599.613	56083.48
599.972	55920.32
600.33	56012.52
600.688	55995.8
601.046	56163.71
601.404	56369.35
601.762	56198.28
602.12	56353.08
602.478	56411.38
602.836	56462.23
603.194	56299.75
603.552	56405.73
603.91	56422.23
604.268	56585.39
604.625	56575.22
604.983	56675.56
605.341	56590.59
605.698	56733.41
606.056	56916.68
606.413	56754.2
606.771	57017.92
607.128	56922.56
607.485	56868.77
607.843	56998.49
608.2	57125.72
608.557	57228.99
608.914	57172.72
609.272	57332.72
609.629	57402.09
609.986	57503.78
610.343	57413.39
610.7	57637.11
611.057	57657.9
611.414	57633.72
611.771	57691.12
612.127	57807.51
612.484	57871.68
612.841	57954.62
613.198	57832.59
613.554	57862.19
613.911	58009.31
614.267	58025.8
614.624	58060.83
614.98	58131.11
615.337	58316.64
615.693	58307.38
616.05	58345.12
616.406	58425.34
616.762	58395.29
617.118	58392.8
617.475	58447.94
617.831	58579.24
618.187	58629.4
618.543	58654.04
618.899	58828.5
619.255	58714.37
619.611	58729.74
619.967	58907.14
620.323	58949.4
620.678	58833.02
621.034	58915.95
621.39	58884.99
621.746	58889.96
622.101	59138.77
622.457	58873.01
622.812	59055.61
623.168	59139.67
623.523	59051.09
623.879	59138.32
624.234	59072.78
624.589	59127.47
624.945	59155.49
625.3	59144.42
625.655	59172.44
626.01	59234.13
626.365	59268.71
626.72	59087.7
627.075	59184.64
627.43	59216.96
627.785	59191.42
628.14	59236.62
628.495	59239.11
628.85	59311.42
629.205	59178.09
629.559	59303.96
629.914	59213.57
630.269	59242.27
630.623	59150.97
630.978	59080.69
631.332	59227.58
631.687	59191.88
632.041	59139.9
632.396	59199.56
632.75	59131.76
633.104	59189.39
633.459	59079.56
633.813	59087.47
634.167	59046.34
634.521	59028.94
634.875	59030.75
635.229	59012.22
635.583	58929.51
635.937	58841.15
636.291	58878.21
636.645	58909.17
636.999	58792.11
637.352	58867.14
637.706	58698.1
638.06	58810.87
638.413	58810.64
638.767	58695.17
639.121	58716.18
639.474	58647.03
639.828	58606.13
640.181	58584.89
640.534	58652.23
640.888	58511.89
641.241	58444.1
641.594	58505.34
641.947	58531.33
642.301	58400.03
642.654	58487.04
643.007	58409.75
643.36	58531.55
643.713	58444.1
644.066	58524.55
644.419	58318.23
644.771	58019.7
645.124	57795.53
645.477	57820.16
645.83	57711.46
646.182	57657.9
646.535	57597.57
646.888	57641.41
647.24	57502.43
647.593	57741.97
647.945	57584.46
648.298	57490.45
648.65	57359.83
649.002	57315.54
649.355	57232.61
649.707	57195.54
650.059	57232.38
650.411	57536.55
650.763	57638.02
651.115	58011.79
651.467	57797.11
651.819	57902.87
652.171	57779.03
652.523	57676.89
652.875	57677.79
653.227	57554.4
653.578	57809.77
653.93	57699.71
654.282	57598.02
654.633	57537.68
654.985	57696.32
655.337	57647.28
655.688	57612.71
656.039	57679.83
656.391	57457.01
656.742	57450.45
657.094	57528.42
657.445	57492.26
657.796	57475.76
658.147	57437.57
658.498	57458.59
658.849	57446.16
659.2	57342.21
659.551	57293.62
659.902	57465.82
660.253	57268.76
660.604	57368.65
660.955	57281.87
661.306	57377.23
661.656	57218.37
662.007	57273.51
662.358	57223.11
662.708	57210.23
663.059	57193.74
663.409	57073.97
663.76	57170.46
664.11	57220.85
664.461	57214.53
664.811	57241.19
665.161	57158.03
665.511	57095.21
665.862	57123.23
666.212	57183.57
666.562	57190.35
666.912	57080.29
667.262	57026.96
667.612	57019.5
667.962	57054.3
668.312	57032.38
668.662	57145.83
669.011	57125.04
669.361	57052.5
669.711	57043.46
670.06	57018.83
670.41	56946.96
670.76	56950.35
671.109	57047.3
671.459	56979.5
671.808	56983.57
672.157	57051.37
672.507	56900.18
672.856	56859.73
673.205	56918.49
673.554	57003.46
673.904	56882.56
674.253	57028.54
674.602	56850.24
674.951	56527.31
675.3	56415
675.649	56927.3
675.998	56939.73
676.346	56904.7
676.695	56876.23
677.044	56715.33
677.393	56829.68
677.741	56856.12
678.09	56742.45
678.438	56734.09
678.787	56766.63
679.135	56770.7
679.484	56631.72
679.832	56683.92
680.181	56630.81
680.529	56721.88
680.877	56549.23
681.225	56551.72
681.573	56829.68
681.922	56624.94
682.27	56513.08
682.618	56550.14
682.966	56503.36
683.314	56550.36
683.661	56459.52
684.009	56388.11
684.357	56251.39
684.705	56216.36
685.053	56359.86
685.4	56248.9
685.748	56171.84
686.095	56154.44
686.443	55985.18
686.79	56053.65
687.138	56107.44
687.485	56118.06
687.832	55955.12
688.18	55972.3
688.527	55867.67
688.874	55916.48
689.221	55854.79
689.568	55782.47
689.915	55714.68
690.262	55773.43
690.609	55623.16
690.956	55613.89
691.303	55590.84
691.65	55457.28
691.997	55391.98
692.344	55346.55
692.69	55288.02
693.037	55350.39
693.383	55070.18
693.73	55229.72
694.077	55033.57
694.423	55109.05
694.769	54974.13
695.116	54973.68
695.462	54786.12
695.808	54737.3
696.155	54744.54
696.501	54619.57
696.847	54666.35
697.193	54519.23
697.539	54615.5
697.885	54387.93
698.231	54262.51
698.577	54311.55
698.923	54200.82
699.269	53980.26
699.614	53986.59
699.96	53906.82
700.306	53801.06
700.651	53741.62
700.997	53734.62
701.342	53719.93
701.688	53605.13
702.033	53465.47
702.379	53500.5
702.724	53436.32
703.069	53514.51
703.415	53151.36
703.76	53133.28
704.105	53126.27
704.45	53064.13
704.795	52953.62
705.14	52732.38
705.485	52884.7
705.83	52611.71
706.175	52723.57
706.52	52614.87
706.865	52494.88
707.209	52500.07
707.554	52437.03
707.899	52411.72
708.243	52217.6
708.588	52278.16
708.932	52066.41
709.277	52151.61
709.621	51962.91
709.966	51787.1
710.31	51818.28
710.654	51514.56
710.998	51654.22
711.342	51716.14
711.687	51526.54
712.031	51482.25
712.375	51262.82
712.719	51298.07
713.063	51258.98
713.407	51433.66
713.75	51054.01
714.094	51144.18
714.438	51030.96
714.782	50969.49
715.125	50817.18
715.469	50929.95
715.812	50656.96
716.156	50543.29
716.499	50647.02
716.843	50686.79
717.186	50537.87
717.53	50574.25
717.873	50489.05
718.216	50376.29
718.559	50307.14
718.902	49795.51
719.246	50105.34
719.589	50030.31
719.932	49774.27
720.275	49831.9
720.617	49832.12
720.96	49846.58
721.303	49817.66
721.646	49802.74
721.989	49485.46
722.331	49588.06
722.674	49471.23
723.016	49529.08
723.359	49317.56
723.701	49498.57
724.044	49188.97
724.386	49061.52
724.729	49303.32
725.071	49235.08
725.413	49140.84
725.755	49054.06
726.097	48852.71
726.439	48939.72
726.782	48744.47
727.124	48971.81
727.465	48754.18
727.807	48534.53
728.149	48767.52
728.491	48525.04
728.833	48574.08
729.175	48454.98
729.516	48482.1
729.858	48398.49
730.199	48409.11
730.541	48360.3
730.882	48165.95
731.224	48203.01
731.565	47995.11
731.906	48136.12
732.248	48305.83
732.589	47880.53
732.93	47789.92
733.271	47864.94
733.612	47827.2
733.953	47926.18
734.294	47768
734.635	47640.32
734.976	47805.28
735.317	47709.47
735.658	47532.52
735.999	47351.28
736.339	47442.35
736.68	47602.35
737.021	47307.89
737.361	47262.47
737.702	47406.65
738.042	47284.62
738.383	47354.67
738.723	47251.85
739.063	47077.84
739.404	47280.78
739.744	47052.76
740.084	46939.77
740.424	47065.64
740.764	46777.06
741.104	46982.03
741.444	46686.67
741.784	46458.43
742.124	46734.58
742.464	46768.93
742.804	46573.22
743.143	46512.21
743.483	46564.19
743.823	46425.66
744.162	46309.28
744.502	46456.39
744.841	46189.28
745.181	46281.03
745.52	46125.78
745.86	46235.38
746.199	46116.74
746.538	45947.7
746.877	46197.64
747.216	45993.8
747.556	45956.29
747.895	45868.84
748.234	45757.2
748.573	45789.06
748.911	45725.34
749.25	45599.92
749.589	45588.39
749.928	45554.72
750.267	45687.6
750.605	45453.93
750.944	45490.99
751.283	45284.67
751.621	45518.56
751.96	45200.15
752.298	45099.59
752.636	45295.97
752.975	45042.42
753.313	44851.46
753.651	45126.48
753.989	44706.38
754.327	44744.57
754.666	44511.13
755.004	44604.69
755.342	44545.71
755.679	44497.35
756.017	44221.42
756.355	44439.5
756.693	44263
757.031	44251.7
757.368	44016.46
757.706	44023.46
758.044	43940.07
758.381	43775.33
758.719	43719.06
759.056	43670.02
759.394	43472.29
759.731	43239.98
760.068	43264.84
760.405	43216.7
760.743	42894
761.08	43134.44
761.417	42776.26
761.754	42667.34
762.091	42615.81
762.428	42365.65
762.765	42208.37
763.102	42189.61
763.438	42166.79
763.775	42003.18
764.112	41853.35
764.449	41729.74
764.785	41762.73
765.122	41459.46
765.458	41218.34
765.795	41266.25
766.131	41254.04
766.467	40973.82
766.804	40853.6
767.14	40748.07
767.476	40666.49
767.812	40427.85
768.148	40646.6
768.485	40260.17
768.821	39997.58
769.157	39991.25
769.492	39894.98
769.828	39806.4
770.164	39481.43
770.5	39370.48
770.836	39402.11
771.171	39228.56
771.507	39176.58
771.842	38862.01
772.178	38894.1
772.513	38697.73
772.849	38501.12
773.184	38489.37
773.519	38348.36
773.855	38081.02
774.19	38131.19
774.525	37911.76
774.86	37767.81
775.195	37777.3
775.53	37528.94
775.865	37394.48
776.2	37114.26
776.535	36902.74
776.87	36825.91
777.205	36759.02
777.539	36633.82
777.874	36528.74
778.209	36264.8
778.543	36328.97
778.878	36027.74
779.212	36072.48
779.547	35672.49
779.881	35749.55
780.215	35492.39
780.55	35609.9
780.884	35245.39
781.218	35265.95
781.552	35346.85
781.886	34980.08
782.22	34856.7
782.554	34718.4
782.888	34336.94
783.222	34342.81
783.556	34213.55
783.889	34179.88
784.223	33936.49
784.557	33986.21
784.89	33897.63
785.224	33595.03
785.557	33603.17
785.891	33553.91
786.224	33329.73
786.558	33334.7
786.891	33149.85
787.224	32909.4
787.557	32873.25
787.891	32757.09
788.224	32569.07
788.557	32632.12
788.89	32496.53
789.223	32321.17
789.556	32042.08
789.888	32115.75
790.221	31879.6
790.554	31831.24
790.887	31791.01
791.219	31593.28
791.552	31441.65
791.884	31381.08
792.217	31308.54
792.549	31182.89
792.882	30928.44
793.214	30941.55
793.546	30961.21
793.879	30837.82
794.211	30588.79
794.543	30664.72
794.875	30452.29
795.207	30334.33
795.539	30418.4
795.871	30356.25
796.203	30093.21
796.535	29990.61
796.867	29893.44
797.198	29719.43
797.53	29718.3
797.862	29442.83
798.193	29535.03
798.525	29395.82
798.856	29337.29
799.188	28950.41
799.519	28934.59
799.85	28823.63
800.182	28900.92
800.513	28957.19
800.844	28456.19
801.175	28846.69
801.506	28722.85
801.837	28528.28
802.168	28358.79
802.499	28423.42
802.83	28128.29
803.161	28101.85
803.491	28065.69
803.822	28147.04
804.153	27839.93
804.483	27623.89
804.814	27662.08
805.145	27622.99
805.475	27613.5
805.805	27477.23
806.136	27596.1
806.466	27360.17
806.796	27270.23
807.126	27114.75
807.457	27142.32
807.787	27102.32
808.117	26946.85
808.447	26890.8
808.777	26971.03
809.107	26581.89
809.436	26480.65
809.766	26596.8
810.096	26607.87
810.426	26470.7
810.755	26449.91
811.085	26302.12
811.414	26384.83
811.744	26198.62
812.073	26109.36
812.403	26026.19
812.732	25897.84
813.061	26002.69
813.39	25841.57
813.719	25760.21
814.049	25831.4
814.378	25661.91
814.707	25727.9
815.036	25634.57
815.365	25522.03
815.693	25414.91
816.022	25422.14
816.351	25336.72
816.68	25140.12
817.008	25267.8
817.337	25037.52
817.665	25084.75
817.994	25038.2
818.322	25035.71
818.651	24997.07
818.979	24858.77
819.307	24897.41
819.636	24826
819.964	24708.49
820.292	24731.31
820.62	24717.08
820.948	24750.52
821.276	24709.62
821.604	24614.48
821.932	24792.55
822.259	24672.78
822.587	24682.27
822.915	24582.39
823.243	24785.1
823.57	24550.53
823.898	24647.7
824.225	24594.14
824.553	24594.37
824.88	24542.62
825.207	24799.11
825.535	24647.7
825.862	24712.78
826.189	24666.23
826.516	24811.76
826.843	24789.84
827.17	24790.75
827.497	24722.95
827.824	24709.17
828.151	24777.41
828.478	24695.16
828.805	24751.65
829.131	24691.09
829.458	24696.29
829.785	24448.83
830.111	24528.38
830.438	24674.14
830.764	24580.58
831.09	24617.64
831.417	24360.93
831.743	24603.86
832.069	24681.82
832.395	24596.4
832.722	24557.76
833.048	24453.13
833.374	24586.23
833.7	24425.33
834.026	24466.24
834.351	24508.72
834.677	24556.63
835.003	24501.94
835.329	24463.52
835.654	24361.38
835.98	24289.74
836.306	24392.79
836.631	24303.98
836.956	24384.2
837.282	24365.22
837.607	24190.31
837.932	24289.52
838.258	24268.73
838.583	24120.71
838.908	24106.47
839.233	24180.37
839.558	23939.02
839.883	23933.14
840.208	23870.32
840.533	23875.97
840.858	23871.22
841.182	23863.54
841.507	23887.27
841.832	23705.13
842.156	23648.86
842.481	23703.54
842.805	23572.93
843.13	23521.63
843.454	23579.93
843.778	23536.32
844.103	23423.78
844.427	23273.27
844.751	23358.92
845.075	23324.57
845.399	23240.96
845.723	23104.24
846.047	23057.23
846.371	22919.16
846.695	22879.61
847.019	22779.05
847.343	22691.14
847.666	22578.83
847.99	22567.3
848.313	22481.43
848.637	22346.29
848.96	22404.82
849.284	22279.4
849.607	22179.74
849.931	22045.06
850.254	21909.92
850.577	21742.24
850.9	21663.37
851.223	21683.03
851.546	21439.42
851.869	21429.48
852.192	21578.63
852.515	21208.02
852.838	21170.05
853.161	21170.5
853.483	21024.74
853.806	21022.94
854.129	21051.18
854.451	20893
854.774	20800.79
855.096	20717.18
855.419	20733.23
855.741	20624.53
856.063	20554.02
856.385	20400.13
856.708	20356.51
857.03	20352.22
857.352	20270.64
857.674	20216.63
857.996	20168.04
858.318	19936.41
858.64	20090.98
858.961	20078.55
859.283	19901.16
859.605	19860.93
859.926	19831.1
860.248	19789.97
860.57	19719.24
860.891	19699.81
861.212	19598.34
861.534	19514.95
861.855	19542.97
862.176	19527.83
862.498	19485.58
862.819	19454.62
863.14	19414.84
863.461	19354.28
863.782	19363.32
864.103	19351.34
864.424	19294.85
864.745	19222.98
865.065	19110.44
865.386	19038.58
865.707	19064.57
866.027	18977.79
866.348	18995.42
866.668	18953.39
866.989	18963.56
867.309	18768.53
867.63	18846.95
867.95	18869.55
868.27	18724.69
868.59	18810.11
868.91	18739.61
869.23	18653.28
869.55	18540.74
869.87	18615.99
870.19	18618.93
870.51	18625.48
870.83	18564.7
871.15	18440.63
871.469	18517.92
871.789	18540.06
872.109	18465.26
872.428	18439.5
872.748	18370.58
873.067	18456.45
873.386	18445.15
873.706	18341.88
874.025	18196.12
874.344	18184.14
874.663	18236.79
874.982	18213.97
875.301	18100.53
875.62	18054.2
875.939	17979.63
876.258	18016.01
876.577	17978.95
876.896	18024.82
877.214	17925.16
877.533	17922.23
877.852	17835.45
878.17	17843.13
878.489	17926.52
878.807	17816.47
879.125	17806.98
879.444	17766.3
879.762	17698.73
880.08	17772.17
880.398	17688.56
880.716	17524.5
881.034	17451.96
881.352	17540.32
881.67	17454.89
881.988	17479.3
882.306	17415.35
882.624	17517.94
882.941	17343.26
883.259	17348.46
883.577	17353.65
883.894	17243.6
884.212	17206.99
884.529	17174.22
884.846	17039.31
885.164	17049.93
885.481	17123.6
885.798	17118.86
886.115	16862.14
886.432	16969.48
886.75	16993.44
887.067	16917.73
887.383	16756.83
887.7	16843.84
888.017	16641.81
888.334	16667.34
888.651	16662.82
888.967	16606.1
889.284	16515.71
889.6	16475.03
889.917	16452.66
890.233	16427.35
890.55	16351.65
890.866	16300.57
891.182	16290.86
891.498	16283.17
891.815	16179.67
892.131	16067.81
892.447	16120.47
892.763	16001.15
893.079	15990.53
893.395	15887.25
893.71	15906.91
894.026	15809.06
894.342	15840.93
894.657	15690.65
894.973	15691.78
895.289	15606.58
895.604	15562.06
895.92	15553.25
896.235	15448.62
896.55	15539.01
896.865	15315.29
897.181	15313.03
897.496	15339.92
897.811	15190.09
898.126	15173.6
898.441	15102.87
898.756	15057.67
899.071	15029.2
899.386	15004.11
899.7	14930.44
900.015	14818.81
900.33	14773.61
900.644	14736.32
900.959	14775.19
901.273	14658.13
901.588	14681.63
901.902	14574.97
902.216	14507.18
902.531	14568.64
902.845	14446.61
903.159	14297.92
903.473	14321.19
903.787	14194.41
904.101	14139.95
904.415	14149.22
904.729	14106.96
905.042	13998.26
905.356	13964.82
905.67	13958.26
905.984	13873.07
906.297	13807.98
906.611	13698.61
906.924	13670.59
907.237	13689.8
907.551	13601.44
907.864	13599.18
908.177	13563.47
908.491	13461.1
908.804	13408.67
909.117	13337.26
909.43	13338.17
909.743	13196.25
910.056	13231.05
910.368	13181.11
910.681	13169.13
910.994	13078.96
911.307	12982.7
911.619	12914
911.932	12882.81
912.244	12806.65
912.557	12798.97
912.869	12740.67
913.181	12714.45
913.494	12598.07
913.806	12593.78
914.118	12506.78
914.43	12424.29
914.742	12480.79
915.054	12455.7
915.366	12316.95
915.678	12313.33
915.99	12240.12
916.302	12170.29
916.613	12088.03
916.925	12059.56
917.236	11979.33
917.548	11949.73
917.859	11974.81
918.171	11824.53
918.482	11775.95
918.794	11703.41
919.105	11720.81
919.416	11587.93
919.727	11657.53
920.038	11574.14
920.349	11428.84
920.66	11430.87
920.971	11423.41
921.282	11430.19
921.593	11347.71
921.903	11248.73
922.214	11268.84
922.525	11199.69
922.835	11095.51
923.146	11032.01
923.456	10964.67
923.767	10957.89
924.077	10919.02
924.387	10859.14
924.697	10840.38
925.008	10777.1
925.318	10746.37
925.628	10700.72
925.938	10681.74
926.248	10554.96
926.558	10515.42
926.867	10508.64
927.177	10443.78
927.487	10448.52
927.796	10331.01
928.106	10368.75
928.416	10356.1
928.725	10270
929.034	10178.93
929.344	10219.38
929.653	10213.73
929.962	10037.46
930.271	10045.15
930.581	9969.44
930.89	9931.7
931.199	9838.37
931.508	9833.17
931.817	9748.2
932.125	9783.68
932.434	9727.41
932.743	9628.43
933.051	9555.89
933.36	9560.64
933.669	9523.58
933.977	9525.84
934.286	9461.66
934.594	9398.38
934.902	9415.11
935.21	9342.57
935.519	9222.12
935.827	9254.21
936.135	9220.08
936.443	9143.7
936.751	9121.33
937.059	9176.24
937.367	9072.29
937.674	9057.6
937.982	9012.63
938.29	9009.92
938.597	8969.02
938.905	8880.88
939.213	8776.93
939.52	8802.24
939.827	8825.74
940.135	8760.66
940.442	8705.52
940.749	8627.56
941.056	8678.4
941.363	8582.13
941.67	8569.48
941.977	8518.63
942.284	8435.7
942.591	8452.87
942.898	8402.25
943.205	8473.89
943.511	8352.53
943.818	8336.26
944.125	8238.64
944.431	8204.29
944.738	8201.58
945.044	8116.16
945.35	8094.46
945.657	8041.81
945.963	8041.81
946.269	8006.33
946.575	8054.69
946.881	7958.42
947.187	7919.55
947.493	7913.9
947.799	7858.08
948.105	7811.08
948.41	7726.79
948.716	7732.21
949.022	7685.89
949.327	7652.44
949.633	7542.39
949.938	7560.47
950.244	7565.21
950.549	7540.8
950.854	7499.45
951.16	7467.59
951.465	7416.51
951.77	7373.58
952.075	7330.64
952.38	7334.03
952.685	7300.58
952.99	7203.64
953.294	7202.06
953.599	7253.58
953.904	7082.96
954.209	7080.48
954.513	7087.94
954.818	7116.41
955.122	7008.84
955.426	6983.76
955.731	6928.39
956.035	6925.91
956.339	6875.96
956.643	6846.36
956.948	6782.86
957.252	6772.69
957.556	6772.92
957.86	6749.41
958.163	6673.48
958.467	6639.81
958.771	6678.91
959.075	6647.95
959.378	6594.61
959.682	6616.54
959.985	6542.41
960.289	6456.99
960.592	6526.59
960.896	6444.79
961.199	6402.53
961.502	6442.08
961.805	6375.86
962.108	6355.07
962.411	6291.57
962.714	6244.34
963.017	6259.71
963.32	6285.47
963.623	6139.49
963.926	6174.74
964.228	6093.38
964.531	6107.62
964.833	6167.51
965.136	6002.54
965.438	5981.98
965.741	5980.39
966.043	6007.29
966.345	5869.89
966.648	5908.98
966.95	5911.24
967.252	5845.48
967.554	5890.23
967.856	5858.36
968.158	5813.84
968.46	5749.89
968.761	5746.5
969.063	5703.56
969.365	5653.85
969.666	5642.1
969.968	5657.69
970.269	5603.68
970.571	5561.2
970.872	5559.84
971.174	5480.52
971.475	5522.78
971.776	5481.65
972.077	5452.72
972.378	5434.19
972.679	5438.49
972.98	5377.25
973.281	5312.16
973.582	5300.64
973.883	5359.62
974.183	5274.42
974.484	5277.36
974.785	5193.3
975.085	5195.78
975.386	5179.51
975.686	5143.58
975.986	5109.91
976.287	5113.3
976.587	5066.07
976.887	5061.32
977.187	5052.28
977.487	5035.79
977.787	5006.86
978.087	4961.44
978.387	4931.61
978.687	4963.47
978.987	4880.54
979.286	4916.47
979.586	4843.93
979.885	4862
980.185	4772.52
980.484	4763.02
980.784	4726.19
981.083	4732.97
981.382	4745.4
981.682	4645.51
981.981	4638.51
982.28	4654.1
982.579	4608
982.878	4630.82
983.177	4624.95
983.475	4587.89
983.774	4536.59
984.073	4483.26
984.372	4524.16
984.67	4470.15
984.969	4470.38
985.267	4420.89
985.566	4436.71
985.864	4436.03
986.162	4363.71
986.461	4336.37
986.759	4351.96
987.057	4295.69
987.355	4318.97
987.653	4272.87
987.951	4256.82
988.249	4236.26
988.547	4232.42
988.844	4160.55
989.142	4161.01
989.44	4141.57
989.737	4146.32
990.035	4087.56
990.332	4087.11
990.63	4056.38
990.927	4059.77
991.224	4032.2
991.521	4009.37
991.819	4013.44
992.116	3996.49
992.413	4000.56
992.71	3938.41
993.006	3930.5
993.303	3888.47
993.6	3898.64
993.897	3896.83
994.193	3836.5
994.49	3835.59
994.787	3837.4
995.083	3758.98
995.379	3772.32
995.676	3749.94
995.972	3733.45
996.268	3720.11
996.565	3697.97
996.861	3707.46
997.157	3648.48
997.453	3609.83
997.749	3647.35
998.044	3615.94
998.34	3561.93
998.636	3570.29
998.932	3559.67
999.227	3527.35
999.523	3522.38
999.818	3482.61
1000.114	3493.91
1000.409	3445.77
1000.704	3417.98
1001	3404.64
1001.295	3365.32
1001.59	3391.99
1001.885	3324.42
1002.18	3305.21
1002.475	3284.42
1002.77	3288.94
1003.065	3265.21
1003.359	3265.89
1003.654	3222.05
1003.949	3181.6
1004.243	3240.35
1004.538	3206.91
1004.832	3173.01
1005.127	3162.84
1005.421	3145.21
1005.715	3084.65
1006.009	3128.72
1006.304	3041.71
1006.598	3048.72
1006.892	3015.95
1007.186	2970.53
1007.48	2990.19
1007.773	3002.62
1008.067	2962.17
1008.361	2929.63
1008.655	2933.02
1008.948	2887.37
1009.242	2891.21
1009.535	2829.74
1009.829	2832.23
1010.122	2848.05
1010.415	2847.59
1010.708	2807.6
1011.001	2815.28
1011.295	2797.88
1011.588	2742.51
1011.881	2739.35
1012.173	2735.28
1012.466	2680.14
1012.759	2698.9
1013.052	2661.16
1013.344	2632.23
1013.637	2634.04
1013.93	2626.81
1014.222	2612.8
1014.514	2586.13
1014.807	2621.16
1015.099	2512.24
1015.391	2518.79
1015.683	2535.29
1015.976	2522.41
1016.268	2479.24
1016.56	2462.75
1016.851	2413.03
1017.143	2414.39
1017.435	2432.01
1017.727	2446.25
1018.018	2371.22
1018.31	2359.02
1018.602	2343.43
1018.893	2323.31
1019.185	2312.69
1019.476	2309.3
1019.767	2274.5
1020.058	2289.64
1020.35	2266.82
1020.641	2244.22
1020.932	2222.07
1021.223	2207.84
1021.514	2187.95
1021.804	2160.16
1022.095	2183.21
1022.386	2139.59
1022.677	2140.04
1022.967	2129.2
1023.258	2135.75
1023.548	2117.9
1023.839	2067.95
1024.129	2067.73
1024.419	2064.11
1024.709	2038.35
1025	2036.54
1025.29	1995.19
1025.58	1993.61
1025.87	1993.15
1026.16	1992.48
1026.449	1940.95
1026.739	1934.62
1027.029	1927.39
1027.319	1895.53
1027.608	1879.26
1027.898	1887.85
1028.187	1848.75
1028.477	1833.61
1028.766	1834.74
1029.055	1827.28
1029.344	1813.72
1029.634	1801.52
1029.923	1808.98
1030.212	1782.54
1030.501	1778.92
1030.79	1741.63
1031.078	1730.11
1031.367	1755.19
1031.656	1701.18
1031.945	1702.77
1032.233	1714.97
1032.522	1680.62
1032.81	1668.64
1033.099	1660.96
1033.387	1638.59
1033.675	1627.51
1033.963	1619.38
1034.251	1622.09
1034.54	1581.41
1034.828	1578.48
1035.116	1547.97
1035.403	1563.33
1035.691	1528.31
1035.979	1568.76
1036.267	1504.58
1036.554	1540.06
1036.842	1522.43
1037.129	1490.79
1037.417	1500.29
1037.704	1498.25
1037.992	1467.97
1038.279	1450.34
1038.566	1462.32
1038.853	1462.32
1039.14	1462.32
