Data from 12-0727_FLMS001491_002.txt Node
Date: Thu Apr 12 17:09:01 BST 2018
User: hsy
Spectrometer: FLMS00149
Trigger mode: 0
Integration Time (sec): 1.000000E-2
Scans to average: 10
Electric dark correction enabled: true
Nonlinearity correction enabled: false
Boxcar width: 0
XAxis mode: Wavelengths
Number of Pixels in Spectrum: 2048
>>>>>Begin Spectral Data<<<<<
341.393	0.51
341.776	0.51
342.16	0.51
342.543	-63.9
342.927	-63.44
343.31	-65.7
343.693	-79.49
344.077	-49.66
344.46	-67.96
344.843	-55.99
345.226	-41.07
345.61	-26.61
345.993	-20.73
346.376	-18.7
346.759	10.45
347.142	21.52
347.525	50.22
347.908	62.65
348.291	82.09
348.674	92.03
349.057	106.95
349.44	121.86
349.823	155.76
350.206	195.53
350.588	228.75
350.971	250.45
351.354	245.93
351.737	304.68
352.119	306.04
352.502	290.67
352.884	327.05
353.267	316.21
353.65	346.49
354.032	352.59
354.414	343.78
354.797	374.74
355.179	345.13
355.562	361.18
355.944	363.44
356.326	380.61
356.709	384.91
357.091	404.57
357.473	379.03
357.855	384
358.238	392.59
358.62	383.1
359.002	374.74
359.384	389.2
359.766	396.43
360.148	405.24
360.53	378.13
360.912	375.41
361.294	409.54
361.676	395.98
362.057	382.87
362.439	360.72
362.821	364.11
363.203	362.08
363.584	388.75
363.966	374.74
364.348	382.19
364.729	377.45
365.111	381.06
365.493	376.77
365.874	367.05
366.256	375.87
366.637	357.56
367.019	374.96
367.4	375.64
367.781	388.75
368.163	360.72
368.544	388.29
368.925	381.97
369.306	374.28
369.688	367.96
370.069	370.67
370.45	391.91
370.831	384.45
371.212	352.14
371.593	376.77
371.974	368.18
372.355	372.93
372.736	388.75
373.117	390.78
373.498	376.77
373.879	373.15
374.26	386.26
374.641	378.35
375.021	363.89
375.402	398.69
375.783	399.14
376.163	398.46
376.544	417.67
376.925	414.73
377.305	397.11
377.686	395.3
378.066	401.63
378.447	391.68
378.827	401.18
379.208	410.44
379.588	425.13
379.968	409.99
380.349	412.02
380.729	402.98
381.109	418.58
381.489	409.76
381.87	406.37
382.25	416.77
382.63	417.45
383.01	412.25
383.39	433.04
383.77	435.75
384.15	410.22
384.53	432.59
384.91	432.36
385.29	446.15
385.67	451.8
386.049	453.83
386.429	444.11
386.809	433.72
387.189	454.06
387.568	428.07
387.948	446.82
388.328	440.72
388.707	468.29
389.087	466.26
389.466	470.33
389.846	480.72
390.225	487.73
390.605	487.5
390.984	460.38
391.363	487.5
391.743	476.2
392.122	475.98
392.501	477.78
392.881	490.21
393.26	510.33
393.639	502.19
394.018	508.52
394.397	508.52
394.776	494.05
395.155	488.86
395.534	518.91
395.913	498.57
396.292	496.99
396.671	517.11
397.05	545.35
397.429	548.97
397.808	540.61
398.186	532.92
398.565	546.48
398.944	539.03
399.323	551.68
399.701	552.36
400.08	547.61
400.458	571.34
400.837	558.69
401.215	559.36
401.594	558.91
401.972	586.48
402.351	565.47
402.729	568.4
403.107	583.77
403.486	569.99
403.864	584.22
404.242	601.4
404.62	618.57
404.999	623.09
405.377	626.93
405.755	632.58
406.133	609.98
406.511	626.93
406.889	626.48
407.267	631
407.645	652.69
408.023	648.4
408.401	665.58
408.779	675.74
409.156	685.46
409.534	690.43
409.912	695.18
410.29	679.36
410.667	681.17
411.045	740.6
411.422	731.11
411.8	738.79
412.178	744.67
412.555	747.83
412.933	769.3
413.31	767.27
413.687	780.6
414.065	779.92
414.442	797.55
414.819	783.54
415.197	817.66
415.574	835.29
415.951	826.48
416.328	823.09
416.705	856.08
417.082	841.84
417.46	859.92
417.837	872.58
418.214	854.95
418.591	858.79
418.967	896.76
419.344	919.81
419.721	887.26
420.098	928.39
420.475	936.3
420.852	920.94
421.228	913.93
421.605	950.77
421.982	964.1
422.358	933.82
422.735	955.29
423.111	945.57
423.488	985.34
423.864	979.01
424.241	996.41
424.617	991.89
424.994	999.13
425.37	1030.76
425.746	1031.44
426.123	1039.13
426.499	1032.57
426.875	1064.89
427.251	1052.23
427.627	1068.05
428.003	1094.04
428.379	1086.81
428.756	1094.72
429.132	1127.26
429.507	1116.19
429.883	1134.72
430.259	1123.19
430.635	1149.63
431.011	1155.96
431.387	1203.41
431.763	1200.7
432.138	1209.97
432.514	1250.19
432.89	1262.85
433.265	1254.26
433.641	1288.84
434.016	1271.44
434.392	1304.88
434.767	1334.94
435.143	1328.61
435.518	1333.13
435.894	1363.18
436.269	1345.11
436.644	1363.18
437.02	1355.73
437.395	1380.81
437.77	1425.78
438.145	1453.13
438.52	1420.36
438.895	1450.19
439.271	1474.59
439.646	1459.45
440.021	1479.57
440.395	1484.31
440.77	1483.86
441.145	1494.71
441.52	1533.35
441.895	1514.59
442.27	1521.6
442.645	1531.99
443.019	1550.07
443.394	1547.13
443.769	1547.59
444.143	1556.17
444.518	1574.7
444.892	1573.8
445.267	1602.27
445.641	1604.31
446.016	1607.7
446.39	1640.69
446.764	1635.72
447.139	1630.97
447.513	1650.18
447.887	1660.58
448.262	1669.84
448.636	1667.81
449.01	1699.67
449.384	1719.33
449.758	1698.99
450.132	1742.16
450.506	1771.31
450.88	1771.08
451.254	1763.17
451.628	1786.22
452.002	1817.86
452.376	1821.93
452.75	1889.05
453.123	1856.96
453.497	1879.56
453.871	1924.53
454.244	1934.69
454.618	1939.21
454.992	1983.28
455.365	1966.56
455.739	2018.76
456.112	2051.75
456.486	2062.15
456.859	2106.44
457.232	2128.81
457.606	2126.1
457.979	2168.81
458.352	2235.7
458.725	2218.08
459.099	2263.5
459.472	2257.62
459.845	2297.17
460.218	2298.3
460.591	2343.27
460.964	2376.94
461.337	2384.63
461.71	2436.6
462.083	2468.24
462.456	2487.45
462.829	2497.84
463.201	2535.81
463.574	2534.68
463.947	2613.1
464.32	2631.85
464.692	2662.13
465.065	2654.68
465.438	2711.4
465.81	2756.59
466.183	2769.48
466.555	2820.77
466.928	2837.95
467.3	2848.8
467.672	2870.49
468.045	2962.92
468.417	2922.69
468.789	2976.25
469.161	3034.1
469.534	3057.38
469.906	3113.65
470.278	3143.25
470.65	3191.39
471.022	3218.05
471.394	3279.07
471.766	3319.74
472.138	3315.9
472.51	3423.24
472.882	3480.42
473.253	3484.48
473.625	3526.52
473.997	3619.17
474.369	3635.89
474.74	3651.71
475.112	3765.16
475.484	3836.79
475.855	3874.08
476.227	3976.45
476.598	4023
476.97	4080.18
477.341	4152.72
477.713	4267.29
478.084	4228.87
478.455	4416.21
478.827	4451.46
479.198	4573.72
479.569	4603.33
479.94	4705.7
480.311	4798.57
480.682	4867.5
481.053	4985.69
481.424	5094.84
481.795	5089.19
482.166	5250.31
482.537	5350.2
482.908	5461.38
483.279	5544.54
483.65	5713.8
484.021	5735.72
484.391	5940.69
484.762	5994.25
485.133	6024.53
485.503	6150.63
485.874	6347.46
486.244	6483.73
486.615	6629.26
486.985	6696.83
487.356	6876.49
487.726	6900.89
488.097	7202.58
488.467	7260.88
488.837	7445.28
489.207	7595.34
489.578	7772.96
489.948	7895.44
490.318	8100.63
490.688	8205.72
491.058	8351.02
491.428	8563.67
491.798	8635.31
492.168	8967.28
492.538	9117.1
492.908	9239.14
493.278	9504.67
493.648	9604.78
494.017	9889.97
494.387	9973.81
494.757	10211.99
495.126	10391.87
495.496	10517.07
495.866	10788.7
496.235	10908.47
496.605	11166.32
496.974	11354.79
497.344	11496.93
497.713	11755.45
498.082	12025.73
498.452	12208.78
498.821	12427.3
499.19	12560.4
499.559	12855.76
499.928	13041.07
500.298	13233.15
500.667	13552.69
501.036	13705.23
501.405	13953.36
501.774	14042.4
502.143	14354.71
502.512	14536.85
502.88	14841.25
503.249	15027.01
503.618	15353.1
503.987	15510.38
504.356	15791.51
504.724	16116.24
505.093	16177.26
505.462	16448.66
505.83	16668.09
506.199	16970.91
506.567	17346.27
506.936	17497.45
507.304	17704.68
507.672	17970.21
508.041	18115.51
508.409	18455.62
508.777	18721.6
509.145	19011.53
509.514	19194.58
509.882	19428.25
510.25	19617.39
510.618	19850.16
510.986	20108.45
511.354	20258.51
511.722	20611.72
512.09	20841.09
512.458	21002.44
512.826	21320.63
513.193	21510.45
513.561	21630.45
513.929	21977.56
514.297	22297.55
514.664	22472.01
515.032	22626.58
515.4	22968.04
515.767	23240.58
516.135	23430.4
516.502	23406.45
516.869	23807.79
517.237	24071.29
517.604	23925.08
517.972	24583.82
518.339	24735.23
518.706	24895.22
519.073	25106.06
519.44	25301.54
519.808	25644.81
520.175	25727.06
520.542	26100.84
520.909	26281.85
521.276	26418.57
521.643	26824.66
522.009	27025.33
522.376	27252.22
522.743	27484.31
523.11	27886.55
523.477	28095.14
523.843	28329.26
524.21	28738.74
524.577	29028.22
524.943	29176.01
525.31	29279.06
525.676	29753.85
526.043	29956.56
526.409	30061.41
526.776	30464.79
527.142	30767.61
527.508	30937.32
527.874	31252.57
528.241	31396.52
528.607	31554.48
528.973	31894.36
529.339	31987.69
529.705	32381.13
530.071	32655.7
530.437	32865.63
530.803	33056.81
531.169	33229.01
531.535	33246.87
531.901	33596.01
532.267	33772.28
532.632	34038.94
532.998	34088.2
533.364	34434.86
533.73	34486.83
534.095	34700.39
534.461	34811.57
534.826	35067.38
535.192	35268.28
535.557	35557.31
535.923	35601.61
536.288	35676.86
536.653	35894.71
537.019	35848.83
537.384	36028.26
537.749	36259.67
538.114	36392.32
538.479	36397.74
538.845	36651.07
539.21	36748.47
539.575	36771.07
539.94	36887.9
540.305	37155.01
540.67	37093.77
541.034	37401.33
541.399	37527.88
541.764	37632.74
542.129	37685.85
542.494	37938.95
542.858	38127.42
543.223	38087.64
543.587	38322.89
543.952	38270.91
544.316	38490.12
544.681	38335.32
545.045	38684.92
545.41	38962.2
545.774	38850.56
546.138	39096.43
546.503	39206.26
546.867	39354.73
547.231	39502.07
547.595	39673.82
547.959	39676.08
548.324	39925.33
548.688	39907.93
549.052	40102.28
549.416	40054.82
549.779	40150.87
550.143	40416.17
550.507	40649.84
550.871	40746.56
551.235	40739.1
551.599	41094.57
551.962	41128.47
552.326	41250.05
552.689	41408.23
553.053	41296.37
553.417	41565.07
553.78	42019.97
554.143	42071.72
554.507	42010.03
554.87	42262.9
555.234	42570.24
555.597	42450.47
555.96	42631.48
556.323	42867.63
556.686	42898.59
557.05	43191.01
557.413	43391.91
557.776	43383.77
558.139	43762.07
558.502	43821.28
558.865	43896.53
559.228	44289.06
559.59	44336.74
559.953	44474.14
560.316	44940.34
560.679	45055.82
561.041	45123.84
561.404	45454.45
561.767	45590.27
562.129	45708.23
562.492	46070.71
562.854	46011.95
563.217	46190.71
563.579	46389.35
563.941	46656
564.304	46783.23
564.666	47109.78
565.028	47112.72
565.39	47279.94
565.753	47556.32
566.115	47635.87
566.477	47819.14
566.839	47989.3
567.201	48264.32
567.563	48259.13
567.925	48550.87
568.287	48747.48
568.648	48833.8
569.01	49050.97
569.372	49324.41
569.734	49307.23
570.095	49468.81
570.457	49754.23
570.819	49727.34
571.18	49811.63
571.542	50094.78
571.903	50140.88
572.265	50317.6
572.626	50548.56
572.987	50520.31
573.349	50878.04
573.71	50935.44
574.071	51058.15
574.432	51105.38
574.794	51478.7
575.155	51421.98
575.516	51472.6
575.877	51674.18
576.238	51571.81
576.599	51826.94
576.96	51914.62
577.32	51986.94
577.681	52071
578.042	52232.36
578.403	52336.53
578.763	52320.49
579.124	52499.47
579.485	52637.77
579.845	52750.53
580.206	52676.19
580.566	52865.33
580.927	52853.36
581.287	53054.25
581.648	52918.21
582.008	53132.44
582.368	53213.35
582.728	53193.91
583.089	53282.95
583.449	53293.12
583.809	53319.33
584.169	53413.34
584.529	53420.8
584.889	53744.86
585.249	53585.54
585.609	53494.47
585.969	53820.34
586.329	53760
586.688	53914.35
587.048	53878.19
587.408	53874.35
587.768	53928.58
588.127	54002.93
588.487	53984.63
588.846	54250.38
589.206	54057.39
589.565	54134
589.925	54395.91
590.284	54324.73
590.643	54357.27
591.003	54441.79
591.362	54664.83
591.721	54617.38
592.08	54607.89
592.44	54804.94
592.799	54741.67
593.158	54789.35
593.517	54785.28
593.876	54956.13
594.235	54850.37
594.593	54905.51
594.952	55013.53
595.311	54947.99
595.67	55117.7
596.029	55269.79
596.387	55302.78
596.746	55449.67
597.104	55232.95
597.463	55324.25
597.822	55486.28
598.18	55434.98
598.538	55445.15
598.897	55725.14
599.255	55540.29
599.613	55844.01
599.972	55707.97
600.33	55835.65
600.688	55805.37
601.046	55885.59
601.404	56049.66
601.762	56057.79
602.12	56182.76
602.478	56221.18
602.836	56302.53
603.194	56161.52
603.552	56254.85
603.91	56278.58
604.268	56392.92
604.625	56369.2
604.983	56499.81
605.341	56424.34
605.698	56651
606.056	56763.54
606.413	56653.03
606.771	56830.2
607.128	56839.47
607.485	56806.25
607.843	56860.26
608.2	56983.42
608.557	57092.34
608.914	57085.79
609.272	57152
609.629	57280.81
609.986	57371.66
610.343	57326.91
610.7	57551.09
611.057	57431.54
611.414	57446.68
611.771	57568.94
612.127	57693.23
612.484	57708.6
612.841	57747.24
613.198	57711.08
613.554	57732.32
613.911	58016.61
614.267	57930.51
614.624	57905.88
614.98	58112.65
615.337	58192.2
615.693	58184.29
616.05	58208.24
616.406	58300.22
616.762	58249.6
617.118	58334.57
617.475	58384.74
617.831	58448.24
618.187	58523.94
618.543	58500.89
618.899	58630.38
619.255	58652.75
619.611	58590.15
619.967	58730.49
620.323	58794.44
620.678	58676.03
621.034	58634.9
621.39	58682.81
621.746	58669.47
622.101	59008.67
622.457	58765.29
622.812	58945.4
623.168	58940.65
623.523	58908.11
623.879	59031.27
624.234	58937.49
624.589	59011.39
624.945	59026.3
625.3	59003.93
625.655	59017.26
626.01	59116.92
626.365	59126.86
626.72	59012.97
627.075	59076.24
627.43	59105.85
627.785	59075.11
628.14	59075.57
628.495	59069.92
628.85	59131.16
629.205	59028.33
629.559	59162.79
629.914	59103.81
630.269	59057.03
630.623	59022.23
630.978	58983.82
631.332	59103.81
631.687	59121.89
632.041	59009.8
632.396	59054.32
632.75	58976.36
633.104	59059.52
633.459	58921.67
633.813	59013.19
634.167	58960.99
634.521	58905.63
634.875	58930.26
635.229	58816.59
635.583	58702.69
635.937	58690.04
636.291	58762.35
636.645	58715.12
636.999	58643.94
637.352	58692.75
637.706	58586.99
638.06	58619.98
638.413	58604.39
638.767	58497.5
639.121	58563.49
639.474	58466.32
639.828	58492.53
640.181	58422.93
640.534	58466.09
640.888	58393.78
641.241	58290.05
641.594	58309.94
641.947	58404.17
642.301	58278.3
642.654	58268.81
643.007	58215.02
643.36	58260.9
643.713	58158.08
644.066	58310.16
644.419	58082.6
644.771	57902.04
645.124	57664.3
645.477	57558.32
645.83	57492.1
646.182	57433.12
646.535	57374.59
646.888	57451.88
647.24	57414.59
647.593	57507.92
647.945	57405.33
648.298	57402.84
648.65	57238.78
649.002	57138.22
649.355	57142.96
649.707	57066.8
650.059	57005.34
650.411	57395.84
650.763	57515.38
651.115	57844.41
651.467	57728.03
651.819	57731.42
652.171	57652.78
652.523	57519.9
652.875	57604.19
653.227	57497.98
653.578	57704.53
653.93	57516.74
654.282	57414.14
654.633	57436.06
654.985	57493.46
655.337	57457.3
655.688	57436.96
656.039	57429.28
656.391	57215.28
656.742	57306.8
657.094	57314.93
657.445	57317.42
657.796	57286.91
658.147	57225.67
658.498	57284.43
658.849	57270.42
659.2	57182.51
659.551	57136.41
659.902	57329.85
660.253	57176.86
660.604	57292.56
660.955	57100.93
661.306	57228.83
661.656	57066.13
662.007	57051.21
662.358	57112.45
662.708	57106.8
663.059	57053.47
663.409	56937.54
663.76	57014.38
664.11	57088.72
664.461	57032
664.811	57061.38
665.161	57086.69
665.511	56985
665.862	56937.32
666.212	56994.49
666.562	57089.18
666.912	56898.45
667.262	56911.1
667.612	56944.1
667.962	56915.62
668.312	56852.8
668.662	56933.7
669.011	56953.36
669.361	56923.08
669.711	56882.85
670.06	56888.96
670.41	56811.9
670.76	56775.74
671.109	56844.44
671.459	56832.46
671.808	56783.42
672.157	56936.64
672.507	56678.11
672.856	56737.1
673.205	56776.19
673.554	56816.64
673.904	56717.44
674.253	56979.35
674.602	56772.58
674.951	56420.27
675.3	56302.08
675.649	56742.75
675.998	56702.97
676.346	56707.49
676.695	56809.41
677.044	56551.34
677.393	56620.49
677.741	56708.17
678.09	56644.67
678.438	56571.45
678.787	56630.43
679.135	56674.72
679.484	56534.84
679.832	56622.52
680.181	56531.9
680.529	56541.85
680.877	56407.39
681.225	56394.51
681.573	56613.71
681.922	56340.27
682.27	56370.1
682.618	56334.39
682.966	56288.29
683.314	56325.58
683.661	56256.2
684.009	56151.12
684.357	56155.42
684.705	56074.51
685.053	56085.81
685.4	56017.34
685.748	55894.63
686.095	55944.8
686.443	55875.42
686.79	55866.61
687.138	55858.7
687.485	55843.11
687.832	55685.6
688.18	55754.07
688.527	55631.36
688.874	55632.27
689.221	55664.36
689.568	55552.04
689.915	55472.27
690.262	55567.18
690.609	55461.42
690.956	55317.47
691.303	55384.59
691.65	55253.74
691.997	55204.93
692.344	55139.62
692.69	55034.54
693.037	55086.07
693.383	54899.63
693.73	54898.73
694.077	54750.48
694.423	54754.1
694.769	54737.6
695.116	54700.54
695.462	54585.74
695.808	54470.94
696.155	54608.34
696.501	54378.97
696.847	54408.57
697.193	54257.61
697.539	54263.71
697.885	54044.06
698.231	54028.01
698.577	53944.4
698.923	53934.68
699.269	53799.77
699.614	53702.37
699.96	53751.64
700.306	53738.98
700.651	53533.79
700.997	53514.36
701.342	53387.13
701.688	53317.07
702.033	53253.12
702.379	53204.53
702.724	53128.6
703.069	53189.17
703.415	52814.26
703.76	52826.01
704.105	52878.67
704.45	52802.96
704.795	52671.89
705.14	52590.54
705.485	52618.33
705.83	52424.67
706.175	52467.83
706.52	52375.85
706.865	52228.06
707.209	52148.74
707.554	52099.25
707.899	52212.47
708.243	52003.89
708.588	51946.49
708.932	51746.94
709.277	51819.26
709.621	51733.16
709.966	51500.4
710.31	51586.72
710.654	51341.53
710.998	51389.44
711.342	51400.29
711.687	51302.44
712.031	51227.86
712.375	51115.77
712.719	50982.22
713.063	50981.31
713.407	51159.16
713.75	50861.54
714.094	50860.64
714.438	50686.86
714.782	50792.62
715.125	50472.63
715.469	50703.81
715.812	50323.25
716.156	50278.73
716.499	50228.57
716.843	50444.38
717.186	50027.89
717.53	50254.1
717.873	50277.15
718.216	50085.07
718.559	49977.5
718.902	49711.29
719.246	49748.35
719.589	49626.32
719.932	49526.89
720.275	49669.71
720.617	49713.1
720.96	49485.99
721.303	49505.42
721.646	49491.86
721.989	49171.87
722.331	49299.1
722.674	49204.64
723.016	49222.27
723.359	49132.32
723.701	49104.53
724.044	48994.93
724.386	48790.86
724.729	48895.72
725.071	48855.27
725.413	48740.7
725.755	48739.11
726.097	48659.34
726.439	48477.2
726.782	48453.25
727.124	48573.92
727.465	48463.64
727.807	48312.68
728.149	48340.25
728.491	48201.73
728.833	48293.93
729.175	48226.13
729.516	48010.32
729.858	48077.89
730.199	48092.35
730.541	48063.43
730.882	47809.65
731.224	47878.12
731.565	47831.79
731.906	47874.5
732.248	47814.17
732.589	47575.53
732.93	47477
733.271	47598.35
733.612	47475.42
733.953	47528.98
734.294	47439.71
734.635	47445.81
734.976	47441.29
735.317	47245.59
735.658	47273.62
735.999	47187.97
736.339	47225.48
736.68	47224.58
737.021	46911.82
737.361	46906.62
737.702	47151.59
738.042	46867.98
738.383	47009.89
738.723	46832.05
739.063	46778.04
739.404	46924.47
739.744	46674.54
740.084	46497.14
740.424	46576.46
740.764	46352.28
741.104	46778.04
741.444	46423.02
741.784	46197.49
742.124	46387.54
742.464	46286.07
742.804	46285.85
743.143	46102.57
743.483	46259.18
743.823	46053.08
744.162	46017.83
744.502	46028
744.841	45863.71
745.181	46032.29
745.52	45786.2
745.86	45864.61
746.199	45757.27
746.538	45726.54
746.877	45883.82
747.216	45767.44
747.556	45545.07
747.895	45552.08
748.234	45511.85
748.573	45437.51
748.911	45366.55
749.25	45296.49
749.589	45356.38
749.928	45225.76
750.267	45310.5
750.605	45188.47
750.944	45082.71
751.283	44940.12
751.621	44938.99
751.96	44713.91
752.298	44673.46
752.636	44747.58
752.975	44635.49
753.313	44467.36
753.651	44577.87
753.989	44264.43
754.327	44481.15
754.666	44110.54
755.004	44331.09
755.342	44299.23
755.679	44164.32
756.017	43962.97
756.355	43915.74
756.693	43792.8
757.031	43840.71
757.368	43610.21
757.706	43522.3
758.044	43344
758.381	43467.39
758.719	43210.22
759.056	43305.81
759.394	43087.96
759.731	42826.73
760.068	42783.56
760.405	42789.89
760.743	42639.61
761.08	42544.47
761.417	42484.14
761.754	42306.74
762.091	42314.2
762.428	42012.51
762.765	41950.14
763.102	41878.96
763.438	41902.68
763.775	41678.06
764.112	41513.77
764.449	41560.09
764.785	41388.57
765.122	41188.13
765.458	41005.76
765.795	40998.07
766.131	40909.26
766.467	40768.7
766.804	40392.21
767.14	40411.2
767.476	40205.55
767.812	40204.2
768.148	40166.91
768.485	40021.38
768.821	39655.06
769.157	39591.33
769.492	39418.23
769.828	39405.12
770.164	39097.11
770.5	39016.66
770.836	38961.97
771.171	38782.54
771.507	38770.79
771.842	38481.53
772.178	38507.52
772.513	38293.74
772.849	38238.6
773.184	38115.44
773.519	38016.01
773.855	37752.28
774.19	37706.18
774.525	37528.34
774.86	37577.15
775.195	37352.07
775.53	37154.33
775.865	36852.42
776.2	36819.2
776.535	36703.72
776.87	36579.89
777.205	36352.32
777.539	36223.74
777.874	36290.63
778.209	35936.29
778.543	35996.17
778.878	35692.9
779.212	35809.51
779.547	35348.73
779.881	35429.18
780.215	35234.84
780.55	35385.79
780.884	34904.45
781.218	34808.41
781.552	34855.19
781.886	34633.95
782.22	34577.68
782.554	34219.27
782.888	34055.66
783.222	34113.51
783.556	33959.62
783.889	33689.34
784.223	33585.39
784.557	33602.11
784.89	33558.72
785.224	33258.17
785.557	33240.31
785.891	33071.73
786.224	33010.26
786.558	32993.99
786.891	32566.88
787.224	32616.15
787.557	32419.54
787.891	32420.22
788.224	32159.44
788.557	32117.63
788.89	32036.05
789.223	32028.14
789.556	31735.72
789.888	31762.61
790.221	31733.46
790.554	31437.2
790.887	31433.81
791.219	31275.17
791.552	31220.48
791.884	31066.13
792.217	31029.07
792.549	30814.39
792.882	30636.54
793.214	30566.94
793.546	30606.26
793.879	30348.41
794.211	30157.23
794.543	30297.34
794.875	30112.94
795.207	30063.9
795.539	29978.03
795.871	29971.92
796.203	29744.13
796.535	29540.97
796.867	29570.58
797.198	29391.15
797.53	29315.67
797.862	29109.35
798.193	29201.1
798.525	28953.19
798.856	29114.77
799.188	28734.67
799.519	28633.88
799.85	28444.05
800.182	28542.13
800.513	28518.63
800.844	28141.24
801.175	28497.39
801.506	28314.34
801.837	28140.79
802.168	28118.87
802.499	28079.32
802.83	27818.99
803.161	27771.76
803.491	27814.01
803.822	27863.96
804.153	27674.58
804.483	27463.06
804.814	27347.13
805.145	27414.48
805.475	27339.9
805.805	27302.16
806.136	27300.81
806.466	27120.93
806.796	27051.55
807.126	26836.19
807.457	26915.28
807.787	26932.46
808.117	26745.79
808.447	26719.13
808.777	26760.71
809.107	26449.3
809.436	26307.16
809.766	26272.59
810.096	26471
810.426	26149.65
810.755	26258.12
811.085	26181.06
811.414	26192.59
811.744	25944.69
812.073	26070.78
812.403	25827.17
812.732	25731.81
813.061	25813.62
813.39	25684.35
813.719	25513.51
814.049	25763.45
814.378	25605.03
814.707	25470.8
815.036	25439.84
815.365	25313.06
815.693	25135.44
816.022	25253.86
816.351	25067.19
816.68	25083.24
817.008	25059.06
817.337	24850.7
817.665	24851.38
817.994	24800.53
818.322	24948.1
818.651	24759.86
818.979	24661.1
819.307	24653.19
819.636	24503.37
819.964	24459.75
820.292	24466.08
820.62	24354.9
820.948	24460.2
821.276	24607.55
821.604	24429.7
821.932	24510.6
822.259	24442.13
822.587	24501.79
822.915	24339.08
823.243	24389.47
823.57	24383.82
823.898	24386.76
824.225	24321.45
824.553	24293.88
824.88	24349.92
825.207	24436.25
825.535	24339.76
825.862	24430.15
826.189	24346.53
826.516	24528.68
826.843	24523.71
827.17	24554.89
827.497	24410.94
827.824	24481.22
828.151	24567.77
828.478	24354.44
828.805	24476.25
829.131	24414.33
829.458	24479.19
829.785	24177.95
830.111	24294.56
830.438	24379.98
830.764	24437.61
831.09	24404.84
831.417	24332.52
831.743	24408.23
832.069	24402.58
832.395	24260.89
832.722	24464.95
833.048	24236.71
833.374	24305.86
833.7	24230.15
834.026	24312.86
834.351	24258.63
834.677	24285.97
835.003	24213.88
835.329	24231.74
835.654	24147.9
835.98	23987
836.306	24156.26
836.631	24028.58
836.956	24139.31
837.282	24062.93
837.607	23883.27
837.932	23904.96
838.258	23932.76
838.583	23942.7
838.908	23859.54
839.233	23868.58
839.558	23801.46
839.883	23633.79
840.208	23558.53
840.533	23631.07
840.858	23663.16
841.182	23715.59
841.507	23619.32
841.832	23527.57
842.156	23441.93
842.481	23514.01
842.805	23374.36
843.13	23331.65
843.454	23298.65
843.778	23332.1
844.103	23210.07
844.427	23159.67
844.751	23131.2
845.075	23063.4
845.399	23057.76
845.723	22769.18
846.047	22877.2
846.371	22678.56
846.695	22556.75
847.019	22637.65
847.343	22350.88
847.666	22298.91
847.99	22165.58
848.313	22164.45
848.637	22101.4
848.96	22033.6
849.284	22047.39
849.607	21907.05
849.931	21850.1
850.254	21754.74
850.577	21477.46
850.9	21448.08
851.223	21428.42
851.546	21341.42
851.869	21280.4
852.192	21345.03
852.515	21218.48
852.838	20968.77
853.161	21060.97
853.483	20883.35
853.806	20838.15
854.129	20799.74
854.451	20663.69
854.774	20515.68
855.096	20591.61
855.419	20433.87
855.741	20453.53
856.063	20278.17
856.385	20308.9
856.708	20270.94
857.03	20186.42
857.352	20076.82
857.674	20007.67
857.996	20030.26
858.318	19818.07
858.64	19882.25
858.961	19862.81
859.283	19801.12
859.605	19651.29
859.926	19625.76
860.248	19507.79
860.57	19584.17
860.891	19548.24
861.212	19473.22
861.534	19439.32
861.855	19169.72
862.176	19315.25
862.498	19355.48
862.819	19305.76
863.14	19115.03
863.461	19209.49
863.782	19044.75
864.103	19084.53
864.424	19040.91
864.745	19110.97
865.065	19038.65
865.386	18901.71
865.707	18961.37
866.027	18954.59
866.348	18891.31
866.668	18830.07
866.989	18743.52
867.309	18706.68
867.63	18671.66
867.95	18714.59
868.27	18585.33
868.59	18558.66
868.91	18614.71
869.23	18555.5
869.55	18499.46
869.87	18544.43
870.19	18426.01
870.51	18489.29
870.83	18388.27
871.15	18278.9
871.469	18224.89
871.789	18452
872.109	18329.52
872.428	18139.47
872.748	18285.9
873.067	18196.41
873.386	18220.37
873.706	18045.23
874.025	18020.15
874.344	17910.09
874.663	18047.49
874.982	18019.7
875.301	17898.34
875.62	17966.82
875.939	17777.89
876.258	17880.94
876.577	17744.9
876.896	17776.76
877.214	17633.04
877.533	17756.88
877.852	17793.94
878.17	17840.49
878.489	17712.36
878.807	17682.08
879.125	17664.9
879.444	17676.65
879.762	17582.87
880.08	17638.46
880.398	17509.43
880.716	17511.46
881.034	17457
881.352	17369.09
881.67	17359.83
881.988	17377.9
882.306	17245.03
882.624	17183.33
882.941	17235.99
883.259	17138.14
883.577	17174.97
883.894	17000.74
884.212	17072.15
884.529	17054.98
884.846	16977.01
885.164	16941.31
885.481	16795.55
885.798	16882.78
886.115	16755.77
886.432	16755.55
886.75	16752.61
887.067	16822.67
887.383	16602.33
887.7	16603.69
888.017	16525.27
888.334	16484.14
888.651	16513.97
888.967	16413.41
889.284	16437.14
889.6	16261.78
889.917	16253.87
890.233	16245.51
890.55	16200.31
890.866	16159.18
891.182	16184.26
891.498	16080.09
891.815	16000.54
892.131	15935.46
892.447	15922.58
892.763	15866.76
893.079	15834.22
893.395	15726.65
893.71	15717.38
894.026	15637.39
894.342	15665.41
894.657	15598.29
894.973	15563.26
895.289	15549.93
895.604	15435.58
895.92	15338.86
896.235	15253.21
896.55	15340.44
896.865	15209.37
897.181	15257.28
897.496	15217.51
897.811	15149.04
898.126	15050.51
898.441	14925.54
898.756	14955.82
899.071	14821.36
899.386	14837.63
899.7	14768.71
900.015	14620.01
900.33	14527.13
900.644	14605.32
900.959	14656.39
901.273	14524.87
901.588	14411.43
901.902	14360.58
902.216	14373.01
902.531	14314.48
902.845	14265.44
903.159	14170.98
903.473	14173.24
903.787	14060.7
904.101	13970.54
904.415	13989.07
904.729	13899.8
905.042	13883.53
905.356	13796.98
905.67	13761.95
905.984	13801.95
906.297	13682.41
906.611	13638.34
906.924	13649.87
907.237	13536.2
907.551	13438.8
907.864	13372.81
908.177	13387.05
908.491	13307.5
908.804	13310.89
909.117	13288.97
909.43	13184.79
909.743	13028.87
910.056	13136.66
910.368	13010.79
910.681	12968.53
910.994	12917.23
911.307	12877.91
911.619	12742.55
911.932	12763.11
912.244	12692.83
912.557	12657.12
912.869	12548.88
913.181	12472.5
913.494	12456.23
913.806	12408.77
914.118	12320.18
914.43	12398.37
914.742	12278.83
915.054	12165.39
915.366	12142.56
915.678	12165.84
915.99	12076.35
916.302	11973.98
916.613	11896.92
916.925	11915.9
917.236	11899.63
917.548	11888.11
917.859	11783.25
918.171	11724.72
918.482	11602.69
918.794	11629.81
919.105	11578.06
919.416	11514.56
919.727	11459.42
920.038	11428.46
920.349	11365.63
920.66	11334.22
920.971	11324.73
921.282	11253.77
921.593	11188.46
921.903	11116.15
922.214	11087.9
922.525	11083.38
922.835	11016.49
923.146	10927.9
923.456	10935.14
923.767	10897.17
924.077	10850.84
924.387	10785.76
924.697	10701.24
925.008	10688.81
925.318	10697.18
925.628	10631.64
925.938	10553.45
926.248	10494.02
926.558	10461.93
926.867	10353.46
927.177	10350.07
927.487	10297.86
927.796	10230.3
928.106	10167.92
928.416	10200.92
928.725	10135.38
929.034	10141.48
929.344	10134.03
929.653	10111.43
929.962	10016.74
930.271	9960.7
930.581	9904.65
930.89	9831.66
931.199	9797.76
931.508	9755.73
931.817	9763.87
932.125	9638.9
932.434	9664.66
932.743	9582.18
933.051	9481.39
933.36	9499.02
933.669	9454.72
933.977	9423.54
934.286	9417.89
934.594	9317.33
934.902	9299.47
935.21	9285.24
935.519	9199.59
935.827	9198.91
936.135	9128.18
936.443	9076.65
936.751	9065.81
937.059	9098.12
937.367	8948.07
937.674	8950.78
937.982	8958.01
938.29	8917.34
938.597	8927.05
938.905	8752.82
939.213	8721.18
939.52	8745.82
939.827	8717.12
940.135	8662.88
940.442	8590.79
940.749	8528.42
941.056	8591.47
941.363	8480.51
941.67	8496.56
941.977	8445.94
942.284	8346.5
942.591	8413.85
942.898	8351.02
943.205	8278.03
943.511	8199.61
943.818	8248.88
944.125	8123.68
944.431	8092.5
944.738	8134.76
945.044	8076.91
945.35	7980.86
945.657	7977.02
945.963	7965.72
946.269	7909.23
946.575	7864.48
946.881	7792.62
947.187	7724.37
947.493	7758.04
947.799	7751.94
948.105	7706.29
948.41	7631.49
948.716	7625.39
949.022	7581.78
949.327	7529.12
949.633	7517.82
949.938	7472.4
950.244	7458.62
950.549	7385.85
950.854	7366.64
951.16	7362.8
951.465	7317.83
951.77	7283.48
952.075	7243.48
952.38	7227.21
952.685	7195.12
952.99	7170.04
953.294	7119.19
953.599	7031.96
953.904	7107.44
954.209	7006.88
954.513	7049.14
954.818	7008.01
955.122	6981.34
955.426	6903.6
955.731	6863.6
956.035	6821.12
956.339	6836.71
956.643	6810.95
956.948	6791.06
957.252	6711.97
957.556	6657.28
957.86	6660.9
958.163	6643.5
958.467	6580
958.771	6590.84
959.075	6591.97
959.378	6464.97
959.682	6544.52
959.985	6484.63
960.289	6436.72
960.592	6397.18
960.896	6371.87
961.199	6343.17
961.502	6348.14
961.805	6309.95
962.108	6237.41
962.411	6309.95
962.714	6185.66
963.017	6158.76
963.32	6158.99
963.623	6171.65
963.926	6126.22
964.228	6067.47
964.531	6036.73
964.833	6017.07
965.136	5977.98
965.438	5982.5
965.741	5909.73
966.043	5914.03
966.345	5871.54
966.648	5842.61
966.95	5863.41
967.252	5763.75
967.554	5798.32
967.856	5800.81
968.158	5713.8
968.46	5727.59
968.761	5656.18
969.063	5642.39
969.365	5605.11
969.666	5593.36
969.968	5560.81
970.269	5519.69
970.571	5465.9
970.872	5484.66
971.174	5491.44
971.475	5457.54
971.776	5429.29
972.077	5367.37
972.378	5349.97
972.679	5284.89
972.98	5319.24
973.281	5285.34
973.582	5274.27
973.883	5232.46
974.183	5185.23
974.484	5179.58
974.785	5126.25
975.085	5160.15
975.386	5109.3
975.686	5117.44
975.986	5082.18
976.287	5084.44
976.587	4994.73
976.887	5018.46
977.187	4974.16
977.487	4953.15
977.787	4916.54
978.087	4905.69
978.387	4913.37
978.687	4873.15
978.987	4826.82
979.286	4839.25
979.586	4804
979.885	4799.7
980.185	4791.79
980.484	4721.97
980.784	4727.16
981.083	4657.11
981.382	4681.29
981.682	4663.44
981.981	4647.62
982.28	4603.33
982.579	4561.29
982.878	4623.44
983.177	4550.45
983.475	4501.86
983.774	4494.18
984.073	4480.62
984.372	4414.4
984.67	4411.24
984.969	4422.77
985.267	4396.55
985.566	4355.2
985.864	4348.19
986.162	4323.78
986.461	4307.06
986.759	4287.63
987.057	4283.79
987.355	4258.48
987.653	4232.94
987.951	4229.32
988.249	4195.88
988.547	4172.38
988.844	4152.72
989.142	4138.93
989.44	4098.03
989.737	4097.8
990.035	4068.2
990.332	4058.03
990.63	4036.11
990.927	4008.09
991.224	3988.2
991.521	3962.66
991.819	3939.84
992.116	3954.53
992.413	3913.4
992.71	3874.53
993.006	3887.41
993.303	3870.92
993.6	3821.88
993.897	3826.85
994.193	3841.54
994.49	3772.16
994.787	3785.27
995.083	3744.82
995.379	3729.68
995.676	3692.39
995.972	3688.1
996.268	3693.52
996.565	3640.64
996.861	3669.11
997.157	3657.36
997.453	3617.81
997.749	3568.78
998.044	3552.96
998.34	3554.54
998.636	3522.22
998.932	3485.39
999.227	3479.29
999.523	3497.82
999.818	3441.1
1000.114	3442.23
1000.409	3391.83
1000.704	3396.35
1001	3356.58
1001.295	3315.45
1001.59	3339.86
1001.885	3341.66
1002.18	3325.62
1002.475	3285.39
1002.77	3266.19
1003.065	3275.9
1003.359	3211.5
1003.654	3224.15
1003.949	3195.45
1004.243	3172.63
1004.538	3121.1
1004.832	3174.89
1005.127	3123.82
1005.421	3122.69
1005.715	3048.56
1006.009	3055.12
1006.304	3046.98
1006.598	2999.07
1006.892	3005.18
1007.186	2986.87
1007.48	3018.28
1007.773	2949.81
1008.067	2932.63
1008.361	2913.2
1008.655	2866.87
1008.948	2917.49
1009.242	2896.03
1009.535	2841.34
1009.829	2828.91
1010.122	2798.85
1010.415	2802.02
1010.708	2788.91
1011.001	2745.52
1011.295	2698.29
1011.588	2720.66
1011.881	2701.45
1012.173	2731.74
1012.466	2672.3
1012.759	2666.2
1013.052	2667.56
1013.344	2635.47
1013.637	2615.35
1013.93	2620.1
1014.222	2618.29
1014.514	2577.84
1014.807	2579.88
1015.099	2510.27
1015.391	2523.83
1015.683	2474.34
1015.976	2487.22
1016.268	2454.91
1016.56	2455.36
1016.851	2412.87
1017.143	2412.65
1017.435	2402.03
1017.727	2381.91
1018.018	2358.64
1018.31	2338.07
1018.602	2327
1018.893	2320.22
1019.185	2298.53
1019.476	2310.28
1019.767	2293.33
1020.058	2268.92
1020.35	2254.69
1020.641	2182.37
1020.932	2194.58
1021.223	2209.94
1021.514	2173.33
1021.804	2140.11
1022.095	2175.82
1022.386	2133.56
1022.677	2112.09
1022.967	2092.88
1023.258	2068.25
1023.548	2076.39
1023.839	2066.22
1024.129	2047.01
1024.419	2024.41
1024.709	2009.95
1025	2015.82
1025.29	1995.26
1025.58	1941.25
1025.87	1964.07
1026.16	1948.48
1026.449	1939.89
1026.739	1935.6
1027.029	1905.09
1027.319	1893.34
1027.608	1893.57
1027.898	1845.21
1028.187	1838.65
1028.477	1856.28
1028.766	1811.31
1029.055	1809.5
1029.344	1793
1029.634	1793.46
1029.923	1761.14
1030.212	1724.08
1030.501	1763.85
1030.79	1688.83
1031.078	1725.21
1031.367	1709.16
1031.656	1682.27
1031.945	1677.53
1032.233	1694.93
1032.522	1655.15
1032.81	1643.63
1033.099	1629.17
1033.387	1611.99
1033.675	1619.67
1033.963	1596.62
1034.251	1581.03
1034.54	1593.01
1034.828	1594.59
1035.116	1550.98
1035.403	1562.05
1035.691	1556.4
1035.979	1527.25
1036.267	1518.43
1036.554	1513.69
1036.842	1491.54
1037.129	1477.76
1037.417	1449.06
1037.704	1425.78
1037.992	1448.61
1038.279	1445.89
1038.566	1435.5
1038.853	1435.5
1039.14	1435.5
