Data from 12-0727_FLMS001491_004.txt Node
Date: Thu Apr 12 17:09:06 BST 2018
User: hsy
Spectrometer: FLMS00149
Trigger mode: 0
Integration Time (sec): 1.000000E-2
Scans to average: 10
Electric dark correction enabled: true
Nonlinearity correction enabled: false
Boxcar width: 0
XAxis mode: Wavelengths
Number of Pixels in Spectrum: 2048
>>>>>Begin Spectral Data<<<<<
341.393	0.13
341.776	0.13
342.16	0.13
342.543	-55.24
342.927	-78.29
343.31	-90.72
343.693	-79.87
344.077	-75.13
344.46	-54.11
344.843	-52.53
345.226	-36.71
345.61	-41.45
345.993	-17.95
346.376	11.2
346.759	12.78
347.142	16.4
347.525	48.04
347.908	78.54
348.291	86.9
348.674	96.4
349.057	98.2
349.44	137.75
349.823	133.68
350.206	164.87
350.588	237.86
350.971	248.03
351.354	260.01
351.737	282.38
352.119	310.4
352.502	287.13
352.884	288.03
353.267	306.33
353.65	318.31
354.032	334.13
354.414	335.26
354.797	364.86
355.179	348.14
355.562	371.64
355.944	376.39
356.326	367.8
356.709	355.37
357.091	374.81
357.473	377.29
357.855	369.16
358.238	386.78
358.62	398.53
359.002	369.61
359.384	390.63
359.766	379.1
360.148	396.73
360.53	396.95
360.912	388.82
361.294	390.4
361.676	392.43
362.057	395.6
362.439	361.7
362.821	394.24
363.203	387.91
363.584	394.24
363.966	361.02
364.348	382.72
364.729	385.43
365.111	365.32
365.493	385.43
365.874	382.94
366.256	388.14
366.637	384.52
367.019	363.96
367.4	349.04
367.781	370.06
368.163	373.45
368.544	363.96
368.925	373.9
369.306	375.94
369.688	371.19
370.069	384.75
370.45	367.58
370.831	355.15
371.212	366.22
371.593	372.09
371.974	372.09
372.355	380.46
372.736	371.42
373.117	385.43
373.498	389.04
373.879	394.24
374.26	368.7
374.641	362.83
375.021	397.4
375.402	385.2
375.783	405.31
376.163	384.3
376.544	411.42
376.925	411.87
377.305	389.95
377.686	405.31
378.066	394.24
378.447	402.83
378.827	406.67
379.208	417.07
379.588	414.13
379.968	405.99
380.349	418.42
380.729	420.23
381.109	433.79
381.489	412.09
381.87	410.06
382.25	423.84
382.63	405.54
383.01	432.21
383.39	429.49
383.77	442.38
384.15	427.69
384.53	417.29
384.91	446.22
385.29	441.47
385.67	453.22
386.049	441.92
386.429	453.9
386.809	461.36
387.189	448.93
387.568	455.93
387.948	468.36
388.328	466.78
388.707	457.06
389.087	474.46
389.466	461.81
389.846	483.28
390.225	481.7
390.605	489.15
390.984	515.14
391.363	467.91
391.743	498.42
392.122	488.02
392.501	510.4
392.881	526.21
393.26	525.54
393.639	508.36
394.018	507.91
394.397	515.59
394.776	524.63
395.155	517.18
395.534	518.76
395.913	540
396.292	522.83
396.671	551.3
397.05	552.65
397.429	561.24
397.808	545.2
398.186	532.54
398.565	545.2
398.944	558.98
399.323	540.9
399.701	565.31
400.08	549.04
400.458	552.88
400.837	557.85
401.215	586.55
401.594	575.48
401.972	594.24
402.351	570.28
402.729	598.98
403.107	588.13
403.486	591.98
403.864	612.99
404.242	608.02
404.62	620.9
404.999	622.03
405.377	640.56
405.755	636.49
406.133	632.2
406.511	640.34
406.889	664.29
407.267	667
407.645	649.83
408.023	655.7
408.401	668.58
408.779	684.18
409.156	690.5
409.534	664.52
409.912	697.96
410.29	710.39
410.667	732.76
411.045	716.04
411.422	748.81
411.8	739.09
412.178	743.61
412.555	751.75
412.933	779.32
413.31	789.26
413.687	786.55
414.065	802.59
414.442	809.37
414.819	821.12
415.197	838.3
415.574	838.07
415.951	851.63
416.328	857.05
416.705	844.62
417.082	850.27
417.46	847.11
417.837	908.13
418.214	875.81
418.591	893.21
418.967	889.14
419.344	909.93
419.721	906.77
420.098	906.77
420.475	926.66
420.852	933.66
421.228	951.06
421.605	954.68
421.982	964.62
422.358	968.46
422.735	968.92
423.111	986.99
423.488	988.12
423.864	1001.91
424.241	1020.89
424.617	1055.24
424.994	1001.91
425.37	1019.31
425.746	1031.96
426.123	1058.4
426.499	1079.19
426.875	1110.15
427.251	1075.81
427.627	1076.48
428.003	1114.67
428.379	1088.91
428.756	1139.53
429.132	1128.01
429.507	1159.42
429.883	1172.98
430.259	1193.99
430.635	1183.15
431.011	1222.02
431.387	1229.7
431.763	1235.12
432.138	1236.25
432.514	1262.47
432.89	1289.81
433.265	1336.14
433.641	1321.9
434.016	1291.62
434.392	1321.22
434.767	1339.53
435.143	1375.91
435.518	1381.11
435.894	1384.95
436.269	1391.28
436.644	1388.11
437.02	1404.16
437.395	1431.73
437.77	1449.13
438.145	1440.09
438.52	1485.29
438.895	1490.03
439.271	1470.14
439.646	1512.86
440.021	1512.4
440.395	1504.95
440.77	1518.05
441.145	1508.34
441.52	1570.26
441.895	1552.85
442.27	1582.91
442.645	1537.26
443.019	1597.83
443.394	1586.75
443.769	1582.68
444.143	1578.16
444.518	1602.8
444.892	1591.27
445.267	1649.12
445.641	1650.03
446.016	1678.28
446.39	1673.53
446.764	1696.13
447.139	1659.52
447.513	1702
447.887	1687.31
448.262	1706.07
448.636	1705.84
449.01	1765.73
449.384	1746.52
449.758	1772.96
450.132	1772.74
450.506	1790.36
450.88	1807.09
451.254	1808.67
451.628	1846.18
452.002	1860.64
452.376	1868.78
452.75	1909
453.123	1901.55
453.497	1957.59
453.871	1947.87
454.244	2018.83
454.618	1988.78
454.992	2021.77
455.365	2051.82
455.739	2067.87
456.112	2111.94
456.486	2129.79
456.859	2141.77
457.232	2193.29
457.606	2185.61
457.979	2219.5
458.352	2261.08
458.725	2297.02
459.099	2302.21
459.472	2340.63
459.845	2385.83
460.218	2402.55
460.591	2405.49
460.964	2458.82
461.337	2443.23
461.71	2499.72
462.083	2561.42
462.456	2565.71
462.829	2549.66
463.201	2593.73
463.574	2582.21
463.947	2623.33
464.32	2681.86
464.692	2710.79
465.065	2745.59
465.438	2776.55
465.81	2804.8
466.183	2809.09
466.555	2887.73
466.928	2891.12
467.3	2907.17
467.672	2944.68
468.045	3024.91
468.417	3060.39
468.789	3069.65
469.161	3064.68
469.534	3158.46
469.906	3179.93
470.278	3257.44
470.65	3228.52
471.022	3333.15
471.394	3371.11
471.766	3379.25
472.138	3434.16
472.51	3532.69
472.882	3555.97
473.253	3576.76
473.625	3674.38
473.997	3743.76
474.369	3750.76
474.74	3752.8
475.112	3886.13
475.484	3899.69
475.855	3966.58
476.227	4051.55
476.598	4158.21
476.97	4172.9
477.341	4246.8
477.713	4330.41
478.084	4379.67
478.455	4496.05
478.827	4550.97
479.198	4706.9
479.569	4746.89
479.94	4884.29
480.311	4913.22
480.682	5024.85
481.053	5095.59
481.424	5169.48
481.795	5311.85
482.166	5385.52
482.537	5482.47
482.908	5568.57
483.279	5657.83
483.65	5831.61
484.021	5939.86
484.391	6069.57
484.762	6140.53
485.133	6264.6
485.503	6381.88
485.874	6544.14
486.244	6625.26
486.615	6807.41
486.985	6890.79
487.356	7091.01
487.726	7141.18
488.097	7419.82
488.467	7438.8
488.837	7717.44
489.207	7831.56
489.578	7972.35
489.948	8121.95
490.318	8286.24
490.688	8391.54
491.058	8644.42
491.428	8800.57
491.798	8910.85
492.168	9197.4
492.538	9347.68
492.908	9598.29
493.278	9708.57
493.648	9852.98
494.017	10092.97
494.387	10270.14
494.757	10494.99
495.126	10682.33
495.496	10830.8
495.866	11049.55
496.235	11237.57
496.605	11463.55
496.974	11617
497.344	11909.42
497.713	12039.36
498.082	12259.69
498.452	12487.03
498.821	12784.2
499.19	12859.45
499.559	13237.29
499.928	13347.57
500.298	13538.53
500.667	13863.04
501.036	13915.69
501.405	14295.8
501.774	14516.81
502.143	14677.93
502.512	15013.29
502.88	15232.04
503.249	15460.96
503.618	15661.41
503.987	15948.63
504.356	16131.45
504.724	16430.88
505.093	16627.26
505.462	16878.1
505.83	17191.99
506.199	17399.9
506.567	17714.46
506.936	17827.91
507.304	18234.68
507.672	18430.38
508.041	18619.07
508.409	18993.75
508.777	19243.24
509.145	19560.29
509.514	19584.02
509.882	19898.59
510.25	20082.54
510.618	20388.07
510.986	20519.14
511.354	20856.75
511.722	21223.07
512.09	21409.51
512.458	21504.42
512.826	21824.41
513.193	22026.44
513.561	22166.32
513.929	22529.25
514.297	22824.61
514.664	22985.51
515.032	23307.08
515.4	23656
515.767	23739.62
516.135	23964.02
516.502	23854.64
516.869	24402.42
517.237	24657.78
517.604	24650.78
517.972	25089.64
518.339	25324.43
518.706	25548.83
519.073	25707.93
519.44	25871.99
519.808	26296.16
520.175	26450.05
520.542	26841.46
520.909	27066.31
521.276	27105.4
521.643	27457.26
522.009	27708.1
522.376	28113.29
522.743	28084.13
523.11	28559.83
523.477	28852.93
523.843	29096.99
524.21	29396.64
524.577	29768.61
524.943	29963.86
525.31	30032.33
525.676	30496.73
526.043	30659.89
526.409	30922.25
526.776	31252.64
527.142	31371.96
527.508	31687.66
527.874	32052.84
528.241	32237.47
528.607	32469.78
528.973	32829.55
529.339	32837.23
529.705	33255.07
530.071	33486.7
530.437	33774.61
530.803	34001.04
531.169	34122.85
531.535	34386.79
531.901	34412.33
532.267	34615.49
532.632	35024.29
532.998	35050.05
533.364	35314.23
533.73	35450.49
534.095	35809.36
534.461	35921.44
534.826	36032.4
535.192	36240.76
535.557	36412.95
535.923	36495.21
536.288	36835.77
536.653	36938.14
537.019	36904.69
537.384	37052.71
537.749	37231.92
538.114	37417.9
538.479	37492.02
538.845	37681.62
539.21	37769.3
539.575	37977.66
539.94	37946.7
540.305	38347.59
540.67	38334.26
541.034	38348.5
541.399	38496.74
541.764	38634.59
542.129	38884.53
542.494	39076.39
542.858	39337.17
543.223	39022.6
543.587	39356.15
543.952	39406.1
544.316	39503.04
544.681	39620.78
545.045	39868.91
545.41	40038.4
545.774	40090.37
546.138	40071.16
546.503	40294.21
546.867	40329.46
547.231	40622.11
547.595	40811.03
547.959	40842.22
548.324	40910.01
548.688	41012.83
549.052	41220.29
549.416	41149.78
549.779	41516.55
550.143	41403.33
550.507	41734.85
550.871	41726.26
551.235	41781.85
551.599	42326.7
551.962	42278.56
552.326	42363.76
552.689	42619.35
553.053	42432.01
553.417	42682.17
553.78	43084.64
554.143	43207.8
554.507	43372.55
554.87	43412.77
555.234	43815.92
555.597	43555.37
555.96	43831.07
556.323	43999.87
556.686	44196.25
557.05	44260.88
557.413	44614.77
557.776	44504.49
558.139	44876.24
558.502	44932.96
558.865	45093.63
559.228	45404.81
559.59	45500.63
559.953	45711.02
560.316	46021.74
560.679	46231.45
561.041	46380.6
561.404	46541.05
561.767	46927.03
562.129	46849.74
562.492	47199.11
562.854	47315.04
563.217	47361.82
563.579	47542.61
563.941	47700.34
564.304	47967.23
564.666	48261.46
565.028	48327.44
565.39	48440.21
565.753	48651.96
566.115	48794.55
566.477	49033.87
566.839	49154.77
567.201	49514.08
567.563	49410.35
567.925	49702.78
568.287	49814.41
568.648	49923.33
569.01	50160.84
569.372	50335.98
569.734	50401.06
570.095	50679.02
570.457	50848.96
570.819	50817.55
571.18	50897.32
571.542	51104.77
571.903	51242.85
572.265	51400.13
572.626	51514.93
572.987	51630.63
573.349	51891.42
573.71	51913.34
574.071	52059.1
574.432	52179.32
574.794	52464.96
575.155	52440.33
575.516	52370.28
575.877	52479.88
576.238	52675.13
576.599	52799.19
576.96	52790.38
577.32	52991.28
577.681	53070.37
578.042	53222.46
578.403	53251.61
578.763	53239.18
579.124	53305.84
579.485	53586.97
579.845	53652.5
580.206	53600.75
580.566	53715.1
580.927	53748.77
581.287	53816.11
581.648	53860.18
582.008	54071.47
582.368	54199.83
582.728	54141.75
583.089	54106.95
583.449	54209.1
583.809	54262.2
584.169	54387.62
584.529	54278.47
584.889	54627.84
585.249	54432.82
585.609	54376.55
585.969	54643.66
586.329	54523.44
586.688	54614.96
587.048	54666.94
587.408	54703.77
587.768	54760.04
588.127	54771.79
588.487	54793.49
588.846	55038.23
589.206	54791.23
589.565	54905.8
589.925	55091.11
590.284	55059.02
590.643	55144.89
591.003	55230.99
591.362	55409.07
591.721	55305.57
592.08	55339.69
592.44	55521.61
592.799	55421.04
593.158	55451.78
593.517	55429.63
593.876	55608.61
594.235	55548.27
594.593	55620.59
594.952	55676.63
595.311	55743.29
595.67	55845.89
596.029	55939.9
596.387	56027.81
596.746	56157.52
597.104	55975.6
597.463	55949.16
597.822	56256.28
598.18	56126.79
598.538	56196.62
598.897	56250.17
599.255	56136.73
599.613	56523.61
599.972	56411.53
600.33	56491.75
600.688	56461.69
601.046	56462.37
601.404	56646.55
601.762	56696.04
602.12	56763.15
602.478	56790.27
602.836	56837.73
603.194	56747.34
603.552	56805.19
603.91	56818.29
604.268	56952.53
604.625	56851.29
604.983	57203.59
605.341	56994.33
605.698	57178.96
606.056	57364.27
606.413	57216.02
606.771	57427.09
607.128	57334.21
607.485	57337.15
607.843	57463.93
608.2	57563.13
608.557	57642.45
608.914	57582.57
609.272	57655.33
609.629	57797.7
609.986	57887.19
610.343	57881.54
610.7	58075.21
611.057	58053.29
611.414	58046.06
611.771	58114.76
612.127	58165.83
612.484	58184.81
612.841	58274.98
613.198	58267.3
613.554	58268.88
613.911	58435.88
614.267	58477.01
614.624	58401.76
614.98	58568.3
615.337	58652.14
615.693	58660.51
616.05	58642.43
616.406	58789.32
616.762	58780.73
617.118	58774.63
617.475	58803.33
617.831	58945.92
618.187	58990.44
618.543	59041.74
618.899	59123.32
619.255	59118.57
619.611	59090.78
619.967	59269.98
620.323	59257.33
620.678	59145.01
621.034	59164.45
621.39	59199.47
621.746	59210.32
622.101	59504.55
622.457	59220.26
622.812	59426.36
623.168	59429.3
623.523	59370.54
623.879	59478.34
624.234	59363.76
624.589	59458
624.945	59519.69
625.3	59513.59
625.655	59506.13
626.01	59526.02
626.365	59578
626.72	59523.76
627.075	59515.62
627.43	59582.06
627.785	59543.19
628.14	59594.94
628.495	59553.82
628.85	59610.99
629.205	59533.03
629.559	59616.86
629.914	59576.64
630.269	59598.11
630.623	59462.97
630.978	59504.78
631.332	59646.69
631.687	59580.93
632.041	59486.02
632.396	59571.22
632.75	59492.57
633.104	59530.09
633.459	59408.06
633.813	59453.03
634.167	59343.88
634.521	59410.09
634.875	59379.36
635.229	59326.02
635.583	59263.2
635.937	59233.15
636.291	59327.61
636.645	59261.85
636.999	59130.78
637.352	59242.19
637.706	59136.65
638.06	59186.37
638.413	59083.55
638.767	59073.83
639.121	59146.82
639.474	58967.62
639.828	58983.66
640.181	58954.06
640.534	59069.08
640.888	58881.52
641.241	58844.23
641.594	58807.85
641.947	58893.04
642.301	58790.22
642.654	58724.01
643.007	58733.27
643.36	58796.32
643.713	58718.81
644.066	58871.12
644.419	58642.65
644.771	58421.42
645.124	58136.45
645.477	58137.36
645.83	58006.74
646.182	58012.61
646.535	57969.68
646.888	58060.75
647.24	57851.49
647.593	58133.06
647.945	57954.54
648.298	57872.73
648.65	57762.68
649.002	57621.21
649.355	57638.39
649.707	57554.09
650.059	57605.17
650.411	57870.02
650.763	57963.12
651.115	58323.34
651.467	58169.67
651.819	58239.95
652.171	58215.55
652.523	58057.36
652.875	58073.85
653.227	58009
653.578	58160.18
653.93	58029.34
654.282	57948.43
654.633	57924.71
654.985	57958.15
655.337	57933.75
655.688	57949.79
656.039	58027.08
656.391	57773.3
656.742	57802.68
657.094	57820.75
657.445	57867.31
657.796	57895.33
658.147	57741.21
658.498	57803.35
658.849	57789.34
659.2	57712.51
659.551	57611.49
659.902	57775.11
660.253	57604.71
660.604	57735.78
660.955	57562
661.306	57748.89
661.656	57548.67
662.007	57509.58
662.358	57636.13
662.708	57585.73
663.059	57558.16
663.409	57450.14
663.76	57600.19
664.11	57550.25
664.461	57568.1
664.811	57531.5
665.161	57576.47
665.511	57402.46
665.862	57467.99
666.212	57512.06
666.562	57464.15
666.912	57463.25
667.262	57418.5
667.612	57399.07
667.962	57412.18
668.312	57339.64
668.662	57480.42
669.011	57534.43
669.361	57441.33
669.711	57492.85
670.06	57355.23
670.41	57352.74
670.76	57349.81
671.109	57430.26
671.459	57428.22
671.808	57315.91
672.157	57406.53
672.507	57264.16
672.856	57281.33
673.205	57271.62
673.554	57364.27
673.904	57278.85
674.253	57425.74
674.602	57301.45
674.951	56940.55
675.3	56873.66
675.649	57341.9
675.998	57233.2
676.346	57168.79
676.695	57315.46
677.044	57129.92
677.393	57175.35
677.741	57287.89
678.09	57248.79
678.438	57182.13
678.787	57235.23
679.135	57242.46
679.484	57040.89
679.832	57167.66
680.181	57124.5
680.529	57065.07
680.877	56919.08
681.225	56981
681.573	57157.72
681.922	57020.55
682.27	56889.03
682.618	56932.19
682.966	56900.55
683.314	56920.89
683.661	56891.96
684.009	56715.92
684.357	56699.88
684.705	56672.76
685.053	56727.9
685.4	56589.83
685.748	56629.6
686.095	56577.17
686.443	56464.86
686.79	56371.07
687.138	56515.03
687.485	56498.3
687.832	56417.17
688.18	56436.84
688.527	56345.31
688.874	56263.73
689.221	56251.76
689.568	56162.49
689.915	56143.96
690.262	56084.08
690.609	56086.56
690.956	56047.24
691.303	56007.69
691.65	55863.74
691.997	55850.41
692.344	55742.84
692.69	55741.71
693.037	55737.19
693.383	55480.93
693.73	55637.31
694.077	55486.8
694.423	55525.45
694.769	55346.69
695.116	55329.75
695.462	55242.06
695.808	55169.3
696.155	55219.69
696.501	55008.62
696.847	55035.74
697.193	54859.02
697.539	54949.19
697.885	54702.87
698.231	54714.17
698.577	54682.08
698.923	54561.86
699.269	54437.11
699.614	54464.01
699.96	54313.28
700.306	54355.31
700.651	54155.31
700.997	54069.44
701.342	54021.31
701.688	54010.46
702.033	53957.35
702.379	53926.39
702.724	53866.51
703.069	53873.06
703.415	53609.79
703.76	53547.87
704.105	53542.9
704.45	53387.42
704.795	53375.45
705.14	53251.83
705.485	53231.95
705.83	53037.15
706.175	53052.29
706.52	53057.26
706.865	52986.76
707.209	52848.68
707.554	52816.82
707.899	52816.37
708.243	52707.89
708.588	52645.75
708.932	52499.09
709.277	52534.11
709.621	52252.76
709.966	52060.23
710.31	52189.72
710.654	51957.41
710.998	52127.34
711.342	52053.9
711.687	51924.86
712.031	51872.21
712.375	51778.88
712.719	51717.19
713.063	51658.43
713.407	51820.91
713.75	51551.09
714.094	51421.83
714.438	51441.26
714.782	51367.14
715.125	51148.61
715.469	51397.65
715.812	51097.77
716.156	50998.79
716.499	51065.45
716.843	50986.58
717.186	50875.4
717.53	50999.46
717.873	51043.3
718.216	50943.65
718.559	50691.9
718.902	50521.06
719.246	50567.39
719.589	50485.81
719.932	50352.48
720.275	50381.85
720.617	50396.09
720.96	50331.01
721.303	50256.66
721.646	50346.15
721.989	50078.81
722.331	50128.53
722.674	50132.82
723.016	50044.23
723.359	49940.06
723.701	49869.78
724.044	49766.05
724.386	49575.32
724.729	49728.99
725.071	49729.89
725.413	49627.52
725.755	49459.17
726.097	49422.78
726.439	49309.79
726.782	49265.05
727.124	49450.13
727.465	49283.35
727.807	49164.71
728.149	49209
728.491	49060.31
728.833	49146.41
729.175	48896.24
729.516	48839.52
729.858	48865.06
730.199	48976.92
730.541	48854.21
730.882	48731.05
731.224	48703.93
731.565	48446.08
731.906	48718.39
732.248	48747.09
732.589	48359.53
732.93	48332.64
733.271	48370.38
733.612	48279.31
733.953	48387.56
734.294	48208.35
734.635	48118.86
734.976	48282.47
735.317	48107.79
735.658	48118.41
735.999	48054.68
736.339	47863.05
736.68	48007.9
737.021	47866.67
737.361	47844.07
737.702	48006.32
738.042	47702.15
738.383	47865.76
738.723	47779.21
739.063	47616.05
739.404	47694.24
739.744	47559.78
740.084	47516.84
740.424	47531.76
740.764	47462.61
741.104	47592.32
741.444	47289.05
741.784	47337.41
742.124	47369.28
742.464	47189.17
742.804	47123.63
743.143	47169.51
743.483	47100.36
743.823	47095.16
744.162	46926.58
744.502	47069.62
744.841	46843.64
745.181	46912.11
745.52	46714.38
745.86	46793.92
746.199	46603.42
746.538	46652.23
746.877	46751.67
747.216	46544.21
747.556	46519.36
747.895	46397.78
748.234	46351.9
748.573	46247.05
748.911	46179.7
749.25	46230.32
749.589	46022.65
749.928	46150.33
750.267	46211.34
750.605	46020.16
750.944	45969.77
751.283	45842.09
751.621	45854.06
751.96	45727.74
752.298	45621.75
752.636	45604.35
752.975	45476.9
753.313	45317.81
753.651	45424.92
753.989	45262.89
754.327	45261.54
754.666	44977.02
755.004	45121.2
755.342	45097.25
755.679	44940.19
756.017	44729.12
756.355	44781.1
756.693	44655.68
757.031	44726.86
757.368	44452.29
757.706	44404.38
758.044	44358.96
758.381	44302.92
758.719	44013.43
759.056	44198.96
759.394	43869.03
759.731	43674.23
760.068	43670.62
760.405	43725.53
760.743	43425.2
761.08	43477.4
761.417	43314.02
761.754	43091.2
762.091	43206.67
762.428	42862.05
762.765	42806.46
763.102	42899.56
763.438	42714.26
763.775	42455.73
764.112	42330.09
764.449	42451.44
764.785	42297.09
765.122	41982.75
765.458	41849.87
765.795	41800.38
766.131	41729.65
766.467	41600.39
766.804	41440.39
767.14	41215.54
767.476	41178.71
767.812	41108.42
768.148	41088.31
768.485	40937.13
768.821	40717.02
769.157	40653.52
769.492	40410.36
769.828	40460.53
770.164	40039.75
770.5	40015.12
770.836	40055.12
771.171	39628.46
771.507	39459.88
771.842	39387.79
772.178	39246.1
772.513	39180.34
772.849	39100.57
773.184	38991.19
773.519	38843.85
773.855	38606.57
774.19	38552.11
774.525	38238.44
774.86	38356.18
775.195	38231.66
775.53	38139.46
775.865	37730.89
776.2	37663.32
776.535	37399.82
776.87	37412.25
777.205	37325.02
777.539	37131.35
777.874	37055.65
778.209	36724.13
778.543	36844.81
778.878	36622.22
779.212	36602.78
779.547	36232.39
779.881	36279.63
780.215	36071.72
780.55	36076.47
780.884	35650.04
781.218	35679.19
781.552	35680.32
781.886	35490.49
782.22	35285.53
782.554	35003.95
782.888	34773
783.222	34737.97
783.556	34578.43
783.889	34533.23
784.223	34337.76
784.557	34317.64
784.89	34397.41
785.224	34002.4
785.557	33879.24
785.891	33821.16
786.224	33835.62
786.558	33699.81
786.891	33549.08
787.224	33354.28
787.557	33149.99
787.891	33109.31
788.224	32912.26
788.557	32923.78
788.89	32834.74
789.223	32793.39
789.556	32543.9
789.888	32617.8
790.221	32401.76
790.554	32151.82
790.887	32185.72
791.219	31926.29
791.552	31973.75
791.884	31749.35
792.217	31806.52
792.549	31611.95
792.882	31324.5
793.214	31415.8
793.546	31336.25
793.879	31073.66
794.211	30896.49
794.543	31096.71
794.875	30866.43
795.207	30847.23
795.539	30649.26
795.871	30728.13
796.203	30632.77
796.535	30372.21
796.867	30352.1
797.198	30128.6
797.53	30001.37
797.862	29908.27
798.193	29964.99
798.525	29777.88
798.856	29863.3
799.188	29440.93
799.519	29457.43
799.85	29299.02
800.182	29349.41
800.513	29334.72
800.844	28967.95
801.175	29242.75
801.506	29140.6
801.837	28890.67
802.168	28916.65
802.499	28853.61
802.83	28618.13
803.161	28507.4
803.491	28591.24
803.822	28653.84
804.153	28275.54
804.483	28152.38
804.814	27959.39
805.145	27979.05
805.475	28034.19
805.805	27855.44
806.136	27928.21
806.466	27727.99
806.796	27753.07
807.126	27493.42
807.457	27638.5
807.787	27417.49
808.117	27392.18
808.447	27313.31
808.777	27378.16
809.107	27098.62
809.436	27131.84
809.766	27021.34
810.096	27093.2
810.426	26909.93
810.755	26939.76
811.085	26823.38
811.414	26796.71
811.744	26582.93
812.073	26569.15
812.403	26460.45
812.732	26355.82
813.061	26463.61
813.39	26172.77
813.719	26224.3
814.049	26335.48
814.378	26243.05
814.707	25968.26
815.036	25989.73
815.365	25967.35
815.693	25789.96
816.022	25663.18
816.351	25733.01
816.68	25550.42
817.008	25732.11
817.337	25463.86
817.665	25395.17
817.994	25364.66
818.322	25439.01
818.651	25382.74
818.979	25155.85
819.307	25226.81
819.636	25141.16
819.964	25173.02
820.292	25154.04
820.62	25065.91
820.948	25077.43
821.276	25107.94
821.604	25074.5
821.932	25191.56
822.259	25079.24
822.587	25019.58
822.915	24992.24
823.243	25104.78
823.57	24989.07
823.898	25151.1
824.225	24976.42
824.553	24958.79
824.88	25048.28
825.207	25088.73
825.535	24918.79
825.862	25127.38
826.189	24910.66
826.516	25146.36
826.843	25099.35
827.17	25212.57
827.497	25140.71
827.824	25114.72
828.151	25182.06
828.478	24990.66
828.805	25099.58
829.131	24951.56
829.458	24990.88
829.785	24901.39
830.111	24988.85
830.438	25093.48
830.764	24935.74
831.09	25067.26
831.417	24829.3
831.743	24993.82
832.069	24897.33
832.395	24881.51
832.722	25026.14
833.048	24733.49
833.374	24920.6
833.7	24806.93
834.026	24802.64
834.351	24870.89
834.677	24899.13
835.003	24777.33
835.329	24794.73
835.654	24672.02
835.98	24629.31
836.306	24854.16
836.631	24698.46
836.956	24856.2
837.282	24729.19
837.607	24582.53
837.932	24612.36
838.258	24546.6
838.583	24464.79
838.908	24444.46
839.233	24509.31
839.558	24332.82
839.883	24276.32
840.208	24199.04
840.533	24207.63
840.858	24235.87
841.182	24188.42
841.507	24199.72
841.832	24039.27
842.156	24002.21
842.481	23984.36
842.805	24049.44
843.13	23829.33
843.454	23876.79
843.778	23797.69
844.103	23750.01
844.427	23644.93
844.751	23689.22
845.075	23481.32
845.399	23546.17
845.723	23341.21
846.047	23443.8
846.371	23303.7
846.695	23228.44
847.019	23087.88
847.343	22945.29
847.666	22966.3
847.99	22786.65
848.313	22697.61
848.637	22717.95
848.96	22658.06
849.284	22659.42
849.607	22443.6
849.931	22329.71
850.254	22198.19
850.577	22145.08
850.9	22011.3
851.223	21894.01
851.546	21812.89
851.869	21663.29
852.192	21923.39
852.515	21597.53
852.838	21417.42
853.161	21503.74
853.483	21282.05
853.806	21345.78
854.129	21193.02
854.451	21213.58
854.774	21066.69
855.096	21000.93
855.419	20980.37
855.741	20901.05
856.063	20732.92
856.385	20711.67
856.708	20659.02
857.03	20553.48
857.352	20571.11
857.674	20555.74
857.996	20485.69
858.318	20202.08
858.64	20400.95
858.961	20236.43
859.283	20233.27
859.605	20124.12
859.926	20105.81
860.248	20101.52
860.57	19915.99
860.891	19915.31
861.212	19851.58
861.534	19845.71
861.855	19660.85
862.176	19757.35
862.498	19848.64
862.819	19809.1
863.14	19647.52
863.461	19781.08
863.782	19648.65
864.103	19691.81
864.424	19522.78
864.745	19618.37
865.065	19417.92
865.386	19256.34
865.707	19424.48
866.027	19317.81
866.348	19392.16
866.668	19302.9
866.989	19268.32
867.309	19107.65
867.63	19133.41
867.95	19124.82
868.27	19073.52
868.59	19141.09
868.91	19012.06
869.23	18983.36
869.55	18863.59
869.87	19022
870.19	18862
870.51	18851.83
870.83	18786.98
871.15	18762.57
871.469	18743.36
871.789	18754.44
872.109	18766.19
872.428	18657.04
872.748	18728.67
873.067	18667.88
873.386	18594.67
873.706	18528.45
874.025	18426.54
874.344	18408.46
874.663	18552.41
874.982	18473.54
875.301	18411.17
875.62	18364.84
875.939	18257.95
876.258	18273.32
876.577	18181.34
876.896	18164.62
877.214	18126.88
877.533	18104.51
877.852	18159.2
878.17	18166.88
878.489	18095.47
878.807	18076.94
879.125	18033.1
879.444	17939.09
879.762	17921.46
880.08	17971.86
880.398	17899.32
880.716	17885.76
881.034	17775.48
881.352	17814.8
881.67	17747.46
881.988	17725.31
882.306	17620
882.624	17739.77
882.941	17553.11
883.259	17527.8
883.577	17570.29
883.894	17509.95
884.212	17471.31
884.529	17311.31
884.846	17242.61
885.164	17289.84
885.481	17225.44
885.798	17216.4
886.115	17187.02
886.432	17401.25
886.75	17192.44
887.067	17171.43
887.383	17009.4
887.7	17026.57
888.017	16902.96
888.334	16914.03
888.651	16909.51
888.967	16849.4
889.284	16723.76
889.6	16731.44
889.917	16741.83
890.233	16703.87
890.55	16542.97
890.866	16616.41
891.182	16578.22
891.498	16485.12
891.815	16361.96
892.131	16357.44
892.447	16243.77
892.763	16266.37
893.079	16221.4
893.395	16188.63
893.71	16140.72
894.026	16040.16
894.342	16043.55
894.657	15912.48
894.973	15963.55
895.289	15833.38
895.604	15886.72
895.92	15786.6
896.235	15676.55
896.55	15679.26
896.865	15665.7
897.181	15536.44
897.496	15517.01
897.811	15524.92
898.126	15458.25
898.441	15426.61
898.756	15510.23
899.071	15264.13
899.386	15213.74
899.7	15110.46
900.015	15026.62
900.33	14993.63
900.644	15062.78
900.959	14939.4
901.273	14884.26
901.588	14745.95
901.902	14819.4
902.216	14728.33
902.531	14675.45
902.845	14639.52
903.159	14531.27
903.473	14518.16
903.787	14362.46
904.101	14332.41
904.415	14446.75
904.729	14295.57
905.042	14168.34
905.356	14206.31
905.67	14083.15
905.984	14132.86
906.297	14075.69
906.611	13992.75
906.924	13936.71
907.237	13892.64
907.551	13897.84
907.864	13826.66
908.177	13813.1
908.491	13674.8
908.804	13564.29
909.117	13576.72
909.43	13421.7
909.743	13385.54
910.056	13396.84
910.368	13346.22
910.681	13249.04
910.994	13183.51
911.307	13212.89
911.619	13100.8
911.932	13003.63
912.244	12978.32
912.557	12990.97
912.869	12841.6
913.181	12798.43
913.494	12889.28
913.806	12787.59
914.118	12722.05
914.43	12681.38
914.742	12589.85
915.054	12550.76
915.366	12491.32
915.678	12426.69
915.99	12395.73
916.302	12270.54
916.613	12278.45
916.925	12240.71
917.236	12243.42
917.548	12120.03
917.859	12152.12
918.171	11997.55
918.482	11963.65
918.794	11922.53
919.105	11886.82
919.416	11768.41
919.727	11832.36
920.038	11776.99
920.349	11622.42
920.66	11600.95
920.971	11593.04
921.282	11518.92
921.593	11568.86
921.903	11415.87
922.214	11386.27
922.525	11312.37
922.835	11241.41
923.146	11177.46
923.456	11152.38
923.767	11128.87
924.077	11042.1
924.387	10977.69
924.697	11012.27
925.008	10953.51
925.318	10902.89
925.628	10885.72
925.938	10831.48
926.248	10766.85
926.558	10688.43
926.867	10646.63
927.177	10600.53
927.487	10575.67
927.796	10468.55
928.106	10469.91
928.416	10488.89
928.725	10407.54
929.034	10321.89
929.344	10386.97
929.653	10337.93
929.962	10267.88
930.271	10164.83
930.581	10177.94
930.89	10131.16
931.199	10038.06
931.508	10021.11
931.817	9982.69
932.125	9966.19
932.434	9854.33
932.743	9765.75
933.051	9816.37
933.36	9712.19
933.669	9730.94
933.977	9649.59
934.286	9618.63
934.594	9570.04
934.902	9476.94
935.21	9451.63
935.519	9454.79
935.827	9435.59
936.135	9397.62
936.443	9296.15
936.751	9276.49
937.059	9271.52
937.367	9185.87
937.674	9235.36
937.982	9175.25
938.29	9117.63
938.597	9073.56
938.905	8988.82
939.213	9016.39
939.52	9006.9
939.827	9008.03
940.135	8922.6
940.442	8822.49
940.749	8860.01
941.056	8812.1
941.363	8695.94
941.67	8668.83
941.977	8624.31
942.284	8544.54
942.591	8589.05
942.898	8629.28
943.205	8499.34
943.511	8460.02
943.818	8400.36
944.125	8343.41
944.431	8307.71
944.738	8353.81
945.044	8359.68
945.35	8279.68
945.657	8216.63
945.963	8176.64
946.269	8065.68
946.575	8068.84
946.881	8042.18
947.187	8044.21
947.493	7958.11
947.799	7973.02
948.105	7828.17
948.41	7904.1
948.716	7828.4
949.022	7801.05
949.327	7800.37
949.633	7698.46
949.938	7665.01
950.244	7693.71
950.549	7582.07
950.854	7541.17
951.16	7520.83
951.465	7521.29
951.77	7452.59
952.075	7434.06
952.38	7402.19
952.685	7359.03
952.99	7281.97
953.294	7337.34
953.599	7255.76
953.904	7229.09
954.209	7161.97
954.513	7165.14
954.818	7121.3
955.122	7135.53
955.426	7070.22
955.731	7034.97
956.035	7001.75
956.339	6928.98
956.643	6959.94
956.948	6893.96
957.252	6835.43
957.556	6825.71
957.86	6850.34
958.163	6790.23
958.467	6780.06
958.771	6789.1
959.075	6719.72
959.378	6647.64
959.682	6645.15
959.985	6624.36
960.289	6612.61
960.592	6599.28
960.896	6478.15
961.199	6528.99
961.502	6471.14
961.805	6460.75
962.108	6424.82
962.411	6400.41
962.714	6319.06
963.017	6260.53
963.32	6317.7
963.623	6266.4
963.926	6228.21
964.228	6218.72
964.531	6227.53
964.833	6200.19
965.136	6094.88
965.438	6072.06
965.741	6046.52
966.043	6070.02
966.345	6001.1
966.648	6006.3
966.95	6002.91
967.252	5944.6
967.554	5955
967.856	5863.48
968.158	5871.39
968.46	5778.73
968.761	5801.78
969.063	5757.49
969.365	5780.99
969.666	5711.84
969.968	5672.29
970.269	5659.87
970.571	5625.06
970.872	5612.63
971.174	5576.03
971.475	5549.36
971.776	5546.65
972.077	5504.62
972.378	5505.07
972.679	5466.65
972.98	5453.09
973.281	5449.93
973.582	5397.27
973.883	5350.49
974.183	5327.22
974.484	5354.79
974.785	5265.07
975.085	5267.79
975.386	5273.89
975.686	5209.03
975.986	5166.54
976.287	5213.55
976.587	5118.86
976.887	5106.43
977.187	5068.92
977.487	5033.67
977.787	5061.46
978.087	5023.95
978.387	4981.69
978.687	5014.68
978.987	4946.44
979.286	4941.01
979.586	4962.26
979.885	4917.96
980.185	4858.08
980.484	4864.63
980.784	4823.28
981.083	4829.38
981.382	4814.92
981.682	4805.2
981.981	4769.27
982.28	4706.44
982.579	4691.53
982.878	4660.12
983.177	4664.19
983.475	4686.11
983.774	4648.14
984.073	4598.65
984.372	4538.09
984.67	4552.55
984.969	4562.72
985.267	4545.32
985.566	4475.72
985.864	4442.95
986.162	4422.61
986.461	4408.15
986.759	4431.87
987.057	4385.1
987.355	4355.04
987.653	4349.17
987.951	4338.54
988.249	4287.02
988.547	4267.13
988.844	4209.28
989.142	4234.82
989.44	4218.1
989.737	4203.63
990.035	4188.49
990.332	4171.54
990.63	4120.24
990.927	4104.2
991.224	4162.5
991.521	4107.82
991.819	4071.43
992.116	4015.84
992.413	4045.67
992.71	3970.42
993.006	3996.63
993.303	3957.76
993.6	3962.06
993.897	3926.13
994.193	3913.24
994.49	3921.83
994.787	3843.87
995.083	3826.24
995.379	3820.59
995.676	3818.11
995.972	3806.35
996.268	3769.29
996.565	3737.66
996.861	3746.47
997.157	3724.1
997.453	3682.97
997.749	3675.06
998.044	3638.68
998.34	3592.12
998.636	3607.49
998.932	3568.17
999.227	3542.86
999.523	3541.95
999.818	3534.72
1000.114	3540.6
1000.409	3476.19
1000.704	3432.13
1001	3447.72
1001.295	3454.05
1001.59	3430.32
1001.885	3391.68
1002.18	3364.56
1002.475	3374.95
1002.77	3340.38
1003.065	3307.61
1003.359	3319.59
1003.654	3280.94
1003.949	3271
1004.243	3259.25
1004.538	3184.68
1004.832	3233.04
1005.127	3188.52
1005.421	3142.19
1005.715	3148.97
1006.009	3163.43
1006.304	3135.86
1006.598	3074.85
1006.892	3066.04
1007.186	3050.44
1007.48	3030.33
1007.773	2993.95
1008.067	2967.73
1008.361	2969.99
1008.655	2951.46
1008.948	2926.83
1009.242	2948.07
1009.535	2889.09
1009.829	2879.83
1010.122	2900.16
1010.415	2850.67
1010.708	2808.41
1011.001	2856.1
1011.295	2828.53
1011.588	2782.65
1011.881	2759.38
1012.173	2718.25
1012.466	2742.88
1012.759	2749.43
1013.052	2731.81
1013.344	2719.83
1013.637	2705.14
1013.93	2643
1014.222	2648.42
1014.514	2627.4
1014.807	2583.34
1015.099	2584.47
1015.391	2563.9
1015.683	2543.56
1015.976	2526.61
1016.268	2488.65
1016.56	2517.58
1016.851	2471.47
1017.143	2485.49
1017.435	2459.5
1017.727	2441.64
1018.018	2417.24
1018.31	2438.93
1018.602	2385.6
1018.893	2396.9
1019.185	2372.95
1019.476	2316
1019.767	2321.42
1020.058	2273.06
1020.35	2279.62
1020.641	2299.28
1020.932	2257.24
1021.223	2278.49
1021.514	2224.93
1021.804	2201.43
1022.095	2221.09
1022.386	2188.54
1022.677	2158.49
1022.967	2163.01
1023.258	2127.98
1023.548	2114.87
1023.839	2093.41
1024.129	2076
1024.419	2046.63
1024.709	2036.01
1025	2042.56
1025.29	2036.23
1025.58	2010.02
1025.87	1986.97
1026.16	1969.34
1026.449	1981.09
1026.739	1965.5
1027.029	1937.7
1027.319	1923.69
1027.608	1933.86
1027.898	1918.49
1028.187	1844.82
1028.477	1866.74
1028.766	1862
1029.055	1841.89
1029.344	1857.03
1029.634	1857.71
1029.923	1801.44
1030.212	1812.51
1030.501	1802.11
1030.79	1774.54
1031.078	1754.66
1031.367	1728.9
1031.656	1699.97
1031.945	1748.56
1032.233	1683.25
1032.522	1708.56
1032.81	1700.87
1033.099	1652.29
1033.387	1657.03
1033.675	1627.2
1033.963	1627.65
1034.251	1631.95
1034.54	1607.09
1034.828	1585.85
1035.116	1587.43
1035.403	1560.54
1035.691	1565.06
1035.979	1572.74
1036.267	1553.76
1036.554	1567.32
1036.842	1516.47
1037.129	1527.09
1037.417	1489.35
1037.704	1499.75
1037.992	1480.77
1038.279	1466.98
1038.566	1457.26
1038.853	1457.26
1039.14	1457.26
