Data from 12-0727_FLMS001491_006.txt Node
Date: Thu Apr 12 17:09:10 BST 2018
User: hsy
Spectrometer: FLMS00149
Trigger mode: 0
Integration Time (sec): 1.000000E-2
Scans to average: 10
Electric dark correction enabled: true
Nonlinearity correction enabled: false
Boxcar width: 0
XAxis mode: Wavelengths
Number of Pixels in Spectrum: 2048
>>>>>Begin Spectral Data<<<<<
341.393	-15.47
341.776	-15.47
342.16	-15.47
342.543	-45.52
342.927	-61.79
343.31	-77.16
343.693	-78.29
344.077	-73.77
344.46	-88.23
344.843	-37.84
345.226	-36.71
345.61	-28.35
345.993	-18.4
346.376	-0.78
346.759	30.63
347.142	32.67
347.525	41.93
347.908	54.14
348.291	74.02
348.674	106.34
349.057	99.79
349.44	132.33
349.823	140.01
350.206	182.72
350.588	273.11
350.971	266.79
351.354	269.5
351.737	294.58
352.119	298.42
352.502	316.5
352.884	330.06
353.267	353.56
353.65	342.49
354.032	354.92
354.414	337.07
354.797	362.6
355.179	372.55
355.562	384.07
355.944	400.57
356.326	386.33
356.709	388.82
357.091	393.34
357.473	402.15
357.855	400.34
358.238	384.75
358.62	393.79
359.002	406.44
359.384	423.17
359.766	370.06
360.148	391.08
360.53	397.63
360.912	401.25
361.294	411.42
361.676	401.25
362.057	411.42
362.439	398.53
362.821	383.39
363.203	387.46
363.584	362.38
363.966	401.25
364.348	389.5
364.729	390.63
365.111	409.61
365.493	402.6
365.874	385.43
366.256	368.48
366.637	370.51
367.019	385.2
367.4	383.85
367.781	367.35
368.163	392.89
368.544	388.59
368.925	393.79
369.306	373.68
369.688	393.11
370.069	376.84
370.45	401.47
370.831	378.87
371.212	364.41
371.593	398.08
371.974	364.19
372.355	390.17
372.736	387.46
373.117	395.6
373.498	372.55
373.879	375.94
374.26	390.17
374.641	383.62
375.021	392.21
375.402	415.03
375.783	409.38
376.163	412.55
376.544	408.03
376.925	407.8
377.305	408.7
377.686	410.96
378.066	408.93
378.447	402.83
378.827	409.16
379.208	416.84
379.588	421.81
379.968	405.54
380.349	420.91
380.729	432.88
381.109	437.18
381.489	425.43
381.87	414.35
382.25	426.78
382.63	417.07
383.01	452.09
383.39	445.99
383.77	427.91
384.15	434.24
384.53	430.62
384.91	466.56
385.29	447.57
385.67	482.83
386.049	461.13
386.429	471.98
386.809	448.25
387.189	497.52
387.568	482.37
387.948	456.84
388.328	457.74
388.707	470.85
389.087	477.85
389.466	492.09
389.846	483.5
390.225	456.84
390.605	482.6
390.984	492.77
391.363	496.39
391.743	531.19
392.122	525.99
392.501	510.85
392.881	524.18
393.26	524.86
393.639	515.37
394.018	552.88
394.397	525.54
394.776	513.33
395.155	554.69
395.534	544.29
395.913	537.29
396.292	536.38
396.671	533.67
397.05	547.01
397.429	539.32
397.808	556.27
398.186	540.45
398.565	570.96
398.944	569.38
399.323	582.26
399.701	572.32
400.08	571.41
400.458	583.61
400.837	591.07
401.215	573.22
401.594	598.53
401.972	593.78
402.351	592.65
402.729	613.44
403.107	621.58
403.486	613.67
403.864	612.54
404.242	611.86
404.62	639.66
404.999	636.95
405.377	620.22
405.755	639.66
406.133	664.74
406.511	650.05
406.889	660.22
407.267	673.33
407.645	682.6
408.023	689.6
408.401	679.88
408.779	710.39
409.156	722.37
409.534	720.33
409.912	731.63
410.29	748.81
410.667	736.15
411.045	734.8
411.422	750.84
411.8	769.37
412.178	789.94
412.555	781.12
412.933	809.6
413.31	798.98
413.687	809.15
414.065	807.56
414.442	803.72
414.819	842.82
415.197	826.32
415.574	883.95
415.951	849.6
416.328	863.61
416.705	874.23
417.082	882.36
417.46	892.31
417.837	899.09
418.214	900.67
418.591	918.52
418.967	913.32
419.344	932.31
419.721	940.22
420.098	939.31
420.475	958.97
420.852	954
421.228	956.71
421.605	969.37
421.982	989.25
422.358	978.63
422.735	993.55
423.111	998.07
423.488	1018.41
423.864	1042.36
424.241	1024.51
424.617	1064.51
424.994	1041.46
425.37	1032.42
425.746	1069.48
426.123	1057.5
426.499	1061.34
426.875	1105.41
427.251	1098.4
427.627	1097.73
428.003	1123.04
428.379	1133.66
428.756	1162.81
429.132	1167.1
429.507	1164.39
429.883	1162.81
430.259	1209.36
430.635	1207.33
431.011	1205.52
431.387	1224.5
431.763	1251.39
432.138	1257.72
432.514	1278.74
432.89	1322.8
433.265	1300.21
433.641	1316.25
434.016	1339.53
434.392	1351.05
434.767	1372.07
435.143	1389.02
435.518	1354.22
435.894	1384.95
436.269	1410.94
436.644	1416.36
437.02	1433.99
437.395	1461.78
437.77	1474.66
438.145	1489.13
438.52	1464.95
438.895	1501.33
439.271	1512.86
439.646	1518.28
440.021	1526.41
440.395	1535.91
440.77	1506.3
441.145	1571.39
441.52	1584.04
441.895	1575.45
442.27	1582.68
442.645	1598.28
443.019	1568.9
443.394	1599.18
443.769	1624.27
444.143	1638.95
444.518	1634.43
444.892	1629.91
445.267	1652.97
445.641	1676.47
446.016	1692.51
446.39	1685.28
446.764	1701.55
447.139	1684.38
447.513	1735.67
447.887	1735
448.262	1724.83
448.636	1749.46
449.01	1782.23
449.384	1795.79
449.758	1820.64
450.132	1813.64
450.506	1811.38
450.88	1857.71
451.254	1820.19
451.628	1907.42
452.002	1882.56
452.376	1923.01
452.75	1945.61
453.123	1956.69
453.497	1962.79
453.871	1987.19
454.244	2025.84
454.618	2030.81
454.992	2088.66
455.365	2079.85
455.739	2105.38
456.112	2122.33
456.486	2157.36
456.859	2193.97
457.232	2180.41
457.606	2205.04
457.979	2227.87
458.352	2307.86
458.725	2308.77
459.099	2353.74
459.472	2362.1
459.845	2407.75
460.218	2426.96
460.591	2450.68
460.964	2467.86
461.337	2505.6
461.71	2556.67
462.083	2609.1
462.456	2611.36
462.829	2612.49
463.201	2656.33
463.574	2657.23
463.947	2699.49
464.32	2708.76
464.692	2739.49
465.065	2791.69
465.438	2809.09
465.81	2852.48
466.183	2874.85
466.555	2953.5
466.928	2965.92
467.3	2958.24
467.672	2986.04
468.045	3077.33
468.417	3079.14
468.789	3077.33
469.161	3120.27
469.534	3165.92
469.906	3239.82
470.278	3272.81
470.65	3314.62
471.022	3352.81
471.394	3393.03
471.766	3429.64
472.138	3506.93
472.51	3581.28
472.882	3609.75
473.253	3669.41
473.625	3685.68
473.997	3784.21
474.369	3800.03
474.74	3853.13
475.112	3903.98
475.484	3969.74
475.855	4088.83
476.227	4045.67
476.598	4186.23
476.97	4288.15
477.341	4346.45
477.713	4423.29
478.084	4450.18
478.455	4594.36
478.827	4614.47
479.198	4789.83
479.569	4820.11
479.94	4923.39
480.311	4975.59
480.682	5073.89
481.053	5210.39
481.424	5280.44
481.795	5369.25
482.166	5546.42
482.537	5551.85
482.908	5703.93
483.279	5752.52
483.65	5934.43
484.021	6052.4
484.391	6114.32
484.762	6256.91
485.133	6356.8
485.503	6446.06
485.874	6647.64
486.244	6774.19
486.615	6919.27
486.985	7057.34
487.356	7165.14
487.726	7277.22
488.097	7498.24
488.467	7608.74
488.837	7804.22
489.207	7883.99
489.578	8134.15
489.948	8279.68
490.318	8457.76
490.688	8560.81
491.058	8794.47
491.428	8942.49
491.798	9034.01
492.168	9314.46
492.538	9485.53
492.908	9699.76
493.278	9918.06
493.648	9996.93
494.017	10244.38
494.387	10417.93
494.757	10665.38
495.126	10794.87
495.496	10959.61
495.866	11205.93
496.235	11391.92
496.605	11655.87
496.974	11808.4
497.344	12092.01
497.713	12320.71
498.082	12511.21
498.452	12680.02
498.821	12954.59
499.19	13139.44
499.559	13390.51
499.928	13585.98
500.298	13787.34
500.667	14044.96
501.036	14226.42
501.405	14571.04
501.774	14698.95
502.143	14992.05
502.512	15194.53
502.88	15448.53
503.249	15625.25
503.618	15858.24
503.987	16157.67
504.356	16394.05
504.724	16728.73
505.093	16827.03
505.462	17076.51
505.83	17325.55
506.199	17666.78
506.567	17986.77
506.936	18108.58
507.304	18556.7
507.672	18654.78
508.041	18884.38
508.409	19215.89
508.777	19452.05
509.145	19801.41
509.514	19883.22
509.882	20165.7
510.25	20341.06
510.618	20725.46
510.986	20822.18
511.354	21231.43
511.722	21503.74
512.09	21745.32
512.458	21890.4
512.826	22155.25
513.193	22331.97
513.561	22587.33
513.929	22870.49
514.297	23222.34
514.664	23371.94
515.032	23599.05
515.4	23807.18
515.767	24048.08
516.135	24268.87
516.502	24295.99
516.869	24808.74
517.237	25032.46
517.604	24962.18
517.972	25515.16
518.339	25728.94
518.706	25866.57
519.073	26126.45
519.44	26145.65
519.808	26764.4
520.175	26818.41
520.542	27187.43
520.909	27286.64
521.276	27567.09
521.643	27858.6
522.009	28194.19
522.376	28501.3
522.743	28595.76
523.11	29071.23
523.477	29285.46
523.843	29429.64
524.21	29912.33
524.577	30204.98
524.943	30389.16
525.31	30504.18
525.676	30912.99
526.043	31160.66
526.409	31345.52
526.776	31667.32
527.142	31978.5
527.508	32166.29
527.874	32490.12
528.241	32602.43
528.607	32796.33
528.973	33242.64
529.339	33214.17
529.705	33719.24
530.071	33804.21
530.437	34127.82
530.803	34356.96
531.169	34620.23
531.535	34642.61
531.901	34993.78
532.267	35039.43
532.632	35327.56
532.998	35613.43
533.364	35821.11
533.73	35912.86
534.095	36248.89
534.461	36179.06
534.826	36529.11
535.192	36622.44
535.557	36902.89
535.923	37059.94
536.288	37119.15
536.653	37366.15
537.019	37319.6
537.384	37541.74
537.749	37760.72
538.114	37906.93
538.479	37937.21
538.845	38051.78
539.21	38198.44
539.575	38476.18
539.94	38547.59
540.305	38748.49
540.67	38715.04
541.034	38863.06
541.399	38971.76
541.764	39050.63
542.129	39296.49
542.494	39440.22
542.858	39695.35
543.223	39553.89
543.587	39911.39
543.952	39830.04
544.316	39967.21
544.681	40072.07
545.045	40247.66
545.41	40324.72
545.774	40571.04
546.138	40461.44
546.503	40682.67
546.867	40789.79
547.231	41016.22
547.595	41213.05
547.959	41293.28
548.324	41411.24
548.688	41449.43
549.052	41648.98
549.416	41629.09
549.779	41806.94
550.143	41864.56
550.507	42225.91
550.871	42446.02
551.235	42303.65
551.599	42707.7
551.962	42828.15
552.326	42853.69
552.689	43003.29
553.053	42847.59
553.417	43165.77
553.78	43531.86
554.143	43639.88
554.507	43874.91
554.87	43938.63
555.234	44264.27
555.597	44007.11
555.96	44436.7
556.323	44633.76
556.686	44699.74
557.05	44857.93
557.413	44985.84
557.776	44986.74
558.139	45382.21
558.502	45495.43
558.865	45361.42
559.228	46004.79
559.59	45993.72
559.953	46070.33
560.316	46501.28
560.679	46531.56
561.041	46794.15
561.404	47024.43
561.767	47260.81
562.129	47167.02
562.492	47634.35
562.854	47682.72
563.217	47752.54
563.579	47911.64
563.941	48271.17
564.304	48423.71
564.666	48687.66
565.028	48732.18
565.39	48901.21
565.753	49051.27
566.115	49216.23
566.477	49428.43
566.839	49521.76
567.201	49903.9
567.563	49828.42
567.925	50031.81
568.287	50124.91
568.648	50339.37
569.01	50444.9
569.372	50781.16
569.734	50699.36
570.095	50969.41
570.457	51157.2
570.819	51227.25
571.18	51323.52
571.542	51443.75
571.903	51613.46
572.265	51749.05
572.626	51883.28
572.987	51836.28
573.349	52130.73
573.71	52234.69
574.071	52377.73
574.432	52508.58
574.794	52749.25
575.155	52717.84
575.516	52782.69
575.877	52970.49
576.238	52935.01
576.599	53068.11
576.96	53277.6
577.32	53305.17
577.681	53413.86
578.042	53539.51
578.403	53554.65
578.763	53629.68
579.124	53666.51
579.485	53892.27
579.845	54022.21
580.206	53910.12
580.566	53959.39
580.927	54048.65
581.287	54208.42
581.648	54186.27
582.008	54436.44
582.368	54365.93
582.728	54416.32
583.089	54432.59
583.449	54533.83
583.809	54521.18
584.169	54661.74
584.529	54687.05
584.889	54837.1
585.249	54680.95
585.609	54713.94
585.969	54946.48
586.329	54877.1
586.688	55035.52
587.048	55092.24
587.408	55028.06
587.768	55003.43
588.127	55122.52
588.487	55114.61
588.846	55382.63
589.206	55172.24
589.565	55277.54
589.925	55395.51
590.284	55374.04
590.643	55394.6
591.003	55526.35
591.362	55658.78
591.721	55570.42
592.08	55666.23
592.44	55769.28
592.799	55784.2
593.158	55840.47
593.517	55774.03
593.876	55959.11
594.235	55930.18
594.593	55968.82
594.952	56105.32
595.311	56088.82
595.67	56147.13
596.029	56296.73
596.387	56350.74
596.746	56376.72
597.104	56271.42
597.463	56303.73
597.822	56497.62
598.18	56456.5
598.538	56507.34
598.897	56705.08
599.255	56503.27
599.613	56935.35
599.972	56846.54
600.33	56899.87
600.688	56842.7
601.046	56874.11
601.404	57043.6
601.762	57070.94
602.12	57108.68
602.478	57184.39
602.836	57203.14
603.194	57124.73
603.552	57232.97
603.91	57245.63
604.268	57371.73
604.625	57366.53
604.983	57537.82
605.341	57427.09
605.698	57626.63
606.056	57756.8
606.413	57653.75
606.771	57805.84
607.128	57816.01
607.485	57820.75
607.843	57824.37
608.2	58036.57
608.557	58128.09
608.914	58054.87
609.272	58198.14
609.629	58269.1
609.986	58322.44
610.343	58285.6
610.7	58534.18
611.057	58487.18
611.414	58416.22
611.771	58579.6
612.127	58637.23
612.484	58736.66
612.841	58716.78
613.198	58685.14
613.554	58684.69
613.911	58885.81
614.267	58910.22
614.624	58926.94
614.98	59027.05
615.337	59198.12
615.693	59031.12
616.05	59182.98
616.406	59229.98
616.762	59251.68
617.118	59241.51
617.475	59230.43
617.831	59421.62
618.187	59429.07
618.543	59467.04
618.899	59591.78
619.255	59555.85
619.611	59513.14
619.967	59690.08
620.323	59687.82
620.678	59611.22
621.034	59656.64
621.39	59652.57
621.746	59688.73
622.101	59943.18
622.457	59691.44
622.812	59904.54
623.168	59893.92
623.523	59860.7
623.879	59951.77
624.234	59768.5
624.589	59924.2
624.945	59881.94
625.3	59983.86
625.655	59993.35
626.01	59973.92
626.365	60011.66
626.72	59971.88
627.075	59975.95
627.43	59979.34
627.785	59964.65
628.14	59995.16
628.495	60012.79
628.85	60043.97
629.205	59977.99
629.559	60093.91
629.914	59916.52
630.269	60019.57
630.623	59880.13
630.978	59924.65
631.332	60025.22
631.687	59963.3
632.041	59972.34
632.396	59903.18
632.75	59829.51
633.104	59933.47
633.459	59821.61
633.813	59809.18
634.167	59793.36
634.521	59777.09
634.875	59880.13
635.229	59754.04
635.583	59705.45
635.937	59645.11
636.291	59668.84
636.645	59679.91
636.999	59544.1
637.352	59626.13
637.706	59530.99
638.06	59615.96
638.413	59465.46
638.767	59460.48
639.121	59468.85
639.474	59375.06
639.828	59382.52
640.181	59355.63
640.534	59455.96
640.888	59294.16
641.241	59217.55
641.594	59291.45
641.947	59392.24
642.301	59296.2
642.654	59229.53
643.007	59178.46
643.36	59236.08
643.713	59088.97
644.066	59238.34
644.419	59081.51
644.771	58892.59
645.124	58579.83
645.477	58498.93
645.83	58474.3
646.182	58432.94
646.535	58404.69
646.888	58476.78
647.24	58432.71
647.593	58501.19
647.945	58390.46
648.298	58237.01
648.65	58169.9
649.002	58110.69
649.355	58091.93
649.707	58083.35
650.059	58021.43
650.411	58374.86
650.763	58402.43
651.115	58832.25
651.467	58655.99
651.819	58667.51
652.171	58620.28
652.523	58553.62
652.875	58538.93
653.227	58450.79
653.578	58633.16
653.93	58519.49
654.282	58424.81
654.633	58420.74
654.985	58398.14
655.337	58407.18
655.688	58378.93
656.039	58475.2
656.391	58212.16
656.742	58288.54
657.094	58278.59
657.445	58304.58
657.796	58305.94
658.147	58192.72
658.498	58249.22
658.849	58259.61
659.2	58166.96
659.551	58166.73
659.902	58269.1
660.253	58103.91
660.604	58137.81
660.955	58029.56
661.306	58157.92
661.656	58087.41
662.007	58081.76
662.358	58091.48
662.708	58086.74
663.059	58014.19
663.409	57898.72
663.76	58020.3
664.11	58022.1
664.461	58025.04
664.811	58030.47
665.161	57999.05
665.511	57870.7
665.862	57956.34
666.212	57946.63
666.562	57996.79
666.912	57931.94
667.262	57816.01
667.612	57849.68
667.962	57909.56
668.312	57854.2
668.662	57984.37
669.011	57903.69
669.361	57933.07
669.711	57958.38
670.06	57802.68
670.41	57724.71
670.76	57828.66
671.109	57908.66
671.459	57874.99
671.808	57750.93
672.157	57830.92
672.507	57675.9
672.856	57712.73
673.205	57759.51
673.554	57862.79
673.904	57774.65
674.253	57840.64
674.602	57708.67
674.951	57395
675.3	57265.06
675.649	57729.68
675.998	57718.38
676.346	57684.71
676.695	57691.04
677.044	57545.28
677.393	57681.77
677.741	57707.08
678.09	57608.78
678.438	57529.69
678.787	57566.07
679.135	57614.88
679.484	57501.21
679.832	57505.28
680.181	57439.97
680.529	57506.86
680.877	57423.48
681.225	57336.92
681.573	57583.47
681.922	57400.2
682.27	57330.37
682.618	57270.26
682.966	57231.62
683.314	57309.35
683.661	57283.59
684.009	57197.27
684.357	57146.65
684.705	57115.69
685.053	57157.95
685.4	56988.46
685.748	56957.73
686.095	56957.73
686.443	56856.26
686.79	56912.08
687.138	56919.99
687.485	56956.37
687.832	56839.99
688.18	56897.61
688.527	56731.97
688.874	56700.33
689.221	56677.96
689.568	56607.9
689.915	56514.35
690.262	56610.39
690.609	56493.33
690.956	56426.67
691.303	56396.84
691.65	56370.85
691.997	56279.1
692.344	56131.08
692.69	56148.93
693.037	56150.74
693.383	55891.09
693.73	56013.34
694.077	55893.8
694.423	55930.18
694.769	55764.54
695.116	55767.7
695.462	55627.59
695.808	55589.17
696.155	55715.72
696.501	55447.03
696.847	55539.23
697.193	55330.65
697.539	55357.77
697.885	55245.68
698.231	55099.7
698.577	55086.81
698.923	55049.98
699.269	54879.81
699.614	54880.04
699.96	54746.48
700.306	54775.41
700.651	54656.54
700.997	54638.92
701.342	54594.17
701.688	54532.03
702.033	54416.78
702.379	54407.74
702.724	54185.6
703.069	54305.59
703.415	54044.58
703.76	54040.51
704.105	54045.71
704.45	53913.29
704.795	53862.44
705.14	53749.22
705.485	53634.88
705.83	53541.54
706.175	53716.68
706.52	53531.15
706.865	53496.12
707.209	53402.56
707.554	53270.14
707.899	53329.57
708.243	53199.63
708.588	53118.5
708.932	53070.6
709.277	53022.91
709.621	52943.82
709.966	52749.93
710.31	52691.62
710.654	52640.78
710.998	52604.85
711.342	52655.69
711.687	52563.04
712.031	52406.88
712.375	52281.01
712.719	52289.15
713.063	52142.26
713.407	52243.05
713.75	52056.39
714.094	52177.74
714.438	51996.5
714.782	51964.18
715.125	51705.89
715.469	51901.14
715.812	51675.83
716.156	51625.44
716.499	51601.71
716.843	51511.77
717.186	51382.28
717.53	51553.57
717.873	51635.61
718.216	51465.89
718.559	51417.76
718.902	51049.18
719.246	51148.39
719.589	51069.29
719.932	50949.52
720.275	50918.34
720.617	50938
720.96	50856.87
721.303	50902.07
721.646	50858.9
721.989	50721.51
722.331	50701.84
722.674	50715.4
723.016	50592.92
723.359	50370.1
723.701	50512.92
724.044	50347.28
724.386	50203.33
724.729	50364.68
725.071	50263.66
725.413	50166.27
725.755	50052.37
726.097	49976.67
726.439	49831.59
726.782	49942.32
727.124	50072.26
727.465	49915.2
727.807	49759.5
728.149	49808.99
728.491	49615.77
728.833	49783.9
729.175	49621.2
729.516	49454.19
729.858	49598.6
730.199	49528.77
730.541	49465.95
730.882	49404.25
731.224	49436.34
731.565	49217.82
731.906	49221.21
732.248	49258.72
732.589	49109.12
732.93	48973.98
733.271	48952.74
733.612	49022.34
733.953	49075.45
734.294	48969.24
734.635	48767.21
734.976	48898.95
735.317	48646.98
735.658	48684.04
735.999	48607.21
736.339	48515.24
736.68	48583.26
737.021	48597.72
737.361	48430.27
737.702	48540.77
738.042	48430.72
738.383	48423.49
738.723	48419.64
739.063	48153.21
739.404	48260.78
739.744	48263.49
740.084	48209.03
740.424	48101.24
740.764	47993.22
741.104	48141.91
741.444	47928.36
741.784	47776.95
742.124	47927.91
742.464	47863.28
742.804	47757.74
743.143	47642.04
743.483	47809.04
743.823	47524.75
744.162	47520.46
744.502	47633.45
744.841	47338.32
745.181	47603.62
745.52	47260.81
745.86	47401.14
746.199	47278.66
746.538	47242.05
746.877	47353.68
747.216	47192.56
747.556	47110.3
747.895	47181.49
748.234	47143.52
748.573	46940.36
748.911	46747.37
749.25	46840.03
749.589	46637.54
749.928	46706.92
750.267	46759.12
750.605	46503.76
750.944	46556.87
751.283	46428.74
751.621	46499.47
751.96	46229.42
752.298	46369.98
752.636	46200.27
752.975	46205.01
753.313	46028.97
753.651	46230.1
753.989	45974.96
754.327	45885.7
754.666	45699.26
755.004	45691.58
755.342	45692.26
755.679	45701.52
756.017	45527.74
756.355	45539.27
756.693	45330.91
757.031	45454.07
757.368	45127.98
757.706	45120.52
758.044	44923.01
758.381	44946.06
758.719	44676.69
759.056	44916.91
759.394	44801.66
759.731	44306.98
760.068	44410.03
760.405	44404.16
760.743	44143.15
761.08	44071.51
761.417	43980.21
761.754	43774.12
762.091	43679.43
762.428	43627.68
762.765	43394.47
763.102	43464.52
763.438	43424.07
763.775	42894.37
764.112	42998.54
764.449	43087.13
764.785	42922.16
765.122	42613.7
765.458	42493.25
765.795	42497.99
766.131	42453.93
766.467	42206.47
766.804	41990.89
767.14	41966.26
767.476	41729.65
767.812	41770.78
768.148	41690.78
768.485	41467.74
768.821	41148.65
769.157	41098.71
769.492	41168.31
769.828	41023
770.164	40637.02
770.5	40659.85
770.836	40559.06
771.171	40344.83
771.507	40180.09
771.842	39956.14
772.178	40033.42
772.513	39786.65
772.849	39744.84
773.184	39496.04
773.519	39306.66
773.855	39192.32
774.19	39121.13
774.525	38866.22
774.86	38895.15
775.195	38741.93
775.53	38619.22
775.865	38339.46
776.2	38202.96
776.535	38011.11
776.87	37905.57
777.205	37750.77
777.539	37593.26
777.874	37743.54
778.209	37289.99
778.543	37374.06
778.878	37133.16
779.212	37007.29
779.547	36799.39
779.881	36906.73
780.215	36578.6
780.55	36640.75
780.884	36309
781.218	36193.53
781.552	36236.01
781.886	36122.57
782.22	35882.57
782.554	35796.47
782.888	35419.76
783.222	35294.11
783.556	35232.2
783.889	35091.18
784.223	34789.95
784.557	34859.78
784.89	34975.93
785.224	34618.88
785.557	34463.85
785.891	34289.62
786.224	34364.42
786.558	34283.07
786.891	33950.87
787.224	33857.09
787.557	33768.28
787.891	33720.6
788.224	33519.7
788.557	33584.55
788.89	33470.43
789.223	33394.96
789.556	33053.04
789.888	32961.97
790.221	32767.85
790.554	32646.73
790.887	32713.39
791.219	32607.41
791.552	32504.13
791.884	32282.89
792.217	32300.52
792.549	32053.97
792.882	31849.91
793.214	31897.59
793.546	31726.52
793.879	31627.54
794.211	31302.81
794.543	31579.86
794.875	31413.31
795.207	31275.24
795.539	31158.18
795.871	31189.82
796.203	30898.75
796.535	30682.94
796.867	30801.35
797.198	30517.06
797.53	30648.36
797.862	30390.97
798.193	30414.02
798.525	30201.59
798.856	30370.4
799.188	29860.58
799.519	29936.29
799.85	29630.76
800.182	29822.39
800.513	29775.16
800.844	29310.09
801.175	29567.94
801.506	29586.47
801.837	29267.15
802.168	29209.08
802.499	29182.86
802.83	29017.44
803.161	28831.91
803.491	28969.08
803.822	28953.94
804.153	28685.02
804.483	28489.77
804.814	28511.47
805.145	28507.63
805.475	28457.01
805.805	28269.21
806.136	28333.39
806.466	28203.68
806.796	28095.43
807.126	27864.25
807.457	27918.94
807.787	27896.79
808.117	27777.02
808.447	27762.79
808.777	27679.85
809.107	27487.09
809.436	27463.13
809.766	27461.78
810.096	27450.7
810.426	27314.21
810.755	27323.93
811.085	27094.1
811.414	27209.13
811.744	26924.62
812.073	26970.49
812.403	26878.52
812.732	26692.31
813.061	26858.4
813.39	26614.57
813.719	26460.9
814.049	26692.31
814.378	26608.47
814.707	26439.88
815.036	26431.07
815.365	26369.83
815.693	26155.37
816.022	26164.64
816.351	25964.64
816.68	25887.58
817.008	26016.17
817.337	25885.55
817.665	25725.1
817.994	25781.37
818.322	25835.61
818.651	25745.89
818.979	25650.53
819.307	25693.46
819.636	25468.38
819.964	25401.27
820.292	25546.8
820.62	25511.55
820.948	25527.37
821.276	25565.1
821.604	25476.07
821.932	25598.55
822.259	25467.25
822.587	25376.86
822.915	25457.99
823.243	25411.89
823.57	25333.7
823.898	25377.99
824.225	25375.28
824.553	25299.57
824.88	25334.6
825.207	25423.64
825.535	25253.7
825.862	25410.76
826.189	25245.11
826.516	25490.98
826.843	25474.49
827.17	25513.13
827.497	25445.33
827.824	25479.23
828.151	25631.77
828.478	25277.65
828.805	25487.37
829.131	25454.37
829.458	25419.57
829.785	25226.58
830.111	25303.64
830.438	25536.63
830.764	25310.2
831.09	25411.21
831.417	25237.2
831.743	25340.48
832.069	25256.64
832.395	25221.38
832.722	25340.93
833.048	25097.32
833.374	25296.86
833.7	25181.61
834.026	25300.03
834.351	25046.93
834.677	25159.47
835.003	25195.85
835.329	25158.34
835.654	25142.74
835.98	25006.7
836.306	25134.38
836.631	24982.3
836.956	25124.21
837.282	25139.81
837.607	25018.45
837.932	25005.8
838.258	24839.93
838.583	24824.33
838.908	24660.95
839.233	24835.41
839.558	24650.55
839.883	24651.91
840.208	24454.17
840.533	24600.84
840.858	24448.3
841.182	24547.73
841.507	24559.71
841.832	24364.01
842.156	24522.42
842.481	24475.87
842.805	24197.23
843.13	24154.97
843.454	24302.99
843.778	24136.67
844.103	24085.6
844.427	24001.08
844.751	24078.36
845.075	23931.93
845.399	23880.18
845.723	23830.46
846.047	23870.46
846.371	23630.47
846.695	23524.48
847.019	23522.45
847.343	23312.51
847.666	23260.31
847.99	23175.56
848.313	22976.02
848.637	23002.69
848.96	23017.83
849.284	22846.76
849.607	22754.78
849.931	22593.66
850.254	22511.4
850.577	22390.5
850.9	22262.82
851.223	22302.82
851.546	22297.62
851.869	22140.79
852.192	22201.8
852.515	21880.68
852.838	21761.81
853.161	21773.79
853.483	21679.11
853.806	21602.95
854.129	21630.52
854.451	21541.71
854.774	21341.49
855.096	21367.25
855.419	21223.98
855.741	21366.57
856.063	21117.99
856.385	21109.4
856.708	21148.95
857.03	20917.09
857.352	20907.37
857.674	20934.04
857.996	20797.55
858.318	20691.11
858.64	20752.58
858.961	20527.27
859.283	20581.28
859.605	20438.91
859.926	20517.55
860.248	20322.53
860.57	20194.17
860.891	20261.74
861.212	20279.14
861.534	20195.98
861.855	20092.71
862.176	20151.46
862.498	20062.2
862.819	20097.23
863.14	19953.95
863.461	19887.51
863.782	19876.67
864.103	19853.62
864.424	19796.89
864.745	19806.61
865.065	19679.61
865.386	19607.3
865.707	19650.23
866.027	19632.83
866.348	19496.34
866.668	19556.45
866.989	19544.47
867.309	19405.72
867.63	19365.49
867.95	19439.39
868.27	19236.91
868.59	19298.83
868.91	19360.75
869.23	19274.2
869.55	19159.17
869.87	19261.32
870.19	19135.22
870.51	19125.95
870.83	19109.46
871.15	19029.91
871.469	19076.24
871.789	19103.58
872.109	19029.01
872.428	18939.29
872.748	18990.14
873.067	18960.53
873.386	18933.41
873.706	18818.16
874.025	18740.88
874.344	18723.25
874.663	18714.21
874.982	18718.28
875.301	18785.17
875.62	18579.07
875.939	18594.21
876.258	18641.44
876.577	18483.03
876.896	18472.64
877.214	18495.46
877.533	18473.77
877.852	18431.51
878.17	18377.72
878.489	18346.09
878.807	18390.83
879.125	18308.12
879.444	18232.64
879.762	18181.57
880.08	18266.31
880.398	18069.48
880.716	18095.92
881.034	18123.72
881.352	18131.85
881.67	17989.03
881.988	17990.39
882.306	17958.75
882.624	17843.05
882.941	17859.09
883.259	17778.87
883.577	17793.11
883.894	17754.91
884.212	17776.16
884.529	17667.46
884.846	17617.97
885.164	17516.95
885.481	17471.31
885.798	17510.4
886.115	17427.69
886.432	17414.13
886.75	17380.24
887.067	17449.61
887.383	17361.7
887.7	17264.31
888.017	17161.26
888.334	17256.4
888.651	17079.45
888.967	17029.51
889.284	17026.35
889.6	17002.84
889.917	16840.81
890.233	16906.58
890.55	16814.15
890.866	16814.6
891.182	16715.85
891.498	16687.37
891.815	16634.94
892.131	16563.31
892.447	16604.66
892.763	16457.77
893.079	16447.6
893.395	16385.68
893.71	16266.14
894.026	16246.93
894.342	16198.8
894.657	16053.04
894.973	16046.03
895.289	16087.16
895.604	15978.69
895.92	15941.85
896.235	15940.72
896.55	15865.47
896.865	15854.63
897.181	15746.83
897.496	15827.51
897.811	15660.96
898.126	15572.37
898.441	15598.36
898.756	15602.43
899.071	15479.95
899.386	15501.87
899.7	15356.33
900.015	15308.88
900.33	15195.66
900.644	15162.89
900.959	15178.26
901.273	15052.84
901.588	15039.28
901.902	15026.62
902.216	14926.97
902.531	14914.09
902.845	14833.18
903.159	14656.24
903.473	14618.95
903.787	14554.55
904.101	14535.56
904.415	14558.16
904.729	14389.35
905.042	14428
905.356	14371.5
905.67	14279.07
905.984	14304.38
906.297	14196.36
906.611	14105.97
906.924	14082.47
907.237	14091.96
907.551	14004.05
907.864	14007.22
908.177	13884.73
908.491	13839.76
908.804	13765.64
909.117	13732.65
909.43	13597.28
909.743	13557.06
910.056	13628.02
910.368	13454.01
910.681	13444.75
910.994	13402.03
911.307	13366.56
911.619	13282.49
911.932	13336.05
912.244	13169.72
912.557	13210.4
912.869	13064.64
913.181	13091.76
913.494	13021.48
913.806	12878.66
914.118	12923.86
914.43	12832.78
914.742	12684.09
915.054	12715.27
915.366	12701.26
915.678	12622.62
915.99	12619.46
916.302	12415.17
916.613	12395.28
916.925	12428.73
917.236	12332.23
917.548	12239.35
917.859	12285.23
918.171	12175.17
918.482	12100.83
918.794	12084.1
919.105	11989.87
919.416	11982.64
919.727	11914.39
920.038	11874.62
920.349	11832.36
920.66	11763.89
920.971	11685.24
921.282	11705.58
921.593	11659.48
921.903	11561.86
922.214	11515.53
922.525	11488.86
922.835	11455.42
923.146	11354.18
923.456	11358.25
923.767	11274.18
924.077	11316.44
924.387	11211.36
924.697	11133.85
925.008	11126.16
925.318	11080.51
925.628	11072.6
925.938	10967.3
926.248	10981.99
926.558	10883
926.867	10818.6
927.177	10714.42
927.487	10725.95
927.796	10620.19
928.106	10701.77
928.416	10620.19
928.725	10561.88
929.034	10478.5
929.344	10506.52
929.653	10450.93
929.962	10336.8
930.271	10290.7
930.581	10275.34
930.89	10185.17
931.199	10201.21
931.508	10157.15
931.817	10119.41
932.125	10119.64
932.434	9932.52
932.743	9916.25
933.051	9954.89
933.36	9878.74
933.669	9811.17
933.977	9809.36
934.286	9837.61
934.594	9657.5
934.902	9662.02
935.21	9612.3
935.519	9617.28
935.827	9559.42
936.135	9408.69
936.443	9455.7
936.751	9422.25
937.059	9388.35
937.367	9344.06
937.674	9276.72
937.982	9208.7
938.29	9169.6
938.597	9219.32
938.905	9069.27
939.213	9088.48
939.52	9011.87
939.827	9116.72
940.135	8970.06
940.442	8891.64
940.749	8842.61
941.056	8858.88
941.363	8744.53
941.67	8806.9
941.977	8685.55
942.284	8613.91
942.591	8657.3
942.898	8566.23
943.205	8635.83
943.511	8569.39
943.818	8509.06
944.125	8463.86
944.431	8415.95
944.738	8372.79
945.044	8400.58
945.35	8304.32
945.657	8324.43
945.963	8290.08
946.269	8218.44
946.575	8175.05
946.881	8128.95
947.187	8105.9
947.493	8046.02
947.799	7964.89
948.105	7954.27
948.41	7901.16
948.716	7897.77
949.022	7907.04
949.327	7853.25
949.633	7693.71
949.938	7773.03
950.244	7711.11
950.549	7651
950.854	7665.46
951.16	7626.14
951.465	7547.05
951.77	7521.96
952.075	7552.24
952.38	7486.71
952.685	7451.68
952.99	7385.47
953.294	7350.89
953.599	7324.23
953.904	7294.62
954.209	7232.03
954.513	7258.02
954.818	7265.92
955.122	7223.44
955.426	7187.73
955.731	7136.66
956.035	7062.77
956.339	7096.44
956.643	7008.76
956.948	6976.67
957.252	6952.26
957.556	6959.72
957.86	6899.61
958.163	6883.34
958.467	6905.71
958.771	6840.63
959.075	6803.11
959.378	6738.03
959.682	6761.31
959.985	6707.3
960.289	6623.91
960.592	6641.53
960.896	6637.01
961.199	6575.77
961.502	6576.68
961.805	6538.94
962.108	6506.17
962.411	6504.59
962.714	6424.36
963.017	6363.58
963.32	6368.1
963.623	6324.48
963.926	6320.64
964.228	6280.64
964.531	6242.67
964.833	6225.95
965.136	6177.14
965.438	6158.61
965.741	6150.47
966.043	6130.81
966.345	6089.91
966.648	6032.28
966.95	6041.55
967.252	6034.09
967.554	5956.13
967.856	5929.01
968.158	5913.64
968.46	5892.18
968.761	5906.64
969.063	5842.69
969.365	5777.6
969.666	5829.13
969.968	5748
970.269	5732.18
970.571	5759.3
970.872	5712.07
971.174	5621.45
971.475	5610.38
971.776	5580.77
972.077	5595.69
972.378	5539.64
972.679	5551.17
972.98	5508
973.281	5505.07
973.582	5470.72
973.883	5453.09
974.183	5406.09
974.484	5354.79
974.785	5329.7
975.085	5343.26
975.386	5323.83
975.686	5279.76
975.986	5243.83
976.287	5256.03
976.587	5199.99
976.887	5221.68
977.187	5197.28
977.487	5140.78
977.787	5110.73
978.087	5085.64
978.387	5072.99
978.687	5075.47
978.987	5028.24
979.286	5017.85
979.586	4976.95
979.885	4939.66
980.185	4972.88
980.484	4916.16
980.784	4858.98
981.083	4881.35
981.382	4861.69
981.682	4823.73
981.981	4809.94
982.28	4814.01
982.579	4755.03
982.878	4741.47
983.177	4713.22
983.475	4696.73
983.774	4619.89
984.073	4659.21
984.372	4615.15
984.67	4636.16
984.969	4581.93
985.267	4554.81
985.566	4520.01
985.864	4504.19
986.162	4513.23
986.461	4440.91
986.759	4438.88
987.057	4382.38
987.355	4403.63
987.653	4397.75
987.951	4371.99
988.249	4335.15
988.547	4332.44
988.844	4283.86
989.142	4297.64
989.44	4264.42
989.737	4206.34
990.035	4247.02
990.332	4185.1
990.63	4217.42
990.927	4183.07
991.224	4114.14
991.521	4142.17
991.819	4093.13
992.116	4097.42
992.413	4040.92
992.71	3988.95
993.006	4012
993.303	4013.13
993.6	3976.52
993.897	3968.38
994.193	3928.84
994.49	3917.54
994.787	3898.33
995.083	3897.43
995.379	3853.36
995.676	3864.66
995.972	3806.58
996.268	3843.19
996.565	3753.47
996.861	3742.85
997.157	3764.1
997.453	3738.33
997.749	3679.8
998.044	3671.44
998.34	3703.31
998.636	3668.51
998.932	3615.17
999.227	3620.37
999.523	3632.8
999.818	3582.86
1000.114	3552.58
1000.409	3519.58
1000.704	3490.66
1001	3512.8
1001.295	3481.39
1001.59	3441.84
1001.885	3439.36
1002.18	3412.01
1002.475	3334.05
1002.77	3355.07
1003.065	3365.69
1003.359	3318.68
1003.654	3312.36
1003.949	3308.97
1004.243	3287.72
1004.538	3271.23
1004.832	3242.53
1005.127	3251.79
1005.421	3203.66
1005.715	3202.75
1006.009	3174.05
1006.304	3167.95
1006.598	3113.94
1006.892	3117.33
1007.186	3088.63
1007.48	3109.88
1007.773	3046.37
1008.067	3002.31
1008.361	3031.91
1008.655	3010.22
1008.948	3004.79
1009.242	2968.64
1009.535	2937.9
1009.829	2926.83
1010.122	2912.59
1010.415	2900.84
1010.708	2885.02
1011.001	2854.06
1011.295	2846.38
1011.588	2813.16
1011.881	2790.56
1012.173	2780.84
1012.466	2750.56
1012.759	2766.83
1013.052	2718.7
1013.344	2717.8
1013.637	2689.77
1013.93	2695.88
1014.222	2634.41
1014.514	2633.96
1014.807	2624.24
1015.099	2640.74
1015.391	2603.9
1015.683	2601.87
1015.976	2562.09
1016.268	2548.76
1016.56	2542.21
1016.851	2516.45
1017.143	2531.59
1017.435	2477.8
1017.727	2463.79
1018.018	2449.1
1018.31	2442.1
1018.602	2421.98
1018.893	2376.56
1019.185	2410.46
1019.476	2411.36
1019.767	2351.25
1020.058	2347.18
1020.35	2301.99
1020.641	2309.22
1020.932	2278.49
1021.223	2266.73
1021.514	2247.07
1021.804	2265.83
1022.095	2238.26
1022.386	2193.74
1022.677	2186.96
1022.967	2172.5
1023.258	2153.97
1023.548	2129.11
1023.839	2113.07
1024.129	2103.57
1024.419	2094.08
1024.709	2098.83
1025	2062.9
1025.29	2045.27
1025.58	2056.34
1025.87	2032.62
1026.16	2038.72
1026.449	2006.18
1026.739	1996.68
1027.029	1945.61
1027.319	1925.27
1027.608	1965.95
1027.898	1927.31
1028.187	1913.52
1028.477	1901.77
1028.766	1877.37
1029.055	1892.51
1029.344	1818.84
1029.634	1852.51
1029.923	1838.95
1030.212	1771.38
1030.501	1796.69
1030.79	1766.86
1031.078	1784.94
1031.367	1775.22
1031.656	1757.6
1031.945	1739.52
1032.233	1710.59
1032.522	1709.91
1032.81	1711.95
1033.099	1690.03
1033.387	1677.6
1033.675	1684.38
1033.963	1636.92
1034.251	1630.37
1034.54	1623.36
1034.828	1653.19
1035.116	1610.93
1035.403	1601.44
1035.691	1590.14
1035.979	1582.68
1036.267	1541.33
1036.554	1585.4
1036.842	1553.08
1037.129	1533.65
1037.417	1515.34
1037.704	1512.86
1037.992	1501.1
1038.279	1478.96
1038.566	1442.12
1038.853	1442.12
1039.14	1442.12
