Data from 12-0727_FLMS001491_010.txt Node
Date: Thu Apr 12 17:09:17 BST 2018
User: hsy
Spectrometer: FLMS00149
Trigger mode: 0
Integration Time (sec): 1.000000E-2
Scans to average: 10
Electric dark correction enabled: true
Nonlinearity correction enabled: false
Boxcar width: 0
XAxis mode: Wavelengths
Number of Pixels in Spectrum: 2048
>>>>>Begin Spectral Data<<<<<
341.393	-13.11
341.776	-13.11
342.16	-13.11
342.543	-56.5
342.927	-66.89
343.31	-71.86
343.693	-98.75
344.077	-66.89
344.46	-59.89
344.843	-39.55
345.226	-36.84
345.61	-28.93
345.993	-26.89
346.376	-18.76
346.759	24.86
347.142	31.86
347.525	28.93
347.908	65.76
348.291	84.97
348.674	101.47
349.057	110.51
349.44	122.93
349.823	146.44
350.206	172.2
350.588	209.03
350.971	247.45
351.354	248.81
351.737	287
352.119	302.36
352.502	293.1
352.884	318.18
353.267	318.86
353.65	315.47
354.032	341.69
354.414	340.1
354.797	341.46
355.179	355.92
355.562	381.68
355.944	365.19
356.326	376.49
356.709	374.68
357.091	388.24
357.473	374
357.855	383.04
358.238	390.05
358.62	375.13
359.002	358.41
359.384	367.9
359.766	379.65
360.148	389.59
360.53	387.79
360.912	389.82
361.294	386.66
361.676	378.75
362.057	377.84
362.439	383.49
362.821	374
363.203	369.26
363.584	370.61
363.966	388.92
364.348	383.72
364.729	369.71
365.111	348.92
365.493	364.06
365.874	359.31
366.256	371.06
366.637	365.41
367.019	370.61
367.4	368.8
367.781	380.78
368.163	378.97
368.544	374.45
368.925	355.02
369.306	363.38
369.688	352.08
370.069	378.52
370.45	364.74
370.831	369.03
371.212	363.83
371.593	379.43
371.974	376.04
372.355	362.25
372.736	381.23
373.117	370.84
373.498	365.19
373.879	376.94
374.26	389.82
374.641	384.4
375.021	389.37
375.402	390.27
375.783	391.18
376.163	403.38
376.544	399.99
376.925	376.04
377.305	382.14
377.686	402.25
378.066	387.79
378.447	411.06
378.827	413.32
379.208	409.48
379.588	405.41
379.968	386.88
380.349	418.52
380.729	411.29
381.109	392.53
381.489	417.62
381.87	405.87
382.25	429.82
382.63	406.99
383.01	409.93
383.39	446.54
383.77	414.68
384.15	442.7
384.53	440.89
384.91	434.79
385.29	453.77
385.67	449.03
386.049	454
386.429	458.52
386.809	433.21
387.189	466.88
387.568	468.01
387.948	455.58
388.328	452.42
388.707	469.82
389.087	468.01
389.466	452.87
389.846	454.45
390.225	477.5
390.605	490.83
390.984	476.82
391.363	501.91
391.743	485.18
392.122	497.39
392.501	489.03
392.881	500.78
393.26	505.75
393.639	515.24
394.018	523.6
394.397	496.71
394.776	499.87
395.155	523.15
395.534	538.74
395.913	495.58
396.292	532.42
396.671	543.04
397.05	537.16
397.429	544.62
397.808	541.68
398.186	531.29
398.565	521.34
398.944	562.92
399.323	541.91
399.701	563.38
400.08	532.87
400.458	556.82
400.837	562.25
401.215	572.19
401.594	578.97
401.972	579.65
402.351	578.06
402.729	563.38
403.107	572.41
403.486	583.71
403.864	581
404.242	610.61
404.62	611.96
404.999	616.03
405.377	637.95
405.755	635.24
406.133	620.77
406.511	618.51
406.889	640.89
407.267	673.65
407.645	648.12
408.023	644.73
408.401	661.23
408.779	664.16
409.156	689.7
409.534	680.89
409.912	698.96
410.29	708.23
410.667	706.2
411.045	712.75
411.422	741
411.8	738.51
412.178	744.16
412.555	763.82
412.933	775.57
413.31	794.56
413.687	791.39
414.065	799.98
414.442	804.5
414.819	827.32
415.197	818.51
415.574	813.31
415.951	839.3
416.328	848.79
416.705	842.46
417.082	871.39
417.46	880.43
417.837	856.93
418.214	888.34
418.591	879.75
418.967	889.69
419.344	906.19
419.721	904.38
420.098	901.67
420.475	936.47
420.852	927.43
421.228	934.89
421.605	961.78
421.982	962.01
422.358	968.34
422.735	974.66
423.111	983.93
423.488	985.96
423.864	967.66
424.241	1007.88
424.617	1004.49
424.994	1045.4
425.37	1023.93
425.746	1024.38
426.123	1049.69
426.499	1057.6
426.875	1053.08
427.251	1061.22
427.627	1083.36
428.003	1072.51
428.379	1096.92
428.756	1133.3
429.132	1137.82
429.507	1140.76
429.883	1146.41
430.259	1187.31
430.635	1163.59
431.011	1184.15
431.387	1216.24
431.763	1234.54
432.138	1208.1
432.514	1219.18
432.89	1214.66
433.265	1272.51
433.641	1275.9
434.016	1300.98
434.392	1307.99
434.767	1313.86
435.143	1341.43
435.518	1349.57
435.894	1347.08
436.269	1395.9
436.644	1396.35
437.02	1397.03
437.395	1373.98
437.77	1392.73
438.145	1407.65
438.52	1449.45
438.895	1440.87
439.271	1433.63
439.646	1483.58
440.021	1479.06
440.395	1518.38
440.77	1505.05
441.145	1522.45
441.52	1517.7
441.895	1528.1
442.27	1522.9
442.645	1546.63
443.019	1577.13
443.394	1555.67
443.769	1587.08
444.143	1560.64
444.518	1569.68
444.892	1609
445.267	1602.22
445.641	1624.36
446.016	1601.99
446.39	1678.15
446.764	1654.42
447.139	1650.13
447.513	1649.22
447.887	1675.44
448.262	1660.07
448.636	1706.17
449.01	1717.02
449.384	1737.58
449.758	1734.64
450.132	1776
450.506	1760.63
450.88	1795.88
451.254	1803.79
451.628	1820.52
452.002	1828.2
452.376	1882.44
452.75	1881.76
453.123	1860.29
453.497	1917.92
453.871	1907.52
454.244	1970.12
454.618	1963.11
454.992	1975.09
455.365	2012.6
455.739	2051.25
456.112	2069.1
456.486	2100.51
456.859	2097.8
457.232	2152.03
457.606	2174.86
457.979	2199.49
458.352	2235.42
458.725	2241.07
459.099	2270.67
459.472	2281.07
459.845	2307.74
460.218	2385.47
460.591	2371.24
460.964	2409.88
461.337	2420.95
461.71	2452.82
462.083	2508.63
462.456	2486.94
462.829	2531.68
463.201	2601.06
463.574	2571.01
463.947	2581.4
464.32	2641.06
464.692	2656.65
465.065	2669.08
465.438	2742.98
465.81	2766.48
466.183	2788.4
466.555	2820.26
466.928	2891.22
467.3	2868.63
467.672	2889.64
468.045	2949.53
468.417	2998.57
468.789	3014.61
469.161	3023.42
469.534	3084.66
469.906	3191.78
470.278	3193.59
470.65	3204.21
471.022	3276.75
471.394	3290.31
471.766	3324.43
472.138	3384.54
472.51	3466.12
472.882	3498.67
473.253	3546.35
473.625	3583.63
473.997	3639.45
474.369	3669.73
474.74	3747.02
475.112	3777.75
475.484	3861.14
475.855	3932.55
476.227	3964.87
476.598	4058.65
476.97	4140.46
477.341	4194.69
477.713	4259.77
478.084	4305.2
478.455	4455.93
478.827	4422.48
479.198	4591.29
479.569	4641.01
479.94	4768.91
480.311	4773.21
480.682	4942.92
481.053	5092.3
481.424	5115.57
481.795	5215.46
482.166	5286.19
482.537	5366.86
482.908	5499.97
483.279	5582.9
483.65	5757.14
484.021	5834.42
484.391	5995.55
484.762	6011.82
485.133	6168.2
485.503	6247.97
485.874	6369.32
486.244	6534.52
486.615	6692.93
486.985	6792.36
487.356	6948.74
487.726	7013.15
488.097	7246.36
488.467	7330.88
488.837	7559.8
489.207	7640.03
489.578	7788.27
489.948	8006.34
490.318	8086.79
490.688	8306
491.058	8474.35
491.428	8666.44
491.798	8803.84
492.168	8979.88
492.538	9135.35
492.908	9414.89
493.278	9558.17
493.648	9710.48
494.017	9915.45
494.387	10190.92
494.757	10345.94
495.126	10544.58
495.496	10682.66
495.866	10865.25
496.235	11107.96
496.605	11236.77
496.974	11434.28
497.344	11717.88
497.713	11921.27
498.082	12032.45
498.452	12340.92
498.821	12556.51
499.19	12709.27
499.559	12892.77
499.928	13228.13
500.298	13375.47
500.667	13638.96
501.036	13757.15
501.405	14033.53
501.774	14276.23
502.143	14447.98
502.512	14770.91
502.88	15079.15
503.249	15182.65
503.618	15526.15
503.987	15628.29
504.356	15994.16
504.724	16166.13
505.093	16348.72
505.462	16659.45
505.83	16927.92
506.199	17184.18
506.567	17479.31
506.936	17659.2
507.304	18042.01
507.672	18258.73
508.041	18434.09
508.409	18615.78
508.777	19005.38
509.145	19270
509.514	19465.02
509.882	19683.32
510.25	19876.09
510.618	20116.99
510.986	20337.09
511.354	20577.54
511.722	20871.54
512.09	21316.28
512.458	21218.88
512.826	21684.63
513.193	21802.14
513.561	22138.85
513.929	22266.53
514.297	22640.76
514.664	22791.04
515.032	23026.51
515.4	23335.21
515.767	23443.45
516.135	23687.96
516.502	23575.88
516.869	24221.51
517.237	24329.3
517.604	24508.06
517.972	24896.29
518.339	25077.53
518.706	25260.35
519.073	25456.96
519.44	25638.42
519.808	25989.83
520.175	26109.14
520.542	26606.53
520.909	26747.55
521.276	26861.89
521.643	27239.51
522.009	27501.2
522.376	27801.3
522.743	27867.52
523.11	28307.96
523.477	28626.14
523.843	28762.18
524.21	29127.37
524.577	29329.4
524.943	29644.87
525.31	29853.45
525.676	30141.58
526.043	30401.23
526.409	30643.26
526.776	30997.15
527.142	31128.22
527.508	31345.84
527.874	31657.7
528.241	31880.07
528.607	32062.21
528.973	32421.75
529.339	32488.64
529.705	32894.5
530.071	33164.78
530.437	33327.49
530.803	33699.45
531.169	33870.52
531.535	33904.42
531.901	34025.77
532.267	34274.58
532.632	34595.02
532.998	34728.35
533.364	34884.05
533.73	34976.03
534.095	35353.19
534.461	35499.18
534.826	35702.34
535.192	35758.16
535.557	36121.99
535.923	36098.49
536.288	36496.22
536.653	36542.99
537.019	36541.86
537.384	36856.43
537.749	36994.73
538.114	37105.24
538.479	37150.89
538.845	37454.16
539.21	37358.11
539.575	37525.79
539.94	37696.86
540.305	37863.19
540.67	37864.54
541.034	38102.95
541.399	38249.84
541.764	38133.46
542.129	38441.02
542.494	38697.51
542.858	38821.35
543.223	38714.69
543.587	38887.34
543.952	39021.35
544.316	39222.25
544.681	39067.9
545.045	39464.95
545.41	39564.84
545.774	39559.19
546.138	39800.54
546.503	39863.36
546.867	40138.15
547.231	40191.03
547.595	40332.05
547.959	40553.28
548.324	40495.21
548.688	40602.32
549.052	40929.09
549.416	40722.09
549.779	40848.87
550.143	41217.67
550.507	41395.07
550.871	41511
551.235	41431.23
551.599	41893.81
551.962	41809.97
552.326	42093.58
552.689	42104.66
553.053	41929.74
553.417	42278.44
553.78	42761.14
554.143	42667.35
554.507	42775.82
554.87	43064.4
555.234	43270.5
555.597	43106.44
555.96	43265.3
556.323	43563.83
556.686	43585.52
557.05	44005.62
557.413	44233.19
557.776	44100.99
558.139	44470.7
558.502	44691.48
558.865	44803.57
559.228	44999.04
559.59	45081.3
559.953	45329.88
560.316	45810.32
560.679	45715.41
561.041	45926.7
561.404	46205.11
561.767	46513.13
562.129	46401.72
562.492	46717.87
562.854	46751.99
563.217	46812.33
563.579	47081.25
563.941	47266.1
564.304	47474.23
564.666	47727.33
565.028	47695.7
565.39	47981.79
565.753	48215.68
566.115	48331.61
566.477	48499.74
566.839	48673.07
567.201	49074.64
567.563	48952.39
567.925	49254.75
568.287	49330.91
568.648	49497.23
569.01	49750.56
569.372	50041.17
569.734	50039.14
570.095	50176.99
570.457	50367.04
570.819	50400.48
571.18	50305.57
571.542	50720.7
571.903	50715.5
572.265	50938.32
572.626	51093.8
572.987	51166.11
573.349	51360.23
573.71	51496.5
574.071	51573.11
574.432	51749.83
574.794	51985.3
575.155	51960.44
575.516	52089.03
575.877	52134.45
576.238	52235.69
576.599	52406.76
576.96	52421.45
577.32	52521.56
577.681	52580.09
578.042	52837.93
578.403	52839.06
578.763	52869.57
579.124	52931.94
579.485	53151.6
579.845	53361.53
580.206	53315.89
580.566	53324.25
580.927	53369.67
581.287	53483.34
581.648	53488.09
582.008	53686.72
582.368	53640.4
582.728	53669.55
583.089	53701.86
583.449	53857.11
583.809	53870
584.169	53941.41
584.529	53939.15
584.889	54191.8
585.249	54020.73
585.609	53974.63
585.969	54286.03
586.329	54153.15
586.688	54347.5
587.048	54298.46
587.408	54312.7
587.768	54470.43
588.127	54422.07
588.487	54441.73
588.846	54733.7
589.206	54435.18
589.565	54520.15
589.925	54717.21
590.284	54716.75
590.643	54797.66
591.003	54798.56
591.362	54980.7
591.721	55058.44
592.08	54954.71
592.44	55104.09
592.799	55188.83
593.158	55179.11
593.517	55102.28
593.876	55291.2
594.235	55242.62
594.593	55278.32
594.952	55372.1
595.311	55422.5
595.67	55508.82
596.029	55603.06
596.387	55698.87
596.746	55774.35
597.104	55590.63
597.463	55634.7
597.822	55796.05
598.18	55814.35
598.538	55811.64
598.897	56039.43
599.255	55850.96
599.613	56245.07
599.972	56064.06
600.33	56170.95
600.688	56171.18
601.046	56183.38
601.404	56445.75
601.762	56384.96
602.12	56527.78
602.478	56519.19
602.836	56551.96
603.194	56471.51
603.552	56542.02
603.91	56506.76
604.268	56662.01
604.625	56643.93
604.983	56817.94
605.341	56623.82
605.698	56918.96
606.056	57012.51
606.413	56925.06
606.771	57082.79
607.128	57070.82
607.485	57132.28
607.843	57122.57
608.2	57287.31
608.557	57372.5
608.914	57293.18
609.272	57428.32
609.629	57570.69
609.986	57617.24
610.343	57577.7
610.7	57755.77
611.057	57749.89
611.414	57718.26
611.771	57882.55
612.127	57882.77
612.484	57929.78
612.841	57952.37
613.198	57922.54
613.554	57935.2
613.911	58196.89
614.267	58188.3
614.624	58157.11
614.98	58248.19
615.337	58436.43
615.693	58358.01
616.05	58469.65
616.406	58520.5
616.762	58534.05
617.118	58511.68
617.475	58546.26
617.831	58695.18
618.187	58629.87
618.543	58795.29
618.899	58876.19
619.255	58822.18
619.611	58788.96
619.967	58929.3
620.323	58995.28
620.678	58899.24
621.034	58926.13
621.39	58876.87
621.746	58887.72
622.101	59167.48
622.457	59013.36
622.812	59133.36
623.168	59200.93
623.523	59164.55
623.879	59275.05
624.234	59113.25
624.589	59271.66
624.945	59298.55
625.3	59329.74
625.655	59339
626.01	59341.26
626.365	59378.1
626.72	59282.06
627.075	59278.44
627.43	59294.94
627.785	59312.34
628.14	59332.45
628.495	59394.37
628.85	59412
629.205	59294.49
629.559	59393.24
629.914	59272.34
630.269	59271.44
630.623	59181.27
630.978	59142.63
631.332	59363.41
631.687	59329.06
632.041	59259.68
632.396	59299.46
632.75	59178.78
633.104	59309.4
633.459	59120.48
633.813	59113.02
634.167	59162.96
634.521	59088.39
634.875	59191.44
635.229	59089.29
635.583	58955.51
635.937	58948.05
636.291	58964.55
636.645	58981.5
636.999	58830.77
637.352	58968.84
637.706	58764.78
638.06	58877.32
638.413	58878.68
638.767	58762.97
639.121	58863.99
639.474	58701.06
639.828	58700.15
640.181	58709.87
640.534	58733.82
640.888	58675.29
641.241	58458.8
641.594	58519.14
641.947	58641.85
642.301	58548.74
642.654	58577.89
643.007	58480.5
643.36	58537.44
643.713	58442.76
644.066	58568.18
644.419	58392.59
644.771	58111.47
645.124	57913.96
645.477	57852.04
645.83	57770.91
646.182	57781.98
646.535	57666.96
646.888	57723.23
647.24	57638.94
647.593	57737.01
647.945	57693.17
648.298	57578.15
648.65	57458.6
649.002	57374.31
649.355	57416.12
649.707	57292.73
650.059	57342.9
650.411	57633.96
650.763	57733.4
651.115	58105.36
651.467	57928.65
651.819	57894.75
652.171	57909.44
652.523	57817.01
652.875	57822.21
653.227	57689.56
653.578	57874.64
653.93	57738.37
654.282	57669.9
654.633	57621.54
654.985	57673.96
655.337	57649.78
655.688	57678.94
656.039	57709.67
656.391	57507.87
656.742	57539.73
657.094	57509.45
657.445	57608.65
657.796	57626.06
658.147	57501.99
658.498	57445.95
658.849	57577.92
659.2	57373.63
659.551	57345.16
659.902	57506.28
660.253	57412.5
660.604	57442.11
660.955	57283.92
661.306	57443.46
661.656	57303.35
662.007	57359.85
662.358	57325.27
662.708	57421.77
663.059	57220.19
663.409	57181.1
663.76	57289.57
664.11	57303.58
664.461	57378.6
664.811	57324.82
665.161	57258.38
665.511	57233.07
665.862	57254.09
666.212	57319.85
666.562	57243.24
666.912	57252.05
667.262	57132.28
667.612	57172.73
667.962	57236.69
668.312	57198.95
668.662	57204.6
669.011	57157.37
669.361	57167.99
669.711	57146.75
670.06	57099.52
670.41	57042.79
670.76	57040.08
671.109	57092.51
671.459	57078.27
671.808	56922.35
672.157	57042.34
672.507	56938.39
672.856	57030.14
673.205	57023.81
673.554	57039.4
673.904	56958.28
674.253	57204.37
674.602	56935.9
674.951	56520.32
675.3	56509.02
675.649	56996.24
675.998	56929.58
676.346	56964.38
676.695	56971.16
677.044	56788.56
677.393	56867.88
677.741	56918.96
678.09	56863.82
678.438	56839.86
678.787	56888
679.135	56840.09
679.484	56748.79
679.832	56880.54
680.181	56765.51
680.529	56768.68
680.877	56647.78
681.225	56668.79
681.573	56852.52
681.922	56679.64
682.27	56593.09
682.618	56613.43
682.966	56555.35
683.314	56553.09
683.661	56492.53
684.009	56406.2
684.357	56486.65
684.705	56297.95
685.053	56377.27
685.4	56356.03
685.748	56252.53
686.095	56237.84
686.443	56129.6
686.79	56143.16
687.138	56151.29
687.485	56194.68
687.832	56111.74
688.18	56050.28
688.527	56038.53
688.874	55978.42
689.221	55990.84
689.568	55866.55
689.915	55816.39
690.262	55880.34
690.609	55825.2
690.956	55644.64
691.303	55620.68
691.65	55629.95
691.997	55474.47
692.344	55432.21
692.69	55313.57
693.037	55420.69
693.383	55133.47
693.73	55250.07
694.077	55095.27
694.423	55112.9
694.769	54977.99
695.116	54923.53
695.462	54892.12
695.808	54797.66
696.155	54919.23
696.501	54583.2
696.847	54657.55
697.193	54512.46
697.539	54559.02
697.885	54329.87
698.231	54389.08
698.577	54334.16
698.923	54271.57
699.269	54063.89
699.614	54011.69
699.96	53931.01
700.306	53988.86
700.651	53825.25
700.997	53780.51
701.342	53739.6
701.688	53639.95
702.033	53575.99
702.379	53623.67
702.724	53404.92
703.069	53501.87
703.415	53167.19
703.76	53184.14
704.105	53198.15
704.45	52973.75
704.795	52968.32
705.14	52858.27
705.485	52957.48
705.83	52721.55
706.175	52789.57
706.52	52646.98
706.865	52644.94
707.209	52480.88
707.554	52466.42
707.899	52414.22
708.243	52315.01
708.588	52270.49
708.932	52114.79
709.277	52202.24
709.621	52055.13
709.966	51884.74
710.31	51918.86
710.654	51723.16
710.998	51804.06
711.342	51771.29
711.687	51635.48
712.031	51626.44
712.375	51392.55
712.719	51374.69
713.063	51343.96
713.407	51367.91
713.75	51258.99
714.094	51277.07
714.438	51069.39
714.782	51108.03
715.125	50917.98
715.469	51092.89
715.812	50713.47
716.156	50734.49
716.499	50673.02
716.843	50672.57
717.186	50515.73
717.53	50703.07
717.873	50724.77
718.216	50479.12
718.559	50452.01
718.902	50243.2
719.246	50354.16
719.589	50216.76
719.932	49901.74
720.275	50038.23
720.617	50149.42
720.96	49931.79
721.303	49902.19
721.646	49974.96
721.989	49749.2
722.331	49881.4
722.674	49726.15
723.016	49774.74
723.359	49573.16
723.701	49652.25
724.044	49402.77
724.386	49272.83
724.729	49449.77
725.071	49428.76
725.413	49292.26
725.755	49096.34
726.097	49108.31
726.439	49072.61
726.782	48996.68
727.124	49077.58
727.465	48805.04
727.807	48649.34
728.149	48770.02
728.491	48696.12
728.833	48755.55
729.175	48635.78
729.516	48551.27
729.858	48473.98
730.199	48655.9
730.541	48502.23
730.882	48306.3
731.224	48400.99
731.565	48182.01
731.906	48330.48
732.248	48258.39
732.589	48113.99
732.93	47915.8
733.271	48061.34
733.612	47876.93
733.953	48062.24
734.294	47903.37
734.635	47696.15
734.976	47794.68
735.317	47685.98
735.658	47699.99
735.999	47673.1
736.339	47572.31
736.68	47589.48
737.021	47515.13
737.361	47282.6
737.702	47437.4
738.042	47336.61
738.383	47292.09
738.723	47379.32
739.063	47242.6
739.404	47267.46
739.744	47174.35
740.084	47016.62
740.424	47049.16
740.764	46980.69
741.104	47229.94
741.444	46850.97
741.784	46746.34
742.124	46836.51
742.464	46783.18
742.804	46667.02
743.143	46637.42
743.483	46737.53
743.823	46501.83
744.162	46520.36
744.502	46679
744.841	46416.63
745.181	46495.05
745.52	46253.47
745.86	46484.43
746.199	46211.67
746.538	46169.86
746.877	46325.56
747.216	46262.74
747.556	45968.28
747.895	46055.06
748.234	46043.08
748.573	45885.12
748.911	45803.99
749.25	45787.72
749.589	45496.2
749.928	45735.07
750.267	45743.88
750.605	45468.18
750.944	45503.21
751.283	45409.43
751.621	45420.05
751.96	45232.71
752.298	45150.9
752.636	45318.36
752.975	45095.76
753.313	44969.44
753.651	45162.43
753.989	44655.32
754.327	44934.86
754.666	44627.75
755.004	44768.77
755.342	44664.59
755.679	44691.93
756.017	44361.09
756.355	44368.55
756.693	44118.39
757.031	44269.12
757.368	44095.11
757.706	44220.08
758.044	43803.82
758.381	43952.97
758.719	43639.3
759.056	43790.49
759.394	43582.58
759.731	43290.39
760.068	43229.37
760.405	43269.6
760.743	42970.17
761.08	43168.81
761.417	42868.03
761.754	42820.12
762.091	42733.57
762.428	42504.42
762.765	42423.07
763.102	42490.86
763.438	42207.03
763.775	42105.79
764.112	42023.98
764.449	41923.42
764.785	41725.23
765.122	41618.11
765.458	41394.62
765.795	41390.1
766.131	41513.71
766.467	41209.76
766.804	40972.48
767.14	40814.07
767.476	40775.43
767.812	40675.09
768.148	40608.2
768.485	40428.09
768.821	40185.16
769.157	40180.41
769.492	39993.75
769.828	39964.15
770.164	39663.59
770.5	39476.7
770.836	39558.96
771.171	39318.06
771.507	39196.48
771.842	38934.12
772.178	38805.08
772.513	38715.14
772.849	38649.15
773.184	38578.42
773.519	38445.77
773.855	38142.5
774.19	38227.02
774.525	37916.52
774.86	37936.4
775.195	37785
775.53	37580.48
775.865	37455.74
776.2	37142.3
776.535	36937.33
776.87	36898.24
777.205	36827.28
777.539	36611.92
777.874	36764.01
778.209	36323.11
778.543	36391.81
778.878	36094.19
779.212	36128.32
779.547	35837.02
779.881	35902.56
780.215	35482.46
780.55	35664.6
780.884	35300.09
781.218	35301.9
781.552	35319.3
781.886	35004.05
782.22	34825.98
782.554	34765.41
782.888	34533.78
783.222	34447.91
783.556	34251.53
783.889	34194.58
784.223	33913.23
784.557	34026
784.89	34021.93
785.224	33712.79
785.557	33417.88
785.891	33431.21
786.224	33450.19
786.558	33384.66
786.891	33219.01
787.224	32903.77
787.557	32783.09
787.891	32739.93
788.224	32496.55
788.557	32543.33
788.89	32573.83
789.223	32437.79
789.556	32270.11
789.888	32222.43
790.221	32089.1
790.554	31897.92
790.887	31795.1
791.219	31628.55
791.552	31586.74
791.884	31460.64
792.217	31361.21
792.549	31264.71
792.882	31093.87
793.214	30859.08
793.546	30883.48
793.879	30809.59
794.211	30471.52
794.543	30679.65
794.875	30524.17
795.207	30474.9
795.539	30274.23
795.871	30352.65
796.203	30141.58
796.535	29895.94
796.867	30064.75
797.198	29862.27
797.53	29771.87
797.862	29577.08
798.193	29646.68
798.525	29486.91
798.856	29525.55
799.188	29209.85
799.519	29080.37
799.85	28973.7
800.182	28991.78
800.513	29001.05
800.844	28564.67
801.175	28752.92
801.506	28727.38
801.837	28560.83
802.168	28514.5
802.499	28552.92
802.83	28152.71
803.161	28048.53
803.491	28147.51
803.822	28257.56
804.153	27957.91
804.483	27794.75
804.814	27591.14
805.145	27713.85
805.475	27721.08
805.805	27550.46
806.136	27617.58
806.466	27386.85
806.796	27465.49
807.126	27238.38
807.457	27172.62
807.787	27229.57
808.117	27057.14
808.447	26944.38
808.777	26938.05
809.107	26804.72
809.436	26787.09
809.766	26735.79
810.096	26875.9
810.426	26644.95
810.755	26583.93
811.085	26496.25
811.414	26441.34
811.744	26388.91
812.073	26223.49
812.403	26205.64
812.732	26026.21
813.061	26162.25
813.39	26039.32
813.719	25867.79
814.049	26104.85
814.378	25885.65
814.707	25796.61
815.036	25788.02
815.365	25587.35
815.693	25432.33
816.022	25541.25
816.351	25367.92
816.68	25252.44
817.008	25357.07
817.337	25032.56
817.665	25174.93
817.994	25046.8
818.322	25135.84
818.651	24992.79
818.979	25077.31
819.307	24957.99
819.636	24948.04
819.964	24774.49
820.292	24866.69
820.62	24736.75
820.948	24842.28
821.276	24941.94
821.604	24669.86
821.932	24881.15
822.259	24721.38
822.587	24635.96
822.915	24762.96
823.243	24824.88
823.57	24581.95
823.898	24785.56
824.225	24712.12
824.553	24562.29
824.88	24605.45
825.207	24732.01
825.535	24544.89
825.862	24759.8
826.189	24694.94
826.516	24802.06
826.843	24816.3
827.17	24937.88
827.497	24812.68
827.824	24848.16
828.151	24755.73
828.478	24616.3
828.805	24763.42
829.131	24678.45
829.458	24776.07
829.785	24511.67
830.111	24637.54
830.438	24781.5
830.764	24645.68
831.09	24737.65
831.417	24539.02
831.743	24791.66
832.069	24740.14
832.395	24551.9
832.722	24616.3
833.048	24572.01
833.374	24674.83
833.7	24554.16
834.026	24648.17
834.351	24545.8
834.677	24639.8
835.003	24585.12
835.329	24546.02
835.654	24514.61
835.98	24410.21
836.306	24676.64
836.631	24307.16
836.956	24486.81
837.282	24527.72
837.607	24401.39
837.932	24251.11
838.258	24245.24
838.583	24181.06
838.908	24199.36
839.233	24224.45
839.558	24011.57
839.883	23996.43
840.208	23780.84
840.533	23929.09
840.858	23967.28
841.182	23894.96
841.507	23813.16
841.832	23698.81
842.156	23827.17
842.481	23749.43
842.805	23623.11
843.13	23489.78
843.454	23569.78
843.778	23469.89
844.103	23502.21
844.427	23454.75
844.751	23443
845.075	23363.91
845.399	23325.71
845.723	23229.22
846.047	23200.75
846.371	23040.07
846.695	22890.92
847.019	22839.4
847.343	22679.63
847.666	22685.96
847.99	22556.24
848.313	22519.18
848.637	22474.89
848.96	22415.91
849.284	22350.37
849.607	22211.17
849.931	22177.5
850.254	21879.65
850.577	21776.6
850.9	21722.59
851.223	21578.64
851.546	21523.5
851.869	21478.76
852.192	21657.96
852.515	21330.96
852.838	21276.95
853.161	21354.69
853.483	21088.49
853.806	21060.69
854.129	21021.37
854.451	21035.38
854.774	20782.73
855.096	20681.49
855.419	20641.94
855.741	20707.93
856.063	20592.45
856.385	20414.38
856.708	20536.86
857.03	20380.93
857.352	20443.3
857.674	20245.34
857.996	20178.45
858.318	20081.51
858.64	20145.68
858.961	20054.61
859.283	20061.85
859.605	19846.03
859.926	19928.52
860.248	19794.51
860.57	19740.05
860.891	19716.09
861.212	19635.64
861.534	19589.09
861.855	19513.39
862.176	19604.68
862.498	19535.76
862.819	19514.97
863.14	19440.17
863.461	19386.61
863.782	19224.35
864.103	19289.66
864.424	19313.16
864.745	19180.29
865.065	19198.37
865.386	19100.51
865.707	19118.14
866.027	19100.29
866.348	19121.76
866.668	18975.55
866.989	19027.97
867.309	18865.94
867.63	18885.83
867.95	18860.75
868.27	18782.78
868.59	18852.16
868.91	18859.62
869.23	18792.27
869.55	18594.99
869.87	18723.58
870.19	18580.98
870.51	18670.02
870.83	18557.48
871.15	18468.44
871.469	18528.33
871.789	18592.51
872.109	18507.76
872.428	18331.72
872.748	18456.01
873.067	18343.25
873.386	18485.62
873.706	18348.9
874.025	18186.41
874.344	18265.51
874.663	18259.86
874.982	18235.68
875.301	18124.95
875.62	18048.34
875.939	18147.32
876.258	18042.69
876.577	18047.21
876.896	18025.06
877.214	17975.57
877.533	18021
877.852	18045.18
878.17	17895.8
878.489	18001.79
878.807	17872.52
879.125	17821.68
879.444	17815.8
879.762	17694.22
880.08	17834.33
880.398	17626.2
880.716	17700.1
881.034	17756.6
881.352	17710.49
881.67	17633.21
881.988	17668.91
882.306	17469.15
882.624	17517.96
882.941	17398.86
883.259	17238.64
883.577	17371.75
883.894	17338.3
884.212	17212.2
884.529	17157.29
884.846	17054.01
885.164	17121.36
885.481	17037.74
885.798	17164.52
886.115	16998.2
886.432	16974.47
886.75	16911.19
887.067	16856.73
887.383	16788.26
887.7	16835.94
888.017	16667.36
888.334	16881.82
888.651	16764.98
888.967	16631.65
889.284	16518.21
889.6	16460.36
889.917	16392.34
890.233	16442.73
890.55	16395.5
890.866	16332
891.182	16413.13
891.498	16305.11
891.815	16250.19
892.131	16167.94
892.447	16127.03
892.763	16055.17
893.079	16146.92
893.395	16006.13
893.71	15922.75
894.026	15952.8
894.342	15882.29
894.657	15799.36
894.973	15753.94
895.289	15670.77
895.604	15615.18
895.92	15631.91
896.235	15518.24
896.55	15514.85
896.865	15459.93
897.181	15383.32
897.496	15364.12
897.811	15267.85
898.126	15245.25
898.441	15249.54
898.756	15210.67
899.071	15043.22
899.386	15094.97
899.7	14953.28
900.015	14899.5
900.33	14865.6
900.644	14774.53
900.959	14711.93
901.273	14710.8
901.588	14649.78
901.902	14570.24
902.216	14587.87
902.531	14495.44
902.845	14447.76
903.159	14325.5
903.473	14246.63
903.787	14242.34
904.101	14196.69
904.415	14233.3
904.729	14083.47
905.042	14003.7
905.356	13963.93
905.67	13899.3
905.984	13950.59
906.297	13956.92
906.611	13819.75
906.924	13829.92
907.237	13763.25
907.551	13671.96
907.864	13648.23
908.177	13572.52
908.491	13490.94
908.804	13421.57
909.117	13330.5
909.43	13329.37
909.743	13315.13
910.056	13259.31
910.368	13146.32
910.681	13122.82
910.994	13052.99
911.307	13049.15
911.619	12914.91
911.932	13028.13
912.244	12852.77
912.557	12768.93
912.869	12663.17
913.181	12654.58
913.494	12629.05
913.806	12565.32
914.118	12560.12
914.43	12383.63
914.742	12405.32
915.054	12367.36
915.366	12376.62
915.678	12261.82
915.99	12198.55
916.302	12195.39
916.613	12079.68
916.925	12149.29
917.236	11947.03
917.548	11978.89
917.859	11995.16
918.171	11862.06
918.482	11828.16
918.794	11824.1
919.105	11713.59
919.416	11647.83
919.727	11658.45
920.038	11598.34
920.349	11524.67
920.66	11500.26
920.971	11507.72
921.282	11421.85
921.593	11388.4
921.903	11208.74
922.214	11226.82
922.525	11220.5
922.835	11165.81
923.146	11055.75
923.456	11062.99
923.767	10918.36
924.077	11001.29
924.387	10815.76
924.697	10783.67
925.008	10747.97
925.318	10718.81
925.628	10694.41
925.938	10724.69
926.248	10582.09
926.558	10518.59
926.867	10555.43
927.177	10508.65
927.487	10412.61
927.796	10311.59
928.106	10348.65
928.416	10305.27
928.725	10307.98
929.034	10180.52
929.344	10177.81
929.653	10167.19
929.962	10096.01
930.271	10094.65
930.581	9974.88
930.89	9920.19
931.199	9892.4
931.508	9832.28
931.817	9865.5
932.125	9833.41
932.434	9773.3
932.743	9639.52
933.051	9669.35
933.36	9613.53
933.669	9577.6
933.977	9524.27
934.286	9492.18
934.594	9500.77
934.902	9397.49
935.21	9387.32
935.519	9373.99
935.827	9306.65
936.135	9240.66
936.443	9146.88
936.751	9135.35
937.059	9157.05
937.367	9092.19
937.674	9030.05
937.982	8997.73
938.29	9059.65
938.597	8980.78
938.905	8860.78
939.213	8812.42
939.52	8767
939.827	8828.47
940.135	8794.8
940.442	8708.7
940.749	8682.48
941.056	8703.95
941.363	8590.28
941.67	8514.58
941.977	8520.23
942.284	8517.74
942.591	8446.56
942.898	8400.68
943.205	8291.31
943.511	8336.73
943.818	8318.2
944.125	8230.97
944.431	8242.72
944.738	8168.82
945.044	8137.87
945.35	8108.49
945.657	8068.71
945.963	8046.12
946.269	8013.12
946.575	7952.79
946.881	7945.33
947.187	7832.79
947.493	7853.58
947.799	7808.38
948.105	7754.15
948.41	7728.61
948.716	7703.75
949.022	7645
949.327	7667.6
949.633	7553.7
949.938	7536.75
950.244	7584.21
950.549	7501.72
950.854	7517.99
951.16	7420.14
951.465	7388.73
951.77	7339.24
952.075	7394.83
952.38	7296.53
952.685	7313.93
952.99	7223.54
953.294	7192.58
953.599	7174.73
953.904	7136.76
954.209	7072.81
954.513	7086.14
954.818	7055.86
955.122	7045.24
955.426	7051.11
955.731	6947.61
956.035	6914.39
956.339	6920.72
956.643	6915.07
956.948	6866.71
957.252	6819.93
957.556	6776.77
957.86	6739.03
958.163	6687.51
958.467	6659.26
958.771	6631.92
959.075	6583.56
959.378	6574.06
959.682	6582.65
959.985	6528.42
960.289	6494.52
960.592	6479.6
960.896	6419.94
961.199	6410
961.502	6394.18
961.805	6309.21
962.108	6263.79
962.411	6269.67
962.714	6242.55
963.017	6266.95
963.32	6246.39
963.623	6248.88
963.926	6183.11
964.228	6119.39
964.531	6139.95
964.833	6067.86
965.136	6053.4
965.438	6006.85
965.741	5982.44
966.043	6005.27
966.345	6003.68
966.648	5952.16
966.95	5938.15
967.252	5834.65
967.554	5790.81
967.856	5807.53
968.158	5784.48
968.46	5774.09
968.761	5795.1
969.063	5767.53
969.365	5666.29
969.666	5647.54
969.968	5614.32
970.269	5572.51
970.571	5598.04
970.872	5543.13
971.174	5455
971.475	5502.91
971.776	5482.12
972.077	5453.87
972.378	5466.3
972.679	5409.58
972.98	5377.26
973.281	5368.67
973.582	5322.35
973.883	5347.43
974.183	5283.25
974.484	5253.87
974.785	5259.3
975.085	5200.99
975.386	5203.93
975.686	5113.09
975.986	5101.33
976.287	5099.07
976.587	5016.14
976.887	5052.07
977.187	5040.32
977.487	5033.99
977.787	4974.56
978.087	4956.25
978.387	4909.48
978.687	4920.1
978.987	4894.11
979.286	4874
979.586	4847.78
979.885	4800.55
980.185	4811.4
980.484	4786.99
980.784	4727.33
981.083	4763.72
981.382	4675.36
981.682	4713.77
981.981	4686.88
982.28	4637.17
982.579	4621.8
982.878	4622.93
983.177	4599.65
983.475	4544.29
983.774	4501.8
984.073	4500.22
984.372	4529.6
984.67	4480.56
984.969	4479.43
985.267	4464.06
985.566	4417.51
985.864	4395.82
986.162	4358.08
986.461	4385.2
986.759	4297.29
987.057	4363.73
987.355	4267.68
987.653	4266.1
987.951	4278.53
988.249	4270.4
988.547	4248.7
988.844	4222.26
989.142	4184.75
989.44	4132.32
989.737	4107.69
990.035	4148.14
990.332	4088.71
990.63	4051.64
990.927	4058.2
991.224	4039.89
991.521	4002.38
991.819	4024.07
992.116	3961.93
992.413	3961.7
992.71	3920.35
993.006	3916.73
993.303	3878.54
993.6	3876.06
993.897	3875.38
994.193	3897.07
994.49	3866.11
994.787	3843.74
995.083	3796.51
995.379	3772.56
995.676	3788.37
995.972	3725.1
996.268	3728.26
996.565	3700.02
996.861	3683.52
997.157	3657.98
997.453	3643.07
997.749	3610.98
998.044	3578.44
998.34	3599
998.636	3603.97
998.932	3548.16
999.227	3505.44
999.523	3502.51
999.818	3506.57
1000.114	3475.84
1000.409	3458.89
1000.704	3403.53
1001	3422.51
1001.295	3379.12
1001.59	3380.7
1001.885	3354.71
1002.18	3337.31
1002.475	3318.1
1002.77	3297.31
1003.065	3283.98
1003.359	3274.72
1003.654	3226.58
1003.949	3212.34
1004.243	3212.12
1004.538	3214.6
1004.832	3144.32
1005.127	3205.34
1005.421	3110.65
1005.715	3131.9
1006.009	3119.92
1006.304	3104.78
1006.598	3072.91
1006.892	3041.28
1007.186	2996.31
1007.48	3001.73
1007.773	2940.49
1008.067	2938.68
1008.361	2958.34
1008.655	2934.61
1008.948	2906.59
1009.242	2873.37
1009.535	2910.88
1009.829	2829.98
1010.122	2831.56
1010.415	2822.52
1010.708	2805.8
1011.001	2804.45
1011.295	2775.97
1011.588	2760.83
1011.881	2712.92
1012.173	2705.92
1012.466	2718.8
1012.759	2708.86
1013.052	2657.56
1013.344	2672.25
1013.637	2615.75
1013.93	2615.98
1014.222	2602.19
1014.514	2610.1
1014.807	2570.1
1015.099	2566.03
1015.391	2524.45
1015.683	2524.91
1015.976	2520.16
1016.268	2516.09
1016.56	2488.07
1016.851	2419.37
1017.143	2434.74
1017.435	2434.96
1017.727	2398.36
1018.018	2410.33
1018.31	2397.23
1018.602	2376.66
1018.893	2359.49
1019.185	2313.39
1019.476	2326.04
1019.767	2319.26
1020.058	2284.46
1020.35	2267.74
1020.641	2235.65
1020.932	2229.09
1021.223	2209.66
1021.514	2205.82
1021.804	2143.67
1022.095	2143.45
1022.386	2148.19
1022.677	2128.76
1022.967	2121.53
1023.258	2084.24
1023.548	2093.28
1023.839	2037.91
1024.129	2074.07
1024.419	2063.9
1024.709	2076.33
1025	2033.62
1025.29	1985.94
1025.58	1985.94
1025.87	1952.72
1026.16	1947.75
1026.449	1950.01
1026.739	1945.94
1027.029	1927.41
1027.319	1894.19
1027.608	1922.21
1027.898	1887.18
1028.187	1882.21
1028.477	1866.17
1028.766	1824.58
1029.055	1820.29
1029.344	1819.16
1029.634	1812.38
1029.923	1771.25
1030.212	1760.63
1030.501	1766.73
1030.79	1730.8
1031.078	1745.72
1031.367	1711.59
1031.656	1699.84
1031.945	1709.11
1032.233	1672.05
1032.522	1686.28
1032.81	1645.61
1033.099	1633.18
1033.387	1631.37
1033.675	1640.63
1033.963	1595.89
1034.251	1590.24
1034.54	1598.6
1034.828	1604.25
1035.116	1580.07
1035.403	1559.51
1035.691	1559.06
1035.979	1566.29
1036.267	1518.6
1036.554	1533.07
1036.842	1493.97
1037.129	1493.29
1037.417	1480.41
1037.704	1477.25
1037.992	1456.23
1038.279	1442.45
1038.566	1425.5
1038.853	1425.5
1039.14	1425.5
