Data from 13-0850_FLMS001491_002.txt Node
Date: Thu Apr 12 17:08:21 BST 2018
User: hsy
Spectrometer: FLMS00149
Trigger mode: 0
Integration Time (sec): 1.000000E-2
Scans to average: 10
Electric dark correction enabled: true
Nonlinearity correction enabled: false
Boxcar width: 0
XAxis mode: Wavelengths
Number of Pixels in Spectrum: 2048
>>>>>Begin Spectral Data<<<<<
341.393	-8.74
341.776	-8.74
342.16	-8.74
342.543	-58.23
342.927	-87.16
343.31	-65.92
343.693	-76.31
344.077	-75.18
344.46	-73.15
344.843	-54.39
345.226	-53.26
345.61	-37.44
345.993	-1.29
346.376	-11
346.759	24.7
347.142	28.32
347.525	44.14
347.908	57.92
348.291	78.26
348.674	99.05
349.057	115.55
349.44	117.13
349.823	168.2
350.206	166.17
350.588	242.32
350.971	263.57
351.354	264.7
351.737	284.58
352.119	290.46
352.502	305.6
352.884	313.06
353.267	309.67
353.65	337.69
354.032	359.61
354.414	339.5
354.797	355.32
355.179	363.9
355.562	362.55
355.944	372.26
356.326	383.34
356.709	396.44
357.091	386.5
357.473	389.21
357.855	380.4
358.238	390.79
358.62	389.44
359.002	368.2
359.384	398.48
359.766	388.08
360.148	403.68
360.53	374.3
360.912	392.38
361.294	388.08
361.676	386.05
362.057	382.66
362.439	405.26
362.821	390.79
363.203	393.51
363.584	382.89
363.966	397.12
364.348	391.47
364.729	360.97
365.111	373.17
365.493	356.22
365.874	353.28
366.256	374.75
366.637	391.92
367.019	376.11
367.4	362.77
367.781	354.64
368.163	387.18
368.544	388.76
368.925	369.33
369.306	372.49
369.688	372.94
370.069	357.8
370.45	393.73
370.831	372.26
371.212	377.01
371.593	375.88
371.974	369.33
372.355	369.55
372.736	396.9
373.117	371.13
373.498	396.22
373.879	393.05
374.26	379.95
374.641	358.93
375.021	392.15
375.402	394.18
375.783	416.78
376.163	414.97
376.544	425.82
376.925	395.99
377.305	408.65
377.686	409.55
378.066	410.68
378.447	430.79
378.827	407.97
379.208	407.74
379.588	405.03
379.968	399.61
380.349	405.48
380.729	424.92
381.109	426.73
381.489	447.29
381.87	424.24
382.25	434.41
382.63	423.56
383.01	417.69
383.39	460.4
383.77	436.22
384.15	431.02
384.53	428.08
384.91	428.31
385.29	450
385.67	455.43
386.049	468.98
386.429	461.08
386.809	455.88
387.189	466.5
387.568	467.85
387.948	454.52
388.328	477.8
388.707	468.53
389.087	456.78
389.466	467.18
389.846	486.84
390.225	485.03
390.605	488.87
390.984	484.13
391.363	482.77
391.743	505.82
392.122	478.48
392.501	512.15
392.881	501.75
393.26	510.34
393.639	525.48
394.018	523.9
394.397	519.6
394.776	529.32
395.155	530.9
395.534	512.6
395.913	516.44
396.292	535.42
396.671	554.86
397.05	538.36
397.429	525.93
397.808	523.45
398.186	540.17
398.565	560.96
398.944	550.79
399.323	540.85
399.701	577.91
400.08	569.1
400.458	565.93
400.837	588.76
401.215	573.39
401.594	578.59
401.972	596.21
402.351	577
402.729	585.82
403.107	588.08
403.486	606.16
403.864	604.8
404.242	598.02
404.62	609.55
404.999	605.7
405.377	621.52
405.755	637.12
406.133	639.15
406.511	643.9
406.889	656.78
407.267	637.34
407.645	653.61
408.023	680.28
408.401	672.14
408.779	678.02
409.156	680.5
409.534	684.8
409.912	684.12
410.29	719.15
410.667	725.25
411.045	730.22
411.422	738.81
411.8	737.68
412.178	749.66
412.555	732.03
412.933	757.56
413.31	781.29
413.687	776.32
414.065	800.28
414.442	810.67
414.819	816.32
415.197	810.9
415.574	839.14
415.951	838.92
416.328	845.47
416.705	807.06
417.082	826.04
417.46	869.2
417.837	859.48
418.214	867.84
418.591	897.22
418.967	892.7
419.344	904.23
419.721	920.27
420.098	921.18
420.475	910.56
420.852	918.69
421.228	940.84
421.605	938.13
421.982	951.68
422.358	942.87
422.735	951.68
423.111	971.34
423.488	1002.53
423.864	1003.21
424.241	991.46
424.617	983.1
424.994	1025.35
425.37	1016.54
425.746	1006.6
426.123	1037.11
426.499	1030.55
426.875	1047.5
427.251	1062.19
427.627	1051.34
428.003	1072.81
428.379	1081.85
428.756	1109.42
429.132	1080.27
429.507	1134.05
429.883	1133.37
430.259	1128.4
430.635	1184.67
431.011	1161.85
431.387	1180.15
431.763	1206.14
432.138	1197.1
432.514	1230.77
432.89	1224.22
433.265	1276.2
433.641	1251.11
434.016	1272.13
434.392	1284.33
434.767	1315.52
435.143	1303.09
435.518	1323.88
435.894	1343.99
436.269	1316.87
436.644	1400.26
437.02	1392.58
437.395	1372.24
437.77	1367.72
438.145	1404.1
438.52	1395.29
438.895	1455.17
439.271	1460.15
439.646	1440.03
440.021	1459.02
440.395	1494.49
440.77	1432.58
441.145	1485.91
441.52	1477.77
441.895	1515.74
442.27	1510.31
442.645	1492.69
443.019	1550.31
443.394	1542.18
443.769	1536.75
444.143	1540.6
444.518	1584.66
444.892	1575.4
445.267	1581.05
445.641	1576.98
446.016	1607.94
446.39	1581.95
446.764	1612.01
447.139	1626.24
447.513	1640.93
447.887	1613.81
448.262	1647.48
448.636	1657.2
449.01	1665.11
449.384	1708.95
449.758	1745.79
450.132	1709.18
450.506	1731.32
450.88	1709.63
451.254	1724.32
451.628	1791.66
452.002	1794.37
452.376	1827.82
452.75	1855.62
453.123	1834.6
453.497	1858.55
453.871	1863.3
454.244	1920.25
454.618	1946.01
454.992	1999.11
455.365	1971.09
455.739	1990.07
456.112	2035.95
456.486	2047.25
456.859	2067.59
457.232	2100.81
457.606	2144.42
457.979	2154.82
458.352	2197.98
458.725	2193.01
459.099	2232.1
459.472	2248.6
459.845	2276.62
460.218	2295.15
460.591	2322.04
460.964	2347.13
461.337	2409.27
461.71	2384.87
462.083	2414.7
462.456	2453.34
462.829	2485.88
463.201	2496.73
463.574	2541.02
463.947	2578.53
464.32	2634.58
464.692	2606.56
465.065	2650.85
465.438	2696.5
465.81	2705.31
466.183	2733.33
466.555	2789.83
466.928	2780.56
467.3	2774.46
467.672	2819.21
468.045	2913.21
468.417	2935.13
468.789	2949.15
469.161	2949.37
469.534	2992.99
469.906	3069.59
470.278	3077.5
470.65	3143.94
471.022	3161.12
471.394	3186.43
471.766	3263.04
472.138	3292.41
472.51	3365.63
472.882	3420.77
473.253	3450.6
473.625	3519.75
473.997	3570.15
474.369	3613.99
474.74	3663.7
475.112	3700.31
475.484	3795.45
475.855	3820.31
476.227	3891.04
476.598	3963.36
476.97	3967.42
477.341	4089.68
477.713	4184.14
478.084	4216
478.455	4301.88
478.827	4388.88
479.198	4452.83
479.569	4509.56
479.94	4632.27
480.311	4704.13
480.682	4846.95
481.053	4915.87
481.424	5030.22
481.795	5104.8
482.166	5180.5
482.537	5272.25
482.908	5375.3
483.279	5498.01
483.65	5611.22
484.021	5702.07
484.391	5821.16
484.762	5875.17
485.133	5938.45
485.503	6125.11
485.874	6249.4
486.244	6335.05
486.615	6497.07
486.985	6601.25
487.356	6798.76
487.726	6855.03
488.097	7064.29
488.467	7156.72
488.837	7362.59
489.207	7433.55
489.578	7610.27
489.948	7796.93
490.318	7954.21
490.688	8018.39
491.058	8209.57
491.428	8407.53
491.798	8569.56
492.168	8804.58
492.538	8948.31
492.908	9129.55
493.278	9358.69
493.648	9444.34
494.017	9648.86
494.387	9783.32
494.757	10017.21
495.126	10161.16
495.496	10404.99
495.866	10475.5
496.235	10721.6
496.605	10955.49
496.974	11134.02
497.344	11346.44
497.713	11575.36
498.082	11690.38
498.452	11977.83
498.821	12185.29
499.19	12282.01
499.559	12577.14
499.928	12728.32
500.298	12976
500.667	13282.43
501.036	13355.88
501.405	13672.71
501.774	13931
502.143	14066.37
502.512	14329.64
502.88	14665.45
503.249	14693.02
503.618	14989.51
503.987	15170.07
504.356	15457.97
504.724	15616.61
505.093	15896.38
505.462	16171.85
505.83	16331.84
506.199	16677.82
506.567	16930.02
506.936	17106.06
507.304	17429.44
507.672	17603
508.041	17788.53
508.409	18264.45
508.777	18390.55
509.145	18642.29
509.514	18814.49
509.882	19121.6
510.25	19266.68
510.618	19522.27
510.986	19702.83
511.354	19938.08
511.722	20213.55
512.09	20580.77
512.458	20558.17
512.826	20961.78
513.193	21131.04
513.561	21280.87
513.929	21554.76
514.297	21765.15
514.664	22023.45
515.032	22276.32
515.4	22425.92
515.767	22697.55
516.135	22860.71
516.502	22824.33
516.869	23323.75
517.237	23593.8
517.604	23450.98
517.972	23893.23
518.339	24136.84
518.706	24388.81
519.073	24528.47
519.44	24693.21
519.808	25037.6
520.175	25071.95
520.542	25631.71
520.909	25716.46
521.276	25838.94
521.643	26269.44
522.009	26394.18
522.376	26712.36
522.743	26856.09
523.11	27318.22
523.477	27515.51
523.843	27724.54
524.21	28143.74
524.577	28351.87
524.943	28425.54
525.31	28639.09
525.676	29055.58
526.043	29216.7
526.409	29354.33
526.776	29814.65
527.142	29867.31
527.508	29987.76
527.874	30474.3
528.241	30638.36
528.607	30730.56
528.973	31254.16
529.339	31208.06
529.705	31603.99
530.071	31807.14
530.437	32013.24
530.803	32230.86
531.169	32499.1
531.535	32491.19
531.901	32760.34
532.267	32982.71
532.632	33224.06
532.998	33258.63
533.364	33474.22
533.73	33559.19
534.095	33965.28
534.461	34022.23
534.826	34272.62
535.192	34199.85
535.557	34617.47
535.923	34566.85
536.288	34907.4
536.653	35033.27
537.019	35085.25
537.384	35262.87
537.749	35336.54
538.114	35426.48
538.479	35548.97
538.845	35775.63
539.21	35843.87
539.575	35925.45
539.94	36132.91
540.305	36343.3
540.67	36319.12
541.034	36554.14
541.399	36521.14
541.764	36766.56
542.129	36845.66
542.494	36980.79
542.858	37063.95
543.223	37097.63
543.587	37409.93
543.952	37373.33
544.316	37613.09
544.681	37633.21
545.045	37797.72
545.41	37931.28
545.774	37799.08
546.138	37977.15
546.503	38020.09
546.867	38251.72
547.231	38616.91
547.595	38704.36
547.959	38703.69
548.324	38905.49
548.688	38994.53
549.052	39104.35
549.416	39066.16
549.779	39166.27
550.143	39376.44
550.507	39582.08
550.871	39688.29
551.235	39707.5
551.599	40171.67
551.962	40187.49
552.326	40255.28
552.689	40487.82
553.053	40161.05
553.417	40375.73
553.78	40853.46
554.143	40875.15
554.507	40977.98
554.87	41082.38
555.234	41445.31
555.597	41342.94
555.96	41524.18
556.323	41716.49
556.686	41715.36
557.05	42069.02
557.413	42098.4
557.776	42090.49
558.139	42564.6
558.502	42516.47
558.865	42704.71
559.228	43143.79
559.59	43128.43
559.953	43043.91
560.316	43598.25
560.679	43754.85
561.041	43850.22
561.404	44084.34
561.767	44334.5
562.129	44255.86
562.492	44675.96
562.854	44697.65
563.217	44722.06
563.579	44983.29
563.941	45174.93
564.304	45247.47
564.666	45648.81
565.028	45633.67
565.39	45950.73
565.753	46213.77
566.115	46176.94
566.477	46315.91
566.839	46531.05
567.201	46936.24
567.563	46776.02
567.925	47100.75
568.287	47032.05
568.648	47327.41
569.01	47652.38
569.372	47881.75
569.734	47819.83
570.095	48207.16
570.457	48363.77
570.819	48371.68
571.18	48436.31
571.542	48756.53
571.903	48788.17
572.265	49017.99
572.626	49137.31
572.987	49262.73
573.349	49505.44
573.71	49621.14
574.071	49779.33
574.432	49862.49
574.794	50066.32
575.155	50267.9
575.516	50172.08
575.877	50370.72
576.238	50501.57
576.599	50673.77
576.96	50720.09
577.32	50783.59
577.681	50978.62
578.042	51159.4
578.403	51224.03
578.763	51303.81
579.124	51383.8
579.485	51617.47
579.845	51704.02
580.206	51599.84
580.566	51793.51
580.927	51813.62
581.287	51981.53
581.648	51993.28
582.008	52133.62
582.368	52206.38
582.728	52277.79
583.089	52332.93
583.449	52433.27
583.809	52446.6
584.169	52621.74
584.529	52567.05
584.889	52897.44
585.249	52753.71
585.609	52688.85
585.969	52923.65
586.329	52880.94
586.688	53116.41
587.048	53209.97
587.408	53189.18
587.768	53171.1
588.127	53319.57
588.487	53261.5
588.846	53607.7
589.206	53464.88
589.565	53606.57
589.925	53783.29
590.284	53770.41
590.643	53841.82
591.003	53984.87
591.362	54212.66
591.721	54178.08
592.08	54166.56
592.44	54323.39
592.799	54277.51
593.158	54370.39
593.517	54459.66
593.876	54635.7
594.235	54573.1
594.593	54598.64
594.952	54825.75
595.311	54729.71
595.67	54876.59
596.029	55108.23
596.387	55174.44
596.746	55243.14
597.104	55148
597.463	55211.27
597.822	55445.39
598.18	55365.17
598.538	55383.02
598.897	55658.49
599.255	55466.63
599.613	55900.3
599.972	55726.74
600.33	55891.26
600.688	55913.4
601.046	55981.65
601.404	56175.77
601.762	56145.04
602.12	56321.3
602.478	56337.12
602.836	56360.17
603.194	56248.99
603.552	56378.48
603.91	56355.42
604.268	56516.32
604.625	56549.32
604.983	56744.57
605.341	56650.78
605.698	56837.9
606.056	56972.13
606.413	56853.94
606.771	57090.09
607.128	57163.31
607.485	57086.93
607.843	57156.31
608.2	57264.55
608.557	57351.56
608.914	57306.81
609.272	57448.5
609.629	57636.52
609.986	57664.54
610.343	57700.93
610.7	57873.13
611.057	57801.71
611.414	57819.57
611.771	58069.96
612.127	58093.46
612.484	58145.66
612.841	58209.84
613.198	58110.18
613.554	58156.28
613.911	58327.12
614.267	58363.73
614.624	58357.18
614.98	58383.85
615.337	58658.42
615.693	58591.98
616.05	58571.41
616.406	58713.56
616.762	58724.18
617.118	58742.25
617.475	58757.4
617.831	58879.88
618.187	58968.92
618.543	59011.4
618.899	59035.35
619.255	59044.85
619.611	59120.32
619.967	59194.45
620.323	59270.83
620.678	59198.51
621.034	59147.67
621.39	59273.99
621.746	59228.34
622.101	59498.85
622.457	59271.28
622.812	59412.75
623.168	59469.47
623.523	59392.41
623.879	59491.61
624.234	59403.93
624.589	59518.05
624.945	59504.72
625.3	59566.64
625.655	59571.39
626.01	59550.6
626.365	59611.38
626.72	59505.17
627.075	59506.53
627.43	59552.18
627.785	59571.16
628.14	59556.24
628.495	59591.05
628.85	59619.29
629.205	59591.5
629.559	59692.74
629.914	59571.61
630.269	59628.11
630.623	59533.65
630.978	59516.47
631.332	59651.61
631.687	59623.36
632.041	59540.43
632.396	59615.45
632.75	59553.08
633.104	59591.5
633.459	59431.5
633.813	59500.43
634.167	59538.62
634.521	59436.25
634.875	59491.39
635.229	59454.55
635.583	59362.35
635.937	59359.64
636.291	59336.14
636.645	59325.52
636.999	59228.12
637.352	59318.06
637.706	59189.47
638.06	59266.53
638.413	59190.6
638.767	59148.12
639.121	59194.67
639.474	59100.44
639.828	59081.68
640.181	59002.14
640.534	59128.01
640.888	59024.28
641.241	58883.72
641.594	58946.32
641.947	58991.29
642.301	58921.91
642.654	58948.35
643.007	58882.36
643.36	58953.55
643.713	58830.16
644.066	58924.4
644.419	58830.61
644.771	58509.49
645.124	58241.48
645.477	58231.99
645.83	58120.8
646.182	58140.24
646.535	57991.77
646.888	58129.39
647.24	57987.7
647.593	58143.4
647.945	58015.04
648.298	57917.42
648.65	57792.22
649.002	57728.95
649.355	57712.68
649.707	57602.4
650.059	57663.19
650.411	58035.61
650.763	58136.17
651.115	58466.1
651.467	58335.26
651.819	58320.12
652.171	58289.39
652.523	58155.38
652.875	58206.22
653.227	58138.65
653.578	58288.48
653.93	58173.23
654.282	58047.81
654.633	58034.48
654.985	58092.55
655.337	58068.6
655.688	58040.8
656.039	58090.29
656.391	57860.02
656.742	57878.55
657.094	58026.79
657.445	57938.66
657.796	57983.18
658.147	57916.74
658.498	57936.4
658.849	57956.51
659.2	57841.94
659.551	57818.89
659.902	57938.66
660.253	57795.39
660.604	57963.07
660.955	57699.34
661.306	57888.27
661.656	57799
662.007	57730.3
662.358	57766.46
662.708	57777.99
663.059	57710.87
663.409	57599.23
663.76	57710.42
664.11	57706.12
664.461	57723.98
664.811	57728.27
665.161	57677.42
665.511	57599.91
665.862	57647.82
666.212	57722.17
666.562	57679.23
666.912	57665.9
667.262	57584.32
667.612	57645.11
667.962	57611.44
668.312	57541.38
668.662	57679.01
669.011	57529.41
669.361	57601.95
669.711	57622.06
670.06	57549.74
670.41	57483.76
670.76	57484.89
671.109	57529.63
671.459	57536.18
671.808	57551.55
672.157	57507.94
672.507	57324.67
672.856	57388.84
673.205	57434.94
673.554	57510.65
673.904	57377.77
674.253	57528.5
674.602	57484.89
674.951	57139.13
675.3	56955.86
675.649	57490.54
675.998	57367.38
676.346	57382.29
676.695	57435.4
677.044	57237.66
677.393	57309.98
677.741	57368.73
678.09	57276.76
678.438	57224.33
678.787	57349.07
679.135	57288.73
679.484	57147.49
679.832	57234.5
680.181	57097.55
680.529	57181.17
680.877	57107.72
681.225	57045.35
681.573	57283.08
681.922	57122.86
682.27	57015.75
682.618	57019.36
682.966	56950.21
683.314	56978.91
683.661	56926.26
684.009	56859.14
684.357	56887.39
684.705	56834.06
685.053	56875.19
685.4	56652.14
685.748	56694.17
686.095	56653.95
686.443	56577.11
686.79	56588.41
687.138	56655.53
687.485	56627.73
687.832	56535.31
688.18	56545.02
688.527	56409.43
688.874	56441.07
689.221	56403.56
689.568	56333.96
689.915	56229.55
690.262	56338.48
690.609	56171.93
690.956	56097.58
691.303	56100.06
691.65	56001.76
691.997	55965.15
692.344	55843.8
692.69	55779.85
693.037	55937.13
693.383	55570.59
693.73	55677.25
694.077	55549.12
694.423	55584.37
694.769	55555.22
695.116	55563.13
695.462	55383.47
695.808	55301.67
696.155	55323.59
696.501	55123.14
696.847	55227.77
697.193	55013.54
697.539	55044.27
697.885	54878.4
698.231	54849.25
698.577	54789.82
698.923	54738.97
699.269	54522.03
699.614	54449.94
699.96	54383.95
700.306	54413.33
700.651	54335.59
700.997	54202.94
701.342	54223.05
701.688	54069.16
702.033	54079.55
702.379	54089.27
702.724	53883.63
703.069	53944.41
703.415	53606.57
703.76	53584.42
704.105	53586.68
704.45	53415.16
704.795	53443.86
705.14	53257.43
705.485	53303.75
705.83	53116.87
706.175	53262.17
706.52	52997.1
706.865	52917.78
707.209	52943.09
707.554	52829.42
707.899	52862.41
708.243	52666.48
708.588	52667.16
708.932	52529.54
709.277	52554.62
709.621	52372.7
709.966	52210
710.31	52253.61
710.654	52130.45
710.998	52144.91
711.342	52130.45
711.687	52119.38
712.031	51854.07
712.375	51737.24
712.719	51745.6
713.063	51780.4
713.407	51801.19
713.75	51608.21
714.094	51686.85
714.438	51464.48
714.782	51359.4
715.125	51249.12
715.469	51449.57
715.812	51104.04
716.156	51130.25
716.499	50979.07
716.843	51110.14
717.186	50931.61
717.53	51113.53
717.873	51030.82
718.216	50856.36
718.559	50835.57
718.902	50500.44
719.246	50658.63
719.589	50517.16
719.932	50369.14
720.275	50436.03
720.617	50496.6
720.96	50392.87
721.303	50283.27
721.646	50398.52
721.989	50031.52
722.331	50232.42
722.674	50121.24
723.016	50037.85
723.359	49955.59
723.701	49957.4
724.044	49940.68
724.386	49690.97
724.729	49924.18
725.071	49806.22
725.413	49725.77
725.755	49592.44
726.097	49594.02
726.439	49427.92
726.782	49340.24
727.124	49496.17
727.465	49478.09
727.807	49182.96
728.149	49351.09
728.491	49168.04
728.833	49165.56
729.175	49057.99
729.516	49020.25
729.858	48925.79
730.199	49039.23
730.541	49072.45
730.882	48914.94
731.224	48973.25
731.565	48874.04
731.906	48822.74
732.248	48885.11
732.589	48620.26
732.93	48525.12
733.271	48516.99
733.612	48485.12
733.953	48752.91
734.294	48516.54
734.635	48473.82
734.976	48550.43
735.317	48400.38
735.658	48223.66
735.999	48165.36
736.339	48172.82
736.68	48138.47
737.021	48204.68
737.361	48015.98
737.702	48313.83
738.042	48076.09
738.383	48058.69
738.723	48052.37
739.063	47911.35
739.404	47960.17
739.744	47896.89
740.084	47805.82
740.424	47884.91
740.764	47831.58
741.104	47910.45
741.444	47624.36
741.784	47643.79
742.124	47751.36
742.464	47530.35
742.804	47605.37
743.143	47394.53
743.483	47552.94
743.823	47336.68
744.162	47406.28
744.502	47454.42
744.841	47262.33
745.181	47472.95
745.52	47143.24
745.86	47424.81
746.199	47168.1
746.538	47229.56
746.877	47277.7
747.216	47159.28
747.556	46970.59
747.895	47014.88
748.234	46854.88
748.573	46873.87
748.911	46900.08
749.25	46798.84
749.589	46625.51
749.928	46870.48
750.267	46776.92
750.605	46639.3
750.944	46671.61
751.283	46445.4
751.621	46545.06
751.96	46311.4
752.298	46442.69
752.636	46296.71
752.975	46216.26
753.313	45967.68
753.651	46338.29
753.989	46045.64
754.327	45955.47
754.666	45717.29
755.004	45812.88
755.342	45834.8
755.679	45757.96
756.017	45491.53
756.355	45831.86
756.693	45564.3
757.031	45729.94
757.368	45293.34
757.706	45292.44
758.044	45329.95
758.381	45169.73
758.719	45059.22
759.056	45058.77
759.394	44966.35
759.731	44728.61
760.068	44619.46
760.405	44764.09
760.743	44489.97
761.08	44529.75
761.417	44262.86
761.754	44180.83
762.091	44039.82
762.428	43895.64
762.765	43837.34
763.102	43794.4
763.438	43681.86
763.775	43522.99
764.112	43410
764.449	43461.98
764.785	43247.75
765.122	43115.32
765.458	42759.85
765.795	42822.9
766.131	42800.08
766.467	42692.96
766.804	42351.27
767.14	42270.6
767.476	42140.66
767.812	41956.48
768.148	42242.8
768.485	41953.77
768.821	41659.31
769.157	41430.17
769.492	41503.84
769.828	41307.91
770.164	41055.04
770.5	40967.36
770.836	41068.14
771.171	40743.86
771.507	40631.32
771.842	40494.83
772.178	40516.29
772.513	40267.26
772.849	40088.51
773.184	40100.49
773.519	40028.4
773.855	39733.49
774.19	39538.47
774.525	39542.53
774.86	39376.89
775.195	39307.96
775.53	39050.34
775.865	38926.05
776.2	38714.53
776.535	38349.57
776.87	38326.75
777.205	38363.36
777.539	38158.84
777.874	38088.79
778.209	37921.79
778.543	37916.81
778.878	37600.44
779.212	37473.44
779.547	37367.68
779.881	37320.67
780.215	36952.55
780.55	37125.65
780.884	36905.31
781.218	36757.07
781.552	36813.11
781.886	36580.58
782.22	36362.73
782.554	36214.49
782.888	35896.3
783.222	35810.65
783.556	35687.49
783.889	35705.35
784.223	35410.44
784.557	35285.24
784.89	35315.98
785.224	35181.07
785.557	34908.76
785.891	34961.41
786.224	34825.37
786.558	34764.13
786.891	34607.75
787.224	34321.65
787.557	34246.4
787.891	34138.38
788.224	33993.98
788.557	33860.42
788.89	33840.54
789.223	33767.77
789.556	33616.81
789.888	33488
790.221	33377.05
790.554	33216.82
790.887	33241.91
791.219	32877.4
791.552	32868.81
791.884	32757.4
792.217	32625.2
792.549	32602.15
792.882	32279.22
793.214	32246
793.546	32295.49
793.879	32050.08
794.211	31798.1
794.543	32149.28
794.875	31903.86
795.207	31833.36
795.539	31730.08
795.871	31720.14
796.203	31378.91
796.535	31269.3
796.867	31224.79
797.198	31007.84
797.53	30980.5
797.862	30782.76
798.193	30740.05
798.525	30709.32
798.856	30765.14
799.188	30412.15
799.519	30375.09
799.85	30129.67
800.182	30161.76
800.513	30302.78
800.844	29759.29
801.175	29976.01
801.506	29932.16
801.837	29731.27
802.168	29719.06
802.499	29671.83
802.83	29502.57
803.161	29380.99
803.491	29343.93
803.822	29367.43
804.153	29160.66
804.483	28987.56
804.814	28912.08
805.145	28901.23
805.475	28920.89
805.805	28757.05
806.136	28681.58
806.466	28552.09
806.796	28651.07
807.126	28464.63
807.457	28461.02
807.787	28341.7
808.117	28147.58
808.447	28203.4
808.777	28154.58
809.107	27939
809.436	27864.2
809.766	27823.75
810.096	27853.12
810.426	27677.76
810.755	27818.55
811.085	27739.23
811.414	27569.52
811.744	27446.58
812.073	27433.02
812.403	27269.18
812.732	27153.71
813.061	27212.24
813.39	26995.29
813.719	26893.6
814.049	27013.6
814.378	26834.39
814.707	26807.5
815.036	26826.48
815.365	26552.14
815.693	26546.49
816.022	26522.09
816.351	26460.84
816.68	26312.6
817.008	26323.67
817.337	26077.35
817.665	26169.78
817.994	26138.59
818.322	26286.61
818.651	26119.16
818.979	25979.27
819.307	25985.83
819.636	25949.22
819.964	25752.39
820.292	25942.44
820.62	25785.83
820.948	25818.15
821.276	25891.82
821.604	25792.61
821.932	25810.47
822.259	25859.96
822.587	25793.29
822.915	25792.84
823.243	25753.07
823.57	25645.27
823.898	25789.22
824.225	25717.59
824.553	25676.23
824.88	25679.17
825.207	25767.08
825.535	25605.95
825.862	25747.42
826.189	25633.75
826.516	25952.38
826.843	25703.58
827.17	25767.3
827.497	25792.61
827.824	25802.33
828.151	25857.47
828.478	25620.41
828.805	25930.01
829.131	25777.7
829.458	25704.71
829.785	25538.38
830.111	25682.33
830.438	25713.74
830.764	25649.11
831.09	25705.84
831.417	25513.52
831.743	25651.37
832.069	25677.59
832.395	25636.46
832.722	25620.19
833.048	25486.63
833.374	25617.7
833.7	25445.28
834.026	25572.05
834.351	25466.52
834.677	25463.81
835.003	25480.08
835.329	25570.92
835.654	25470.36
835.98	25217.49
836.306	25401.44
836.631	25373.41
836.956	25324.6
837.282	25414.32
837.607	25166.64
837.932	25210.93
838.258	25171.61
838.583	25143.59
838.908	25098.39
839.233	25218.84
839.558	25041.9
839.883	24972.75
840.208	24854.56
840.533	24935.91
840.858	24843.49
841.182	24866.08
841.507	24804.39
841.832	24735.01
842.156	24625.86
842.481	24709.7
842.805	24673.77
843.13	24594.9
843.454	24708.35
843.778	24411.63
844.103	24414.12
844.427	24426.1
844.751	24429.71
845.075	24312.65
845.399	24236.95
845.723	24191.75
846.047	24169.15
846.371	24025.2
846.695	23930.97
847.019	23878.54
847.343	23581.15
847.666	23574.14
847.99	23480.36
848.313	23427.7
848.637	23375.95
848.96	23316.29
849.284	23288.5
849.607	23158.33
849.931	23008.28
850.254	22894.38
850.577	22778.45
850.9	22500.5
851.223	22612.13
851.546	22515.18
851.869	22382.08
852.192	22582.08
852.515	22185.7
852.838	22114.29
853.161	22154.97
853.483	22022.09
853.806	21949.55
854.129	21958.59
854.451	21855.77
854.774	21732.83
855.096	21714.53
855.419	21660.52
855.741	21498.26
856.063	21466.4
856.385	21358.83
856.708	21326.97
857.03	21261.43
857.352	21270.25
857.674	21121.32
857.996	21070.25
858.318	20927.88
858.64	20962.23
858.961	20983.25
859.283	20877.71
859.605	20751.84
859.926	20794.1
860.248	20678.17
860.57	20565.63
860.891	20516.59
861.212	20484.05
861.534	20436.82
861.855	20307.33
862.176	20317.5
862.498	20442.7
862.819	20262.36
863.14	20264.62
863.461	20169.03
863.782	20184.62
864.103	20146.43
864.424	20073.89
864.745	20102.82
865.065	19935.14
865.386	19947.12
865.707	19861.02
866.027	19987.34
866.348	19837.52
866.668	19755.48
866.989	19813.33
867.309	19614.02
867.63	19671.64
867.95	19650.4
868.27	19565.21
868.59	19715.94
868.91	19536.96
869.23	19599.1
869.55	19496.28
869.87	19499.67
870.19	19345.32
870.51	19358.66
870.83	19512.55
871.15	19275.95
871.469	19278.21
871.789	19469.16
872.109	19394.81
872.428	19254.71
872.748	19237.3
873.067	19180.13
873.386	19163.86
873.706	19153.92
874.025	19037.99
874.344	19008.38
874.663	19110.53
874.982	19008.38
875.301	19062.39
875.62	18925.45
875.939	18771.33
876.258	18945.34
876.577	18767.71
876.896	18798.22
877.214	18692.91
877.533	18834.38
877.852	18667.6
878.17	18739.01
878.489	18733.82
878.807	18677.32
879.125	18541.73
879.444	18528.17
879.762	18496.53
880.08	18580.6
880.398	18448.63
880.716	18464.67
881.034	18391
881.352	18415.18
881.67	18377.67
881.988	18290.66
882.306	18276.65
882.624	18202.98
882.941	18158.24
883.259	18093.83
883.577	18139.48
883.894	17943.1
884.212	17944.91
884.529	17984.68
884.846	17935.64
885.164	17801.41
885.481	17794.86
885.798	17831.92
886.115	17718.02
886.432	17733.16
886.75	17653.17
887.067	17659.95
887.383	17629.21
887.7	17621.3
888.017	17410.23
888.334	17430.8
888.651	17362.78
888.967	17350.8
889.284	17329.33
889.6	17242.1
889.917	17208.43
890.233	17229
890.55	17189.22
890.866	17088.21
891.182	17112.39
891.498	16983.58
891.815	16875.56
892.131	16834.43
892.447	16860.87
892.763	16720.53
893.079	16731.38
893.395	16709.69
893.71	16515.79
894.026	16631.05
894.342	16555.79
894.657	16443.93
894.973	16376.14
895.289	16406.64
895.604	16313.99
895.92	16277.16
896.235	16186.31
896.55	16133.66
896.865	16127.78
897.181	15983.15
897.496	16048.24
897.811	15943.83
898.126	15829.94
898.441	15796.49
898.756	15883.49
899.071	15696.16
899.386	15745.65
899.7	15600.79
900.015	15537.97
900.33	15427.91
900.644	15379.78
900.959	15433.11
901.273	15300.91
901.588	15382.49
901.902	15348.59
902.216	15168.26
902.531	15123.74
902.845	15077.41
903.159	14899.11
903.473	14907.02
903.787	14900.92
904.101	14781.6
904.415	14800.36
904.729	14783.18
905.042	14593.81
905.356	14640.82
905.67	14648.72
905.984	14577.09
906.297	14457.54
906.611	14420.03
906.924	14368.28
907.237	14249.87
907.551	14360.15
907.864	14161.73
908.177	14154.05
908.491	14141.39
908.804	14006.71
909.117	13965.35
909.43	13843.77
909.743	13774.85
910.056	13767.84
910.368	13773.27
910.681	13712.7
910.994	13604.01
911.307	13618.92
911.619	13496.66
911.932	13519.72
912.244	13389.78
912.557	13375.54
912.869	13299.83
913.181	13250.8
913.494	13287.63
913.806	13114.53
914.118	13087.18
914.43	13034.76
914.742	12959.96
915.054	12918.83
915.366	12869.56
915.678	12828.43
915.99	12759.51
916.302	12594.54
916.613	12724.93
916.925	12687.87
917.236	12562.23
917.548	12504.15
917.859	12540.76
918.171	12366.75
918.482	12359.29
918.794	12343.7
919.105	12246.3
919.416	12171.28
919.727	12116.81
920.038	12121.79
920.349	12025.52
920.66	11904.62
920.971	11942.58
921.282	11908.46
921.593	11748.24
921.903	11746.2
922.214	11766.99
922.525	11688.12
922.835	11617.39
923.146	11540.11
923.456	11526.32
923.767	11432.09
924.077	11446.1
924.387	11429.83
924.697	11298.3
925.008	11324.07
925.318	11160
925.628	11248.81
925.938	11141.92
926.248	11036.39
926.558	10966.79
926.867	10954.36
927.177	10928.6
927.487	10912.33
927.796	10748.26
928.106	10789.17
928.416	10765.21
928.725	10744.19
929.034	10587.14
929.344	10651.32
929.653	10648.15
929.962	10499.46
930.271	10442.51
930.581	10452.45
930.89	10384.2
931.199	10338.33
931.508	10254.49
931.817	10257.2
932.125	10220.14
932.434	10145.34
932.743	10093.59
933.051	10048.17
933.36	9946.25
933.669	9985.12
933.977	9927.95
934.286	9882.75
934.594	9850.43
934.902	9796.42
935.21	9713.71
935.519	9754.16
935.827	9713.94
936.135	9682.75
936.443	9561.4
936.751	9528.63
937.059	9502.87
937.367	9469.43
937.674	9439.14
937.982	9394.17
938.29	9349.2
938.597	9308.98
938.905	9215.65
939.213	9181.75
939.52	9170.22
939.827	9171.35
940.135	9121.64
940.442	9058.14
940.749	9083
941.056	8958.48
941.363	8965.94
941.67	8918.48
941.977	8893.17
942.284	8876.45
942.591	8819.73
942.898	8798.94
943.205	8726.62
943.511	8689.33
943.818	8632.39
944.125	8547.19
944.431	8533.41
944.738	8597.36
945.044	8475.1
945.35	8425.39
945.657	8393.3
945.963	8390.81
946.269	8359.4
946.575	8290.25
946.881	8287.99
947.187	8258.16
947.493	8209.12
947.799	8146.07
948.105	8109.01
948.41	8148.78
948.716	8071.27
949.022	8034.44
949.327	7971.39
949.633	7931.61
949.938	7916.25
950.244	7889.13
950.549	7787.89
950.854	7871.73
951.16	7743.82
951.465	7720.55
951.77	7688.46
952.075	7650.26
952.38	7655.46
952.685	7593.54
952.99	7523.26
953.294	7539.53
953.599	7435.36
953.904	7415.69
954.209	7380.67
954.513	7386.32
954.818	7373.21
955.122	7354
955.426	7269.48
955.731	7248.92
956.035	7230.61
956.339	7121.01
956.643	7126.66
956.948	7122.37
957.252	7062.71
957.556	7020
957.86	7044.86
958.163	7006.67
958.467	7006.89
958.771	6946.1
959.075	6852.09
959.378	6869.72
959.682	6828.14
959.985	6769.61
960.289	6776.16
960.592	6732.32
960.896	6751.08
961.199	6679.22
961.502	6678.09
961.805	6596.73
962.108	6517.41
962.411	6559.22
962.714	6435.38
963.017	6500.24
963.32	6496.62
963.623	6457.75
963.926	6386.57
964.228	6411.88
964.531	6396.74
964.833	6378.43
965.136	6293.92
965.438	6234.03
965.741	6208.49
966.043	6215.95
966.345	6149.74
966.648	6140.02
966.95	6120.36
967.252	6088.27
967.554	6058.44
967.856	6041.04
968.158	6002.4
968.46	5949.29
968.761	5968.5
969.063	5993.81
969.365	5907.49
969.666	5869.52
969.968	5834.49
970.269	5847.15
970.571	5796.98
970.872	5778
971.174	5723.99
971.475	5744.33
971.776	5680.15
972.077	5647.15
972.378	5664.78
972.679	5602.64
972.98	5624.33
973.281	5520.83
973.582	5522.19
973.883	5502.07
974.183	5483.77
974.484	5477.89
974.785	5443.77
975.085	5410.1
975.386	5435.41
975.686	5373.71
975.986	5322.42
976.287	5274.28
976.587	5233.38
976.887	5308.86
977.187	5252.36
977.487	5240.84
977.787	5230.22
978.087	5142.08
978.387	5118.13
978.687	5126.94
978.987	5088.98
979.286	5045.36
979.586	5034.97
979.885	5016.44
980.185	4991.8
980.484	4992.48
980.784	4983.67
981.083	4952.48
981.382	4901.41
981.682	4896.89
981.981	4855.76
982.28	4886.95
982.579	4768.53
982.878	4842.88
983.177	4786.84
983.475	4771.7
983.774	4705.03
984.073	4693.28
984.372	4679.04
984.67	4688.99
984.969	4687.4
985.267	4612.38
985.566	4590.68
985.864	4572.38
986.162	4533.74
986.461	4510.23
986.759	4532.83
987.057	4522.21
987.355	4457.81
987.653	4453.96
987.951	4430.24
988.249	4409.67
988.547	4416
988.844	4369
989.142	4392.5
989.44	4331.71
989.737	4318.15
990.035	4292.61
990.332	4227.98
990.63	4210.81
990.927	4234.76
991.224	4192.5
991.521	4166.51
991.819	4179.85
992.116	4140.53
992.413	4102.11
992.71	4096.46
993.006	4061.66
993.303	4060.53
993.6	4021.66
993.897	4049.46
994.193	4005.84
994.49	3954.77
994.787	3953.41
995.083	3950.02
995.379	3922.23
995.676	3910.25
995.972	3887.43
996.268	3898.73
996.565	3872.29
996.861	3856.69
997.157	3843.59
997.453	3787.77
997.749	3721.55
998.044	3719.97
998.34	3731.5
998.636	3698.73
998.932	3675
999.227	3640.65
999.523	3642.01
999.818	3626.42
1000.114	3605.85
1000.409	3594.33
1000.704	3555.01
1001	3521.11
1001.295	3500.54
1001.59	3484.72
1001.885	3487.21
1002.18	3469.81
1002.475	3446.76
1002.77	3442.92
1003.065	3422.58
1003.359	3391.39
1003.654	3382.35
1003.949	3391.39
1004.243	3350.27
1004.538	3270.49
1004.832	3303.49
1005.127	3307.1
1005.421	3247.89
1005.715	3225.52
1006.009	3190.95
1006.304	3180.1
1006.598	3182.13
1006.892	3176.03
1007.186	3117.5
1007.48	3119.54
1007.773	3096.03
1008.067	3109.14
1008.361	3061.46
1008.655	3021.23
1008.948	3019.88
1009.242	3052.42
1009.535	2992.99
1009.829	2970.39
1010.122	2958.86
1010.415	2944.4
1010.708	2933.1
1011.001	2882.71
1011.295	2898.07
1011.588	2828.92
1011.881	2865.76
1012.173	2815.82
1012.466	2795.25
1012.759	2785.76
1013.052	2791.64
1013.344	2766.78
1013.637	2734.01
1013.93	2734.46
1014.222	2683.16
1014.514	2678.87
1014.807	2665.31
1015.099	2632.77
1015.391	2651.3
1015.683	2638.42
1015.976	2599.78
1016.268	2587.57
1016.56	2562.49
1016.851	2540.57
1017.143	2559.55
1017.435	2497.63
1017.727	2495.82
1018.018	2491.76
1018.31	2431.19
1018.602	2474.36
1018.893	2445.66
1019.185	2441.36
1019.476	2436.16
1019.767	2424.19
1020.058	2376.96
1020.35	2358.43
1020.641	2313
1020.932	2313
1021.223	2275.94
1021.514	2305.09
1021.804	2256.51
1022.095	2259.45
1022.386	2235.27
1022.677	2214.02
1022.967	2195.04
1023.258	2197.75
1023.548	2177.41
1023.839	2142.84
1024.129	2148.04
1024.419	2131.31
1024.709	2122.27
1025	2099.45
1025.29	2071.2
1025.58	2061.49
1025.87	2047.47
1026.16	2036.18
1026.449	2021.71
1026.739	2031.43
1027.029	1958.21
1027.319	1968.38
1027.608	1965.67
1027.898	1937.65
1028.187	1947.82
1028.477	1916.4
1028.766	1908.27
1029.055	1913.01
1029.344	1872.56
1029.634	1869.17
1029.923	1836.18
1030.212	1827.82
1030.501	1834.37
1030.79	1804.54
1031.078	1783.53
1031.367	1799.8
1031.656	1786.46
1031.945	1739.23
1032.233	1751.66
1032.522	1713.02
1032.81	1733.13
1033.099	1716.64
1033.387	1693.13
1033.675	1675.73
1033.963	1690.87
1034.251	1681.83
1034.54	1647.03
1034.828	1647.71
1035.116	1623.3
1035.403	1615.62
1035.691	1601.61
1035.979	1607.71
1036.267	1585.79
1036.554	1550.99
1036.842	1565.91
1037.129	1572.68
1037.417	1506.25
1037.704	1510.54
1037.992	1507.6
1038.279	1475.96
1038.566	1499.24
1038.853	1499.24
1039.14	1499.24
