Data from 13-0850_FLMS001491_004.txt Node
Date: Thu Apr 12 17:08:26 BST 2018
User: hsy
Spectrometer: FLMS00149
Trigger mode: 0
Integration Time (sec): 1.000000E-2
Scans to average: 10
Electric dark correction enabled: true
Nonlinearity correction enabled: false
Boxcar width: 0
XAxis mode: Wavelengths
Number of Pixels in Spectrum: 2048
>>>>>Begin Spectral Data<<<<<
341.393	-15.23
341.776	-15.23
342.16	-15.23
342.543	-55.45
342.927	-60.65
343.31	-52.06
343.693	-86.64
344.077	-71.95
344.46	-57.71
344.843	-38.28
345.226	-36.92
345.61	-40.76
345.993	-20.88
346.376	-11.61
346.759	11.44
347.142	26.81
347.525	48.5
347.908	40.59
348.291	83.53
348.674	84.88
349.057	121.04
349.44	132.79
349.823	140.93
350.206	172.11
350.588	255.5
350.971	252.79
351.354	263.41
351.737	307.48
352.119	297.99
352.502	301.15
352.884	311.32
353.267	316.97
353.65	323.52
354.032	338.89
354.414	341.6
354.797	365.78
355.179	358.78
355.562	349.74
355.944	390.64
356.326	369.62
356.709	368.27
357.091	390.87
357.473	399.68
357.855	386.57
358.238	399.23
358.62	395.61
359.002	380.47
359.384	397.64
359.766	372.56
360.148	374.37
360.53	406.91
360.912	374.14
361.294	394.93
361.676	406.01
362.057	374.14
362.439	391.09
362.821	379.11
363.203	361.49
363.584	379.79
363.966	367.14
364.348	382.96
364.729	363.52
365.111	377.53
365.493	379.57
365.874	372.79
366.256	391.32
366.637	390.41
367.019	382.5
367.4	374.59
367.781	390.87
368.163	386.12
368.544	372.79
368.925	375.95
369.306	373.69
369.688	369.17
370.069	382.05
370.45	368.95
370.831	368.72
371.212	380.47
371.593	386.57
371.974	395.16
372.355	396.29
372.736	381.37
373.117	372.56
373.498	382.5
373.879	385.89
374.26	388.15
374.641	389.51
375.021	376.63
375.402	390.87
375.783	393.35
376.163	384.31
376.544	407.81
376.925	397.87
377.305	414.14
377.686	412.11
378.066	399.68
378.447	393.13
378.827	420.24
379.208	407.36
379.588	408.04
379.968	432.67
380.349	419.34
380.729	429.51
381.109	409.85
381.489	421.83
381.87	422.95
382.25	402.84
382.63	417.98
383.01	434.71
383.39	430.64
383.77	423.18
384.15	424.31
384.53	431.77
384.91	430.64
385.29	434.03
385.67	445.78
386.049	443.29
386.429	438.1
386.809	442.84
387.189	453.91
387.568	453.91
387.948	463.41
388.328	489.85
388.707	450.98
389.087	458.66
389.466	468.15
389.846	471.32
390.225	471.32
390.605	487.13
390.984	475.38
391.363	497.76
391.743	494.37
392.122	507.92
392.501	522.16
392.881	493.91
393.26	497.53
393.639	501.6
394.018	511.77
394.397	511.77
394.776	532.1
395.155	521.48
395.534	503.4
395.913	519.9
396.292	530.97
396.671	515.16
397.05	518.77
397.429	530.52
397.808	546.12
398.186	546.12
398.565	530.3
398.944	548.83
399.323	552.9
399.701	535.95
400.08	571.88
400.458	548.38
400.837	557.41
401.215	571.88
401.594	543.4
401.972	602.84
402.351	599.22
402.729	588.37
403.107	576.17
403.486	592.89
403.864	607.36
404.242	603.97
404.62	603.97
404.999	619.33
405.377	626.79
405.755	617.53
406.133	645.32
406.511	630.86
406.889	647.13
407.267	652.33
407.645	663.17
408.023	649.84
408.401	660.46
408.779	669.95
409.156	667.92
409.534	699.33
409.912	686.68
410.29	737.52
410.667	704.98
411.045	705.89
411.422	726.9
411.8	740.91
412.178	731.87
412.555	761.93
412.933	761.48
413.31	780.01
413.687	769.61
414.065	779.33
414.442	811.19
414.819	813.23
415.197	798.09
415.574	814.81
415.951	844.19
416.328	852.1
416.705	848.03
417.082	863.85
417.46	863.85
417.837	874.24
418.214	862.04
418.591	875.15
418.967	884.86
419.344	921.92
419.721	874.02
420.098	919.67
420.475	892.55
420.852	932.77
421.228	914.24
421.605	934.58
421.982	927.12
422.358	960.79
422.735	947.91
423.111	945.43
423.488	938.65
423.864	991.3
424.241	987.46
424.617	1020
424.994	980.23
425.37	993.79
425.746	1003.96
426.123	1022.04
426.499	1033.33
426.875	1070.4
427.251	1043.05
427.627	1060.23
428.003	1032.66
428.379	1102.94
428.756	1134.57
429.132	1123.73
429.507	1137.29
429.883	1145.87
430.259	1129.38
430.635	1164.4
431.011	1153.33
431.387	1179.55
431.763	1198.75
432.138	1197.85
432.514	1211.41
432.89	1235.36
433.265	1246.44
433.641	1253.89
434.016	1283.5
434.392	1302.03
434.767	1310.62
435.143	1304.97
435.518	1309.26
435.894	1330.5
436.269	1338.64
436.644	1361.24
437.02	1366.66
437.395	1367.11
437.77	1378.64
438.145	1418.86
438.52	1446.66
438.895	1460.89
439.271	1440.33
439.646	1458.63
440.021	1500.21
440.395	1470.16
440.77	1455.7
441.145	1488.92
441.52	1499.54
441.895	1501.57
442.27	1535.24
442.645	1506.99
443.019	1531.63
443.394	1525.75
443.769	1532.76
444.143	1516.03
444.518	1551.06
444.892	1516.94
445.267	1526.88
445.641	1571.63
446.016	1601.23
446.39	1616.6
446.764	1609.59
447.139	1636.71
447.513	1645.07
447.887	1675.35
448.262	1644.39
448.636	1653.43
449.01	1678.06
449.384	1710.38
449.758	1722.13
450.132	1716.93
450.506	1736.37
450.88	1725.07
451.254	1767.1
451.628	1755.58
452.002	1793.09
452.376	1813.65
452.75	1820.21
453.123	1826.53
453.497	1831.51
453.871	1886.42
454.244	1900.43
454.618	1940.66
454.992	1952.63
455.365	1975.91
455.739	1992.86
456.112	2005.74
456.486	2053.42
456.859	2043.25
457.232	2111.72
457.606	2149.24
457.979	2148.79
458.352	2181.78
458.725	2180.65
459.099	2229.46
459.472	2242.79
459.845	2310.81
460.218	2287.31
460.591	2313.75
460.964	2334.09
461.337	2332.28
461.71	2423.81
462.083	2409.34
462.456	2449.12
462.829	2466.74
463.201	2497.48
463.574	2504.93
463.947	2549.45
464.32	2556.23
464.692	2597.81
465.065	2645.27
465.438	2675.1
465.81	2704.25
466.183	2696.34
466.555	2749.45
466.928	2814.76
467.3	2804.36
467.672	2833.97
468.045	2869.67
468.417	2916.22
468.789	2934.75
469.161	2971.59
469.534	2975.66
469.906	3062.89
470.278	3059.27
470.65	3141.98
471.022	3174.75
471.394	3217.23
471.766	3295.65
472.138	3301.75
472.51	3349.21
472.882	3399.15
473.253	3466.26
473.625	3495.64
473.997	3538.35
474.369	3587.39
474.74	3641.4
475.112	3706.48
475.484	3765.92
475.855	3813.83
476.227	3854.28
476.598	3965.46
476.97	3954.39
477.341	4090.2
477.713	4115.97
478.084	4228.05
478.455	4283.87
478.827	4325
479.198	4445.9
479.569	4445.9
479.94	4591.66
480.311	4692.9
480.682	4788.26
481.053	4912.55
481.424	5011.08
481.795	5059.44
482.166	5186.45
482.537	5234.35
482.908	5389.6
483.279	5444.52
483.65	5573.33
484.021	5686.09
484.391	5755.02
484.762	5846.99
485.133	6008.57
485.503	6076.37
485.874	6239.98
486.244	6345.96
486.615	6518.61
486.985	6621.21
487.356	6720.42
487.726	6792.05
488.097	7028.66
488.467	7155.43
488.837	7320.85
489.207	7479.72
489.578	7600.85
489.948	7769.88
490.318	7900.95
490.688	8000.38
491.058	8219.36
491.428	8438.79
491.798	8577.99
492.168	8741.61
492.538	8969.4
492.908	9111.54
493.278	9283.74
493.648	9414.13
494.017	9636.72
494.387	9733.9
494.757	9958.98
495.126	10116.26
495.496	10259.08
495.866	10509.7
496.235	10662.69
496.605	10998.95
496.974	11046.63
497.344	11306.06
497.713	11390.35
498.082	11663.34
498.452	11924.35
498.821	12200.95
499.19	12316.43
499.559	12520.49
499.928	12741.05
500.298	12879.58
500.667	13221.04
501.036	13384.87
501.405	13558.88
501.774	13849.72
502.143	14018.76
502.512	14268.69
502.88	14522.92
503.249	14604.05
503.618	14980.09
503.987	15220.31
504.356	15429.34
504.724	15649.45
505.093	15904.36
505.462	16153.16
505.83	16391.12
506.199	16507.96
506.567	16961.05
506.936	16999.69
507.304	17314.94
507.672	17592
508.041	17722.16
508.409	18076.5
508.777	18377.51
509.145	18709.93
509.514	18703.83
509.882	19040.54
510.25	19207.55
510.618	19396.02
510.986	19612.51
511.354	19956.68
511.722	20203.9
512.09	20450.22
512.458	20564.57
512.826	20930.66
513.193	21014.05
513.561	21303.31
513.929	21401.61
514.297	21763.41
514.664	21995.27
515.032	22217.64
515.4	22526.33
515.767	22725.87
516.135	22805.64
516.502	22869.6
516.869	23327.44
517.237	23590.26
517.604	23477.49
517.972	23983.24
518.339	24098.94
518.706	24310.69
519.073	24490.57
519.44	24755.42
519.808	25159.93
520.175	25167.62
520.542	25479.25
520.909	25720.14
521.276	25809.86
521.643	26024.09
522.009	26427.92
522.376	26574.81
522.743	26863.62
523.11	27316.71
523.477	27445.3
523.843	27713.54
524.21	28040.99
524.577	28311.94
524.943	28512.39
525.31	28643.46
525.676	29116.66
526.043	29175.87
526.409	29302.2
526.776	29679.59
527.142	29891.11
527.508	29960.71
527.874	30563.86
528.241	30600.92
528.607	30831.65
528.973	31170.17
529.339	31272.54
529.705	31587.79
530.071	31935.57
530.437	32096.7
530.803	32328.56
531.169	32487.65
531.535	32665.95
531.901	32754.31
532.267	32897.13
532.632	33093.73
532.998	33270
533.364	33437
533.73	33600.39
534.095	33989.3
534.461	34032.92
534.826	34353.81
535.192	34507.93
535.557	34769.4
535.923	34770.98
536.288	34898.88
536.653	35129.16
537.019	35109.95
537.384	35269.27
537.749	35515.14
538.114	35612.54
538.479	35547.91
538.845	35789.93
539.21	35657.73
539.575	36066.76
539.94	36084.16
540.305	36392.86
540.67	36328.9
541.034	36626.07
541.399	36721.21
541.764	36816.8
542.129	36789.91
542.494	36996
542.858	37161.2
543.223	37231.93
543.587	37488.65
543.952	37414.3
544.316	37599.15
544.681	37598.25
545.045	37929.99
545.41	37971.35
545.774	38003.21
546.138	38055.19
546.503	38140.83
546.867	38196.65
547.231	38655.4
547.595	38509.86
547.959	38750.31
548.324	38788.5
548.688	38844.32
549.052	39038.66
549.416	39122.05
549.779	39150.52
550.143	39398.65
550.507	39642.04
550.871	39718.42
551.235	39751.41
551.599	40098.07
551.962	40226.88
552.326	40236.15
552.689	40326.99
553.053	40173.55
553.417	40435.46
553.78	40893.08
554.143	40871.83
554.507	40955.45
554.87	41182.34
555.234	41451.25
555.597	41264.37
555.96	41335.1
556.323	41635.43
556.686	41713.39
557.05	42120.62
557.413	42145.02
557.776	42292.14
558.139	42613.03
558.502	42550.21
558.865	42667.72
559.228	42984.55
559.59	43174.6
559.953	43211.66
560.316	43710.4
560.679	43756.05
561.041	43815.49
561.404	44194.69
561.767	44543.38
562.129	44274.23
562.492	44801.9
562.854	44792.18
563.217	44928.68
563.579	44990.82
563.941	45227.88
564.304	45581.09
564.666	45902.44
565.028	45814.08
565.39	45945.37
565.753	46247.74
566.115	46340.84
566.477	46573.15
566.839	46689.08
567.201	47070.54
567.563	46944.67
567.925	47248.39
568.287	47389.63
568.648	47540.81
569.01	47736.29
569.372	47984.64
569.734	48095.6
570.095	48361.36
570.457	48444.29
570.819	48534.23
571.18	48551.18
571.542	48820.55
571.903	48882.47
572.265	49094.22
572.626	49243.59
572.987	49418.5
573.349	49564.94
573.71	49656.69
574.071	49787.53
574.432	50019.62
574.794	50201.08
575.155	50107.98
575.516	50283.11
575.877	50545.48
576.238	50576.44
576.599	50740.05
576.96	50669.32
577.32	50895.75
577.681	51005.58
578.042	51257.1
578.403	51222.75
578.763	51236.53
579.124	51484.44
579.485	51712.91
579.845	51689.4
580.206	51771.21
580.566	51814.82
580.927	51854.15
581.287	52008.49
581.648	51959.45
582.008	52156.28
582.368	52183.63
582.728	52306.79
583.089	52265.89
583.449	52406.9
583.809	52500.91
584.169	52698.64
584.529	52567.8
584.889	52898.64
585.249	52657.51
585.609	52686.89
585.969	52967.11
586.329	52873.1
586.688	53133.66
587.048	53194.67
587.408	53106.77
587.768	53234
588.127	53296.59
588.487	53253.2
588.846	53573.65
589.206	53346.99
589.565	53564.38
589.925	53781.1
590.284	53709.69
590.643	53775.68
591.003	53901.32
591.362	54175.44
591.721	54035.1
592.08	54127.31
592.44	54271.71
592.799	54301.99
593.158	54331.82
593.517	54343.35
593.876	54602.32
594.235	54626.95
594.593	54638.03
594.952	54619.95
595.311	54716.44
595.67	54877.34
596.029	55079.14
596.387	55065.81
596.746	55268.07
597.104	55159.14
597.463	55112.14
597.822	55388.97
598.18	55335.41
598.538	55429.87
598.897	55638.9
599.255	55471.9
599.613	55862.63
599.972	55687.72
600.33	55820.14
600.688	55755.74
601.046	55906.69
601.404	56134.03
601.762	56045.9
602.12	56256.74
602.478	56206.12
602.836	56310.98
603.194	56235.05
603.552	56344.65
603.91	56296.51
604.268	56469.62
604.625	56505.1
604.983	56662.15
605.341	56529.05
605.698	56793.9
606.056	57006.1
606.413	56867.35
606.771	57110.5
607.128	57079.32
607.485	57037.51
607.843	57106.89
608.2	57228.69
608.557	57310.05
608.914	57327.22
609.272	57426.65
609.629	57534.9
609.986	57593.88
610.343	57609.25
610.7	57821.22
611.057	57769.02
611.414	57719.98
611.771	57864.38
612.127	57989.58
612.484	57997.71
612.841	58119.29
613.198	58015.56
613.554	58080.87
613.911	58239.51
614.267	58267.31
614.624	58337.82
614.98	58408.55
615.337	58524.93
615.693	58501.65
616.05	58540.75
616.406	58639.5
616.762	58641.54
617.118	58724.92
617.475	58672.27
617.831	58837.92
618.187	58830.23
618.543	58852.61
618.899	59067.74
619.255	58999.72
619.611	58958.82
619.967	59094.18
620.323	59194.29
620.678	59154.29
621.034	59072.26
621.39	59133.5
621.746	59137.57
622.101	59459.37
622.457	59233.61
622.812	59404.68
623.168	59393.38
623.523	59370.11
623.879	59491.23
624.234	59339.37
624.589	59492.59
624.945	59444.68
625.3	59479.03
625.655	59560.38
626.01	59488.75
626.365	59604
626.72	59486.71
627.075	59518.12
627.43	59539.82
627.785	59518.8
628.14	59551.8
628.495	59561.29
628.85	59528.29
629.205	59508.41
629.559	59669.98
629.914	59571.68
630.269	59619.14
630.623	59443.55
630.978	59412.82
631.332	59587.73
631.687	59598.8
632.041	59531.01
632.396	59557.45
632.75	59456.66
633.104	59539.37
633.459	59386.6
633.813	59416.66
634.167	59430.67
634.521	59320.62
634.875	59345.93
635.229	59345.93
635.583	59247.85
635.937	59204.23
636.291	59271.13
636.645	59258.24
636.999	59139.38
637.352	59230.9
637.706	59041.75
638.06	59146.61
638.413	59163.78
638.767	58984.13
639.121	59108.42
639.474	58926.28
639.828	58964.69
640.181	59009.21
640.534	59020.28
640.888	58900.97
641.241	58829.78
641.594	58884.69
641.947	58924.47
642.301	58845.6
642.654	58914.98
643.007	58772.16
643.36	58831.59
643.713	58832.27
644.066	58849.89
644.419	58684.25
644.771	58398.38
645.124	58153.64
645.477	58197.48
645.83	58024.83
646.182	58082.46
646.535	58002.91
646.888	58037.71
647.24	57998.84
647.593	58042
647.945	57945.51
648.298	57888.34
648.65	57838.17
649.002	57648.79
649.355	57664.16
649.707	57637.04
650.059	57587.33
650.411	57958.84
650.763	58063.25
651.115	58364.26
651.467	58264.37
651.819	58327.2
652.171	58230.02
652.523	58141.44
652.875	58218.05
653.227	57995.45
653.578	58279.06
653.93	58160.19
654.282	57988.45
654.633	58024.6
654.985	58054.66
655.337	57961.78
655.688	57978.73
656.039	58097.82
656.391	57812.41
656.742	57942.8
657.094	57952.06
657.445	57949.8
657.796	57907.77
658.147	57882.01
658.498	57881.56
658.849	57946.19
659.2	57821.45
659.551	57686.31
659.902	57943.93
660.253	57727.44
660.604	57782.35
660.955	57661.45
661.306	57800.88
661.656	57669.13
662.007	57678.4
662.358	57710.71
662.708	57669.81
663.059	57625.74
663.409	57498.06
663.76	57704.61
664.11	57662.13
664.461	57717.72
664.811	57711.39
665.161	57594.56
665.511	57621
665.862	57625.29
666.212	57744.16
666.562	57596.37
666.912	57670.04
667.262	57567.44
667.612	57448.57
667.962	57529.93
668.312	57494
668.662	57653.31
669.011	57571.28
669.361	57517.5
669.711	57534.67
670.06	57511.62
670.41	57432.08
670.76	57356.6
671.109	57554.11
671.459	57498.74
671.808	57555.92
672.157	57482.92
672.507	57327.9
672.856	57377.84
673.205	57378.52
673.554	57444.73
673.904	57354.57
674.253	57462.36
674.602	57345.53
674.951	57086.1
675.3	56955.93
675.649	57421.46
675.998	57377.84
676.346	57344.62
676.695	57356.6
677.044	57178.3
677.393	57256.26
677.741	57320.67
678.09	57205.42
678.438	57157.51
678.787	57235.25
679.135	57211.52
679.484	57095.14
679.832	57149.15
680.181	57085.65
680.529	57098.3
680.877	57084.74
681.225	57077.74
681.573	57209.71
681.922	57029.38
682.27	56924.97
682.618	57015.59
682.966	56862.6
683.314	56862.37
683.661	56861.25
684.009	56818.08
684.357	56747.35
684.705	56721.59
685.053	56754.13
685.4	56628.93
685.748	56612.44
686.095	56548.48
686.443	56488.15
686.79	56516.4
687.138	56541.93
687.485	56507.81
687.832	56471.2
688.18	56411.77
688.527	56241.15
688.874	56299.45
689.221	56296.74
689.568	56134.94
689.915	56122.51
690.262	56176.07
690.609	56165.44
690.956	55999.8
691.303	55993.02
691.65	55855.17
691.997	55880.03
692.344	55722.97
692.69	55637.77
693.037	55712.57
693.383	55443.43
693.73	55565.69
694.077	55488.63
694.423	55467.38
694.769	55356.65
695.116	55384.22
695.462	55310.33
695.808	55152.59
696.155	55159.82
696.501	54960.05
696.847	55066.94
697.193	54884.57
697.539	54963.89
697.885	54769.32
698.231	54659.72
698.577	54646.61
698.923	54674.86
699.269	54546.28
699.614	54401.87
699.96	54331.14
700.306	54337.24
700.651	54177.02
700.997	54130.02
701.342	54018.38
701.688	53923.02
702.033	53849.12
702.379	53812.74
702.724	53709.01
703.069	53789.69
703.415	53466.08
703.76	53489.58
704.105	53559.86
704.45	53435.8
704.795	53294.11
705.14	53114.45
705.485	53257.72
705.83	53032.19
706.175	53083.49
706.52	52930.27
706.865	52836.72
707.209	52682.82
707.554	52747
707.899	52739.32
708.243	52615.48
708.588	52608.02
708.932	52405.77
709.277	52428.14
709.621	52354.7
709.966	52090.97
710.31	52097.98
710.654	51900.02
710.998	51986.57
711.342	52032.9
711.687	51867.48
712.031	51819.34
712.375	51684.43
712.719	51671.78
713.063	51617.32
713.407	51823.19
713.75	51480.14
714.094	51462.97
714.438	51291.67
714.782	51309.3
715.125	51150.21
715.469	51417.77
715.812	50971
716.156	51041.29
716.499	50950.21
716.843	50989.76
717.186	50741.18
717.53	51041.29
717.873	50970.33
718.216	50745.47
718.559	50732.37
718.902	50396.1
719.246	50627.51
719.589	50490.57
719.932	50231.14
720.275	50415.99
720.617	50428.65
720.96	50276.33
721.303	50342.32
721.646	50268.42
721.989	50071.14
722.331	50091.93
722.674	50001.99
723.016	49977.58
723.359	49909.56
723.701	49974.87
724.044	49837.25
724.386	49574.66
724.729	49763.8
725.071	49715.22
725.413	49693.75
725.755	49639.74
726.097	49493.76
726.439	49333.76
726.782	49321.78
727.124	49442.01
727.465	49397.71
727.807	49194.33
728.149	49277.04
728.491	49036.14
728.833	49069.13
729.175	49107.78
729.516	48914.56
729.858	48794.34
730.199	49065.29
730.541	48879.76
730.882	48770.16
731.224	48882.92
731.565	48772.42
731.906	48802.02
732.248	48810.61
732.589	48576.49
732.93	48412.2
733.271	48483.61
733.612	48460.79
733.953	48596.15
734.294	48364.29
734.635	48223.28
734.976	48486.32
735.317	48195.94
735.658	48204.98
735.999	48105.09
736.339	48028.71
736.68	48098.09
737.021	48038.65
737.361	47845.21
737.702	48111.42
738.042	47960.01
738.383	47905.1
738.723	47914.59
739.063	47691.77
739.404	47936.73
739.744	47692.9
740.084	47592.79
740.424	47688.6
740.764	47489.29
741.104	47792.78
741.444	47533.81
741.784	47354.38
742.124	47483.41
742.464	47484.99
742.804	47360.93
743.143	47243.42
743.483	47445
743.823	47210.65
744.162	47298.11
744.502	47282.97
744.841	46999.58
745.181	47271.44
745.52	47105.8
745.86	47091.56
746.199	46931.56
746.538	46976.31
746.877	47172.23
747.216	46944.22
747.556	46871.68
747.895	46874.84
748.234	46617.45
748.573	46712.81
748.911	46627.39
749.25	46649.99
749.589	46459.26
749.928	46659.25
750.267	46612.02
750.605	46471.69
750.944	46428.07
751.283	46317.34
751.621	46517.79
751.96	46206.61
752.298	46228.53
752.636	46223.56
752.975	45961.87
753.313	45959.84
753.651	46134.07
753.989	45856.79
754.327	45935.43
754.666	45584.93
755.004	45782.21
755.342	45749.9
755.679	45635.55
756.017	45471.71
756.355	45593.74
756.693	45439.85
757.031	45487.31
757.368	45182
757.706	45204.38
758.044	45041.44
758.381	45106.07
758.719	44913.76
759.056	44911.95
759.394	44750.15
759.731	44508.58
760.068	44455.92
760.405	44411.85
760.743	44160.11
761.08	44224.97
761.417	44024.07
761.754	43980.91
762.091	43916.73
762.428	43709.27
762.765	43492.56
763.102	43626.56
763.438	43627.47
763.775	43261.15
764.112	43221.15
764.449	43243.07
764.785	42968.95
765.122	42818
765.458	42655.06
765.795	42516.09
766.131	42631.34
766.467	42244.68
766.804	42157.45
767.14	42159.26
767.476	41952.03
767.812	41938.25
768.148	41892.37
768.485	41817.8
768.821	41546.17
769.157	41340.75
769.492	41271.82
769.828	41237.25
770.164	40811.5
770.5	40794.1
770.836	40761.1
771.171	40699.18
771.507	40414.45
771.842	40301.23
772.178	40267.78
772.513	40021.69
772.849	39995.47
773.184	39871.64
773.519	39635.71
773.855	39618.53
774.19	39482.72
774.525	39277.98
774.86	39277.53
775.195	39079.34
775.53	38983.3
775.865	38680.71
776.2	38556.19
776.535	38447.72
776.87	38339.92
777.205	38096.99
777.539	37950.33
777.874	38001.4
778.209	37564.58
778.543	37666.27
778.878	37473.96
779.212	37485.03
779.547	37146.51
779.881	37218.6
780.215	36836.01
780.55	37079.17
780.884	36487.77
781.218	36547.88
781.552	36560.31
781.886	36322.58
782.22	36120.55
782.554	35984.51
782.888	35682.82
783.222	35737.28
783.556	35439.44
783.889	35448.25
784.223	35224.07
784.557	35150.86
784.89	35266.33
785.224	34830.41
785.557	34760.81
785.891	34768.72
786.224	34730.08
786.558	34515.84
786.891	34277.21
787.224	34173.71
787.557	34062.52
787.891	34031.34
788.224	33832.47
788.557	33765.81
788.89	33615.53
789.223	33593.16
789.556	33352.26
789.888	33207.86
790.221	33208.99
790.554	33009.89
790.887	33021.65
791.219	32756.34
791.552	32754.76
791.884	32514.31
792.217	32460.08
792.549	32315.22
792.882	32049.02
793.214	31931.51
793.546	32050.82
793.879	31835.69
794.211	31614
794.543	31800.89
794.875	31625.52
795.207	31452.87
795.539	31477.73
795.871	31412.87
796.203	31179.89
796.535	31003.85
796.867	30928.14
797.198	30806.11
797.53	30877.52
797.862	30630.07
798.193	30624.42
798.525	30420.81
798.856	30560.47
799.188	30227.82
799.519	30028.96
799.85	29954.38
800.182	29918.22
800.513	30119.35
800.844	29587.61
801.175	29774.27
801.506	29871.67
801.837	29576.76
802.168	29504.45
802.499	29584.67
802.83	29292.48
803.161	29170.67
803.491	29168.64
803.822	29238.02
804.153	28996.21
804.483	28785.83
804.814	28648.2
805.145	28732.27
805.475	28717.58
805.805	28562.33
806.136	28554.42
806.466	28470.58
806.796	28441.88
807.126	28074.88
807.457	28126.86
807.787	28211.83
808.117	27890.71
808.447	27889.35
808.777	28019.74
809.107	27709.24
809.436	27720.99
809.766	27624.73
810.096	27603.03
810.426	27485.75
810.755	27590.15
811.085	27343.38
811.414	27418.18
811.744	27237.39
812.073	27220.22
812.403	27063.84
812.732	27070.16
813.061	27093.67
813.39	26825.88
813.719	26801.92
814.049	26942.03
814.378	26804.86
814.707	26633.34
815.036	26642.6
815.365	26412.78
815.693	26311.09
816.022	26434.25
816.351	26315.61
816.68	26198.1
817.008	26317.19
817.337	25925.79
817.665	26019.12
817.994	25964.88
818.322	26086.01
818.651	25913.36
818.979	25845.56
819.307	25913.36
819.636	25868.84
819.964	25816.41
820.292	25674.49
820.62	25716.75
820.948	25623.65
821.276	25833.36
821.604	25688.28
821.932	25833.59
822.259	25690.09
822.587	25682.86
822.915	25570.54
823.243	25730.99
823.57	25609.41
823.898	25719.69
824.225	25608.06
824.553	25560.83
824.88	25537.1
825.207	25701.39
825.535	25521.5
825.862	25659.13
826.189	25529.41
826.516	25749.52
826.843	25709.97
827.17	25732.57
827.497	25659.35
827.824	25618.68
828.151	25789.07
828.478	25602.86
828.805	25712.91
829.131	25698.67
829.458	25724.66
829.785	25472.01
830.111	25540.26
830.438	25662.07
830.764	25612.35
831.09	25627.04
831.417	25572.8
831.743	25791.33
832.069	25582.75
832.395	25503.43
832.722	25584.55
833.048	25408.29
833.374	25641.27
833.7	25405.8
834.026	25551.79
834.351	25336.65
834.677	25457.32
835.003	25356.31
835.329	25378.46
835.654	25312.47
835.98	25151.8
836.306	25400.15
836.631	25189.31
836.956	25378.46
837.282	25320.38
837.607	25280.61
837.932	25201.51
838.258	25115.87
838.583	25043.78
838.908	24926.94
839.233	24984.8
839.558	24846.27
839.883	24868.41
840.208	24785.03
840.533	24886.27
840.858	24806.49
841.182	24727.4
841.507	24790.45
841.832	24678.81
842.156	24672.71
842.481	24621.64
842.805	24486.05
843.13	24490.57
843.454	24508.88
843.778	24361.76
844.103	24357.24
844.427	24279.95
844.751	24312.72
845.075	24183.23
845.399	24129.9
845.723	24065.05
846.047	24001.09
846.371	23889.23
846.695	23845.39
847.019	23639.97
847.343	23444.5
847.666	23485.85
847.99	23248.8
848.313	23290.15
848.637	23225.29
848.96	23112.08
849.284	23230.72
849.607	22974.23
849.931	22963.83
850.254	22706.44
850.577	22623.05
850.9	22476.84
851.223	22466.44
851.546	22448.14
851.869	22255.15
852.192	22443.84
852.515	22205.21
852.838	21964.76
853.161	21999.56
853.483	21909.85
853.806	21905.55
854.129	21780.81
854.451	21689.97
854.774	21676.63
855.096	21566.81
855.419	21444.78
855.741	21379.69
856.063	21361.61
856.385	21261.28
856.708	21203.88
857.03	21193.71
857.352	21092.92
857.674	21062.19
857.996	20983.32
858.318	20809.99
858.64	20906.71
858.961	20879.37
859.283	20707.39
859.605	20708.52
859.926	20620.84
860.248	20632.82
860.57	20429.21
860.891	20419.04
861.212	20344.01
861.534	20253.85
861.855	20243.9
862.176	20305.37
862.498	20367.74
862.819	20240.96
863.14	20294.75
863.461	20183.11
863.782	20153.28
864.103	20214.07
864.424	20027.41
864.745	20106.51
865.065	19964.59
865.386	19827.87
865.707	19912.39
866.027	19850.47
866.348	19832.39
866.668	19735.89
866.989	19704.93
867.309	19606.86
867.63	19683.24
867.95	19723.24
868.27	19543.58
868.59	19575.22
868.91	19486.86
869.23	19518.95
869.55	19429.23
869.87	19488.22
870.19	19308.33
870.51	19356.69
870.83	19294.1
871.15	19163.25
871.469	19325.96
871.789	19250.48
872.109	19223.14
872.428	19154.67
872.748	19212.07
873.067	19100.43
873.386	19155.8
873.706	19075.12
874.025	19087.55
874.344	18941.56
874.663	18966.65
874.982	19010.94
875.301	18886.88
875.62	18789.25
875.939	18716.94
876.258	18793.09
876.577	18615.24
876.896	18694.79
877.214	18771.63
877.533	18657.5
877.852	18734.79
878.17	18686.66
878.489	18703.38
878.807	18428.36
879.125	18494.34
879.444	18487.79
879.762	18476.04
880.08	18407.57
880.398	18354.69
880.716	18347.23
881.034	18277.85
881.352	18351.75
881.67	18224.29
881.988	18219.1
882.306	18196.27
882.624	18146.78
882.941	18106.11
883.259	18120.12
883.577	17952.66
883.894	17916.96
884.212	17975.94
884.529	17759.9
884.846	17821.82
885.164	17780.01
885.481	17686.23
885.798	17732.1
886.115	17650.98
886.432	17792.67
886.75	17675.38
887.067	17695.04
887.383	17581.83
887.7	17544.09
888.017	17384.99
888.334	17422.73
888.651	17328.5
888.967	17320.36
889.284	17247.6
889.6	17143.42
889.917	17175.73
890.233	17192.68
890.55	17109.07
890.866	17013.71
891.182	16993.14
891.498	16944.1
891.815	16832.47
892.131	16710.44
892.447	16669.08
892.763	16647.16
893.079	16527.84
893.395	16532.81
893.71	16526.94
894.026	16484.45
894.342	16399.03
894.657	16375.08
894.973	16246.49
895.289	16291.24
895.604	16227.51
895.92	16188.19
896.235	16089.89
896.55	16031.13
896.865	16049.89
897.181	15932.15
897.496	15968.08
897.811	15834.98
898.126	15835.88
898.441	15773.29
898.756	15704.14
899.071	15589.56
899.386	15686.28
899.7	15460.53
900.015	15403.58
900.33	15306.63
900.644	15341.21
900.959	15358.83
901.273	15216.01
901.588	15225.5
901.902	15166.07
902.216	15146.64
902.531	15109.57
902.845	15045.17
903.159	14866.42
903.473	14805.4
903.787	14832.29
904.101	14620.32
904.415	14667.1
904.729	14605.18
905.042	14609.02
905.356	14550.27
905.67	14476.82
905.984	14401.12
906.297	14435.69
906.611	14222.59
906.924	14267.56
907.237	14165.19
907.551	14218.52
907.864	13946.44
908.177	14068.7
908.491	13996.16
908.804	13910.96
909.117	13829.16
909.43	13736.96
909.743	13702.61
910.056	13734.02
910.368	13631.42
910.681	13607.92
910.994	13544.42
911.307	13562.72
911.619	13337.42
911.932	13443.86
912.244	13366.34
912.557	13263.07
912.869	13192.11
913.181	13222.17
913.494	13206.35
913.806	13055.39
914.118	12938.33
914.43	12990.08
914.742	12934.72
915.054	12772.91
915.366	12792.12
915.678	12691.11
915.99	12738.79
916.302	12619.7
916.613	12620.37
916.925	12602.07
917.236	12502.19
917.548	12459.7
917.859	12419.02
918.171	12359.59
918.482	12257.22
918.794	12267.62
919.105	12194.85
919.416	12069.65
919.727	12101.07
920.038	12033.72
920.349	11962.99
920.66	11913.27
920.971	11909.43
921.282	11770.91
921.593	11734.97
921.903	11706.05
922.214	11657.69
922.525	11617.46
922.835	11510.57
923.146	11533.17
923.456	11530.91
923.767	11389.9
924.077	11375.21
924.387	11349.67
924.697	11230.13
925.008	11181.09
925.318	11246.4
925.628	11108.1
925.938	11157.14
926.248	11032.17
926.558	10973.64
926.867	10949.68
927.177	10858.16
927.487	10857.93
927.796	10762.8
928.106	10772.29
928.416	10722.8
928.725	10688.22
929.034	10579.52
929.344	10592.86
929.653	10533.88
929.962	10450.71
930.271	10386.99
930.581	10369.13
930.89	10358.96
931.199	10305.86
931.508	10273.09
931.817	10192.64
932.125	10169.59
932.434	10080.78
932.743	10057.28
933.051	10012.53
933.36	10015.02
933.669	9917.62
933.977	9885.53
934.286	9890.95
934.594	9821.58
934.902	9796.49
935.21	9744.07
935.519	9678.53
935.827	9665.65
936.135	9546.33
936.443	9549.04
936.751	9491.87
937.059	9498.87
937.367	9390.85
937.674	9374.36
937.982	9377.75
938.29	9381.82
938.597	9301.59
938.905	9194.25
939.213	9104.31
939.52	9159
939.827	9171.2
940.135	9036.06
940.442	9024.54
940.749	8974.37
941.056	9004.42
941.363	8849.85
941.67	8866.8
941.977	8782.74
942.284	8696.64
942.591	8739.57
942.898	8708.39
943.205	8680.36
943.511	8578.22
943.818	8511.56
944.125	8454.16
944.431	8504.32
944.738	8455.51
945.044	8413.03
945.35	8365.12
945.657	8267.49
945.963	8363.76
946.269	8267.27
946.575	8282.86
946.881	8230.43
947.187	8220.26
947.493	8089.19
947.799	8143.2
948.105	8058.91
948.41	8005.81
948.716	7994.73
949.022	7993.15
949.327	7942.76
949.633	7826.15
949.938	7848.52
950.244	7830.44
950.549	7719.49
950.854	7745.25
951.16	7709.54
951.465	7646.04
951.77	7626.61
952.075	7562.43
952.38	7580.96
952.685	7506.84
952.99	7490.34
953.294	7438.59
953.599	7441.75
953.904	7355.43
954.209	7269.78
954.513	7358.59
954.818	7284.02
955.122	7268.88
955.426	7273.4
955.731	7170.35
956.035	7129.22
956.339	7144.81
956.643	7161.99
956.948	6985.95
957.252	7051.26
957.556	7060.07
957.86	7008.54
958.163	6997.7
958.467	6966.96
958.771	6888.77
959.075	6921.54
959.378	6804.93
959.682	6825.95
959.985	6754.31
960.289	6721.32
960.592	6776.23
960.896	6688.1
961.199	6639.97
961.502	6626.41
961.805	6578.05
962.108	6558.39
962.411	6528.56
962.714	6495.79
963.017	6484.26
963.32	6497.37
963.623	6496.69
963.926	6448.33
964.228	6404.27
964.531	6324.04
964.833	6329.69
965.136	6286.08
965.438	6218.73
965.741	6186.42
966.043	6189.13
966.345	6103.94
966.648	6124.27
966.95	6109.81
967.252	6054.67
967.554	6034.11
967.856	6087.66
968.158	5956.37
968.46	6022.81
968.761	5933.32
969.063	5908.46
969.365	5869.82
969.666	5877.95
969.968	5782.14
970.269	5821.01
970.571	5779.65
970.872	5737.84
971.174	5681.8
971.475	5730.84
971.776	5675.25
972.077	5619.43
972.378	5642.93
972.679	5677.51
972.98	5639.77
973.281	5583.5
973.582	5535.59
973.883	5449.49
974.183	5475.93
974.484	5471.18
974.785	5377.4
975.085	5416.95
975.386	5434.35
975.686	5325.2
975.986	5361.13
976.287	5329.04
976.587	5256.27
976.887	5223.05
977.187	5225.09
977.487	5196.39
977.787	5206.78
978.087	5145.32
978.387	5112.1
978.687	5148.48
978.987	5050.63
979.286	5094.7
979.586	5060.35
979.885	5052.89
980.185	4946.45
980.484	4940.58
980.784	4936.06
981.083	4922.72
981.382	4912.78
981.682	4878.43
981.981	4849.51
982.28	4867.13
982.579	4812.9
982.878	4856.96
983.177	4753.69
983.475	4750.07
983.774	4734.93
984.073	4690.41
984.372	4692.9
984.67	4598.21
984.969	4655.16
985.267	4600.7
985.566	4605.9
985.864	4594.6
986.162	4538.33
986.461	4507.14
986.759	4541.49
987.057	4500.36
987.355	4463.98
987.653	4427.82
987.951	4426.92
988.249	4358.22
988.547	4389.18
988.844	4362.96
989.142	4355.28
989.44	4356.41
989.737	4293.36
990.035	4309.18
990.332	4263.08
990.63	4188.96
990.927	4245.68
991.224	4223.98
991.521	4142.41
991.819	4199.35
992.116	4135.63
992.413	4090.88
992.71	4071.45
993.006	4068.51
993.303	4048.62
993.6	4032.58
993.897	4007.49
994.193	3972.24
994.49	3962.3
994.787	3979.25
995.083	3886.82
995.379	3908.97
995.676	3863.32
995.972	3870.55
996.268	3870.32
996.565	3860.38
996.861	3809.08
997.157	3784.45
997.453	3783.77
997.749	3760.27
998.044	3704.9
998.34	3717.33
998.636	3682.08
998.932	3707.16
999.227	3650.21
999.523	3603.44
999.818	3612.93
1000.114	3541.74
1000.409	3547.17
1000.704	3514.63
1001	3519.82
1001.295	3498.13
1001.59	3507.39
1001.885	3464.46
1002.18	3414.51
1002.475	3390.79
1002.77	3435.76
1003.065	3406.83
1003.359	3397.57
1003.654	3360.96
1003.949	3320.96
1004.243	3329.77
1004.538	3291.81
1004.832	3276.89
1005.127	3261.07
1005.421	3246.61
1005.715	3226.95
1006.009	3220.4
1006.304	3166.39
1006.598	3156.67
1006.892	3133.84
1007.186	3125.26
1007.48	3086.84
1007.773	3091.36
1008.067	3028.31
1008.361	3035.32
1008.655	3002.1
1008.948	2968.2
1009.242	2992.83
1009.535	2981.76
1009.829	2978.14
1010.122	2934.98
1010.415	2916.67
1010.708	2894.53
1011.001	2844.81
1011.295	2857.24
1011.588	2822.21
1011.881	2835.77
1012.173	2813.85
1012.466	2753.06
1012.759	2755.55
1013.052	2758.71
1013.344	2781.76
1013.637	2754.42
1013.93	2707.64
1014.222	2715.1
1014.514	2631.71
1014.807	2683.91
1015.099	2614.54
1015.391	2628.32
1015.683	2605.72
1015.976	2591.71
1016.268	2554.2
1016.56	2565.05
1016.851	2546.06
1017.143	2509.91
1017.435	2484.82
1017.727	2509.68
1018.018	2482.79
1018.31	2463.81
1018.602	2433.07
1018.893	2427.65
1019.185	2381.77
1019.476	2400.08
1019.767	2365.5
1020.058	2322.11
1020.35	2323.7
1020.641	2348.78
1020.932	2294.54
1021.223	2259.74
1021.514	2276.01
1021.804	2239.86
1022.095	2239.18
1022.386	2227.2
1022.677	2212.51
1022.967	2199.41
1023.258	2166.86
1023.548	2169.12
1023.839	2158.5
1024.129	2137.26
1024.419	2120.31
1024.709	2101.1
1025	2095.23
1025.29	2067.88
1025.58	2036.47
1025.87	2059.3
1026.16	2002.57
1026.449	1991.95
1026.739	1976.59
1027.029	1999.18
1027.319	1971.16
1027.608	1940.2
1027.898	1953.08
1028.187	1924.61
1028.477	1931.16
1028.766	1870.37
1029.055	1898.62
1029.344	1887.1
1029.634	1855.23
1029.923	1848.68
1030.212	1836.7
1030.501	1808.23
1030.79	1785.41
1031.078	1782.24
1031.367	1771.39
1031.656	1778.17
1031.945	1756.48
1032.233	1728.23
1032.522	1739.53
1032.81	1714.22
1033.099	1737.5
1033.387	1691.17
1033.675	1676.03
1033.963	1651.4
1034.251	1623.6
1034.54	1638.06
1034.828	1616.37
1035.116	1596.48
1035.403	1616.6
1035.691	1629.7
1035.979	1581.79
1036.267	1574.56
1036.554	1563.26
1036.842	1552.64
1037.129	1543.15
1037.417	1480.55
1037.704	1495.47
1037.992	1505.19
1038.279	1478.52
1038.566	1494.11
1038.853	1494.11
1039.14	1494.11
