Data from 13-0850_FLMS001491_008.txt Node
Date: Thu Apr 12 17:08:34 BST 2018
User: hsy
Spectrometer: FLMS00149
Trigger mode: 0
Integration Time (sec): 1.000000E-2
Scans to average: 10
Electric dark correction enabled: true
Nonlinearity correction enabled: false
Boxcar width: 0
XAxis mode: Wavelengths
Number of Pixels in Spectrum: 2048
>>>>>Begin Spectral Data<<<<<
341.393	-15.65
341.776	-15.65
342.16	-15.65
342.543	-68.53
342.927	-59.49
343.31	-52.03
343.693	-72.37
344.077	-68.08
344.46	-69.21
344.843	-59.26
345.226	-53.61
345.61	-35.76
345.993	-23.56
346.376	10.79
346.759	15.99
347.142	37.68
347.525	21.41
347.908	63.9
348.291	84.24
348.674	93.27
349.057	106.61
349.44	124.46
349.823	138.7
350.206	171.92
350.588	230.67
350.971	254.17
351.354	260.73
351.737	269.99
352.119	297.34
352.502	302.08
352.884	300.73
353.267	318.81
353.65	317.9
354.032	320.16
354.414	336.88
354.797	345.25
355.179	366.04
355.562	342.08
355.944	374.17
356.326	378.92
356.709	381.63
357.091	399.71
357.473	379.14
357.855	392.48
358.238	385.92
358.62	389.99
359.002	383.44
359.384	401.74
359.766	397.22
360.148	390.67
360.53	392.7
360.912	377.33
361.294	384.34
361.676	366.94
362.057	394.28
362.439	379.37
362.821	381.18
363.203	362.42
363.584	372.82
363.966	367.84
364.348	349.09
364.729	397.22
365.111	388.63
365.493	363.78
365.874	367.84
366.256	370.78
366.637	366.04
367.019	354.06
367.4	368.52
367.781	364.45
368.163	365.36
368.544	377.56
368.925	371.69
369.306	381.18
369.688	356.77
370.069	387.5
370.45	379.14
370.831	382.08
371.212	377.79
371.593	369.65
371.974	372.82
372.355	363.32
372.736	382.31
373.117	382.08
373.498	377.11
373.879	383.66
374.26	364.91
374.641	367.39
375.021	401.97
375.402	402.64
375.783	382.53
376.163	390.44
376.544	398.35
376.925	388.86
377.305	405.13
377.686	394.74
378.066	393.83
378.447	407.84
378.827	384.57
379.208	393.83
379.588	390.89
379.968	400.61
380.349	418.92
380.729	418.24
381.109	421.4
381.489	426.15
381.87	431.57
382.25	422.76
382.63	412.36
383.01	416.66
383.39	416.2
383.77	441.06
384.15	441.51
384.53	426.6
384.91	452.36
385.29	445.81
385.67	440.61
386.049	455.75
386.429	453.04
386.809	442.19
387.189	453.72
387.568	450.33
387.948	446.49
388.328	473.6
388.707	471.34
389.087	441.51
389.466	460.72
389.846	490.1
390.225	487.61
390.605	477.9
390.984	462.76
391.363	481.96
391.743	483.09
392.122	478.12
392.501	487.84
392.881	516.31
393.26	511.79
393.639	507.05
394.018	513.15
394.397	517.44
394.776	516.31
395.155	515.64
395.534	523.32
395.913	505.01
396.292	528.74
396.671	536.65
397.05	526.48
397.429	531.23
397.808	539.14
398.186	546.37
398.565	550.66
398.944	565.58
399.323	554.51
399.701	567.16
400.08	561.28
400.458	536.2
400.837	580.49
401.215	553.6
401.594	571.68
401.972	573.49
402.351	590.89
402.729	584.79
403.107	591.11
403.486	613.71
403.864	602.19
404.242	591.79
404.62	632.47
404.999	605.58
405.377	624.56
405.755	619.59
406.133	626.82
406.511	641.06
406.889	622.07
407.267	657.55
407.645	631.11
408.023	645.8
408.401	655.29
408.779	657.1
409.156	687.84
409.534	673.6
409.912	701.85
410.29	681.06
410.667	705.01
411.045	730.55
411.422	738.23
411.8	749.3
412.178	738.91
412.555	746.14
412.933	757.44
413.31	775.97
413.687	774.61
414.065	785.01
414.442	789.3
414.819	803.09
415.197	829.3
415.574	853.03
415.951	807.83
416.328	802.18
416.705	859.81
417.082	859.58
417.46	848.96
417.837	847.38
418.214	869.3
418.591	881.05
418.967	890.77
419.344	855.51
419.721	899.81
420.098	895.97
420.475	900.71
420.852	897.1
421.228	912.24
421.605	939.81
421.982	928.05
422.358	923.08
422.735	947.26
423.111	945.68
423.488	962.86
423.864	956.08
424.241	949.98
424.617	971.9
424.994	963.76
425.37	1012.8
425.746	1006.02
426.123	982.97
426.499	1024.1
426.875	1037.88
427.251	1054.15
427.627	1063.87
428.003	1057.54
428.379	1067.49
428.756	1078.56
429.132	1097.99
429.507	1095.28
429.883	1122.17
430.259	1135.28
430.635	1153.59
431.011	1143.42
431.387	1167.14
431.763	1183.42
432.138	1193.13
432.514	1194.49
432.89	1225
433.265	1267.93
433.641	1256.18
434.016	1269.97
434.392	1263.19
434.767	1292.34
435.143	1302.96
435.518	1306.58
435.894	1313.13
436.269	1329.17
436.644	1349.51
437.02	1332.34
437.395	1366.24
437.77	1352.68
438.145	1403.3
438.52	1405.56
438.895	1384.54
439.271	1420.25
439.646	1437.19
440.021	1438.78
440.395	1452.79
440.77	1411.43
441.145	1438.78
441.52	1490.07
441.895	1491.43
442.27	1505.89
442.645	1512.22
443.019	1530.07
443.394	1506.57
443.769	1512.45
444.143	1522.39
444.518	1551.77
444.892	1554.93
445.267	1523.52
445.641	1552.67
446.016	1577.08
446.39	1559.45
446.764	1579.79
447.139	1586.34
447.513	1612.1
447.887	1613.23
448.262	1617.3
448.636	1636.74
449.01	1643.97
449.384	1640.35
449.758	1696.17
450.132	1693.68
450.506	1716.51
450.88	1691.42
451.254	1741.82
451.628	1744.98
452.002	1776.17
452.376	1794.92
452.75	1819.33
453.123	1808.48
453.497	1845.77
453.871	1840.57
454.244	1895.71
454.618	1908.14
454.992	1925.99
455.365	1932.1
455.739	1973.68
456.112	1959.89
456.486	1998.54
456.859	1999.89
457.232	2063.39
457.606	2081.92
457.979	2092.54
458.352	2096.84
458.725	2164.41
459.099	2218.19
459.472	2201.92
459.845	2275.36
460.218	2246.21
460.591	2287.79
460.964	2293.22
461.337	2320.33
461.71	2371.86
462.083	2392.87
462.456	2384.29
462.829	2416.83
463.201	2442.59
463.574	2445.98
463.947	2496.83
464.32	2561.01
464.692	2577.28
465.065	2572.76
465.438	2640.1
465.81	2670.16
466.183	2657.73
466.555	2730.04
466.928	2756.93
467.3	2773.88
467.672	2810.27
468.045	2835.58
468.417	2851.62
468.789	2867.89
469.161	2920.09
469.534	2982.69
469.906	2992.18
470.278	3013.65
470.65	3079.64
471.022	3148.79
471.394	3207.77
471.766	3212.97
472.138	3252.51
472.51	3282.34
472.882	3395.11
473.253	3389.01
473.625	3462.68
473.997	3504.48
474.369	3523.69
474.74	3572.5
475.112	3596.01
475.484	3679.17
475.855	3725.95
476.227	3785.38
476.598	3880.75
476.97	3944.7
477.341	4004.58
477.713	4107.63
478.084	4125.26
478.455	4239.15
478.827	4238.02
479.198	4395.31
479.569	4432.82
479.94	4530.22
480.311	4603.21
480.682	4698.35
481.053	4813.6
481.424	4885.46
481.795	4954.62
482.166	5045.46
482.537	5150.32
482.908	5309.86
483.279	5386.02
483.65	5501.49
484.021	5565.45
484.391	5666.01
484.762	5807.02
485.133	5862.61
485.503	5936.74
485.874	6105.77
486.244	6237.97
486.615	6394.58
486.985	6452.2
487.356	6630.28
487.726	6727
488.097	6927.67
488.467	7050.38
488.837	7202.47
489.207	7252.86
489.578	7476.81
489.948	7658.27
490.318	7798.83
490.688	7855.78
491.058	8126.51
491.428	8208.09
491.798	8402.21
492.168	8530.34
492.538	8735.98
492.908	8955.87
493.278	9194.73
493.648	9243.32
494.017	9469.3
494.387	9627.26
494.757	9819.12
495.126	9957.2
495.496	10132.78
495.866	10333.68
496.235	10527.35
496.605	10701.58
496.974	10975.7
497.344	11152.64
497.713	11356.03
498.082	11549.92
498.452	11683.93
498.821	11916.92
499.19	12073.98
499.559	12384.7
499.928	12513.74
500.298	12680.74
500.667	13006.38
501.036	13122.08
501.405	13329.08
501.774	13630.77
502.143	13853.82
502.512	13999.35
502.88	14287.25
503.249	14512.56
503.618	14679.78
503.987	14915.71
504.356	15116.83
504.724	15309.82
505.093	15558.86
505.462	15719.76
505.83	16023.25
506.199	16307.31
506.567	16561.32
506.936	16764.93
507.304	17002.43
507.672	17240.62
508.041	17492.36
508.409	17762.19
508.777	17989.98
509.145	18252.34
509.514	18416.63
509.882	18673.8
510.25	18872.89
510.618	19081.7
510.986	19316.05
511.354	19555.59
511.722	19944.73
512.09	20065.4
512.458	20181.79
512.826	20535.67
513.193	20607.09
513.561	20934.76
513.929	21063.8
514.297	21318.48
514.664	21520.96
515.032	21776.77
515.4	22031.68
515.767	22240.04
516.135	22538.56
516.502	22366.59
516.869	22950.53
517.237	23180.8
517.604	23077.53
517.972	23577.4
518.339	23627.12
518.706	23850.62
519.073	24015.36
519.44	24298.51
519.808	24576.92
520.175	24681.1
520.542	25022.11
520.909	25201.99
521.276	25315.44
521.643	25789.32
522.009	25897.12
522.376	26209.65
522.743	26211.01
523.11	26718.79
523.477	26966.24
523.843	27191.77
524.21	27477.64
524.577	27768.48
524.943	28009.83
525.31	28115.59
525.676	28544.5
526.043	28716.7
526.409	28866.08
526.776	29241.66
527.142	29395.1
527.508	29522.33
527.874	29919.38
528.241	30022.43
528.607	30137.23
528.973	30608.18
529.339	30557.33
529.705	31103.76
530.071	31245
530.437	31399.34
530.803	31716.4
531.169	31941.48
531.535	31984.87
531.901	32123.62
532.267	32226.67
532.632	32575.58
532.998	32675.47
533.364	33015.12
533.73	33237.26
534.095	33367.43
534.461	33371.27
534.826	33626.63
535.192	33748.43
535.557	34046.73
535.923	34070.91
536.288	34240.17
536.653	34295.54
537.019	34475.65
537.384	34569.43
537.749	34601.07
538.114	34823.21
538.479	34848.97
538.845	35140.71
539.21	35022.98
539.575	35232.46
539.94	35361.95
540.305	35722.62
540.67	35648.95
541.034	35721.72
541.399	35886.46
541.764	36015.95
542.129	36253.68
542.494	36350.4
542.858	36446.44
543.223	36355.37
543.587	36812.53
543.952	36717.4
544.316	36892.31
544.681	36871.74
545.045	37156.03
545.41	37355.8
545.774	37079.87
546.138	37375.46
546.503	37460.65
546.867	37523.25
547.231	37839.17
547.595	37974.09
547.959	38092.95
548.324	38088.21
548.688	38088.43
549.052	38398.26
549.416	38394.41
549.779	38417.24
550.143	38596.67
550.507	38793.5
550.871	38796.21
551.235	38948.3
551.599	39270.32
551.962	39322.75
552.326	39457.21
552.689	39535.85
553.053	39477.78
553.417	39717.77
553.78	40029.63
554.143	40121.37
554.507	40290.64
554.87	40362.95
555.234	40576.73
555.597	40558.65
555.96	40718.42
556.323	40985.31
556.686	40998.41
557.05	41205.19
557.413	41356.6
557.776	41293.32
558.139	41744.16
558.502	41792.97
558.865	41859.18
559.228	42059.63
559.59	42343.01
559.953	42423.91
560.316	42782.32
560.679	42809.21
561.041	43202.2
561.404	43303.66
561.767	43472.25
562.129	43348.63
562.492	43889.86
562.854	44013.7
563.217	44104.09
563.579	44118.78
563.941	44460.24
564.304	44680.12
564.666	44985.2
565.028	45043.05
565.39	45153.56
565.753	45386.77
566.115	45499.76
566.477	45825.63
566.839	45764.84
567.201	46110.14
567.563	46106.08
567.925	46669.45
568.287	46491.6
568.648	46650.92
569.01	46937.24
569.372	47228.98
569.734	47153.28
570.095	47510.78
570.457	47672.14
570.819	47715.53
571.18	47841.4
571.542	48101.28
571.903	48162.07
572.265	48316.87
572.626	48562.96
572.987	48533.81
573.349	48761.15
573.71	48959.56
574.071	49106.45
574.432	49264.41
574.794	49515.03
575.155	49609.49
575.516	49562.03
575.877	49663.72
576.238	49757.96
576.599	50033.88
576.96	50070.49
577.32	50187.55
577.681	50331.28
578.042	50461.22
578.403	50518.39
578.763	50546.64
579.124	50752.96
579.485	50895.33
579.845	51086.74
580.206	51005.83
580.566	51176.45
580.927	51161.08
581.287	51381.87
581.648	51334.19
582.008	51533.73
582.368	51658.25
582.728	51772.82
583.089	51760.62
583.449	51893.27
583.809	51938.24
584.169	52081.74
584.529	52013.72
584.889	52350.88
585.249	52209.64
585.609	52227.04
585.969	52521.5
586.329	52486.93
586.688	52633.14
587.048	52537.77
587.408	52654.15
587.768	52782.51
588.127	52903.41
588.487	52871.1
588.846	53135.72
589.206	52933.47
589.565	53040.13
589.925	53402.83
590.284	53327.35
590.643	53424.53
591.003	53458.65
591.362	53731.64
591.721	53700.9
592.08	53725.08
592.44	53967.34
592.799	53897.06
593.158	54010.05
593.517	53979.32
593.876	54229.03
594.235	54154.9
594.593	54314
594.952	54388.34
595.311	54409.59
595.67	54572.07
596.029	54768.45
596.387	54857.03
596.746	54953.98
597.104	54786.3
597.463	54846.19
597.822	55024.26
598.18	55008.21
598.538	55072.85
598.897	55284.82
599.255	55165.5
599.613	55556.9
599.972	55397.81
600.33	55482.78
600.688	55480.74
601.046	55645.03
601.404	55847.97
601.762	55785.14
602.12	55993.95
602.478	56021.07
602.836	56095.19
603.194	55939.72
603.552	56015.87
603.91	56091.8
604.268	56209.31
604.625	56243.21
604.983	56471.68
605.341	56350.33
605.698	56595.97
606.056	56637.78
606.413	56627.16
606.771	56806.13
607.128	56744.89
607.485	56733.14
607.843	56909.86
608.2	57003.87
608.557	57144.66
608.914	57090.65
609.272	57247.93
609.629	57348.49
609.986	57410.64
610.343	57440.02
610.7	57633.91
611.057	57639.33
611.414	57580.35
611.771	57769.27
612.127	57795.49
612.484	57807.01
612.841	57911.64
613.198	57934.92
613.554	57892.21
613.911	58148.02
614.267	58087
614.624	58108.47
614.98	58258.52
615.337	58414.23
615.693	58398.41
616.05	58368.35
616.406	58481.12
616.762	58451.51
617.118	58472.76
617.475	58536.48
617.831	58720.43
618.187	58727.21
618.543	58705.29
618.899	58853.31
619.255	58843.59
619.611	58842.69
619.967	58997.71
620.323	59077.71
620.678	58924.72
621.034	58888.34
621.39	58972.4
621.746	59035.45
622.101	59315.45
622.457	59084.04
622.812	59272.06
623.168	59260.53
623.523	59273.41
623.879	59310.7
624.234	59214.88
624.589	59388.66
624.945	59337.37
625.3	59346.63
625.655	59382.56
626.01	59397.03
626.365	59469.57
626.72	59397.48
627.075	59409.91
627.43	59407.87
627.785	59404.48
628.14	59464.37
628.495	59435.67
628.85	59477.48
629.205	59449
629.559	59538.49
629.914	59364.94
630.269	59434.99
630.623	59320.87
630.978	59318.16
631.332	59400.19
631.687	59430.25
632.041	59367.65
632.396	59415.56
632.75	59357.7
633.104	59354.32
633.459	59276.13
633.813	59262.79
634.167	59279.51
634.521	59269.57
634.875	59259.4
635.229	59246.3
635.583	59131.04
635.937	59123.36
636.291	59153.19
636.645	59136.02
636.999	59037.26
637.352	59105.28
637.706	58950.03
638.06	59092.85
638.413	59004.04
638.767	58918.17
639.121	59006.98
639.474	58844.72
639.828	58827.78
640.181	58766.99
640.534	58890.6
640.888	58784.84
641.241	58654.22
641.594	58710.04
641.947	58777.16
642.301	58716.14
642.654	58696.25
643.007	58630.72
643.36	58746.42
643.713	58617.84
644.066	58754.78
644.419	58600.21
644.771	58279.99
645.124	58145.08
645.477	58003.39
645.83	57931.3
646.182	57890.62
646.535	57891.3
646.888	57913.22
647.24	57858.31
647.593	57999.1
647.945	57891.98
648.298	57693.79
648.65	57713.91
649.002	57554.14
649.355	57500.35
649.707	57536.74
650.059	57529.96
650.411	57847.46
650.763	57901.92
651.115	58286.55
651.467	58161.58
651.819	58145.31
652.171	58138.08
652.523	57966.33
652.875	58022.15
653.227	57947.35
653.578	58129.49
653.93	57992.32
654.282	57904.64
654.633	57874.81
654.985	57944.18
655.337	57950.06
655.688	57835.48
656.039	57858.99
656.391	57750.52
656.742	57757.07
657.094	57762.27
657.445	57843.62
657.796	57765.66
658.147	57715.71
658.498	57742.83
658.849	57781.7
659.2	57703.51
659.551	57621.03
659.902	57763.85
660.253	57621.25
660.604	57686.11
660.955	57609.5
661.306	57680.46
661.656	57598.66
662.007	57634.59
662.358	57565.44
662.708	57527.92
663.059	57525.21
663.409	57486.12
663.76	57593.46
664.11	57573.57
664.461	57588.03
664.811	57529.96
665.161	57521.82
665.511	57544.42
665.862	57432.33
666.212	57475.27
666.562	57496.74
666.912	57510.52
667.262	57397.76
667.612	57367.93
667.962	57446.34
668.312	57388.94
668.662	57482.73
669.011	57458.55
669.361	57426.23
669.711	57405.44
670.06	57371.09
670.41	57240.47
670.76	57237.53
671.109	57345.78
671.459	57328.83
671.808	57355.95
672.157	57354.37
672.507	57233.24
672.856	57222.85
673.205	57270.3
673.554	57254.71
673.904	57218.55
674.253	57396.4
674.602	57266.46
674.951	56889.3
675.3	56757.1
675.649	57216.74
675.998	57187.59
676.346	57153.92
676.695	57214.48
677.044	57079.57
677.393	57133.58
677.741	57236.86
678.09	57095.62
678.438	57040.7
678.787	57077.99
679.135	57149.18
679.484	56983.08
679.832	57120.93
680.181	57003.19
680.529	56993.25
680.877	56939.24
681.225	56866.7
681.573	57099.01
681.922	56863.31
682.27	56846.13
682.618	56834.61
682.966	56787.6
683.314	56830.77
683.661	56785.12
684.009	56623.77
684.357	56591.22
684.705	56606.59
685.053	56621.96
685.4	56525.46
685.748	56533.6
686.095	56455.41
686.443	56326.15
686.79	56378.57
687.138	56408.86
687.485	56385.13
687.832	56261.29
688.18	56273.27
688.527	56203.44
688.874	56173.61
689.221	56219.71
689.568	56072.37
689.915	56071.69
690.262	56067.85
690.609	55959.6
690.956	55863.11
691.303	55855.2
691.65	55771.13
691.997	55678.71
692.344	55617.24
692.69	55574.3
693.037	55607.97
693.383	55368.43
693.73	55482.78
694.077	55330.24
694.423	55379.96
694.769	55220.86
695.116	55276.23
695.462	55148.32
695.808	55026.07
696.155	55083.01
696.501	54889.12
696.847	54939.97
697.193	54768.45
697.539	54836.02
697.885	54634.67
698.231	54521.45
698.577	54605.06
698.923	54553.54
699.269	54329.14
699.614	54276.26
699.96	54297.27
700.306	54184.73
700.651	54044.62
700.997	53975.93
701.342	53954.23
701.688	53868.36
702.033	53789.26
702.379	53763.95
702.724	53630.17
703.069	53781.13
703.415	53360.57
703.76	53386.11
704.105	53393.79
704.45	53326.45
704.795	53189.28
705.14	53088.72
705.485	53151.09
705.83	52957.65
706.175	53053.24
706.52	52926.01
706.865	52819.35
707.209	52614.15
707.554	52677.65
707.899	52689.18
708.243	52502.97
708.588	52437.66
708.932	52309.3
709.277	52372.58
709.621	52237.44
709.966	52008.29
710.31	52077.44
710.654	51898.47
710.998	51903.21
711.342	51940.5
711.687	51752.48
712.031	51642.88
712.375	51610.79
712.719	51590.23
713.063	51476.33
713.407	51627.96
713.75	51408.31
714.094	51444.69
714.438	51308.2
714.782	51252.38
715.125	51016
715.469	51168.09
715.812	50978.26
716.156	50904.59
716.499	50954.99
716.843	50866.85
717.186	50705.73
717.53	50970.58
717.873	50830.02
718.216	50703.92
718.559	50572.63
718.902	50254.67
719.246	50469.8
719.589	50271.39
719.932	50227.78
720.275	50262.35
720.617	50204.27
720.96	50199.98
721.303	50160.43
721.646	50154.33
721.989	49989.59
722.331	50021.45
722.674	49932.19
723.016	49983.04
723.359	49777.62
723.701	49733.78
724.044	49665.98
724.386	49581.92
724.729	49607.9
725.071	49437.74
725.413	49492.88
725.755	49488.13
726.097	49302.6
726.439	49146.9
726.782	49129.27
727.124	49322.04
727.465	49209.95
727.807	49032.1
728.149	49082.49
728.491	48987.13
728.833	48947.81
729.175	48922.05
729.516	48788.72
729.858	48841.15
730.199	48993.01
730.541	48758.89
730.882	48688.38
731.224	48745.1
731.565	48579.91
731.906	48519.12
732.248	48622.39
732.589	48411.55
732.93	48374.94
733.271	48400.7
733.612	48250.2
733.953	48317.77
734.294	48218.11
734.635	48092.46
734.976	48392.8
735.317	48109.19
735.658	48071.67
735.999	47977.67
736.339	47996.87
736.68	47986.7
737.021	47924.79
737.361	47781.96
737.702	47931.56
738.042	47818.57
738.383	47841.17
738.723	47893.83
739.063	47595.3
739.404	47827.39
739.744	47590.56
740.084	47421.07
740.424	47558.24
740.764	47368.64
741.104	47422.2
741.444	47421.52
741.784	47349.43
742.124	47365.7
742.464	47195.31
742.804	47272.6
743.143	47181.3
743.483	47252.03
743.823	47059.5
744.162	47040.29
744.502	47061.98
744.841	46936.56
745.181	47165.48
745.52	47019.05
745.86	46992.38
746.199	46923.91
746.538	46999.61
746.877	47025.6
747.216	46905.6
747.556	46867.86
747.895	46828.09
748.234	46803.46
748.573	46705.61
748.911	46599.4
749.25	46551.94
749.589	46406.18
749.928	46593.97
750.267	46516.01
750.605	46332.06
750.944	46395.11
751.283	46118.96
751.621	46374.09
751.96	46109.47
752.298	46253.42
752.636	46073.99
752.975	46016.13
753.313	45862.69
753.651	46066.08
753.989	45702.92
754.327	45742.47
754.666	45445.08
755.004	45672.87
755.342	45557.39
755.679	45524.85
756.017	45250.51
756.355	45445.75
756.693	45174.35
757.031	45457.28
757.368	45079.66
757.706	44977.29
758.044	44847.35
758.381	45015.03
758.719	44719.22
759.056	44766.9
759.394	44564.87
759.731	44257.31
760.068	44369.62
760.405	44410.08
760.743	44015.96
761.08	44121.72
761.417	43926.25
761.754	43814.16
762.091	43792.01
762.428	43705.46
762.765	43517.44
763.102	43517.9
763.438	43299.6
763.775	43099.15
764.112	42981.41
764.449	43019.83
764.785	42801.3
765.122	42740.29
765.458	42530.8
765.795	42533.74
766.131	42513.4
766.467	42319.96
766.804	42070.48
767.14	41872.06
767.476	41765.4
767.812	41725.85
768.148	41797.94
768.485	41661.22
768.821	41268.01
769.157	41270.72
769.492	41095.36
769.828	40940.79
770.164	40667.8
770.5	40601.81
770.836	40522.04
771.171	40423.74
771.507	40238.21
771.842	40052.9
772.178	39939.01
772.513	39910.31
772.849	39630.77
773.184	39766.81
773.519	39486.59
773.855	39278.91
774.19	39195.98
774.525	39115.98
774.86	38921.18
775.195	38904.23
775.53	38548.31
775.865	38399.39
776.2	38383.79
776.535	38169.34
776.87	38128.88
777.205	37854.09
777.539	37805.73
777.874	37744.26
778.209	37558.73
778.543	37463.59
778.878	37212.07
779.212	37262.01
779.547	36873.55
779.881	37066.99
780.215	36622.48
780.55	36753.55
780.884	36482.15
781.218	36363.28
781.552	36383.85
781.886	36116.73
782.22	35925.78
782.554	35904.54
782.888	35436.53
783.222	35454.83
783.556	35280.37
783.889	35266.36
784.223	35014.16
784.557	35019.81
784.89	34916.09
785.224	34877.9
785.557	34516.55
785.891	34502.77
786.224	34530.56
786.558	34502.99
786.891	34121.98
787.224	33862.33
787.557	33865.95
787.891	33834.08
788.224	33639.06
788.557	33612.62
788.89	33577.14
789.223	33493.3
789.556	33184.83
789.888	33241.1
790.221	32990.49
790.554	32859.87
790.887	32957.04
791.219	32682.47
791.552	32675.02
791.884	32450.16
792.217	32321.58
792.549	32344.86
792.882	32009.5
793.214	32056.05
793.546	31981.93
793.879	31865.55
794.211	31447.7
794.543	31711.65
794.875	31409.74
795.207	31479.12
795.539	31334.03
795.871	31382.62
796.203	31175.62
796.535	30960.49
796.867	30929.3
797.198	30693.37
797.53	30706.03
797.862	30415.64
798.193	30640.49
798.525	30389.2
798.856	30530.89
799.188	30040.74
799.519	29996.44
799.85	29933.17
800.182	29833.96
800.513	29898.82
800.844	29551.03
801.175	29718.48
801.506	29719.16
801.837	29388.32
802.168	29355.1
802.499	29395.33
802.83	29159.4
803.161	29097.26
803.491	29118.73
803.822	29004.38
804.153	28864.5
804.483	28767.32
804.814	28528.23
805.145	28621.11
805.475	28626.76
805.805	28537.27
806.136	28512.41
806.466	28318.07
806.796	28356.94
807.126	28152.42
807.457	28015.93
807.787	28198.3
808.117	28047.12
808.447	27860.91
808.777	27929.6
809.107	27702.49
809.436	27697.97
809.766	27719.89
810.096	27675.15
810.426	27410.75
810.755	27498.2
811.085	27409.62
811.414	27233.8
811.744	27185.22
812.073	27058.67
812.403	27005.79
812.732	26925.11
813.061	27135.73
813.39	26846.24
813.719	26840.14
814.049	26854.6
814.378	26818.22
814.707	26613.93
815.036	26656.64
815.365	26535.52
815.693	26364.22
816.022	26227.05
816.351	26172.36
816.68	26038.58
817.008	26134.17
817.337	25935.53
817.665	25937.79
817.994	25914.74
818.322	25998.36
818.651	25843.33
818.979	25729.89
819.307	25727.18
819.636	25725.82
819.964	25547.29
820.292	25752.94
820.62	25599.5
820.948	25650.12
821.276	25676.78
821.604	25555.66
821.932	25679.27
822.259	25491.93
822.587	25605.15
822.915	25458.71
823.243	25595.2
823.57	25443.34
823.898	25672.94
824.225	25471.82
824.553	25336.9
824.88	25522.66
825.207	25589.78
825.535	25410.57
825.862	25628.42
826.189	25412.38
826.516	25671.81
826.843	25613.06
827.17	25575.09
827.497	25561.98
827.824	25664.35
828.151	25704.58
828.478	25496.22
828.805	25591.36
829.131	25455.09
829.458	25631.13
829.785	25350.24
830.111	25473.85
830.438	25598.82
830.764	25491.48
831.09	25473.4
831.417	25345.94
831.743	25503.45
832.069	25400.41
832.395	25258.26
832.722	25430.91
833.048	25303.01
833.374	25386.39
833.7	25278.15
834.026	25466.17
834.351	25350.46
834.677	25493.28
835.003	25332.61
835.329	25405.38
835.654	25324.93
835.98	25174.42
836.306	25227.53
836.631	25176.68
836.956	25283.35
837.282	25121.54
837.607	25140.07
837.932	25068.66
838.258	24926.07
838.583	25042.9
838.908	24854.43
839.233	24984.15
839.558	24849.69
839.883	24792.51
840.208	24656.47
840.533	24627.54
840.858	24745.28
841.182	24684.72
841.507	24664.15
841.832	24448.34
842.156	24587.77
842.481	24495.57
842.805	24428.68
843.13	24251.74
843.454	24275.01
843.778	24069.14
844.103	24181.23
844.427	24148.91
844.751	24146.43
845.075	24146.43
845.399	23954.57
845.723	23849.03
846.047	23890.61
846.371	23740.79
846.695	23701.92
847.019	23617.63
847.343	23536.73
847.666	23333.12
847.99	23233.23
848.313	23246.34
848.637	23086.57
848.96	23135.83
849.284	23019.9
849.607	22841.6
849.931	22796.18
850.254	22628.95
850.577	22469.64
850.9	22382.18
851.223	22297.44
851.546	22281.62
851.869	22108.06
852.192	22353.48
852.515	22061.06
852.838	21905.58
853.161	21929.54
853.483	21791.23
853.806	21787.85
854.129	21713.95
854.451	21687.96
854.774	21477.57
855.096	21461.98
855.419	21357.12
855.741	21348.08
856.063	21147.41
856.385	21178.37
856.708	21066.28
857.03	21035.77
857.352	21049.11
857.674	20959.62
857.996	20923.01
858.318	20742.45
858.64	20860.19
858.961	20678.72
859.283	20553.75
859.605	20525.28
859.926	20504.04
860.248	20488.22
860.57	20440.76
860.891	20373.65
861.212	20366.19
861.534	20152.18
861.855	20062.24
862.176	20189.24
862.498	20193.99
862.819	20187.89
863.14	20117.61
863.461	20110.6
863.782	20018.4
864.103	19956.25
864.424	19966.2
864.745	19858.63
865.065	19989.93
865.386	19735.02
865.707	19827.9
866.027	19761.68
866.348	19730.5
866.668	19710.39
866.989	19709.26
867.309	19513.33
867.63	19563.5
867.95	19656.83
868.27	19444.63
868.59	19618.86
868.91	19506.55
869.23	19434.46
869.55	19326.44
869.87	19453.67
870.19	19271.3
870.51	19245.09
870.83	19221.36
871.15	19139.1
871.469	19177.74
871.789	19255.03
872.109	19258.65
872.428	19063.4
872.748	19157.18
873.067	18978.2
873.386	18954.25
873.706	18951.99
874.025	18917.19
874.344	18839.67
874.663	18809.62
874.982	18819.56
875.301	18773.46
875.62	18752.44
875.939	18648.94
876.258	18661.15
876.577	18481.04
876.896	18604.88
877.214	18451.66
877.533	18516.29
877.852	18576.4
878.17	18535.95
878.489	18462.06
878.807	18448.27
879.125	18448.27
879.444	18426.35
879.762	18316.3
880.08	18450.98
880.398	18243.53
880.716	18307.48
881.034	18257.32
881.352	18228.16
881.67	18160.6
881.988	18119.92
882.306	17994.5
882.624	18039.24
882.941	17924.9
883.259	17940.71
883.577	17931.68
883.894	17891.45
884.212	17820.04
884.529	17757.44
884.846	17626.37
885.164	17519.03
885.481	17639.93
885.798	17716.54
886.115	17593.83
886.432	17601.51
886.75	17437.9
887.067	17527.39
887.383	17444.46
887.7	17412.37
888.017	17188.19
888.334	17192.49
888.651	17194.75
888.967	17225.93
889.284	17129.21
889.6	17066.16
889.917	17110.91
890.233	16998.14
890.55	17095.77
890.866	16915.43
891.182	16830.91
891.498	16835.66
891.815	16675.21
892.131	16593.63
892.447	16669.11
892.763	16614.65
893.079	16572.16
893.395	16426.4
893.71	16511.15
894.026	16383.47
894.342	16460.53
894.657	16282.45
894.973	16276.58
895.289	16198.84
895.604	16226.86
895.92	16078.62
896.235	16091.95
896.55	16092.63
896.865	15989.58
897.181	15903.03
897.496	15900.09
897.811	15687.67
898.126	15701
898.441	15760.89
898.756	15668.23
899.071	15522.93
899.386	15587.78
899.7	15443.83
900.015	15408.8
900.33	15232.76
900.644	15185.31
900.959	15206.78
901.273	15131.75
901.588	15175.82
901.902	15068.02
902.216	14970.17
902.531	14971.08
902.845	14967.46
903.159	14843.85
903.473	14807.01
903.787	14678.2
904.101	14682.72
904.415	14705.32
904.729	14624.42
905.042	14477.53
905.356	14533.12
905.67	14372.22
905.984	14383.07
906.297	14406.12
906.611	14237.31
906.924	14188.95
907.237	14133.36
907.551	14149.85
907.864	14078.9
908.177	14028.05
908.491	13963.64
908.804	13913.48
909.117	13833.25
909.43	13776.53
909.743	13740.6
910.056	13710.32
910.368	13626.03
910.681	13582.64
910.994	13482.53
911.307	13452.02
911.619	13348.07
911.932	13495.86
912.244	13219.71
912.557	13322.31
912.869	13241.4
913.181	13191.24
913.494	13153.04
913.806	13079.37
914.118	12946.5
914.43	12957.79
914.742	12877.8
915.054	12806.16
915.366	12765.03
915.678	12664.24
915.99	12689.1
916.302	12546.28
916.613	12443.91
916.925	12469.9
917.236	12501.54
917.548	12336.79
917.859	12379.96
918.171	12214.54
918.482	12269.23
918.794	12265.84
919.105	12121.43
919.416	12003.02
919.727	12062.68
920.038	11945.17
920.349	11898.84
920.66	11867.65
920.971	11791.27
921.282	11761.67
921.593	11705.62
921.903	11677.38
922.214	11665.63
922.525	11533.2
922.835	11510.38
923.146	11432.19
923.456	11465.4
923.767	11400.55
924.077	11354.9
924.387	11332.3
924.697	11192.64
925.008	11152.87
925.318	11125.07
925.628	11121.01
925.938	11099.54
926.248	10892.09
926.558	10929.83
926.867	10883.95
927.177	10906.78
927.487	10778.87
927.796	10763.95
928.106	10785.65
928.416	10675.82
928.725	10570.74
929.034	10544.3
929.344	10555.15
929.653	10530.74
929.962	10429.05
930.271	10341.59
930.581	10384.53
930.89	10318.99
931.199	10210.75
931.508	10184.76
931.817	10142.73
932.125	10137.98
932.434	10113.58
932.743	9998.1
933.051	9930.53
933.36	9984.09
933.669	9936.63
933.977	9873.13
934.286	9794.26
934.594	9775.05
934.902	9756.3
935.21	9656.41
935.519	9644.44
935.827	9628.84
936.135	9484.67
936.443	9514.72
936.751	9464.33
937.059	9417.1
937.367	9274.73
937.674	9339.36
937.982	9349.3
938.29	9323.31
938.597	9260.94
938.905	9167.39
939.213	9119.25
939.52	9090.1
939.827	9082.42
940.135	8967.39
940.442	8934.17
940.749	8960.39
941.056	8965.81
941.363	8828.19
941.67	8797.45
941.977	8761.52
942.284	8669.32
942.591	8693.27
942.898	8732.6
943.205	8640.39
943.511	8599.72
943.818	8576.89
944.125	8485.82
944.431	8453.96
944.738	8474.07
945.044	8382.1
945.35	8370.34
945.657	8344.58
945.963	8316.56
946.269	8301.87
946.575	8219.61
946.881	8145.94
947.187	8158.6
947.493	8126.51
947.799	8081.99
948.105	8036.79
948.41	8017.81
948.716	7914.54
949.022	7975.33
949.327	7936.01
949.633	7754.09
949.938	7794.31
950.244	7803.81
950.549	7726.29
950.854	7704.37
951.16	7711.83
951.465	7672.96
951.77	7566.75
952.075	7568.33
952.38	7591.16
952.685	7506.41
952.99	7507.54
953.294	7456.02
953.599	7447.43
953.904	7374.44
954.209	7344.61
954.513	7282.01
954.818	7225.52
955.122	7257.61
955.426	7225.52
955.731	7144.84
956.035	7115.91
956.339	7114.56
956.643	7142.81
956.948	7029.36
957.252	6979.65
957.556	7035.92
957.86	7004.05
958.163	6936.48
958.467	6890.16
958.771	6874.79
959.075	6891.74
959.378	6835.47
959.682	6743.72
959.985	6735.36
960.289	6738.3
960.592	6644.29
960.896	6656.49
961.199	6652.2
961.502	6640.67
961.805	6561.58
962.108	6531.07
962.411	6520
962.714	6428.25
963.017	6395.26
963.32	6453.11
963.623	6414.69
963.926	6353.67
964.228	6388.93
964.531	6343.05
964.833	6303.05
965.136	6251.53
965.438	6180.8
965.741	6135.6
966.043	6171.76
966.345	6102.61
966.648	6057.41
966.95	6076.39
967.252	6055.15
967.554	6003.4
967.856	6019.67
968.158	5964.31
968.46	5947.13
968.761	5917.3
969.063	5877.53
969.365	5823.29
969.666	5806.8
969.968	5809.73
970.269	5748.27
970.571	5801.15
970.872	5721.15
971.174	5671.66
971.475	5689.06
971.776	5673.24
972.077	5613.58
972.378	5568.61
972.679	5539.68
972.98	5564.32
973.281	5527.71
973.582	5487.93
973.883	5446.81
974.183	5407.71
974.484	5377.88
974.785	5376.3
975.085	5396.41
975.386	5346.7
975.686	5291.33
975.986	5232.12
976.287	5263.08
976.587	5216.3
976.887	5214.95
977.187	5189.41
977.487	5156.19
977.787	5162.75
978.087	5111.9
978.387	5073.48
978.687	5110.32
978.987	5046.14
979.286	5047.95
979.586	4983.54
979.885	4972.47
980.185	4959.81
980.484	4982.64
980.784	4941.73
981.083	4912.36
981.382	4867.39
981.682	4890.89
981.981	4834.39
982.28	4777.9
982.579	4785.81
982.878	4800.04
983.177	4712.36
983.475	4735.86
983.774	4695.19
984.073	4683.44
984.372	4598.69
984.67	4629.43
984.969	4614.74
985.267	4578.58
985.566	4600.5
985.864	4518.69
986.162	4515.08
986.461	4513.95
986.759	4486.83
987.057	4426.27
987.355	4440.28
987.653	4428.53
987.951	4372.48
988.249	4383.11
988.547	4354.63
988.844	4359.83
989.142	4324.8
989.44	4315.99
989.737	4298.36
990.035	4212.71
990.332	4257.23
990.63	4235.99
990.927	4181.98
991.224	4175.65
991.521	4141.53
991.819	4150.34
992.116	4123.45
992.413	4034.64
992.71	4055.88
993.006	4017.01
993.303	4026.05
993.6	4053.17
993.897	4000.97
994.193	3987.41
994.49	3951.7
994.787	3936.11
995.083	3887.3
995.379	3892.95
995.676	3866.73
995.972	3843.01
996.268	3854.98
996.565	3814.76
996.861	3779.51
997.157	3735.66
997.453	3754.65
997.749	3739.51
998.044	3698.15
998.34	3681.43
998.636	3680.3
998.932	3640.07
999.227	3643.46
999.523	3644.14
999.818	3598.27
1000.114	3578.38
1000.409	3548.78
1000.704	3506.74
1001	3484.15
1001.295	3488.21
1001.59	3454.77
1001.885	3471.26
1002.18	3441.66
1002.475	3418.38
1002.77	3440.08
1003.065	3379.97
1003.359	3391.04
1003.654	3339.29
1003.949	3308.56
1004.243	3282.12
1004.538	3296.81
1004.832	3270.59
1005.127	3227.2
1005.421	3256.36
1005.715	3206.41
1006.009	3227.66
1006.304	3173.19
1006.598	3173.42
1006.892	3110.6
1007.186	3104.95
1007.48	3127.54
1007.773	3059.52
1008.067	3070.82
1008.361	3036.7
1008.655	3007.1
1008.948	2993.31
1009.242	2964.61
1009.535	2935.46
1009.829	2961.67
1010.122	2896.36
1010.415	2916.7
1010.708	2861.56
1011.001	2835.8
1011.295	2821.34
1011.588	2822.02
1011.881	2806.65
1012.173	2796.48
1012.466	2810.04
1012.759	2755.35
1013.052	2787.44
1013.344	2752.19
1013.637	2681.23
1013.93	2693.21
1014.222	2681.23
1014.514	2671.51
1014.807	2641.91
1015.099	2631.96
1015.391	2602.81
1015.683	2613.21
1015.976	2566.66
1016.268	2538.41
1016.56	2548.8
1016.851	2513.32
1017.143	2537.28
1017.435	2517.17
1017.727	2543.83
1018.018	2486.21
1018.31	2483.95
1018.602	2437.17
1018.893	2419.77
1019.185	2375.47
1019.476	2387.9
1019.767	2394.68
1020.058	2349.03
1020.35	2326.21
1020.641	2314.68
1020.932	2287.34
1021.223	2273.78
1021.514	2286.66
1021.804	2250.05
1022.095	2227.68
1022.386	2226.78
1022.677	2190.17
1022.967	2170.73
1023.258	2172.32
1023.548	2154.46
1023.839	2129.83
1024.129	2116.05
1024.419	2080.11
1024.709	2058.19
1025	2080.57
1025.29	2065.65
1025.58	2014.13
1025.87	2018.2
1026.16	2007.57
1026.449	1965.99
1026.739	1978.65
1027.029	1975.26
1027.319	1929.84
1027.608	1930.06
1027.898	1937.29
1028.187	1920.34
1028.477	1928.25
1028.766	1907.24
1029.055	1853.45
1029.344	1856.84
1029.634	1853.45
1029.923	1856.39
1030.212	1835.83
1030.501	1823.62
1030.79	1802.38
1031.078	1801.48
1031.367	1777.98
1031.656	1741.14
1031.945	1764.42
1032.233	1743.4
1032.522	1712.89
1032.81	1692.1
1033.099	1706.57
1033.387	1666.79
1033.675	1656.62
1033.963	1656.85
1034.251	1617.75
1034.54	1624.08
1034.828	1634.48
1035.116	1622.05
1035.403	1617.3
1035.691	1591.54
1035.979	1596.51
1036.267	1575.95
1036.554	1588.6
1036.842	1537.76
1037.129	1547.93
1037.417	1524.65
1037.704	1494.82
1037.992	1472.9
1038.279	1459.11
1038.566	1470.64
1038.853	1470.64
1039.14	1470.64
