Data from 13-0850_FLMS001491_009.txt Node
Date: Thu Apr 12 17:08:36 BST 2018
User: hsy
Spectrometer: FLMS00149
Trigger mode: 0
Integration Time (sec): 1.000000E-2
Scans to average: 10
Electric dark correction enabled: true
Nonlinearity correction enabled: false
Boxcar width: 0
XAxis mode: Wavelengths
Number of Pixels in Spectrum: 2048
>>>>>Begin Spectral Data<<<<<
341.393	0.85
341.776	0.85
342.16	0.85
342.543	-50.9
342.927	-50.68
343.31	-63.33
343.693	-66.27
344.077	-70.34
344.46	-59.04
344.843	-61.52
345.226	-21.75
345.61	-36.67
345.993	-23.33
346.376	-1.86
346.759	2.43
347.142	7.17
347.525	37.91
347.908	79.94
348.291	67.96
348.674	98.92
349.057	109.77
349.44	142.31
349.823	143.89
350.206	182.54
350.588	237.45
350.971	267.96
351.354	245.36
351.737	280.16
352.119	306.6
352.502	313.16
352.884	321.74
353.267	315.42
353.65	339.37
354.032	350.67
354.414	366.49
354.797	351.8
355.179	359.26
355.562	360.61
355.944	364.45
356.326	381.4
356.709	375.07
357.091	396.09
357.473	375.75
357.855	384.11
358.238	390.89
358.62	385.24
359.002	377.79
359.384	376.43
359.766	393.38
360.148	387.73
360.53	380.05
360.912	386.15
361.294	374.4
361.676	407.62
362.057	377.11
362.439	383.44
362.821	382.08
363.203	377.33
363.584	395.64
363.966	390.22
364.348	373.94
364.729	361.29
365.111	391.12
365.493	391.57
365.874	397.22
366.256	385.24
366.637	365.13
367.019	367.17
367.4	385.7
367.781	371.69
368.163	390.67
368.544	373.04
368.925	369.43
369.306	377.11
369.688	384.57
370.069	373.04
370.45	381.63
370.831	396.09
371.212	389.54
371.593	375.53
371.974	383.89
372.355	368.07
372.736	399.48
373.117	381.63
373.498	385.24
373.879	394.28
374.26	367.39
374.641	401.06
375.021	376.88
375.402	405.81
375.783	394.74
376.163	422.53
376.544	404.68
376.925	399.71
377.305	413.72
377.686	420.95
378.066	445.13
378.447	404.23
378.827	439.93
379.208	408.97
379.588	402.19
379.968	409.88
380.349	408.75
380.729	431.12
381.109	402.87
381.489	429.99
381.87	408.75
382.25	427.5
382.63	432.47
383.01	419.14
383.39	426.6
383.77	434.06
384.15	456.2
384.53	423.21
384.91	440.61
385.29	435.41
385.67	447.84
386.049	457.56
386.429	467.28
386.809	468.86
387.189	438.58
387.568	458.01
387.948	451.01
388.328	458.24
388.707	471.34
389.087	471.12
389.466	476.77
389.846	460.72
390.225	489.87
390.605	492.59
390.984	503.43
391.363	488.74
391.743	503.21
392.122	481.74
392.501	526.71
392.881	503.43
393.26	505.24
393.639	492.81
394.018	514.73
394.397	510.21
394.776	490.33
395.155	516.99
395.534	514.96
395.913	519.7
396.292	541.85
396.671	519.25
397.05	529.65
397.429	549.08
397.808	536.2
398.186	548.63
398.565	564.45
398.944	552.92
399.323	551.34
399.701	546.82
400.08	555.41
400.458	549.76
400.837	580.95
401.215	582.08
401.594	564.67
401.972	558.8
402.351	576.43
402.729	571.45
403.107	599.25
403.486	585.01
403.864	591.11
404.242	583.66
404.62	616.2
404.999	591.57
405.377	613.94
405.755	616.2
406.133	617.78
406.511	629.31
406.889	635.18
407.267	627.95
407.645	647.84
408.023	658.23
408.401	658.46
408.779	670.66
409.156	695.97
409.534	681.28
409.912	686.25
410.29	700.26
410.667	708.17
411.045	714.73
411.422	714.95
411.8	721.51
412.178	741.17
412.555	721.73
412.933	769.87
413.31	764.9
413.687	768.06
414.065	748.17
414.442	779.36
414.819	797.44
415.197	803.31
415.574	808.06
415.951	808.74
416.328	848.51
416.705	832.01
417.082	820.71
417.46	836.98
417.837	867.27
418.214	860.94
418.591	856.87
418.967	880.37
419.344	856.19
419.721	884.44
420.098	898
420.475	890.32
420.852	904.1
421.228	923.08
421.605	886.7
421.982	906.13
422.358	937.55
422.735	933.93
423.111	926.7
423.488	951.56
423.864	972.57
424.241	970.54
424.617	957.43
424.994	1004.89
425.37	982.52
425.746	974.83
426.123	1007.6
426.499	1029.29
426.875	1037.88
427.251	1028.84
427.627	1058.45
428.003	1066.36
428.379	1075.85
428.756	1086.02
429.132	1086.02
429.507	1109.52
429.883	1116.52
430.259	1114.94
430.635	1127.82
431.011	1124.43
431.387	1147.48
431.763	1172.12
432.138	1188.61
432.514	1188.39
432.89	1195.62
433.265	1241.49
433.641	1227.93
434.016	1258.22
434.392	1259.35
434.767	1271.32
435.143	1251.44
435.518	1265.67
435.894	1288.95
436.269	1304.09
436.644	1327.59
437.02	1326.24
437.395	1350.87
437.77	1360.36
438.145	1372.11
438.52	1370.53
438.895	1402.84
439.271	1377.53
439.646	1395.84
440.021	1447.82
440.395	1418.44
440.77	1428.61
441.145	1443.75
441.52	1454.59
441.895	1467.48
442.27	1486.46
442.645	1495.5
443.019	1499.79
443.394	1483.52
443.769	1518.77
444.143	1499.34
444.518	1520.36
444.892	1515.16
445.267	1524.88
445.641	1529.85
446.016	1590.86
446.39	1560.13
446.764	1562.84
447.139	1556.74
447.513	1590.64
447.887	1616.85
448.262	1603.52
448.636	1636.96
449.01	1643.29
449.384	1645.32
449.758	1653.46
450.132	1654.36
450.506	1703.85
450.88	1712.44
451.254	1685.77
451.628	1715.15
452.002	1745.43
452.376	1768.26
452.75	1763.96
453.123	1757.86
453.497	1807.81
453.871	1817.97
454.244	1853
454.618	1880.35
454.992	1909.72
455.365	1906.33
455.739	1957.41
456.112	1973.22
456.486	1996.73
456.859	1963.28
457.232	2012.55
457.606	2047.35
457.979	2061.36
458.352	2101.13
458.725	2158.53
459.099	2143.16
459.472	2174.8
459.845	2230.62
460.218	2236.49
460.591	2256.61
460.964	2239.66
461.337	2279.66
461.71	2317.62
462.083	2379.99
462.456	2361.46
462.829	2384.06
463.201	2443.5
463.574	2444.85
463.947	2424.29
464.32	2523.27
464.692	2514.45
465.065	2525.75
465.438	2558.29
465.81	2611.63
466.183	2628.8
466.555	2666.31
466.928	2716.93
467.3	2692.08
467.672	2749.02
468.045	2805.29
468.417	2807.1
468.789	2827.67
469.161	2839.87
469.534	2920.09
469.906	2950.15
470.278	2986.98
470.65	3027.43
471.022	3092.97
471.394	3086.87
471.766	3160.99
472.138	3154.44
472.51	3237.37
472.882	3265.17
473.253	3319.18
473.625	3320.53
473.997	3432.85
474.369	3436.01
474.74	3495.22
475.112	3569.79
475.484	3619.51
475.855	3648.44
476.227	3709.22
476.598	3807.75
476.97	3862.67
477.341	3923.46
477.713	4008.2
478.084	4027.18
478.455	4113.73
478.827	4179.72
479.198	4358.02
479.569	4307.4
479.94	4445.48
480.311	4521.18
480.682	4586.72
481.053	4755.52
481.424	4799.37
481.795	4887.27
482.166	4975.86
482.537	5002.75
482.908	5185.34
483.279	5223.53
483.65	5413.81
484.021	5478.9
484.391	5504.43
484.762	5635.5
485.133	5734.26
485.503	5835.04
485.874	5988.94
486.244	6096.28
486.615	6203.85
486.985	6324.3
487.356	6454.69
487.726	6630.73
488.097	6748.47
488.467	6839.76
488.837	7036.37
489.207	7074.33
489.578	7338.51
489.948	7490.59
490.318	7623.7
490.688	7653.75
491.058	7878.61
491.428	8053.74
491.798	8211.7
492.168	8417.8
492.538	8508.65
492.908	8739.15
493.278	8918.35
493.648	9022.98
494.017	9262.75
494.387	9395.63
494.757	9555.17
495.126	9714.72
495.496	9911.32
495.866	10217.08
496.235	10340.91
496.605	10488.93
496.974	10713.33
497.344	10948.58
497.713	11081.23
498.082	11308.8
498.452	11521
498.821	11619.98
499.19	11897.03
499.559	12104.48
499.928	12367.53
500.298	12552.61
500.667	12657.69
501.036	12860.4
501.405	13177
501.774	13266.71
502.143	13567.5
502.512	13746.25
502.88	14098.1
503.249	14167.03
503.618	14468.04
503.987	14658.09
504.356	14809.05
504.724	15090.85
505.093	15222.37
505.462	15427.79
505.83	15769.02
506.199	15905.06
506.567	16248.56
506.936	16408.78
507.304	16636.79
507.672	16865.71
508.041	17116.1
508.409	17379.37
508.777	17595.64
509.145	17870.66
509.514	17909.53
509.882	18247.15
510.25	18356.97
510.618	18733.91
510.986	18913.8
511.354	19136.62
511.722	19487.57
512.09	19773.66
512.458	19683.95
512.826	20167.77
513.193	20331.16
513.561	20433.08
513.929	20673.75
514.297	21025.38
514.664	21086.62
515.032	21398.25
515.4	21557.57
515.767	21782.87
516.135	22063.32
516.502	22104.9
516.869	22513.02
517.237	22776.29
517.604	22658.56
517.972	23064.2
518.339	23286.79
518.706	23558.87
519.073	23556.61
519.44	23787.11
519.808	24186.88
520.175	24266.88
520.542	24571.27
520.909	24845.62
521.276	24923.58
521.643	25249.9
522.009	25525.15
522.376	25814.18
522.743	25985.02
523.11	26222.76
523.477	26443.09
523.843	26657.32
524.21	27007.14
524.577	27222.05
524.943	27425.21
525.31	27632.21
525.676	27916.72
526.043	28206.21
526.409	28347.67
526.776	28760.09
527.142	28803.25
527.508	29095
527.874	29407.53
528.241	29698.6
528.607	29672.61
528.973	30009.1
529.339	30041.87
529.705	30469.65
530.071	30706.93
530.437	30954.61
530.803	31115.96
531.169	31400.25
531.535	31352.79
531.901	31581.94
532.267	31699.9
532.632	32040.23
532.998	32195.93
533.364	32346.44
533.73	32648.35
534.095	32882.47
534.461	32844.05
534.826	33068.68
535.192	33158.62
535.557	33455.79
535.923	33532.17
536.288	33584.37
536.653	33839.28
537.019	33843.35
537.384	33990.46
537.749	34129.67
538.114	34445.37
538.479	34371.02
538.845	34557
539.21	34670.9
539.575	34659.6
539.94	34842.19
540.305	35045.58
540.67	34893.26
541.034	35151.56
541.399	35276.76
541.764	35325.12
542.129	35516.52
542.494	35692.79
542.858	35847.81
543.223	35815.72
543.587	36031.99
543.952	36210.06
544.316	36298.88
544.681	36361.93
545.045	36520.11
545.41	36708.13
545.774	36687.34
546.138	36785.64
546.503	36994.45
546.867	36993.77
547.231	37290.04
547.595	37268.57
547.959	37561.67
548.324	37529.58
548.688	37759.18
549.052	37707.43
549.416	37799.18
549.779	37869.68
550.143	37950.13
550.507	38139.05
550.871	38441.42
551.235	38345.38
551.599	38756.89
551.962	38718.47
552.326	38904.46
552.689	39025.58
553.053	38855.19
553.417	39123.89
553.78	39701.72
554.143	39724.55
554.507	39698.33
554.87	39835.05
555.234	40068.27
555.597	40008.84
555.96	40200.02
556.323	40342.16
556.686	40472.55
557.05	40753.67
557.413	40682.26
557.776	40917.74
558.139	41246.09
558.502	41143.49
558.865	41361.79
559.228	41674.33
559.59	41748.68
559.953	41851.72
560.316	42163.58
560.679	42218.95
561.041	42512.72
561.404	42769.89
561.767	43059.83
562.129	43058.7
562.492	43362.19
562.854	43461.63
563.217	43365.58
563.579	43561.96
563.941	43890.31
564.304	44149.97
564.666	44493.91
565.028	44424.31
565.39	44590.41
565.753	44874.02
566.115	45068.59
566.477	45240.79
566.839	45340.22
567.201	45749.25
567.563	45626.99
567.925	45923.93
568.287	46011.84
568.648	46161.44
569.01	46337.71
569.372	46626.97
569.734	46611.6
570.095	46896.56
570.457	47159.83
570.819	47125.71
571.18	47320.06
571.542	47581.74
571.903	47609.09
572.265	47868.06
572.626	48179.24
572.987	48167.72
573.349	48361.16
573.71	48418.33
574.071	48614.26
574.432	48820.13
574.794	49084.3
575.155	49033
575.516	49063.51
575.877	49265.09
576.238	49291.08
576.599	49661.46
576.96	49541.69
577.32	49619.2
577.681	49834.79
578.042	50064.62
578.403	50088.8
578.763	50173.54
579.124	50241.11
579.485	50499.41
579.845	50635.45
580.206	50556.35
580.566	50719.74
580.927	50638.84
581.287	50907.76
581.648	50807.87
582.008	51188.43
582.368	51198.15
582.728	51232.95
583.089	51307.52
583.449	51298.93
583.809	51421.19
584.169	51582.99
584.529	51570.34
584.889	51887.17
585.249	51663.9
585.609	51607.63
585.969	51871.35
586.329	51816.21
586.688	52048.29
587.048	52060.04
587.408	52177.1
587.768	52168.29
588.127	52226.37
588.487	52281.51
588.846	52643.98
589.206	52371
589.565	52509.98
589.925	52802.4
590.284	52727.14
590.643	52859.57
591.003	52929.17
591.362	53134.14
591.721	52976.63
592.08	53158.32
592.44	53361.7
592.799	53234.02
593.158	53330.29
593.517	53385.66
593.876	53540.91
594.235	53594.24
594.593	53594.24
594.952	53757.63
595.311	53756.27
595.67	53914.01
596.029	54011.86
596.387	54116.71
596.746	54169.37
597.104	54153.77
597.463	54263.83
597.822	54483.93
598.18	54390.6
598.538	54437.83
598.897	54593.31
599.255	54527.32
599.613	54845.73
599.972	54725.51
600.33	54845.51
600.688	54848.67
601.046	55016.35
601.404	55148.55
601.762	55150.81
602.12	55315.33
602.478	55325.49
602.836	55419.5
603.194	55282.56
603.552	55385.15
603.91	55436.68
604.268	55497.69
604.625	55611.36
604.983	55752.38
605.341	55609.33
605.698	55858.59
606.056	56011.8
606.413	55892.03
606.771	56149.2
607.128	56091.58
607.485	56075.31
607.843	56165.7
608.2	56319.14
608.557	56421.06
608.914	56339.25
609.272	56515.52
609.629	56602.75
609.986	56649.3
610.343	56691.79
610.7	56864.44
611.057	56886.13
611.414	56864.21
611.771	57056.3
612.127	57061.27
612.484	57119.35
612.841	57200.7
613.198	57074.38
613.554	57148.05
613.911	57376.74
614.267	57438.43
614.624	57370.41
614.98	57441.6
615.337	57542.39
615.693	57529.28
616.05	57619.67
616.406	57734.7
616.762	57712.1
617.118	57747.13
617.475	57787.58
617.831	57901.02
618.187	57933.56
618.543	58003.62
618.899	58113.9
619.255	58063.5
619.611	58060.79
619.967	58178.75
620.323	58268.24
620.678	58285.87
621.034	58194.35
621.39	58185.53
621.746	58275.93
622.101	58464.39
622.457	58345.75
622.812	58469.82
623.168	58489.48
623.523	58527.22
623.879	58567.67
624.234	58474.79
624.589	58581.91
624.945	58566.31
625.3	58597.95
625.655	58607.89
626.01	58662.36
626.365	58715.46
626.72	58624.62
627.075	58585.07
627.43	58710.72
627.785	58654.67
628.14	58676.59
628.495	58662.13
628.85	58749.59
629.205	58652.64
629.559	58732.18
629.914	58657.84
630.269	58672.3
630.623	58524.73
630.978	58440.89
631.332	58665.52
631.687	58605.86
632.041	58624.39
632.396	58634.56
632.75	58534.68
633.104	58672.3
633.459	58521.34
633.813	58444.96
634.167	58411.29
634.521	58488.12
634.875	58569.93
635.229	58491.51
635.583	58374.91
635.937	58397.96
636.291	58388.92
636.645	58372.87
636.999	58243.16
637.352	58336.71
637.706	58163.61
638.06	58303.5
638.413	58234.12
638.767	58224.18
639.121	58259.43
639.474	58160.67
639.828	58112.54
640.181	58083.39
640.534	58126.78
640.888	57982.37
641.241	57902.15
641.594	58001.58
641.947	58054.46
642.301	57964.07
642.654	57996.61
643.007	57862.83
643.36	57992.54
643.713	57856.5
644.066	57964.3
644.419	57767.92
644.771	57520.24
645.124	57301.49
645.477	57219.46
645.83	57123.87
646.182	57127.25
646.535	57071.21
646.888	57155.05
647.24	57052
647.593	57216.29
647.945	57093.13
648.298	56925.68
648.65	56847.04
649.002	56710.09
649.355	56753.03
649.707	56696.76
650.059	56704.22
650.411	57029.63
650.763	57136.29
651.115	57483.4
651.467	57446.34
651.819	57445.66
652.171	57298.1
652.523	57242.51
652.875	57251.77
653.227	57106.24
653.578	57296.29
653.93	57240.02
654.282	57089.29
654.633	57042.29
654.985	57089.97
655.337	57054.94
655.688	57021.5
656.039	57122.06
656.391	56863.31
656.742	56972.91
657.094	56883.65
657.445	56973.81
657.796	56965
658.147	56876.87
658.498	56949.86
658.849	56962.29
659.2	56898.56
659.551	56773.14
659.902	56958.67
660.253	56856.98
660.604	56994.38
660.955	56818.79
661.306	56922.51
661.656	56832.57
662.007	56777.21
662.358	56828.51
662.708	56819.01
663.059	56778.79
663.409	56565.01
663.76	56752.12
664.11	56762.07
664.461	56778.56
664.811	56754.16
665.161	56721.62
665.511	56663.76
665.862	56737.66
666.212	56679.81
666.562	56641.84
666.912	56678
667.262	56594.39
667.612	56598.46
667.962	56652.24
668.312	56512.81
668.662	56712.12
669.011	56639.58
669.361	56544.22
669.711	56547.84
670.06	56466.93
670.41	56462.41
670.76	56491.57
671.109	56504.45
671.459	56486.37
671.808	56510.32
672.157	56545.8
672.507	56319.82
672.856	56371.34
673.205	56414.96
673.554	56504.67
673.904	56380.38
674.253	56577.89
674.602	56334.96
674.951	56005.02
675.3	55894.75
675.649	56399.14
675.998	56373.15
676.346	56356.88
676.695	56424.9
677.044	56275.53
677.393	56371.34
677.741	56414.05
678.09	56343.09
678.438	56226.71
678.787	56241.4
679.135	56306.49
679.484	56122.31
679.832	56323.89
680.181	56137.22
680.529	56121.86
680.877	56106.94
681.225	56123.44
681.573	56226.49
681.922	56116.43
682.27	56031.92
682.618	56026.04
682.966	55930.68
683.314	56023.1
683.661	55984.01
684.009	55813.17
684.357	55750.12
684.705	55783.11
685.053	55818.36
685.4	55750.57
685.748	55655.88
686.095	55656.11
686.443	55494.3
686.79	55459.05
687.138	55582.89
687.485	55496.79
687.832	55509.44
688.18	55435.1
688.527	55395.78
688.874	55347.64
689.221	55283.91
689.568	55245.27
689.915	55164.59
690.262	55260.86
690.609	55182
690.956	55024.49
691.303	55031.94
691.65	54964.6
691.997	54907.65
692.344	54788.56
692.69	54780.88
693.037	54814.55
693.383	54569.81
693.73	54647.32
694.077	54508.57
694.423	54472.18
694.769	54410.94
695.116	54425.18
695.462	54266.09
695.808	54199.87
696.155	54205.98
696.501	54010.5
696.847	54049.14
697.193	53841.92
697.539	53902.93
697.885	53777.74
698.231	53666.1
698.577	53666.56
698.923	53621.58
699.269	53443.74
699.614	53273.12
699.96	53208.04
700.306	53378.43
700.651	53196.96
700.997	53038.77
701.342	53036.74
701.688	52915.39
702.033	52917.2
702.379	52834.94
702.724	52676.98
703.069	52830.42
703.415	52402.86
703.76	52360.37
704.105	52401.73
704.45	52292.81
704.795	52243.09
705.14	52121.28
705.485	52063.21
705.83	51936.88
706.175	51994.73
706.52	51898.24
706.865	51739.37
707.209	51664.57
707.554	51618.25
707.899	51670
708.243	51550.68
708.588	51406.5
708.932	51285.6
709.277	51366.95
709.621	51224.59
709.966	50950.02
710.31	51075.66
710.654	50856.69
710.998	50905.5
711.342	50925.16
711.687	50729.01
712.031	50718.16
712.375	50479.97
712.719	50507.54
713.063	50482.91
713.407	50514.32
713.75	50265.51
714.094	50334.21
714.438	50060.77
714.782	50176.25
715.125	49969.7
715.469	50104.39
715.812	49850.61
716.156	49749.6
716.499	49772.65
716.843	49892.42
717.186	49511.86
717.53	49741.01
717.873	49742.82
718.216	49583.5
718.559	49442.71
718.902	49099.9
719.246	49192.77
719.589	49228.03
719.932	48983.74
720.275	49126.56
720.617	48997.98
720.96	48821.94
721.303	49080.23
721.646	48951.65
721.989	48801.82
722.331	48875.04
722.674	48645.44
723.016	48709.17
723.359	48522.96
723.701	48462.62
724.044	48355.96
724.386	48221.95
724.729	48410.65
725.071	48223.53
725.413	48210.88
725.755	48221.05
726.097	48077.1
726.439	47974.28
726.782	47789.42
727.124	48129.07
727.465	48003.43
727.807	47767.73
728.149	47766.15
728.491	47770.21
728.833	47709.88
729.175	47660.61
729.516	47541.74
729.858	47580.39
730.199	47661.52
730.541	47482.76
730.882	47413.16
731.224	47365.48
731.565	47346.04
731.906	47317.34
732.248	47310.11
732.589	47080.51
732.93	47139.04
733.271	47177.46
733.612	47118.48
733.953	47243.9
734.294	47023.11
734.635	46931.36
734.976	47121.87
735.317	46971.14
735.658	46898.37
735.999	46756.91
736.339	46723.91
736.68	46713.74
737.021	46759.84
737.361	46656.34
737.702	46828.77
738.042	46615.67
738.383	46592.39
738.723	46657.93
739.063	46509.91
739.404	46592.84
739.744	46406.86
740.084	46286.18
740.424	46457.48
740.764	46272.17
741.104	46512.39
741.444	46283.25
741.784	46071.05
742.124	46325.73
742.464	46244.38
742.804	46156.24
743.143	45937.94
743.483	46209.35
743.823	45899.98
744.162	45989.24
744.502	45970.26
744.841	45758.74
745.181	45914.22
745.52	45735.92
745.86	45787.21
746.199	45623.38
746.538	45668.12
746.877	45773.88
747.216	45550.84
747.556	45591.74
747.895	45620.44
748.234	45498.18
748.573	45334.8
748.911	45381.35
749.25	45315.14
749.589	45043.5
749.928	45311.97
750.267	45204.63
750.605	45123.05
750.944	45049.61
751.283	44857.75
751.621	45008.48
751.96	44752.89
752.298	44760.35
752.636	44762.83
752.975	44617.53
753.313	44550.41
753.651	44721.03
753.989	44391.77
754.327	44441.26
754.666	44220.25
755.004	44339.79
755.342	44256.41
755.679	44207.14
756.017	43976.64
756.355	44013.48
756.693	43911.33
757.031	44022.74
757.368	43679.25
757.706	43821.62
758.044	43643.32
758.381	43647.61
758.719	43439.25
759.056	43280.61
759.394	43200.16
759.731	43004.91
760.068	42987.74
760.405	42970.57
760.743	42793.85
761.08	42850.34
761.417	42608.54
761.754	42617.58
762.091	42451.48
762.428	42286.97
762.765	42115.67
763.102	42075.9
763.438	42088.78
763.775	41767.88
764.112	41770.6
764.449	41748.68
764.785	41635.01
765.122	41495.35
765.458	41260.33
765.795	41340.1
766.131	41232.53
766.467	40977.4
766.804	40738.53
767.14	40445.21
767.476	40605.66
767.812	40464.19
768.148	40504.42
768.485	40254.48
768.821	40027.59
769.157	39938.55
769.492	39809.97
769.828	39708.73
770.164	39381.51
770.5	39366.37
770.836	39301.06
771.171	39200.27
771.507	39127.05
771.842	38883.44
772.178	38841.63
772.513	38779.26
772.849	38447.29
773.184	38413.4
773.519	38259.73
773.855	38197.58
774.19	37975.22
774.525	37924.6
774.86	37939.28
775.195	37708.1
775.53	37509.69
775.865	37332.07
776.2	37154.9
776.535	36919.88
776.87	36967.11
777.205	36790.39
777.539	36696.38
777.874	36736.15
778.209	36283.06
778.543	36480.11
778.878	36196.05
779.212	36090.52
779.547	35811.43
779.881	35886.01
780.215	35614.15
780.55	35702.51
780.884	35302.52
781.218	35137.55
781.552	35230.2
781.886	35220.26
782.22	35031.34
782.554	34714.28
782.888	34483.33
783.222	34552.26
783.556	34363.56
783.889	34238.37
784.223	34060.06
784.557	34035.21
784.89	33990.46
785.224	33758.83
785.557	33678.61
785.891	33566.52
786.224	33496.69
786.558	33528.78
786.891	33163.82
787.224	33124.27
787.557	32820.55
787.891	32976.48
788.224	32661.01
788.557	32621.01
788.89	32617.16
789.223	32519.54
789.556	32170.62
789.888	32265.31
790.221	32216.95
790.554	31933.34
790.887	31750.3
791.219	31729.05
791.552	31670.3
791.884	31535.39
792.217	31480.7
792.549	31249.29
792.882	30946.7
793.214	31024.89
793.546	30888.85
793.879	30838.45
794.211	30536.32
794.543	30806.59
794.875	30721.62
795.207	30574.05
795.539	30350.11
795.871	30360.73
796.203	30207.28
796.535	29980.85
796.867	29934.98
797.198	29744.25
797.53	29817.92
797.862	29518.04
798.193	29622.22
798.525	29441.88
798.856	29663.12
799.188	29193.3
799.519	29004.38
799.85	29000.31
800.182	29094.32
800.513	29037.82
800.844	28687.55
801.175	28804.16
801.506	28827.89
801.837	28617.27
802.168	28524.39
802.499	28448.01
802.83	28317.17
803.161	28246.88
803.491	28165.98
803.822	28276.49
804.153	27986.78
804.483	27775.03
804.814	27741.59
805.145	27832.88
805.475	27752.21
805.805	27778.42
806.136	27550.63
806.466	27578.2
806.796	27548.82
807.126	27324.42
807.457	27138.89
807.787	27351.31
808.117	26992
808.447	27045.33
808.777	27187.03
809.107	26840.37
809.436	26909.74
809.766	26769.86
810.096	26757.88
810.426	26606.93
810.755	26634.05
811.085	26462.75
811.414	26523.99
811.744	26367.84
812.073	26338.23
812.403	26286.26
812.732	26080.16
813.061	26234.73
813.39	25977.11
813.719	25964.23
814.049	25965.14
814.378	26002.88
814.707	25851.69
815.036	25820.96
815.365	25676.56
815.693	25598.14
816.022	25572.15
816.351	25521.08
816.68	25283.12
817.008	25553.85
817.337	25162.22
817.665	25076.57
817.994	25234.53
818.322	25229.34
818.651	25070.92
818.979	25016.91
819.307	24999.06
819.636	24928.78
819.964	24991.83
820.292	24845.17
820.62	24869.12
820.948	24825.05
821.276	24944.82
821.604	24821.21
821.932	24818.05
822.259	24735.79
822.587	24870.02
822.915	24700.09
823.243	24723.36
823.57	24596.13
823.898	24795.9
824.225	24728.33
824.553	24680.2
824.88	24762.91
825.207	24839.97
825.535	24608.56
825.862	24822.79
826.189	24612.18
826.516	24805.62
826.843	24743.7
827.17	24881.1
827.497	24921.77
827.824	24782.79
828.151	24762.46
828.478	24794.77
828.805	24880.42
829.131	24756.81
829.458	24743.7
829.785	24540.54
830.111	24666.64
830.438	24797.48
830.764	24691.95
831.09	24767.88
831.417	24637.26
831.743	24799.52
832.069	24680.2
832.395	24600.2
832.722	24661.89
833.048	24640.65
833.374	24652.18
833.7	24602.01
834.026	24623.25
834.351	24552.74
834.677	24572.63
835.003	24596.81
835.329	24670.48
835.654	24436.14
835.98	24326.31
836.306	24494.21
836.631	24333.54
836.956	24520.65
837.282	24393.88
837.607	24365.18
837.932	24273.88
838.258	24259.87
838.583	24214.45
838.908	24109.82
839.233	24203.83
839.558	23988.24
839.883	24019.65
840.208	23879.54
840.533	23931.74
840.858	23965.87
841.182	23961.35
841.507	23804.29
841.832	23804.74
842.156	23832.99
842.481	23752.99
842.805	23708.47
843.13	23570.4
843.454	23613.56
843.778	23509.16
844.103	23561.58
844.427	23460.34
844.751	23465.77
845.075	23314.81
845.399	23310.97
845.723	23223.29
846.047	23180.58
846.371	22951.88
846.695	22955.27
847.019	22927.7
847.343	22677.31
847.666	22652.23
847.99	22573.14
848.313	22416.3
848.637	22443.87
848.96	22342.86
849.284	22325.46
849.607	22220.38
849.931	22104.45
850.254	22070.55
850.577	21927.05
850.9	21686.83
851.223	21697.45
851.546	21567.06
851.869	21471.24
852.192	21670.56
852.515	21372.94
852.838	21343.11
853.161	21315.77
853.483	21227.86
853.806	21076.23
854.129	21124.36
854.451	21071.48
854.774	20907.42
855.096	20882.56
855.419	20716.23
855.741	20670.36
856.063	20508.78
856.385	20490.93
856.708	20523.7
857.03	20384.04
857.352	20375.23
857.674	20419.97
857.996	20278.51
858.318	20126.87
858.64	20170.26
858.961	20073.31
859.283	20046.42
859.605	19943.83
859.926	19754.9
860.248	19806.2
860.57	19792.64
860.891	19752.19
861.212	19672.19
861.534	19713.55
861.855	19613.44
862.176	19603.72
862.498	19598.75
862.819	19449.38
863.14	19514.68
863.461	19400.11
863.782	19330.06
864.103	19395.37
864.424	19314.46
864.745	19355.82
865.065	19315.59
865.386	19140.68
865.707	19176.39
866.027	19138.65
866.348	19127.8
866.668	19036.96
866.989	19127.12
867.309	18909.28
867.63	18863.18
867.95	18989.05
868.27	18874.48
868.59	18994.47
868.91	18881.93
869.23	18868.6
869.55	18627.48
869.87	18762.61
870.19	18722.39
870.51	18685.1
870.83	18654.59
871.15	18550.64
871.469	18566.23
871.789	18643.3
872.109	18615.05
872.428	18447.37
872.748	18509.97
873.067	18537.31
873.386	18501.6
873.706	18388.16
874.025	18337.54
874.344	18156.3
874.663	18311.78
874.982	18309.07
875.301	18252.34
875.62	18158.56
875.939	18099.13
876.258	18188.17
876.577	18057.55
876.896	18065.23
877.214	17978.68
877.533	17966.93
877.852	17986.14
878.17	18028.17
878.489	18017.32
878.807	17871.34
879.125	17959.7
879.444	17834.73
879.762	17910.66
880.08	17816.2
880.398	17700.95
880.716	17719.25
881.034	17647.16
881.352	17742.98
881.67	17735.75
881.988	17662.08
882.306	17670.89
882.624	17582.08
882.941	17489.65
883.259	17460.95
883.577	17357.68
883.894	17248.53
884.212	17379.37
884.529	17293.5
884.846	17080.85
885.164	17064.35
885.481	17112.26
885.798	17175.76
886.115	17061.64
886.432	17038.82
886.75	16981.42
887.067	17042.66
887.383	16978.71
887.7	16853.29
888.017	16714.31
888.334	16771.25
888.651	16678.83
888.967	16702.1
889.284	16619.17
889.6	16541.2
889.917	16563.12
890.233	16512.05
890.55	16484.48
890.866	16446.52
891.182	16379.17
891.498	16322.45
891.815	16192.74
892.131	16245.17
892.447	16145.28
892.763	16164.26
893.079	16035
893.395	15987.32
893.71	16009.24
894.026	15944.61
894.342	15943.25
894.657	15788.91
894.973	15797.49
895.289	15774.67
895.604	15687.44
895.92	15656.71
896.235	15670.49
896.55	15602.7
896.865	15449.48
897.181	15492.64
897.496	15419.65
897.811	15458.29
898.126	15226.44
898.441	15229.83
898.756	15269.15
899.071	15129.94
899.386	15162.71
899.7	15119.77
900.015	15029.83
900.33	14933.79
900.644	14785.77
900.959	14863.06
901.273	14807.24
901.588	14733.12
901.902	14680.69
902.216	14559.79
902.531	14581.26
902.845	14595.27
903.159	14368.83
903.473	14387.81
903.787	14211.1
904.101	14238.21
904.415	14237.54
904.729	14249.51
905.042	14078.44
905.356	14153.47
905.67	13993.7
905.984	13986.02
906.297	13990.08
906.611	13801.16
906.924	13874.38
907.237	13863.53
907.551	13756.64
907.864	13714.61
908.177	13663.09
908.491	13606.37
908.804	13475.75
909.117	13441.85
909.43	13365.24
909.743	13271.23
910.056	13348.29
910.368	13225.13
910.681	13193.04
910.994	13124.34
911.307	13107.85
911.619	13021.3
911.932	13015.65
912.244	12853.16
912.557	12845.03
912.869	12799.61
913.181	12732.72
913.494	12736.11
913.806	12659.27
914.118	12605.94
914.43	12569.1
914.742	12524.36
915.054	12486.39
915.366	12392.84
915.678	12289.34
915.99	12306.06
916.302	12208.44
916.613	12168.66
916.925	12094.31
917.236	12120.98
917.548	12037.82
917.859	11985.62
918.171	11930.93
918.482	11917.14
918.794	11818.39
919.105	11756.02
919.416	11689.81
919.727	11710.6
920.038	11617.27
920.349	11556.48
920.66	11543.14
920.971	11519.19
921.282	11408.91
921.593	11433.77
921.903	11265.18
922.214	11358.97
922.525	11233.77
922.835	11241.91
923.146	11158.29
923.456	11114.45
923.767	11046.43
924.077	10995.36
924.387	10998.07
924.697	10837.62
925.008	10821.35
925.318	10785.87
925.628	10803.95
925.938	10693.67
926.248	10578.42
926.558	10536.62
926.867	10592.43
927.177	10509.72
927.487	10519.44
927.796	10440.12
928.106	10375.26
928.416	10424.3
928.725	10291.42
929.034	10289.84
929.344	10250.97
929.653	10235.15
929.962	10093.46
930.271	10090.75
930.581	10065.67
930.89	10014.6
931.199	9900.7
931.508	9874.71
931.817	9876.52
932.125	9907.03
932.434	9855.96
932.743	9717.65
933.051	9751.33
933.36	9680.14
933.669	9613.48
933.977	9596.75
934.286	9597.21
934.594	9462.52
934.902	9418.9
935.21	9412.58
935.519	9340.49
935.827	9321.51
936.135	9261.62
936.443	9191.11
936.751	9163.09
937.059	9223.2
937.367	9121.29
937.674	9117.9
937.982	9092.59
938.29	9060.95
938.597	9027.95
938.905	8929.2
939.213	8838.13
939.52	8831.35
939.827	8861.18
940.135	8731.69
940.442	8736.44
940.749	8712.71
941.056	8715.19
941.363	8651.24
941.67	8651.47
941.977	8536.22
942.284	8497.12
942.591	8488.76
942.898	8426.61
943.205	8436.78
943.511	8359.95
943.818	8373.73
944.125	8169.22
944.431	8271.59
944.738	8258.03
945.044	8245.6
945.35	8187.52
945.657	8133.06
945.963	8055.55
946.269	8014.87
946.575	7985.27
946.881	7967.64
947.187	7933.07
947.493	7872.28
947.799	7886.74
948.105	7810.81
948.41	7764.26
948.716	7740.53
949.022	7686.3
949.327	7692.17
949.633	7552.29
949.938	7597.94
950.244	7582.79
950.549	7520.88
950.854	7467.54
951.16	7430.26
951.465	7399.75
951.77	7424.61
952.075	7363.14
952.38	7346.64
952.685	7343.48
952.99	7287.66
953.294	7311.16
953.599	7159.53
953.904	7232.52
954.209	7125.86
954.513	7157.5
954.818	7124.73
955.122	7059.42
955.426	7076.82
955.731	7030.72
956.035	7008.57
956.339	6947.56
956.643	6892.87
956.948	6928.35
957.252	6809.26
957.556	6862.14
957.86	6800.67
958.163	6760.22
958.467	6767.9
958.771	6778.52
959.075	6703.5
959.378	6584.63
959.682	6580.34
959.985	6561.13
960.289	6533.33
960.592	6470.96
960.896	6515.7
961.199	6482.48
961.502	6423.28
961.805	6387.35
962.108	6350.06
962.411	6368.82
962.714	6265.54
963.017	6234.13
963.32	6299.66
963.623	6193.68
963.926	6201.14
964.228	6188.93
964.531	6188.26
964.833	6123.17
965.136	6128.6
965.438	6080.01
965.741	6014.25
966.043	6020.12
966.345	5964.98
966.648	5977.41
966.95	5909.84
967.252	5873.91
967.554	5907.13
967.856	5864.2
968.158	5819.45
968.46	5819.68
968.761	5776.29
969.063	5784.2
969.365	5677.99
969.666	5679.34
969.968	5630.76
970.269	5653.81
970.571	5631.66
970.872	5560.25
971.174	5576.52
971.475	5546.01
971.776	5502.62
972.077	5423.98
972.378	5459.91
972.679	5427.82
972.98	5328.62
973.281	5416.75
973.582	5353.7
973.883	5378.33
974.183	5295.62
974.484	5280.93
974.785	5244.55
975.085	5210.65
975.386	5236.42
975.686	5168.4
975.986	5142.41
976.287	5126.14
976.587	5094.05
976.887	5098.57
977.187	5081.84
977.487	5055.4
977.787	5026.48
978.087	4967.95
978.387	4954.84
978.687	4941.28
978.987	4926.37
979.286	4937.21
979.586	4903.54
979.885	4870.78
980.185	4860.15
980.484	4856.54
980.784	4847.95
981.083	4798.24
981.382	4804.56
981.682	4760.27
981.981	4765.02
982.28	4748.75
982.579	4697.9
982.878	4708.75
983.177	4645.7
983.475	4626.49
983.774	4577.22
984.073	4561.18
984.372	4552.14
984.67	4519.82
984.969	4560.28
985.267	4482.99
985.566	4465.14
985.864	4426.27
986.162	4445.48
986.461	4374.74
986.759	4412.03
987.057	4363.44
987.355	4320.73
987.653	4263.56
987.951	4281.64
988.249	4262.66
988.547	4271.47
988.844	4195.09
989.142	4206.61
989.44	4169.78
989.737	4155.54
990.035	4174.52
990.332	4150.12
990.63	4109.89
990.927	4139.95
991.224	4043
991.521	4043.45
991.819	4085.49
992.116	3999.16
992.413	4012.49
992.71	3986.51
993.006	4007.3
993.303	3945.15
993.6	3974.53
993.897	3942.89
994.193	3833.52
994.49	3830.58
994.787	3850.69
995.083	3849.79
995.379	3800.97
995.676	3788.54
995.972	3765.04
996.268	3738.15
996.565	3713.52
996.861	3673.07
997.157	3680.52
997.453	3636.01
997.749	3663.8
998.044	3591.49
998.34	3611.15
998.636	3599.62
998.932	3590.81
999.227	3564.37
999.523	3553.07
999.818	3521.88
1000.114	3515.78
1000.409	3456.58
1000.704	3421.1
1001	3452.51
1001.295	3378.16
1001.59	3364.6
1001.885	3365.28
1002.18	3343.58
1002.475	3377.03
1002.77	3353.3
1003.065	3286.41
1003.359	3257.71
1003.654	3283.02
1003.949	3276.24
1004.243	3209.8
1004.538	3202.8
1004.832	3211.38
1005.127	3176.13
1005.421	3133.87
1005.715	3135.23
1006.009	3144.04
1006.304	3105.4
1006.598	3107.66
1006.892	3079.64
1007.186	3053.2
1007.48	3045.97
1007.773	2976.14
1008.067	2965.06
1008.361	2973.65
1008.655	2974.33
1008.948	2930.94
1009.242	2938.62
1009.535	2921
1009.829	2913.54
1010.122	2850.49
1010.415	2847.78
1010.708	2796.48
1011.001	2791.28
1011.295	2779.08
1011.588	2788.12
1011.881	2749.7
1012.173	2744.28
1012.466	2739.08
1012.759	2724.62
1013.052	2711.51
1013.344	2677.39
1013.637	2687.33
1013.93	2629.03
1014.222	2620.67
1014.514	2589.48
1014.807	2600.33
1015.099	2572.31
1015.391	2553.55
1015.683	2563.49
1015.976	2553.77
1016.268	2563.94
1016.56	2510.39
1016.851	2459.31
1017.143	2458.41
1017.435	2471.06
1017.727	2473.32
1018.018	2411.18
1018.31	2396.04
1018.602	2395.13
1018.893	2364.18
1019.185	2332.99
1019.476	2330.28
1019.767	2322.59
1020.058	2313.55
1020.35	2285.99
1020.641	2247.57
1020.932	2228.59
1021.223	2239.88
1021.514	2227
1021.804	2205.54
1022.095	2180.23
1022.386	2191.3
1022.677	2159.21
1022.967	2145.42
1023.258	2130.73
1023.548	2111.07
1023.839	2098.19
1024.129	2093.22
1024.419	2060.91
1024.709	2069.27
1025	2001.92
1025.29	2005.54
1025.58	2013.45
1025.87	2012.55
1026.16	1952.21
1026.449	1968.03
1026.739	1949.95
1027.029	1920.12
1027.319	1921.47
1027.608	1922.38
1027.898	1895.03
1028.187	1885.77
1028.477	1880.35
1028.766	1832.89
1029.055	1848.93
1029.344	1823.4
1029.634	1830.18
1029.923	1791.08
1030.212	1799.22
1030.501	1802.61
1030.79	1760.58
1031.078	1739.78
1031.367	1740.24
1031.656	1730.52
1031.945	1735.94
1032.233	1687.58
1032.522	1686
1032.81	1690.29
1033.099	1665.89
1033.387	1621.37
1033.675	1669.73
1033.963	1622.27
1034.251	1622.95
1034.54	1640.35
1034.828	1594.7
1035.116	1614.36
1035.403	1580.01
1035.691	1550.86
1035.979	1568.49
1036.267	1527.81
1036.554	1515.84
1036.842	1532.33
1037.129	1504.99
1037.417	1513.58
1037.704	1502.95
1037.992	1486.46
1038.279	1467.48
1038.566	1453.46
1038.853	1453.46
1039.14	1453.46
