Data from 13-0850_FLMS001491_006.txt Node
Date: Thu Apr 12 17:08:30 BST 2018
User: hsy
Spectrometer: FLMS00149
Trigger mode: 0
Integration Time (sec): 1.000000E-2
Scans to average: 10
Electric dark correction enabled: true
Nonlinearity correction enabled: false
Boxcar width: 0
XAxis mode: Wavelengths
Number of Pixels in Spectrum: 2048
>>>>>Begin Spectral Data<<<<<
341.393	-18.19
341.776	-18.19
342.16	-18.19
342.543	-54.12
342.927	-67
343.31	-69.94
343.693	-85.99
344.077	-58.64
344.46	-51.19
344.843	-66.33
345.226	-52.32
345.61	-27.46
345.993	-0.11
346.376	12.99
346.759	-8.25
347.142	37.4
347.525	38.53
347.908	59.32
348.291	85.53
348.674	93.9
349.057	92.54
349.44	131.18
349.823	173.44
350.206	165.53
350.588	222.48
350.971	240.33
351.354	258.64
351.737	290.95
352.119	263.38
352.502	307.68
352.884	290.5
353.267	325.75
353.65	335.92
354.032	328.47
354.414	343.83
354.797	353.78
355.179	348.35
355.562	346.77
355.944	370.05
356.326	356.49
356.709	387.22
357.091	389.48
357.473	404.85
357.855	400.1
358.238	403.72
358.62	408.01
359.002	382.48
359.384	359.43
359.766	398.29
360.148	385.41
360.53	365.3
360.912	392.19
361.294	356.26
361.676	378.41
362.057	393.1
362.439	393.77
362.821	401.01
363.203	378.63
363.584	371.18
363.966	385.87
364.348	391.06
364.729	363.49
365.111	374.57
365.493	375.7
365.874	358.97
366.256	379.54
366.637	377.73
367.019	382.93
367.4	377.05
367.781	342.7
368.163	377.73
368.544	370.05
368.925	373.44
369.306	365.08
369.688	377.28
370.069	366.66
370.45	360.78
370.831	384.28
371.212	372.53
371.593	396.49
371.974	378.41
372.355	368.24
372.736	374.11
373.117	374.79
373.498	370.72
373.879	392.42
374.26	379.31
374.641	387.9
375.021	383.15
375.402	395.13
375.783	391.29
376.163	411.63
376.544	386.77
376.925	401.68
377.305	418.63
377.686	414.11
378.066	404.17
378.447	390.16
378.827	411.63
379.208	438.29
379.588	399.65
379.968	414.11
380.349	397.84
380.729	431.06
381.109	402.14
381.489	402.81
381.87	440.55
382.25	425.19
382.63	424.51
383.01	438.97
383.39	440.1
383.77	434.9
384.15	420.21
384.53	434.45
384.91	450.04
385.29	430.84
385.67	446.43
386.049	459.54
386.429	469.93
386.809	460.21
387.189	444.62
387.568	450.04
387.948	484.17
388.328	473.55
388.707	478.07
389.087	471.74
389.466	477.61
389.846	478.29
390.225	467.45
390.605	486.88
390.984	493.66
391.363	505.64
391.743	508.57
392.122	492.76
392.501	517.84
392.881	521.46
393.26	535.01
393.639	511.96
394.018	520.1
394.397	543.83
394.776	552.19
395.155	505.64
395.534	542.92
395.913	516.26
396.292	535.69
396.671	532.08
397.05	552.87
397.429	559.87
397.808	536.6
398.186	567.56
398.565	565.75
398.944	564.84
399.323	559.19
399.701	554.45
400.08	549.25
400.458	571.4
400.837	592.64
401.215	572.98
401.594	582.92
401.972	579.08
402.351	598.52
402.729	605.52
403.107	619.31
403.486	596.26
403.864	605.75
404.242	604.62
404.62	616.37
404.999	627.44
405.377	601.23
405.755	630.38
406.133	638.29
406.511	650.72
406.889	649.59
407.267	667.89
407.645	662.47
408.023	681.23
408.401	710.83
408.779	693.43
409.156	703.15
409.534	702.24
409.912	723.94
410.29	736.82
410.667	739.75
411.045	763.93
411.422	753.99
411.8	762.58
412.178	772.75
412.555	771.39
412.933	775.46
413.31	789.7
413.687	788.11
414.065	826.76
414.442	811.84
414.819	820.66
415.197	843.71
415.574	842.8
415.951	825.85
416.328	843.48
416.705	866.08
417.082	879.86
417.46	880.32
417.837	874.67
418.214	870.37
418.591	888.45
418.967	892.74
419.344	916.02
419.721	933.42
420.098	932.29
420.475	908.34
420.852	942.69
421.228	940.43
421.605	941.33
421.982	982.69
422.358	964.38
422.735	971.84
423.111	975.91
423.488	993.76
423.864	988.79
424.241	990.14
424.617	1043.93
424.994	1053.42
425.37	1023.14
425.746	1052.97
426.123	1035.11
426.499	1062.68
426.875	1060.42
427.251	1083.47
427.627	1099.75
428.003	1127.09
428.379	1121.67
428.756	1138.16
429.132	1148.33
429.507	1168.44
429.883	1160.76
430.259	1177.71
430.635	1185.17
431.011	1208.89
431.387	1224.49
431.763	1223.58
432.138	1225.62
432.514	1259.51
432.89	1271.49
433.265	1303.13
433.641	1299.97
434.016	1295.45
434.392	1321.89
434.767	1389.23
435.143	1348.1
435.518	1353.75
435.894	1387.2
436.269	1382.9
436.644	1408.21
437.02	1414.77
437.395	1405.27
437.77	1455.67
438.145	1451.37
438.52	1462.67
438.895	1485.27
439.271	1479.17
439.646	1504.03
440.021	1501.54
440.395	1509.68
440.77	1513.07
441.145	1572.95
441.52	1583.57
441.895	1515.78
442.27	1555.78
442.645	1561.43
443.019	1599.39
443.394	1591.71
443.769	1575.89
444.143	1591.26
444.518	1577.47
444.892	1611.14
445.267	1592.39
445.641	1625.16
446.016	1645.72
446.39	1656.11
446.764	1666.96
447.139	1658.6
447.513	1703.35
447.887	1663.57
448.262	1689.11
448.636	1709.67
449.01	1725.27
449.384	1741.08
449.758	1725.04
450.132	1790.35
450.506	1804.81
450.88	1799.84
451.254	1803.46
451.628	1837.58
452.002	1875.32
452.376	1860.86
452.75	1867.41
453.123	1884.81
453.497	1945.15
453.871	1958.71
454.244	1995.77
454.618	1999.61
454.992	2054.97
455.365	2027.4
455.739	2078.02
456.112	2090.23
456.486	2120.96
456.859	2148.31
457.232	2166.61
457.606	2188.98
457.979	2222.43
458.352	2259.04
458.725	2287.51
459.099	2273.27
459.472	2334.51
459.845	2362.31
460.218	2388.75
460.591	2440.73
460.964	2443.44
461.337	2441.18
461.71	2525.47
462.083	2518.92
462.456	2555.3
462.829	2579.25
463.201	2590.33
463.574	2636.43
463.947	2628.07
464.32	2694.73
464.692	2703.77
465.065	2761.4
465.438	2775.63
465.81	2761.4
466.183	2810.89
466.555	2891.11
466.928	2881.39
467.3	2887.49
467.672	2923.88
468.045	3023.54
468.417	3003.65
468.789	3081.16
469.161	3077.32
469.534	3129.07
469.906	3204.32
470.278	3252.46
470.65	3205.68
471.022	3321.16
471.394	3372.68
471.766	3390.98
472.138	3432.79
472.51	3520.47
472.882	3540.81
473.253	3566.57
473.625	3617.19
473.997	3677.08
474.369	3713.24
474.74	3788.26
475.112	3881.37
475.484	3893.57
475.855	3944.64
476.227	3988.03
476.598	4153.22
476.97	4194.8
477.341	4249.49
477.713	4346.44
478.084	4379.43
478.455	4524.97
478.827	4525.42
479.198	4652.42
479.569	4696.49
479.94	4768.35
480.311	4848.8
480.682	5029.13
481.053	5106.19
481.424	5133.09
481.795	5229.81
482.166	5341.67
482.537	5434.32
482.908	5585.73
483.279	5679.06
483.65	5803.35
484.021	5963.8
484.391	5979.62
484.762	6106.85
485.133	6160.63
485.503	6322.88
485.874	6419.61
486.244	6533.05
486.615	6709.32
486.985	6852.81
487.356	6961.74
487.726	7070.44
488.097	7291.9
488.467	7411.22
488.837	7617.54
489.207	7681.49
489.578	7911.77
489.948	7987.7
490.318	8214.13
490.688	8276.28
491.058	8527.12
491.428	8655.93
491.798	8851.18
492.168	9065.41
492.538	9197.61
492.908	9391.73
493.278	9617.71
493.648	9685.51
494.017	10031.49
494.387	10129.11
494.757	10294.08
495.126	10494.98
495.496	10663.56
495.866	10840.51
496.235	11103.78
496.605	11365.01
496.974	11456.76
497.344	11683.87
497.713	11893.36
498.082	12061.26
498.452	12280.69
498.821	12508.48
499.19	12656.28
499.559	12920.23
499.928	13195.7
500.298	13376.48
500.667	13593.65
501.036	13873.65
501.405	14047.2
501.774	14200.64
502.143	14385.05
502.512	14655.77
502.88	15049.89
503.249	15115.42
503.618	15378.01
503.987	15597.89
504.356	15860.49
504.724	16104.55
505.093	16248.05
505.462	16497.98
505.83	16584.54
506.199	17003.28
506.567	17394.68
506.936	17507
507.304	17870.15
507.672	18081.9
508.041	18138.17
508.409	18524.15
508.777	18739.51
509.145	19104.7
509.514	19202.32
509.882	19483.89
510.25	19677.11
510.618	19942.41
510.986	20080.49
511.354	20372.91
511.722	20707.37
512.09	20951.65
512.458	20966.12
512.826	21285.66
513.193	21510.28
513.561	21734.46
513.929	21866.2
514.297	22298.74
514.664	22454.21
515.032	22685.17
515.4	22927.87
515.767	23143.69
516.135	23325.83
516.502	23382.1
516.869	23887.39
517.237	24037.22
517.604	23916.09
517.972	24418
518.339	24598.11
518.706	24939.8
519.073	24984.77
519.44	25288.26
519.808	25553.57
520.175	25629.04
520.542	25969.37
520.909	26220.21
521.276	26358.29
521.643	26697.26
522.009	26913.08
522.376	27265.16
522.743	27459.96
523.11	27876.44
523.477	28142.65
523.843	28381.97
524.21	28679.36
524.577	28919.58
524.943	29164.77
525.31	29239.57
525.676	29699.9
526.043	29913.45
526.409	30113.22
526.776	30449.93
527.142	30454.91
527.508	30744.62
527.874	31183.47
528.241	31348.22
528.607	31359.74
528.973	31766.96
529.339	31807.41
529.705	32221.86
530.071	32536.66
530.437	32661.18
530.803	32942.75
531.169	33151.56
531.535	33205.79
531.901	33532.79
532.267	33605.33
532.632	33965.77
532.998	33969.84
533.364	34225.88
533.73	34380.9
534.095	34556.27
534.461	34735.02
534.826	34925.52
535.192	34964.62
535.557	35336.58
535.923	35330.26
536.288	35445.73
536.653	35830.58
537.019	35662
537.384	35979.28
537.749	35954.65
538.114	36264.92
538.479	36213.85
538.845	36508.53
539.21	36445.48
539.575	36754.4
539.94	36806.6
540.305	37087.95
540.67	37023.55
541.034	37300.38
541.399	37210.43
541.764	37457.43
542.129	37678.44
542.494	37727.71
542.858	37826.46
543.223	37783.75
543.587	38097.64
543.952	38052.22
544.316	38295.38
544.681	38186.68
545.045	38410.4
545.41	38543.05
545.774	38611.3
546.138	38802.71
546.503	38931.52
546.867	39032.53
547.231	39194.79
547.595	39444.95
547.959	39404.5
548.324	39516.14
548.688	39725.4
549.052	39859.18
549.416	39804.26
549.779	39920.42
550.143	40030.47
550.507	40321.54
550.871	40531.25
551.235	40364.7
551.599	40778.48
551.962	40842.2
552.326	40928.75
552.689	40981.63
553.053	40919.49
553.417	41062.54
553.78	41460.49
554.143	41500.04
554.507	41761.5
554.87	41673.59
555.234	42200.36
555.597	41864.77
555.96	42242.17
556.323	42532.33
556.686	42311.99
557.05	42752.89
557.413	42867.46
557.776	42845.77
558.139	43165.98
558.502	43332.08
558.865	43323.04
559.228	43902.46
559.59	43770.71
559.953	44059.97
560.316	44494.31
560.679	44443.92
561.041	44673.74
561.404	44949.89
561.767	45169.77
562.129	45068.98
562.492	45447.28
562.854	45294.52
563.217	45398.02
563.579	45564.34
563.941	45908.06
564.304	46075.51
564.666	46337.65
565.028	46392.11
565.39	46532.45
565.753	46833.68
566.115	46930.4
566.477	47250.85
566.839	47320.9
567.201	47642.93
567.563	47726.99
567.925	48046.53
568.287	48052.41
568.648	48148.68
569.01	48363.14
569.372	48664.14
569.734	48672.28
570.095	48865.49
570.457	49121.76
570.819	49127.86
571.18	49087.64
571.542	49512.48
571.903	49532.6
572.265	49759.26
572.626	49872.25
572.987	49909.31
573.349	50156.53
573.71	50254.38
574.071	50411.44
574.432	50634.49
574.794	50810.98
575.155	50886.23
575.516	50869.06
575.877	51065.21
576.238	51127.36
576.599	51271.08
576.96	51293.45
577.32	51402.38
577.681	51627
578.042	51808.24
578.403	51837.17
578.763	51835.59
579.124	51927.56
579.485	52104.73
579.845	52218.63
580.206	52332.3
580.566	52492.29
580.927	52394.89
581.287	52590.37
581.648	52517.83
582.008	52733.64
582.368	52755.11
582.728	52845.05
583.089	52811.15
583.449	52871.94
583.809	53065.61
584.169	53164.59
584.529	53098.6
584.889	53407.52
585.249	53344.02
585.609	53277.13
585.969	53586.5
586.329	53541.3
586.688	53645.48
587.048	53659.72
587.408	53756.89
587.768	53737.23
588.127	53749.89
588.487	53808.64
588.846	54182.64
589.206	53897
589.565	54111.01
589.925	54296.31
590.284	54293.6
590.643	54367.5
591.003	54430.09
591.362	54610.43
591.721	54612.91
592.08	54663.08
592.44	54881.16
592.799	54831.89
593.158	54882.29
593.517	54911.66
593.876	55182.39
594.235	55068.72
594.593	55135.39
594.952	55215.84
595.311	55279.11
595.67	55365.89
596.029	55517.52
596.387	55592.1
596.746	55719.1
597.104	55609.72
597.463	55658.31
597.822	55939.66
598.18	55848.81
598.538	55866.44
598.897	56117.51
599.255	55957.06
599.613	56371.51
599.972	56127.68
600.33	56235.92
600.688	56291.74
601.046	56426.2
601.404	56605.86
601.762	56642.01
602.12	56742.35
602.478	56791.84
602.836	56780.54
603.194	56629.81
603.552	56875.91
603.91	56727.43
604.268	56957.03
604.625	56953.87
604.983	57127.65
605.341	57004.49
605.698	57246.52
606.056	57384.82
606.413	57283.35
606.771	57523.8
607.128	57470.47
607.485	57420.3
607.843	57528.77
608.2	57725.15
608.557	57765.15
608.914	57811.7
609.272	57942.77
609.629	58022.99
609.986	58110
610.343	58028.64
610.7	58246.94
611.057	58181.63
611.414	58199.26
611.771	58413.27
612.127	58435.19
612.484	58436.77
612.841	58504.11
613.198	58479.48
613.554	58473.83
613.911	58682.86
614.267	58672.02
614.624	58774.84
614.98	58794.73
615.337	58972.12
615.693	58934.16
616.05	58979.58
616.406	59159.24
616.762	59108.62
617.118	59135.96
617.475	59166.69
617.831	59272.23
618.187	59343.19
618.543	59294.6
618.899	59475.84
619.255	59357.42
619.611	59345.9
619.967	59554.25
620.323	59611.43
620.678	59541.15
621.034	59580.92
621.39	59531.66
621.746	59582.05
622.101	59886.9
622.457	59675.83
622.812	59754.25
623.168	59815.49
623.523	59792.21
623.879	59870.18
624.234	59800.12
624.589	59856.62
624.945	59858.43
625.3	59973.45
625.655	59961.02
626.01	59990.63
626.365	59957.41
626.72	59884.41
627.075	59858.2
627.43	59963.96
627.785	59921.02
628.14	59961.47
628.495	60035.14
628.85	59995.82
629.205	59943.62
629.559	60118.08
629.914	59943.85
630.269	59988.14
630.623	59852.1
630.978	59851.65
631.332	60027.69
631.687	59963.96
632.041	59895.04
632.396	59883.06
632.75	59817.3
633.104	59868.6
633.459	59735.49
633.813	59771.87
634.167	59758.77
634.521	59750.63
634.875	59743.63
635.229	59694.59
635.583	59627.47
635.937	59609.17
636.291	59670.63
636.645	59615.04
636.999	59554.48
637.352	59617.3
637.706	59461.15
638.06	59519.68
638.413	59455.05
638.767	59457.53
639.121	59478.55
639.474	59395.84
639.828	59329.17
640.181	59338.67
640.534	59437.87
640.888	59253.02
641.241	59255.73
641.594	59290.53
641.947	59312.45
642.301	59220.93
642.654	59246.69
643.007	59194.49
643.36	59220.48
643.713	59125.56
644.066	59232
644.419	59057.77
644.771	58778.68
645.124	58544.11
645.477	58617.1
645.83	58460.5
646.182	58465.92
646.535	58375.08
646.888	58440.61
647.24	58446.49
647.593	58537.78
647.945	58392.02
648.298	58333.04
648.65	58205.36
649.002	58085.59
649.355	58150.9
649.707	58055.76
650.059	58051.92
650.411	58447.84
650.763	58481.74
651.115	58842.41
651.467	58691
651.819	58703.2
652.171	58606.48
652.523	58572.81
652.875	58567.16
653.227	58443.77
653.578	58569.42
653.93	58532.36
654.282	58392.93
654.633	58399.93
654.985	58427.05
655.337	58409.42
655.688	58394.74
656.039	58468.18
656.391	58206.27
656.742	58266.15
657.094	58244.91
657.445	58273.38
657.796	58296.21
658.147	58194.29
658.498	58199.03
658.849	58248.07
659.2	58210.11
659.551	58080.85
659.902	58309.99
660.253	58144.35
660.604	58215.08
660.955	58056.44
661.306	58214.85
661.656	58093.05
662.007	58048.08
662.358	58088.98
662.708	58079.04
663.059	57997.91
663.409	57907.97
663.76	58014.86
664.11	57972.15
664.461	58121.3
664.811	58124.23
665.161	57993.84
665.511	57989.32
665.862	58024.35
666.212	58018.25
666.562	57999.72
666.912	57960.17
667.262	57844.69
667.612	57939.83
667.962	57918.82
668.312	57889.21
668.662	57987.74
669.011	57985.93
669.361	57887.86
669.711	57929.21
670.06	57876.78
670.41	57856.67
670.76	57754.53
671.109	57906.61
671.459	57829.55
671.808	57779.38
672.157	57854.41
672.507	57669.11
672.856	57745.49
673.205	57660.07
673.554	57787.52
673.904	57683.57
674.253	57956.1
674.602	57726.96
674.951	57373.07
675.3	57275.22
675.649	57762.44
675.998	57730.8
676.346	57698.93
676.695	57743
677.044	57611.71
677.393	57686.96
677.741	57737.58
678.09	57644.7
678.438	57534.65
678.787	57644.7
679.135	57644.7
679.484	57466.17
679.832	57599.28
680.181	57560.18
680.529	57510.01
680.877	57444.48
681.225	57460.75
681.573	57658.26
681.922	57424.59
682.27	57405.16
682.618	57402.45
682.966	57347.08
683.314	57333.07
683.661	57394.54
684.009	57238.61
684.357	57255.1
684.705	57133.75
685.053	57175.33
685.4	56998.39
685.748	57050.36
686.095	57015.11
686.443	56908.22
686.79	56941.44
687.138	56988.67
687.485	56962.01
687.832	56846.08
688.18	56857.38
688.527	56763.59
688.874	56743.03
689.221	56719.98
689.568	56618.29
689.915	56584.84
690.262	56606.99
690.609	56537.61
690.956	56399.76
691.303	56474.33
691.65	56332.64
691.997	56289.93
692.344	56124.74
692.69	56069.6
693.037	56135.59
693.383	55937.4
693.73	55949.15
694.077	55876.38
694.423	55823.73
694.769	55800.45
695.116	55827.8
695.462	55652.43
695.808	55574.47
696.155	55706.67
696.501	55405.21
696.847	55510.07
697.193	55296.96
697.539	55303.97
697.885	55119.57
698.231	55075.05
698.577	55082.28
698.923	55037.08
699.269	54888.84
699.614	54810.42
699.96	54707.6
700.306	54712.35
700.651	54567.04
700.997	54491.56
701.342	54499.24
701.688	54399.36
702.033	54263.77
702.379	54294.73
702.724	54165.24
703.069	54221.96
703.415	53891.13
703.76	53960.73
704.105	53979.71
704.45	53827.17
704.795	53755.31
705.14	53614.97
705.485	53677.35
705.83	53448.2
706.175	53578.59
706.52	53374.75
706.865	53411.59
707.209	53270.35
707.554	53187.42
707.899	53205.72
708.243	53085.5
708.588	53005.72
708.932	52824.71
709.277	52874.65
709.621	52749.91
709.966	52560.31
710.31	52650.48
710.654	52478.06
710.998	52513.99
711.342	52534.1
711.687	52364.39
712.031	52215.46
712.375	52194.67
712.719	52104.96
713.063	52055.92
713.407	52188.8
713.75	52078.52
714.094	52008.46
714.438	51746.1
714.782	51800.33
715.125	51639.21
715.469	51823.61
715.812	51507.01
716.156	51456.39
716.499	51430.17
716.843	51425.88
717.186	51248.48
717.53	51418.87
717.873	51456.84
718.216	51344.07
718.559	51120.8
718.902	50872.67
719.246	51042.16
719.589	50928.72
719.932	50732.79
720.275	50773.02
720.617	50886.01
720.96	50731.89
721.303	50761.94
721.646	50712.45
721.989	50520.59
722.331	50572.12
722.674	50458
723.016	50595.62
723.359	50309.75
723.701	50356.08
724.044	50179.36
724.386	49953.83
724.729	50141.62
725.071	50161.51
725.413	49973.26
725.755	50032.92
726.097	49818.69
726.439	49726.94
726.782	49672.93
727.124	49855.53
727.465	49752.7
727.807	49574.18
728.149	49655.53
728.491	49514.74
728.833	49627.06
729.175	49524.23
729.516	49351.36
729.858	49343.9
730.199	49392.26
730.541	49316.33
730.882	49255.99
731.224	49286.73
731.565	49131.93
731.906	49151.59
732.248	49150.69
732.589	48953.18
732.93	48904.59
733.271	48928.77
733.612	48915.21
733.953	49019.84
734.294	48850.58
734.635	48663.92
734.976	48854.87
735.317	48728.55
735.658	48615.56
735.999	48536.92
736.339	48625.28
736.68	48553.64
737.021	48439.29
737.361	48398.61
737.702	48581.89
738.042	48404.04
738.383	48428.44
738.723	48341.67
739.063	48165.63
739.404	48383.47
739.744	48223.93
740.084	48092.18
740.424	48183.48
740.764	48175.57
741.104	48341.89
741.444	48052.63
741.784	47897.61
742.124	47987.1
742.464	47932.41
742.804	47849.7
743.143	47832.53
743.483	47798.4
743.823	47689.93
744.162	47659.88
744.502	47805.86
744.841	47624.85
745.181	47706.66
745.52	47580.33
745.86	47693.32
746.199	47543.95
746.538	47646.09
746.877	47619.88
747.216	47460.79
747.556	47465.76
747.895	47464.85
748.234	47303.73
748.573	47329.26
748.911	47158.87
749.25	47244.97
749.589	47077.75
749.928	47134.24
750.267	47189.83
750.605	46954.36
750.944	46973.12
751.283	46959.56
751.621	46921.82
751.96	46818.54
752.298	46700.81
752.636	46711.88
752.975	46744.65
753.313	46489.96
753.651	46689.05
753.989	46430.76
754.327	46525.67
754.666	46096.08
755.004	46300.36
755.342	46325.22
755.679	46247.71
756.017	45946.48
756.355	46078.45
756.693	45872.35
757.031	46103.99
757.368	45743.77
757.706	45762.53
758.044	45567.28
758.381	45534.51
758.719	45354.63
759.056	45433.49
759.394	45267.17
759.731	45039.15
760.068	45122.32
760.405	45089.77
760.743	44800.97
761.08	44839.84
761.417	44594.87
761.754	44489.79
762.091	44540.41
762.428	44239.63
762.765	44070.14
763.102	44189.91
763.438	43999.86
763.775	43833.99
764.112	43744.73
764.449	43852.29
764.785	43596.93
765.122	43311.52
765.458	43202.37
765.795	43050.73
766.131	43130.96
766.467	43134.8
766.804	42673.57
767.14	42474.93
767.476	42467.02
767.812	42426.79
768.148	42491.2
768.485	42328.04
768.821	41865.23
769.157	41967.15
769.492	41785.45
769.828	41745.46
770.164	41347.5
770.5	41334.39
770.836	41353.38
771.171	41175.3
771.507	41088.75
771.842	40753.62
772.178	40723.79
772.513	40556.56
772.849	40479.5
773.184	40394.31
773.519	40262.33
773.855	39961.77
774.19	39952.28
774.525	39765.62
774.86	39663.93
775.195	39584.16
775.53	39314.79
775.865	39139.65
776.2	38933.55
776.535	38666.89
776.87	38697.17
777.205	38538.76
777.539	38306.45
777.874	38414.92
778.209	38071.65
778.543	38235.49
778.878	37861.49
779.212	37867.14
779.547	37507.83
779.881	37641.38
780.215	37278
780.55	37313.93
780.884	36970.44
781.218	37017.22
781.552	37048.63
781.886	36716.44
782.22	36436.22
782.554	36491.13
782.888	36172.5
783.222	36102.67
783.556	35908.1
783.889	35878.27
784.223	35449.58
784.557	35699.74
784.89	35633.3
785.224	35362.57
785.557	35281.22
785.891	34975.46
786.224	35097.27
786.558	35103.14
786.891	34681.23
787.224	34532.09
787.557	34358.31
787.891	34540.22
788.224	34173.45
788.557	34177.29
788.89	34137.52
789.223	33921.93
789.556	33755.84
789.888	33620.7
790.221	33566.46
790.554	33479.46
790.887	33391.33
791.219	33244.89
791.552	33162.63
791.884	32928.06
792.217	32849.42
792.549	32706.37
792.882	32570.56
793.214	32454.17
793.546	32441.29
793.879	32196.33
794.211	32001.53
794.543	32114.3
794.875	32029.55
795.207	32023.23
795.539	31863
795.871	31912.27
796.203	31738.49
796.535	31464.82
796.867	31418.72
797.198	31207.2
797.53	31115
797.862	30851.96
798.193	30954.1
798.525	30894.44
798.856	30849.92
799.188	30437.73
799.519	30461.23
799.85	30316.83
800.182	30323.84
800.513	30329.03
800.844	29858.99
801.175	30107.34
801.506	30124.29
801.837	29934.02
802.168	29845.2
802.499	29934.24
802.83	29640.46
803.161	29462.16
803.491	29536.51
803.822	29637.3
804.153	29224.66
804.483	28935.17
804.814	29052.46
805.145	29021.72
805.475	29007.26
805.805	28953.93
806.136	28944.21
806.466	28819.47
806.796	28767.94
807.126	28518.46
807.457	28472.13
807.787	28489.08
808.117	28347.84
808.447	28256.09
808.777	28302.19
809.107	28075.76
809.436	27979.04
809.766	28031.69
810.096	28019.94
810.426	27864.01
810.755	27957.34
811.085	27843.45
811.414	27812.04
811.744	27614.98
812.073	27594.87
812.403	27382.9
812.732	27397.13
813.061	27540.18
813.39	27222.22
813.719	27135.9
814.049	27301.32
814.378	27165.5
814.707	27126.86
815.036	26925.96
815.365	26874.66
815.693	26736.13
816.022	26601.67
816.351	26613.2
816.68	26464.05
817.008	26561.45
817.337	26350.38
817.665	26265.86
817.994	26300.21
818.322	26413.2
818.651	26239.88
818.979	26060.22
819.307	26222.7
819.636	26052.08
819.964	26013.44
820.292	26034.68
820.62	25830.62
820.948	26028.36
821.276	26034.91
821.604	25962.14
821.932	26100.22
822.259	25929.15
822.587	25949.04
822.915	25783.16
823.243	26091.4
823.57	25774.58
823.898	25895.93
824.225	25999.88
824.553	25753.79
824.88	25884.4
825.207	25968.24
825.535	25872.43
825.862	25906.55
826.189	25848.02
826.516	26103.16
826.843	26020.45
827.17	26035.36
827.497	25979.09
827.824	26017.06
828.151	26057.28
828.478	25925.98
828.805	26099.77
829.131	25966.89
829.458	26031.97
829.785	25823.61
830.111	25844.18
830.438	26021.12
830.764	25840.79
831.09	25972.09
831.417	25771.86
831.743	25981.8
832.069	25842.82
832.395	25909.94
832.722	25821.13
833.048	25820.45
833.374	25764.86
833.7	25659.33
834.026	25868.81
834.351	25628.14
834.677	25668.36
835.003	25716.72
835.329	25732.09
835.654	25745.2
835.98	25486
836.306	25600.8
836.631	25448.26
836.956	25613
837.282	25582.04
837.607	25507.24
837.932	25529.84
838.258	25434.47
838.583	25389.95
838.908	25260.47
839.233	25287.13
839.558	25270.18
839.883	25101.6
840.208	25159.45
840.533	25103.18
840.858	25000.59
841.182	25008.72
841.507	25204.2
841.832	24861.83
842.156	24923.53
842.481	24891.66
842.805	24836.07
843.13	24721.95
843.454	24734.15
843.778	24657.09
844.103	24592.46
844.427	24565.57
844.751	24589.07
845.075	24542.29
845.399	24372.58
845.723	24258.23
846.047	24288.29
846.371	24119.7
846.695	23902.31
847.019	23994.28
847.343	23772.37
847.666	23829.32
847.99	23620.96
848.313	23526.95
848.637	23481.76
848.96	23423.23
849.284	23412.15
849.607	23139.62
849.931	23175.55
850.254	23046.29
850.577	22717.48
850.9	22762
851.223	22731.04
851.546	22643.59
851.869	22495.57
852.192	22762
852.515	22360.65
852.838	22220.55
853.161	22301
853.483	22133.09
853.806	22128.57
854.129	22031.85
854.451	21926.09
854.774	21821.69
855.096	21830.5
855.419	21620.34
855.741	21691.75
856.063	21545.08
856.385	21414.69
856.708	21499.21
857.03	21454.46
857.352	21368.36
857.674	21345.54
857.996	21187.8
858.318	21015.38
858.64	21090.86
858.961	20971.09
859.283	20961.6
859.605	20796.4
859.926	20913.24
860.248	20758.89
860.57	20735.61
860.891	20677.76
861.212	20698.1
861.534	20543.75
861.855	20616.97
862.176	20609.97
862.498	20487.03
862.819	20482.06
863.14	20441.38
863.461	20395.96
863.782	20290.65
864.103	20296.75
864.424	20214.5
864.745	20087.27
865.065	20169.53
865.386	20117.1
865.707	20159.81
866.027	20166.59
866.348	20042.07
866.668	20021.06
866.989	19947.16
867.309	19896.31
867.63	19828.97
867.95	19782.19
868.27	19706.04
868.59	19829.42
868.91	19783.77
869.23	19644.34
869.55	19668.52
869.87	19735.87
870.19	19568.41
870.51	19601.18
870.83	19533.38
871.15	19499.71
871.469	19396.44
871.789	19451.8
872.109	19489.09
872.428	19327.29
872.748	19396.44
873.067	19296.1
873.386	19315.76
873.706	19197.8
874.025	19135.2
874.344	19114.41
874.663	19233.51
874.982	19164.35
875.301	19120.97
875.62	19066.73
875.939	18949.45
876.258	19039.84
876.577	18850.24
876.896	18828.09
877.214	18830.8
877.533	18901.31
877.852	18815.44
878.17	18778.38
878.489	18828.09
878.807	18762.33
879.125	18792.61
879.444	18618.83
879.762	18619.06
880.08	18632.84
880.398	18620.87
880.716	18567.99
881.034	18531.6
881.352	18449.57
881.67	18433.53
881.988	18473.07
882.306	18393.08
882.624	18319.63
882.941	18212.29
883.259	18196.92
883.577	18126.64
883.894	18031.05
884.212	18036.47
884.529	17991.05
884.846	17985.18
885.164	17973.88
885.481	17895.24
885.798	17896.37
886.115	17827.67
886.432	17709.93
886.75	17737.95
887.067	17761.23
887.383	17610.27
887.7	17676.48
888.017	17595.13
888.334	17538.63
888.651	17598.07
888.967	17468.81
889.284	17400.33
889.6	17301.8
889.917	17276.49
890.233	17182.94
890.55	17147.68
890.866	17156.72
891.182	17156.27
891.498	17182.94
891.815	17023.62
892.131	16930.97
892.447	16999.44
892.763	16907.92
893.079	16824.76
893.395	16713.35
893.71	16748.83
894.026	16752.21
894.342	16588.38
894.657	16495.95
894.973	16508.83
895.289	16512
895.604	16344.77
895.92	16356.52
896.235	16313.81
896.55	16274.71
896.865	16194.26
897.181	16176.41
897.496	16149.74
897.811	15961.28
898.126	15973.48
898.441	15941.84
898.756	15909.07
899.071	15722.41
899.386	15732.58
899.7	15702.3
900.015	15558.12
900.33	15582.53
900.644	15545.01
900.959	15460.72
901.273	15356.77
901.588	15340.95
901.902	15291.24
902.216	15211.92
902.531	15177.34
902.845	15116.55
903.159	15072.49
903.473	15034.29
903.787	14978.7
904.101	14925.82
904.415	14871.36
904.729	14872.72
905.042	14711.59
905.356	14712.49
905.67	14646.28
905.984	14724.02
906.297	14590.92
906.611	14426.63
906.924	14498.94
907.237	14410.58
907.551	14409.68
907.864	14206.52
908.177	14230.02
908.491	14247.2
908.804	14129.91
909.117	14017.6
909.43	13950.93
909.743	13934.44
910.056	13853.99
910.368	13795.68
910.681	13764.72
910.994	13662.35
911.307	13646.08
911.619	13525.41
911.932	13507.55
912.244	13416.48
912.557	13438.4
912.869	13369.48
913.181	13362.93
913.494	13276.15
913.806	13141.01
914.118	13091.29
914.43	13021.47
914.742	13084.97
915.054	12939.21
915.366	12984.86
915.678	12848.36
915.99	12786.67
916.302	12723.17
916.613	12604.3
916.925	12687.69
917.236	12640.91
917.548	12578.99
917.859	12540.35
918.171	12417.87
918.482	12367.92
918.794	12302.39
919.105	12327.92
919.416	12209.28
919.727	12207.93
920.038	12176.29
920.349	12029.18
920.66	12037.54
920.971	11993.92
921.282	11963.41
921.593	11811.33
921.903	11816.53
922.214	11788.73
922.525	11759.58
922.835	11703.08
923.146	11602.07
923.456	11586.7
923.767	11495.4
924.077	11446.14
924.387	11417.21
924.697	11420.38
925.008	11327.95
925.318	11282.53
925.628	11192.36
925.938	11200.27
926.248	11078.69
926.558	11094.51
926.867	11041.86
927.177	10965.93
927.487	10936.77
927.796	10881.86
928.106	10843.44
928.416	10847.96
928.725	10770.23
929.034	10628.76
929.344	10706.05
929.653	10678.7
929.962	10481.65
930.271	10478.71
930.581	10477.8
930.89	10440.97
931.199	10352.38
931.508	10290.92
931.817	10375.66
932.125	10266.06
932.434	10236.91
932.743	10091.37
933.051	10011.6
933.36	10093.18
933.669	9998.27
933.977	9976.12
934.286	9956.91
934.594	9862.45
934.902	9805.05
935.21	9783.13
935.519	9811.38
935.827	9768.9
936.135	9659.52
936.443	9603.25
936.751	9575.23
937.059	9593.08
937.367	9495.23
937.674	9507.21
937.982	9437.83
938.29	9433.31
938.597	9363.71
938.905	9263.15
939.213	9233.54
939.52	9204.39
939.827	9230.15
940.135	9166.88
940.442	9139.76
940.749	9021.57
941.056	9096.15
941.363	8987.67
941.67	8902.25
941.977	8903.61
942.284	8841.46
942.591	8827.9
942.898	8840.78
943.205	8801.92
943.511	8678.53
943.818	8677.85
944.125	8624.52
944.431	8569.61
944.738	8614.8
945.044	8578.87
945.35	8471.08
945.657	8510.85
945.963	8411.64
946.269	8398.31
946.575	8311.31
946.881	8303.4
947.187	8202.38
947.493	8208.94
947.799	8137.53
948.105	8106.79
948.41	8039.22
948.716	8069.05
949.022	8046.23
949.327	8033.57
949.633	7908.15
949.938	7933.24
950.244	7928.72
950.549	7864.99
950.854	7692.79
951.16	7762.17
951.465	7689.63
951.77	7736.41
952.075	7738.67
952.38	7663.19
952.685	7620.7
952.99	7572.8
953.294	7534.15
953.599	7456.41
953.904	7411.22
954.209	7438.34
954.513	7412.35
954.818	7403.53
955.122	7323.99
955.426	7361.5
955.731	7229.3
956.035	7217.78
956.339	7237.89
956.643	7211.22
956.948	7095.07
957.252	7037.44
957.556	7068.4
957.86	6992.7
958.163	7018.23
958.467	7007.16
958.771	6964
959.075	6947.5
959.378	6909.76
959.682	6921.06
959.985	6829.54
960.289	6790.22
960.592	6746.83
960.896	6712.25
961.199	6734.63
961.502	6639.49
961.805	6613.27
962.108	6585.93
962.411	6558.36
962.714	6539.6
963.017	6528.08
963.32	6534.18
963.623	6478.36
963.926	6470.68
964.228	6411.24
964.531	6305.26
964.833	6340.96
965.136	6247.86
965.438	6314.3
965.741	6252.83
966.043	6209.89
966.345	6160.85
966.648	6168.54
966.95	6133.96
967.252	6112.72
967.554	6098.26
967.856	6076.79
968.158	6006.51
968.46	5999.05
968.761	5982.78
969.063	5978.03
969.365	5919.05
969.666	5915.89
969.968	5849.22
970.269	5810.36
970.571	5812.84
970.872	5754.99
971.174	5754.09
971.475	5707.08
971.776	5755.67
972.077	5660.53
972.378	5614.88
972.679	5623.92
972.98	5568.1
973.281	5572.62
973.582	5571.49
973.883	5531.94
974.183	5525.17
974.484	5518.84
974.785	5425.96
975.085	5377.37
975.386	5435.45
975.686	5399.75
975.986	5376.24
976.287	5361.78
976.587	5291.27
976.887	5245.85
977.187	5256.47
977.487	5218.28
977.787	5203.82
978.087	5208.11
978.387	5169.47
978.687	5167.43
978.987	5079.75
979.286	5122.92
979.586	5066.42
979.885	5017.61
980.185	5003.37
980.484	4977.16
980.784	4949.59
981.083	4936.25
981.382	4895.58
981.682	4931.96
981.981	4899.65
982.28	4818.52
982.579	4820.1
982.878	4861
983.177	4851.06
983.475	4738.75
983.774	4739.42
984.073	4717.96
984.372	4730.38
984.67	4688.8
984.969	4682.48
985.267	4677.28
985.566	4639.54
985.864	4571.29
986.162	4598.18
986.461	4546.66
986.759	4537.17
987.057	4460.33
987.355	4464.85
987.653	4444.06
987.951	4444.52
988.249	4402.71
988.547	4404.52
988.844	4354.12
989.142	4407.91
989.44	4339.21
989.737	4340.79
990.035	4289.27
990.332	4290.62
990.63	4300.34
990.927	4270.96
991.224	4202.94
991.521	4165.2
991.819	4164.75
992.116	4205.2
992.413	4149.16
992.71	4098.99
993.006	4130.4
993.303	4082.04
993.6	4056.5
993.897	4027.13
994.193	4046.11
994.49	4012.66
994.787	4006.11
995.083	3893.57
995.379	3919.11
995.676	3911.65
995.972	3874.59
996.268	3883.17
996.565	3859.67
996.861	3827.58
997.157	3817.19
997.453	3814.48
997.749	3751.88
998.044	3768.15
998.34	3751.43
998.636	3735.61
998.932	3685.67
999.227	3658.1
999.523	3621.49
999.818	3633.24
1000.114	3653.35
1000.409	3621.03
1000.704	3572.67
1001	3505.56
1001.295	3538.78
1001.59	3497.65
1001.885	3480.25
1002.18	3468.95
1002.475	3469.85
1002.77	3419.01
1003.065	3421.04
1003.359	3380.82
1003.654	3384.43
1003.949	3381.27
1004.243	3341.72
1004.538	3316.41
1004.832	3280.25
1005.127	3264.66
1005.421	3229.63
1005.715	3237.77
1006.009	3272.57
1006.304	3173.36
1006.598	3222.85
1006.892	3184.21
1007.186	3121.84
1007.48	3123.65
1007.773	3125.91
1008.067	3074.38
1008.361	3074.83
1008.655	3005.01
1008.948	3020.82
1009.242	3011.33
1009.535	2974.05
1009.829	2995.74
1010.122	2939.92
1010.415	2945.12
1010.708	2931.34
1011.001	2919.58
1011.295	2878.91
1011.588	2862.18
1011.881	2838
1012.173	2832.58
1012.466	2806.59
1012.759	2761.4
1013.052	2770.21
1013.344	2751.45
1013.637	2782.41
1013.93	2738.35
1014.222	2719.59
1014.514	2653.15
1014.807	2648.18
1015.099	2632.13
1015.391	2648.86
1015.683	2614.06
1015.976	2604.11
1016.268	2585.58
1016.56	2555.07
1016.851	2550.55
1017.143	2553.49
1017.435	2525.7
1017.727	2512.36
1018.018	2494.51
1018.31	2445.92
1018.602	2479.82
1018.893	2435.3
1019.185	2403.89
1019.476	2398.24
1019.767	2383.78
1020.058	2391.24
1020.35	2346.49
1020.641	2318.47
1020.932	2342.2
1021.223	2281.86
1021.514	2258.36
1021.804	2252.94
1022.095	2229.43
1022.386	2233.73
1022.677	2208.87
1022.967	2203.22
1023.258	2191.92
1023.548	2173.16
1023.839	2165.03
1024.129	2175.2
1024.419	2107.4
1024.709	2115.54
1025	2095.88
1025.29	2065.14
1025.58	2089.1
1025.87	2056.33
1026.16	2061.08
1026.449	2025.82
1026.739	2007.97
1027.029	2008.42
1027.319	1991.7
1027.608	1977.01
1027.898	1950.8
1028.187	1938.82
1028.477	1954.86
1028.766	1922.1
1029.055	1894.53
1029.344	1885.26
1029.634	1876
1029.923	1841.42
1030.212	1836.67
1030.501	1831.03
1030.79	1802.78
1031.078	1819.5
1031.367	1812.72
1031.656	1774.76
1031.945	1749.45
1032.233	1756.23
1032.522	1739.73
1032.81	1703.12
1033.099	1718.03
1033.387	1679.84
1033.675	1716
1033.963	1683.46
1034.251	1671.71
1034.54	1626.74
1034.828	1634.87
1035.116	1623.35
1035.403	1608.21
1035.691	1604.59
1035.979	1594.65
1036.267	1560.52
1036.554	1546.06
1036.842	1551.48
1037.129	1556.46
1037.417	1531.82
1037.704	1558.26
1037.992	1496.57
1038.279	1509.68
1038.566	1495.21
1038.853	1495.21
1039.14	1495.21
