Data from 13-0850_FLMS001491_005.txt Node
Date: Thu Apr 12 17:08:28 BST 2018
User: hsy
Spectrometer: FLMS00149
Trigger mode: 0
Integration Time (sec): 1.000000E-2
Scans to average: 10
Electric dark correction enabled: true
Nonlinearity correction enabled: false
Boxcar width: 0
XAxis mode: Wavelengths
Number of Pixels in Spectrum: 2048
>>>>>Begin Spectral Data<<<<<
341.393	-28.26
341.776	-28.26
342.16	-28.26
342.543	-42.05
342.927	-50.86
343.31	-88.15
343.693	-57.64
344.077	-70.97
344.46	-56.51
344.843	-63.97
345.226	-29.39
345.61	-32.78
345.993	-27.13
346.376	18.74
346.759	20.32
347.142	21.45
347.525	47.22
347.908	62.58
348.291	55.35
348.674	91.73
349.057	109.14
349.44	146.2
349.823	160.89
350.206	175.8
350.588	244.27
350.971	247.89
351.354	240.66
351.737	272.75
352.119	271.84
352.502	319.75
352.884	306.87
353.267	309.13
353.65	323.59
354.032	353.2
354.414	365.4
354.797	355.46
355.179	384.83
355.562	369.02
355.944	372.41
356.326	370.37
356.709	379.18
357.091	384.38
357.473	385.51
357.855	383.25
358.238	371.95
358.62	383.03
359.002	376.02
359.384	386.64
359.766	392.52
360.148	385.96
360.53	377.83
360.912	388.22
361.294	386.64
361.676	386.19
362.057	376.25
362.439	364.5
362.821	381.67
363.203	377.6
363.584	370.15
363.966	384.16
364.348	379.41
364.729	386.42
365.111	374.89
365.493	375.8
365.874	380.31
366.256	374.21
366.637	364.04
367.019	369.02
367.4	384.16
367.781	359.07
368.163	384.61
368.544	382.8
368.925	372.18
369.306	383.48
369.688	376.7
370.069	372.18
370.45	373.08
370.831	399.98
371.212	357.94
371.593	355.68
371.974	375.34
372.355	355.91
372.736	396.36
373.117	385.96
373.498	375.8
373.879	365.17
374.26	378.51
374.641	360.43
375.021	368.34
375.402	395.46
375.783	399.52
376.163	396.81
376.544	411.5
376.925	395
377.305	392.74
377.686	379.41
378.066	393.87
378.447	408.56
378.827	396.36
379.208	405.62
379.588	410.14
379.968	414.66
380.349	389.35
380.729	409.69
381.109	396.81
381.489	415.57
381.87	435.68
382.25	407.66
382.63	438.17
383.01	425.74
383.39	451.05
383.77	425.06
384.15	445.4
384.53	433.87
384.91	443.59
385.29	417.15
385.67	433.42
386.049	447.43
386.429	434.55
386.809	430.26
387.189	438.17
387.568	466.41
387.948	449.92
388.328	478.84
388.707	451.05
389.087	460.09
389.466	469.8
389.846	472.29
390.225	491.05
390.605	483.59
390.984	484.04
391.363	475
391.743	502.57
392.122	482.23
392.501	507.32
392.881	510.25
393.26	508.9
393.639	498.28
394.018	475.91
394.397	510.93
394.776	514.55
395.155	537.37
395.534	497.83
395.913	516.36
396.292	535.34
396.671	523.36
397.05	515.68
397.429	519.97
397.808	521.1
398.186	523.36
398.565	553.87
398.944	526.3
399.323	553.64
399.701	535.79
400.08	542.34
400.458	556.36
400.837	546.19
401.215	552.74
401.594	554.55
401.972	574.43
402.351	582.12
402.729	574.21
403.107	573.53
403.486	569.01
403.864	581.67
404.242	611.5
404.62	585.51
404.999	604.04
405.377	592.74
405.755	606.52
406.133	630.48
406.511	602.91
406.889	644.49
407.267	646.97
407.645	625.96
408.023	635.45
408.401	640.65
408.779	653.53
409.156	677.93
409.534	691.49
409.912	680.19
410.29	711.61
410.667	696.46
411.045	707.54
411.422	712.28
411.8	715
412.178	719.29
412.555	735.79
412.933	766.75
413.31	740.53
413.687	763.13
414.065	769.46
414.442	754.54
414.819	783.92
415.197	781.89
415.574	813.3
415.951	780.08
416.328	797.25
416.705	824.37
417.082	840.64
417.46	827.08
417.837	843.58
418.214	836.57
418.591	843.58
418.967	842.9
419.344	841.32
419.721	880.19
420.098	876.35
420.475	896.69
420.852	911.6
421.228	895.1
421.605	909.79
421.982	885.61
422.358	931.49
422.735	920.19
423.111	949.57
423.488	952.5
423.864	934.2
424.241	963.35
424.617	967.19
424.994	964.71
425.37	972.62
425.746	973.52
426.123	984.59
426.499	974.88
426.875	972.39
427.251	1008.09
427.627	1034.31
428.003	1011.48
428.379	1041.77
428.756	1045.61
429.132	1070.92
429.507	1097.13
429.883	1083.35
430.259	1120.63
430.635	1101.65
431.011	1133.97
431.387	1154.53
431.763	1167.64
432.138	1150.69
432.514	1164.02
432.89	1183.01
433.265	1206.51
433.641	1205.6
434.016	1203.57
434.392	1256.45
434.767	1258.26
435.143	1252.61
435.518	1233.4
435.894	1266.62
436.269	1288.31
436.644	1314.53
437.02	1312.04
437.395	1351.14
437.77	1314.08
438.145	1340.29
438.52	1330.57
438.895	1387.97
439.271	1359.95
439.646	1373.51
440.021	1396.56
440.395	1422.32
440.77	1396.11
441.145	1407.86
441.52	1448.31
441.895	1428.65
442.27	1454.64
442.645	1441.08
443.019	1479.04
443.394	1465.48
443.769	1484.69
444.143	1485.82
444.518	1509.1
444.892	1522.43
445.267	1502.09
445.641	1494.64
446.016	1499.16
446.39	1533.73
446.764	1583.45
447.139	1525.6
447.513	1545.03
447.887	1550.23
448.262	1552.49
448.636	1585.48
449.01	1606.27
449.384	1627.51
449.758	1644.01
450.132	1674.07
450.506	1670.22
450.88	1672.26
451.254	1674.29
451.628	1659.6
452.002	1710
452.376	1715.2
452.75	1761.07
453.123	1776.44
453.497	1797.9
453.871	1796.1
454.244	1814.4
454.618	1831.8
454.992	1860.5
455.365	1877.68
455.739	1899.6
456.112	1931.01
456.486	1952.7
456.859	2000.61
457.232	2001.74
457.606	2022.08
457.979	2031.34
458.352	2073.6
458.725	2073.38
459.099	2077.9
459.472	2124.9
459.845	2166.48
460.218	2223.43
460.591	2190.44
460.964	2241.96
461.337	2242.64
461.71	2288.29
462.083	2321.05
462.456	2341.62
462.829	2366.93
463.201	2389.3
463.574	2401.73
463.947	2450.54
464.32	2469.07
464.692	2469.07
465.065	2503.2
465.438	2538.45
465.81	2541.61
466.183	2569.86
466.555	2639.46
466.928	2660.93
467.3	2662.97
467.672	2688.5
468.045	2747.94
468.417	2775.96
468.789	2797.65
469.161	2805.79
469.534	2867.48
469.906	2905.45
470.278	2969.4
470.65	2964.43
471.022	3002.84
471.394	3026.35
471.766	3097.76
472.138	3121.71
472.51	3183.86
472.882	3209.39
473.253	3276.96
473.625	3294.59
473.997	3399.44
474.369	3425.21
474.74	3460.91
475.112	3543.4
475.484	3566.45
475.855	3654.81
476.227	3646.22
476.598	3763.05
476.97	3847.34
477.341	3872.43
477.713	3966.66
478.084	3962.14
478.455	4048.24
478.827	4134.34
479.198	4293.43
479.569	4274.68
479.94	4372.3
480.311	4421.11
480.682	4551.96
481.053	4636.25
481.424	4728.22
481.795	4806.19
482.166	4937.03
482.537	4969.8
482.908	5145.16
483.279	5182.45
483.65	5286.85
484.021	5384.25
484.391	5520.52
484.762	5584.02
485.133	5678.03
485.503	5730.23
485.874	5965.25
486.244	5986.27
486.615	6146.72
486.985	6285.47
487.356	6426.48
487.726	6465.8
488.097	6675.29
488.467	6773.82
488.837	6976.75
489.207	6983.31
489.578	7285.44
489.948	7353.24
490.318	7536.74
490.688	7657.86
491.058	7870.97
491.428	7995.71
491.798	8178.98
492.168	8372.65
492.538	8520.44
492.908	8627.78
493.278	8846.76
493.648	8957.04
494.017	9125.85
494.387	9349.34
494.757	9536.23
495.126	9723.35
495.496	9884.02
495.866	10128.53
496.235	10274.74
496.605	10458.24
496.974	10580.72
497.344	10871.34
497.713	11088.96
498.082	11266.13
498.452	11514.49
498.821	11617.31
499.19	11767.59
499.559	12056.84
499.928	12293
500.298	12401.02
500.667	12701.12
501.036	12813.21
501.405	13096.59
501.774	13272.41
502.143	13488.44
502.512	13690.02
502.88	13953.29
503.249	14111.25
503.618	14381.53
503.987	14558.93
504.356	14847.96
504.724	15005.47
505.093	15221.05
505.462	15439.58
505.83	15583.08
506.199	15955.5
506.567	16271.65
506.936	16237.3
507.304	16653.33
507.672	16790.5
508.041	17099.65
508.409	17292.41
508.777	17522.91
509.145	17762.23
509.514	17921.32
509.882	18213.74
510.25	18353.85
510.618	18640.4
510.986	18795.65
511.354	19011.92
511.722	19312.02
512.09	19553.37
512.458	19618.45
512.826	19940.93
513.193	20064.54
513.561	20263.41
513.929	20544.53
514.297	20780
514.664	21077.85
515.032	21121.92
515.4	21525.3
515.767	21645.07
516.135	21908.11
516.502	21843.03
516.869	22346.29
517.237	22550.81
517.604	22471.49
517.972	22953.28
518.339	23090.9
518.706	23181.3
519.073	23434.17
519.44	23725.01
519.808	24017.43
520.175	24008.17
520.542	24266.47
520.909	24555.5
521.276	24699.9
521.643	25108.03
522.009	25159.78
522.376	25462.82
522.743	25762.02
523.11	25953.88
523.477	26310.71
523.843	26332.85
524.21	26773.29
524.577	27045.15
524.943	27156.56
525.31	27384.12
525.676	27839.48
526.043	27980.72
526.409	28067.5
526.776	28447.83
527.142	28556.07
527.508	28685.79
527.874	29029.28
528.241	29190.63
528.607	29292.77
528.973	29744.97
529.339	29712.88
529.705	30223.37
530.071	30355.8
530.437	30617.49
530.803	30819.51
531.169	30993.52
531.535	31108.32
531.901	31323.91
532.267	31379.5
532.632	31781.3
532.998	31803.67
533.364	32023.78
533.73	32171.57
534.095	32436.42
534.461	32473.26
534.826	32722.29
535.192	32863.75
535.557	33085.67
535.923	33197.53
536.288	33376.74
536.653	33413.8
537.019	33600.68
537.384	33709.16
537.749	33783.5
538.114	34049.49
538.479	33936.49
538.845	34220.1
539.21	34149.6
539.575	34409.02
539.94	34514.78
540.305	34801.78
540.67	34723.14
541.034	34865.74
541.399	34978.28
541.764	35256.23
542.129	35196.35
542.494	35344.82
542.858	35478.6
543.223	35440.64
543.587	35724.7
543.952	35665.71
544.316	35834.98
544.681	35844.92
545.045	36156.78
545.41	36222.08
545.774	36273.83
546.138	36423.43
546.503	36471.34
546.867	36614.16
547.231	36842.63
547.595	37013.02
547.959	37074.72
548.324	37043.98
548.688	37064.77
549.052	37296.86
549.416	37397.19
549.779	37353.81
550.143	37637.64
550.507	37862.04
550.871	37922.15
551.235	37954.47
551.599	38274.01
551.962	38453.21
552.326	38570.05
552.689	38536.83
553.053	38464.74
553.417	38728.69
553.78	39132.52
554.143	39192.63
554.507	39185.17
554.87	39327.31
555.234	39629.9
555.597	39514.2
555.96	39763.91
556.323	39977.47
556.686	39818.83
557.05	40195.77
557.413	40309.21
557.776	40298.81
558.139	40646.6
558.502	40762.08
558.865	40800.04
559.228	41160.94
559.59	41352.8
559.953	41423.98
560.316	41656.29
560.679	41833.24
561.041	42077.75
561.404	42161.14
561.767	42538.53
562.129	42339.89
562.492	42854.9
562.854	42813.78
563.217	42937.39
563.579	43087.21
563.941	43345.29
564.304	43538.28
564.666	43908.89
565.028	43761.32
565.39	43987.08
565.753	44347.75
566.115	44427.52
566.477	44684.91
566.839	44804.68
567.201	45118.35
567.563	45029.31
567.925	45404.22
568.287	45473.59
568.648	45697.77
569.01	45952
569.372	46287.13
569.734	46129.62
570.095	46412.32
570.457	46670.85
570.819	46643.28
571.18	46764.86
571.542	47164.4
571.903	47248.46
572.265	47395.58
572.626	47618.17
572.987	47585.85
573.349	47729.35
573.71	48014.54
574.071	48237.36
574.432	48395.1
574.794	48569.1
575.155	48647.52
575.516	48777.46
575.877	48938.13
576.238	48880.96
576.599	49144.46
576.96	49168.86
577.32	49254.28
577.681	49489.53
578.042	49672.13
578.403	49611.79
578.763	49711
579.124	49766.36
579.485	50080.48
579.845	50282.05
580.206	50222.62
580.566	50255.39
580.927	50356.4
581.287	50577.87
581.648	50563.63
582.008	50755.49
582.368	50827.58
582.728	50846.56
583.089	50876.61
583.449	50988.48
583.809	51035.71
584.169	51229.15
584.529	51123.61
584.889	51513.89
585.249	51364.96
585.609	51437.5
585.969	51686.54
586.329	51437.28
586.688	51770.83
587.048	51854.22
587.408	51839.98
587.768	51897.15
588.127	52064.83
588.487	52136.02
588.846	52285.84
589.206	52113.87
589.565	52202.91
589.925	52562.22
590.284	52474.76
590.643	52636.79
591.003	52739.84
591.362	52948.2
591.721	52977.8
592.08	52930.57
592.44	53137.57
592.799	53194.97
593.158	53206.04
593.517	53248.08
593.876	53504.12
594.235	53473.38
594.593	53589.31
594.952	53671.79
595.311	53652.81
595.67	53748.86
596.029	53916.31
596.387	54099.81
596.746	54173.93
597.104	53992.92
597.463	54089.86
597.822	54406.46
598.18	54280.82
598.538	54370.99
598.897	54643.07
599.255	54429.52
599.613	54846.23
599.972	54684.2
600.33	54793.57
600.688	54834.93
601.046	54915.83
601.404	55130.97
601.762	55173.68
602.12	55246.22
602.478	55313.33
602.836	55371.64
603.194	55258.19
603.552	55416.83
603.91	55383.39
604.268	55520.79
604.625	55514.68
604.983	55777.28
605.341	55565.98
605.698	55950.38
606.056	56090.26
606.413	55917.16
606.771	56177.72
607.128	56196.93
607.485	56122.13
607.843	56156.7
608.2	56362.57
608.557	56451.38
608.914	56445.73
609.272	56490.03
609.629	56773.86
609.986	56765.5
610.343	56717.82
610.7	56982.89
611.057	56935.21
611.414	56925.95
611.771	57061.54
612.127	57095.89
612.484	57194.19
612.841	57224.47
613.198	57155.09
613.554	57233.28
613.911	57420.17
614.267	57457.91
614.624	57490.9
614.98	57617.45
615.337	57803.89
615.693	57722.08
616.05	57782.2
616.406	57913.27
616.762	57961.63
617.118	58003.43
617.475	57959.82
617.831	58095.41
618.187	58116.42
618.543	58135.18
618.899	58248.17
619.255	58205.24
619.611	58228.06
619.967	58329.07
620.323	58393.7
620.678	58337.21
621.034	58348.73
621.39	58367.04
621.746	58370.88
622.101	58634.83
622.457	58435.96
622.812	58543.31
623.168	58637.77
623.523	58602.51
623.879	58727.26
624.234	58593.25
624.589	58670.99
624.945	58662.62
625.3	58734.26
625.655	58725.22
626.01	58781.27
626.365	58826.46
626.72	58707.14
627.075	58679.8
627.43	58801.38
627.785	58746.92
628.14	58831.89
628.495	58875.05
628.85	58849.74
629.205	58757.76
629.559	58890.41
629.914	58775.39
630.269	58909.85
630.623	58673.92
630.978	58656.75
631.332	58890.41
631.687	58719.35
632.041	58714.6
632.396	58673.47
632.75	58684.09
633.104	58811.09
633.459	58627.14
633.813	58574.04
634.167	58626.69
634.521	58584.66
634.875	58669.4
635.229	58585.79
635.583	58464.44
635.937	58459.69
636.291	58535.4
636.645	58493.59
636.999	58359.58
637.352	58501.5
637.706	58296.08
638.06	58388.28
638.413	58306.25
638.767	58273.48
639.121	58295.4
639.474	58227.38
639.828	58230.77
640.181	58157.55
640.534	58274.61
640.888	58127.5
641.241	58026.26
641.594	58090.44
641.947	58140.83
642.301	58063.54
642.654	58076.2
643.007	57975.18
643.36	58017.44
643.713	57946.48
644.066	58052.47
644.419	57835.98
644.771	57591.01
645.124	57398.25
645.477	57336.78
645.83	57235.77
646.182	57195.32
646.535	57178.6
646.888	57193.74
647.24	57103.8
647.593	57315.77
647.945	57135.21
648.298	57054.98
648.65	56941.09
649.002	56810.92
649.355	56917.59
649.707	56852.5
650.059	56844.37
650.411	57194.19
650.763	57189.22
651.115	57650.45
651.467	57526.61
651.819	57527.96
652.171	57399.83
652.523	57406.16
652.875	57395.31
653.227	57219.5
653.578	57430.34
653.93	57350.79
654.282	57286.16
654.633	57174.53
654.985	57249.78
655.337	57294.07
655.688	57245.71
656.039	57241.42
656.391	57002.33
656.742	57087.52
657.094	57090.01
657.445	57141.08
657.796	57109.44
658.147	56984.7
658.498	56996
658.849	57102.44
659.2	57040.52
659.551	56959.17
659.902	57098.82
660.253	56931.14
660.604	57051.37
660.955	56869.9
661.306	57013.4
661.656	56914.42
662.007	56977.7
662.358	56959.84
662.708	56953.29
663.059	56797.81
663.409	56659.96
663.76	56837.14
664.11	56857.47
664.461	56797.14
664.811	56780.87
665.161	56807.53
665.511	56679.4
665.862	56809.79
666.212	56779.51
666.562	56836.68
666.912	56799.62
667.262	56709.23
667.612	56750.13
667.962	56741.54
668.312	56621.77
668.662	56823.12
669.011	56737.93
669.361	56695.44
669.711	56661.32
670.06	56627.42
670.41	56657.48
670.76	56647.99
671.109	56744.48
671.459	56654.77
671.808	56635.33
672.157	56585.39
672.507	56529.35
672.856	56579.06
673.205	56544.26
673.554	56570.7
673.904	56582.9
674.253	56712.17
674.602	56573.19
674.951	56204.38
675.3	56094.56
675.649	56580.42
675.998	56546.97
676.346	56613.41
676.695	56572.51
677.044	56403.93
677.393	56473.53
677.741	56535.67
678.09	56398.05
678.438	56386.98
678.787	56447.77
679.135	56414.32
679.484	56341.1
679.832	56307.66
680.181	56358.5
680.529	56302.46
680.877	56203.25
681.225	56207.55
681.573	56423.59
681.922	56225.17
682.27	56176.81
682.618	56138.85
682.966	56144.72
683.314	56165.74
683.661	56117.83
684.009	56045.07
684.357	55989.25
684.705	55915.13
685.053	55931.4
685.4	55865.41
685.748	55859.31
686.095	55820.21
686.443	55747.45
686.79	55748.12
687.138	55796.26
687.485	55690.72
687.832	55610.95
688.18	55613.21
688.527	55420.9
688.874	55518.07
689.221	55423.61
689.568	55370.96
689.915	55270.4
690.262	55396.04
690.609	55252.77
690.956	55205.09
691.303	55172.55
691.65	55101.59
691.997	54969.61
692.344	54933
692.69	54849.39
693.037	54828.83
693.383	54654.14
693.73	54757.42
694.077	54606.91
694.423	54642.16
694.769	54578.44
695.116	54445.79
695.462	54389.29
695.808	54333.02
696.155	54374.6
696.501	54076.98
696.847	54176.41
697.193	53954.05
697.539	54020.26
697.885	53867.04
698.231	53822.07
698.577	53828.85
698.923	53745.24
699.269	53483.55
699.614	53463.89
699.96	53398.36
700.306	53425.93
700.651	53302.31
700.997	53180.96
701.342	53092.15
701.688	53141.19
702.033	52931.25
702.379	53037.69
702.724	52769.45
703.069	52967.41
703.415	52569.45
703.76	52545.27
704.105	52610.13
704.45	52502.33
704.795	52391.6
705.14	52310.25
705.485	52278.61
705.83	52093.53
706.175	52270.93
706.52	52099.63
706.865	51971.5
707.209	51835.69
707.554	51879.98
707.899	51804.05
708.243	51671.17
708.588	51698.97
708.932	51438.41
709.277	51428.92
709.621	51288.81
709.966	51210.62
710.31	51286.09
710.654	50997.97
710.998	51121.81
711.342	51047.23
711.687	50986.44
712.031	50781.7
712.375	50757.97
712.719	50734.25
713.063	50565.89
713.407	50787.13
713.75	50596.62
714.094	50522.95
714.438	50419.9
714.782	50325.44
715.125	50097.65
715.469	50281.83
715.812	50012.68
716.156	50032.34
716.499	49952.57
716.843	50036.64
717.186	49804.55
717.53	50016.75
717.873	49930.42
718.216	49776.53
718.559	49696.98
718.902	49405.47
719.246	49527.5
719.589	49235.53
719.932	49153.04
720.275	49376.77
720.617	49301.51
720.96	49098.13
721.303	48974.74
721.646	49164.79
721.989	48953.5
722.331	49012.93
722.674	48944.69
723.016	48960.28
723.359	48863.33
723.701	48921.86
724.044	48687.29
724.386	48545.15
724.729	48692.49
725.071	48537.92
725.413	48546.05
725.755	48377.92
726.097	48271.03
726.439	48180.19
726.782	48068.33
727.124	48289.34
727.465	48126.4
727.807	48075.78
728.149	48236.01
728.491	47938.39
728.833	48046.41
729.175	47944.71
729.516	47886.64
729.858	47851.16
730.199	47993.75
730.541	47755.11
730.882	47458.17
731.224	47669.92
731.565	47629.02
731.906	47578.4
732.248	47668.11
732.589	47318.74
732.93	47295.92
733.271	47318.97
733.612	47304.73
733.953	47435.8
734.294	47220.44
734.635	47042.59
734.976	47402.13
735.317	47070.61
735.658	47053.21
735.999	47087.11
736.339	47069.93
736.68	46938.19
737.021	46951.75
737.361	46824.52
737.702	47037.62
738.042	46842.6
738.383	46751.52
738.723	46970.28
739.063	46691.19
739.404	46838.98
739.744	46617.07
740.084	46468.59
740.424	46658.65
740.764	46356.51
741.104	46658.65
741.444	46441.48
741.784	46307.47
742.124	46352.21
742.464	46344.76
742.804	46261.14
743.143	46263.4
743.483	46403.29
743.823	46146.34
744.162	46073.58
744.502	46185.66
744.841	46060.24
745.181	46206.68
745.52	46037.42
745.86	46068.61
746.199	45947.25
746.538	45893.47
746.877	45990.87
747.216	45970.98
747.556	45767.6
747.895	45783.64
748.234	45614.83
748.573	45723.76
748.911	45580.48
749.25	45514.5
749.589	45339.81
749.928	45456.42
750.267	45467.04
750.605	45255.07
750.944	45372.58
751.283	45250.77
751.621	45233.15
751.96	44975.3
752.298	45017.33
752.636	45038.58
752.975	44895.08
753.313	44728.98
753.651	45113.83
753.989	44630
754.327	44759.03
754.666	44402.66
755.004	44486.73
755.342	44514.75
755.679	44547.97
756.017	44225.72
756.355	44349.78
756.693	44138.03
757.031	44257.58
757.368	44038.83
757.706	44055.78
758.044	43839.51
758.381	43883.8
758.719	43883.8
759.056	43760.42
759.394	43574.89
759.731	43172.41
760.068	43129.93
760.405	43305.74
760.743	43200.21
761.08	43134.44
761.417	43030.94
761.754	42815.36
762.091	42649.94
762.428	42467.57
762.765	42550.96
763.102	42391.87
763.438	42301.47
763.775	42141.25
764.112	42005.66
764.449	42100.35
764.785	41820.81
765.122	41656.29
765.458	41585.33
765.795	41560.93
766.131	41361.84
766.467	41298.79
766.804	41059.02
767.14	41003.65
767.476	40848.63
767.812	40704.23
768.148	40875.97
768.485	40711.68
768.821	40310.34
769.157	40227.4
769.492	40136.78
769.828	40050.68
770.164	39912.16
770.5	39636.46
770.836	39690.92
771.171	39454.09
771.507	39346.07
771.842	39129.8
772.178	39083.7
772.513	39013.65
772.849	38706.54
773.184	38808.46
773.519	38674
773.855	38476.71
774.19	38321.92
774.525	38166.44
774.86	38117.85
775.195	37966.9
775.53	37949.5
775.865	37680.35
776.2	37389.96
776.535	37178.67
776.87	37120.37
777.205	37097.09
777.539	37019.8
777.874	36963.53
778.209	36541.4
778.543	36706.59
778.878	36466.15
779.212	36544.34
779.547	36112.71
779.881	36108.19
780.215	35811.25
780.55	35934.86
780.884	35680.63
781.218	35480.41
781.552	35493.52
781.886	35348.66
782.22	35185.5
782.554	35010.82
782.888	34750.26
783.222	34621.45
783.556	34530.38
783.889	34520.43
784.223	34165.42
784.557	34199.31
784.89	34216.26
785.224	34076.38
785.557	33771.53
785.891	33639.78
786.224	33710.51
786.558	33486.34
786.891	33389.39
787.224	33140.81
787.557	32947.82
787.891	33036.18
788.224	32795.96
788.557	32810.87
788.89	32622.18
789.223	32567.04
789.556	32404.78
789.888	32384.67
790.221	32247.27
790.554	31989.2
790.887	31977.45
791.219	31726.84
791.552	31775.42
791.884	31628.31
792.217	31572.49
792.549	31321.65
792.882	31285.26
793.214	31113.97
793.546	31118.49
793.879	30955.56
794.211	30868.33
794.543	30886.63
794.875	30721.66
795.207	30634.43
795.539	30583.59
795.871	30594.44
796.203	30327.78
796.535	30234.9
796.867	30159.87
797.198	29952.42
797.53	29914
797.862	29646.89
798.193	29820.67
798.525	29605.76
798.856	29691.41
799.188	29344.53
799.519	29298.42
799.85	29084.42
800.182	29180.69
800.513	29270.85
800.844	28850.53
801.175	28966.23
801.506	28858.66
801.837	28636.07
802.168	28655.28
802.499	28727.14
802.83	28525.56
803.161	28402.63
803.491	28383.65
803.822	28405.79
804.153	28020.72
804.483	28005.35
804.814	27961.28
805.145	27957.67
805.475	27947.05
805.805	27783.66
806.136	27755.41
806.466	27637
806.796	27541.86
807.126	27513.39
807.457	27423.67
807.787	27397.23
808.117	27234.3
808.447	27038.14
808.777	27243.56
809.107	26903.46
809.436	26874.76
809.766	26893.29
810.096	26974.42
810.426	26715.22
810.755	26793.86
811.085	26709.34
811.414	26571.94
811.744	26395.68
812.073	26526.07
812.403	26394.09
812.732	26256.02
813.061	26470.7
813.39	26213.76
813.719	26045.85
814.049	26240.65
814.378	26100.32
814.707	26004.73
815.036	25889.02
815.365	25713.89
815.693	25685.64
816.022	25550.95
816.351	25545.08
816.68	25433.22
817.008	25464.63
817.337	25232.32
817.665	25339.88
817.994	25265.31
818.322	25407.45
818.651	25179.44
818.979	25042.94
819.307	25130.4
819.636	24988.93
819.964	24925.43
820.292	25009.27
820.62	25001.81
820.948	25122.04
821.276	25069.16
821.604	24892.44
821.932	25122.94
822.259	24841.82
822.587	24869.39
822.915	24790.29
823.243	24912.78
823.57	24790.52
823.898	24905.32
824.225	24736.96
824.553	24724.76
824.88	24865.55
825.207	24953.91
825.535	24711.88
825.862	24882.95
826.189	24752.78
826.516	24942.15
826.843	24898.99
827.17	24968.82
827.497	24933.12
827.824	24949.61
828.151	25099.89
828.478	24785.1
828.805	24946.22
829.131	24910.07
829.458	24838.2
829.785	24634.37
830.111	24918.2
830.438	25016.28
830.764	24757.98
831.09	24889.05
831.417	24778.09
831.743	24981.25
832.069	24800.24
832.395	24777.19
832.722	24771.99
833.048	24748.04
833.374	24841.37
833.7	24723.18
834.026	24821.71
834.351	24679.56
834.677	24770.41
835.003	24630.3
835.329	24712.1
835.654	24486.8
835.98	24436.18
836.306	24629.85
836.631	24379.68
836.956	24675.95
837.282	24548.94
837.607	24454.94
837.932	24408.61
838.258	24415.39
838.583	24342.4
838.908	24373.13
839.233	24334.49
839.558	24078.45
839.883	24101.95
840.208	24077.77
840.533	24166.58
840.858	24130.42
841.182	24105.11
841.507	24134.04
841.832	23863.09
842.156	23921.39
842.481	23959.58
842.805	23766.37
843.13	23726.14
843.454	23788.29
843.778	23647.73
844.103	23611.79
844.427	23582.64
844.751	23624
845.075	23459.03
845.399	23482.08
845.723	23207.96
846.047	23346.04
846.371	23257.23
846.695	23099.49
847.019	23062.88
847.343	22954.41
847.666	22852.72
847.99	22676.45
848.313	22654.53
848.637	22582.89
848.96	22634.64
849.284	22512.16
849.607	22352.84
849.931	22264.71
850.254	22114.21
850.577	21983.59
850.9	21797.15
851.223	21810.94
851.546	21747.21
851.869	21549.48
852.192	21756.25
852.515	21609.14
852.838	21467.22
853.161	21478.29
853.483	21363.72
853.806	21291.18
854.129	21121.46
854.451	21181.8
854.774	20951.75
855.096	20925.54
855.419	20795.6
855.741	20816.16
856.063	20687.13
856.385	20717.63
856.708	20638.99
857.03	20609.84
857.352	20481.93
857.674	20452.33
857.996	20300.24
858.318	20192
858.64	20327.14
858.961	20212.34
859.283	20138.21
859.605	20062.06
859.926	20058.22
860.248	19977.77
860.57	19870.65
860.891	19964.88
861.212	19876.3
861.534	19827.04
861.855	19660.03
862.176	19731.67
862.498	19788.17
862.819	19737.32
863.14	19587.04
863.461	19568.96
863.782	19508.17
864.103	19566.48
864.424	19443.32
864.745	19448.51
865.065	19294.85
865.386	19328.97
865.707	19321.96
866.027	19269.76
866.348	19304.79
866.668	19249.88
866.989	19225.7
867.309	19094.63
867.63	19052.37
867.95	19043.78
868.27	18995.42
868.59	19047.85
868.91	19006.72
869.23	18893.05
869.55	18837.91
869.87	18871.35
870.19	18867.74
870.51	18793.62
870.83	18795.42
871.15	18716.1
871.469	18598.37
871.789	18728.53
872.109	18659.38
872.428	18517.01
872.748	18618.71
873.067	18493.28
873.386	18562.44
873.706	18457.13
874.025	18487.86
874.344	18360.63
874.663	18488.09
874.982	18352.27
875.301	18384.81
875.62	18376.45
875.939	18213.29
876.258	18267.75
876.577	18188.66
876.896	18152.5
877.214	18216.46
877.533	18182.56
877.852	18262.1
878.17	18176.46
878.489	18156.34
878.807	18019.85
879.125	17933.75
879.444	18043.81
879.762	17894.2
880.08	17910.7
880.398	17823.47
880.716	17870.48
881.034	17801.55
881.352	17840.19
881.67	17756.13
881.988	17729.24
882.306	17626.87
882.624	17587.32
882.941	17506.64
883.259	17442.69
883.577	17386.42
883.894	17392.75
884.212	17299.64
884.529	17303.71
884.846	17209.25
885.164	17188.91
885.481	17233.43
885.798	17182.36
886.115	16984.4
886.432	17097.84
886.75	17011.06
887.067	17056.71
887.383	16933.55
887.7	16937.17
888.017	16839.09
888.334	16781.92
888.651	16713.22
888.967	16770.62
889.284	16606.55
889.6	16541.25
889.917	16604.97
890.233	16553
890.55	16540.79
890.866	16475.48
891.182	16552.54
891.498	16353
891.815	16347.58
892.131	16304.64
892.447	16238.88
892.763	16118.21
893.079	16087.02
893.395	16099.9
893.71	16035.27
894.026	15980.13
894.342	16051.32
894.657	15846.57
894.973	15917.53
895.289	15860.59
895.604	15828.5
895.92	15597.09
896.235	15602.29
896.55	15673.92
896.865	15464.21
897.181	15496.3
897.496	15483.87
897.811	15343.09
898.126	15416.08
898.441	15276.65
898.756	15262.86
899.071	15211.56
899.386	15160.04
899.7	15047.5
900.015	15008.18
900.33	14945.36
900.644	14827.39
900.959	14906.03
901.273	14732.93
901.588	14809.77
901.902	14637.12
902.216	14691.13
902.531	14589.43
902.845	14508.53
903.159	14473.5
903.473	14482.32
903.787	14378.36
904.101	14276.45
904.415	14223.11
904.729	14223.34
905.042	14056.79
905.356	14194.19
905.67	14034.19
905.984	14102.44
906.297	14022.67
906.611	13842.11
906.924	13875.33
907.237	13766.4
907.551	13731.15
907.864	13695.9
908.177	13699.51
908.491	13600.53
908.804	13513.75
909.117	13436.69
909.43	13355.34
909.743	13388.33
910.056	13292.52
910.368	13302.69
910.681	13213.2
910.994	13213.2
911.307	13091.85
911.619	13011.62
911.932	12984.5
912.244	12970.49
912.557	12907.9
912.869	12783.38
913.181	12811.63
913.494	12799.65
913.806	12625.87
914.118	12601.24
914.43	12488.47
914.742	12499.54
915.054	12476.49
915.366	12451.18
915.678	12306.1
915.99	12302.71
916.302	12278.76
916.613	12154.47
916.925	12194.02
917.236	12186.56
917.548	12029.73
917.859	12064.53
918.171	11960.12
918.482	11904.31
918.794	11902.5
919.105	11790.18
919.416	11767.13
919.727	11758.32
920.038	11759
920.349	11586.35
920.66	11622.05
920.971	11640.13
921.282	11489.63
921.593	11373.92
921.903	11364.21
922.214	11350.42
922.525	11235.4
922.835	11301.61
923.146	11151.11
923.456	11178.22
923.767	11097.32
924.077	11050.54
924.387	10939.36
924.697	11029.07
925.008	10886.48
925.318	10820.72
925.628	10826.59
925.938	10722.87
926.248	10648.52
926.558	10574.62
926.867	10632.93
927.177	10621.63
927.487	10488.52
927.796	10474.29
928.106	10478.81
928.416	10406.94
928.725	10324.91
929.034	10304.35
929.344	10313.61
929.653	10267.96
929.962	10129.44
930.271	10150.45
930.581	10063.9
930.89	9992.27
931.199	10026.61
931.508	9982.55
931.817	9955.43
932.125	9912.72
932.434	9813.51
932.743	9720.86
933.051	9708.21
933.36	9689
933.669	9583.01
933.977	9571.94
934.286	9563.35
934.594	9467.76
934.902	9467.31
935.21	9421.89
935.519	9362.68
935.827	9403.58
936.135	9283.13
936.443	9277.03
936.751	9219.18
937.059	9206.98
937.367	9095.57
937.674	9114.55
937.982	9068.22
938.29	9029.35
938.597	9023.7
938.905	8975.12
939.213	8911.84
939.52	8846.31
939.827	8936.02
940.135	8790.49
940.442	8849.02
940.749	8721.79
941.056	8768.12
941.363	8689.93
941.67	8642.24
941.977	8593.21
942.284	8489.03
942.591	8576.48
942.898	8445.41
943.205	8441.12
943.511	8433.66
943.818	8368.81
944.125	8256.72
944.431	8231.86
944.738	8306.21
945.044	8222.37
945.35	8152.09
945.657	8185.53
945.963	8108.7
946.269	8037.51
946.575	8040.23
946.881	8008.14
947.187	7945.09
947.493	7898.99
947.799	7893.34
948.105	7870.51
948.41	7761.14
948.716	7793.23
949.022	7752.78
949.327	7718.43
949.633	7646.79
949.938	7613.35
950.244	7590.75
950.549	7540.8
950.854	7488.15
951.16	7539.9
951.465	7514.59
951.77	7441.6
952.075	7325.22
952.38	7369.28
952.685	7313.47
952.99	7241.15
953.294	7273.24
953.599	7178.33
953.904	7172.45
954.209	7184.66
954.513	7152.79
954.818	7085.9
955.122	7114.38
955.426	7065.79
955.731	7006.13
956.035	6970.42
956.339	6933.59
956.643	6897.21
956.948	6860.6
957.252	6827.15
957.556	6858.11
957.86	6796.87
958.163	6817.43
958.467	6755.51
958.771	6738.34
959.075	6719.58
959.378	6586.71
959.682	6628.06
959.985	6550.55
960.289	6531.34
960.592	6501.51
960.896	6484.79
961.199	6442.08
961.502	6414.51
961.805	6351.68
962.108	6384.68
962.411	6326.37
962.714	6292.02
963.017	6317.79
963.32	6261.06
963.623	6265.58
963.926	6227.39
964.228	6168.64
964.531	6160.73
964.833	6113.5
965.136	6103.33
965.438	6078.24
965.741	6021.75
966.043	6035.76
966.345	5981.3
966.648	5938.36
966.95	5945.82
967.252	5861.98
967.554	5884.35
967.856	5838.25
968.158	5830.57
968.46	5770.46
968.761	5745.37
969.063	5726.84
969.365	5728.2
969.666	5729.1
969.968	5642.1
970.269	5625.83
970.571	5640.52
970.872	5594.19
971.174	5561.87
971.475	5550.57
971.776	5578.82
972.077	5426.06
972.378	5447.98
972.679	5426.96
972.98	5424.25
973.281	5379.96
973.582	5352.16
973.883	5389.67
974.183	5331.15
974.484	5252.73
974.785	5238.04
975.085	5222
975.386	5176.12
975.686	5158.04
975.986	5169.34
976.287	5183.13
976.587	5054.09
976.887	5083.47
977.187	5090.02
977.487	5060.64
977.787	4988.56
978.087	4985.62
978.387	5047.99
978.687	4936.13
978.987	4920.53
979.286	4897.48
979.586	4862.68
979.885	4901.33
980.185	4858.84
980.484	4825.85
980.784	4789.01
981.083	4776.36
981.382	4752.63
981.682	4747.66
981.981	4683.48
982.28	4668.34
982.579	4653.2
982.878	4659.98
983.177	4621.33
983.475	4586.08
983.774	4596.93
984.073	4563.26
984.372	4549.47
984.67	4506.53
984.969	4508.79
985.267	4506.53
985.566	4480.77
985.864	4454.56
986.162	4450.26
986.461	4356.26
986.759	4367.1
987.057	4343.6
987.355	4338.63
987.653	4321.45
987.951	4271.51
988.249	4307.44
988.547	4280.78
988.844	4229.71
989.142	4218.63
989.44	4172.98
989.737	4182.93
990.035	4131.18
990.332	4062.93
990.63	4103.61
990.927	4092.99
991.224	4078.97
991.521	4067.9
991.819	4027
992.116	4005.3
992.413	4004.85
992.71	3972.99
993.006	3944.06
993.303	3947.68
993.6	3923.95
993.897	3909.04
994.193	3885.99
994.49	3874.91
994.787	3825.87
995.083	3830.85
995.379	3787.68
995.676	3779.55
995.972	3754.69
996.268	3724.41
996.565	3741.58
996.861	3714.46
997.157	3667.01
997.453	3627.24
997.749	3604.18
998.044	3613
998.34	3604.86
998.636	3604.41
998.932	3579.33
999.227	3522.83
999.523	3547.69
999.818	3511.08
1000.114	3493
1000.409	3464.08
1000.704	3455.49
1001	3446
1001.295	3346.79
1001.59	3409.16
1001.885	3368.94
1002.18	3360.58
1002.475	3314.47
1002.77	3301.14
1003.065	3291.65
1003.359	3299.79
1003.654	3287.13
1003.949	3243.74
1004.243	3225.66
1004.538	3221.37
1004.832	3175.72
1005.127	3184.76
1005.421	3159
1005.715	3140.47
1006.009	3102.5
1006.304	3109.51
1006.598	3061.15
1006.892	3066.57
1007.186	3019.57
1007.48	3012.79
1007.773	2995.84
1008.067	2973.69
1008.361	2943.86
1008.655	2949.29
1008.948	2934.37
1009.242	2935.95
1009.535	2869.74
1009.829	2841.72
1010.122	2840.14
1010.415	2810.31
1010.708	2818.89
1011.001	2804.21
1011.295	2787.03
1011.588	2753.13
1011.881	2720.37
1012.173	2772.34
1012.466	2740.25
1012.759	2714.26
1013.052	2669.52
1013.344	2660.03
1013.637	2672.91
1013.93	2637.66
1014.222	2620.71
1014.514	2601.73
1014.807	2564.66
1015.099	2573.48
1015.391	2555.4
1015.683	2553.82
1015.976	2510.2
1016.268	2529.64
1016.56	2499.36
1016.851	2457.55
1017.143	2467.94
1017.435	2458.9
1017.727	2399.7
1018.018	2409.64
1018.31	2394.73
1018.602	2364.9
1018.893	2331
1019.185	2345.91
1019.476	2312.92
1019.767	2319.7
1020.058	2298
1020.35	2251
1020.641	2272.92
1020.932	2236.54
1021.223	2250.1
1021.514	2209.87
1021.804	2183.21
1022.095	2173.49
1022.386	2162.19
1022.677	2154.96
1022.967	2142.98
1023.258	2128.07
1023.548	2107.73
1023.839	2084.68
1024.129	2093.49
1024.419	2057.33
1024.709	2014.85
1025	2025.24
1025.29	2027.96
1025.58	1995.41
1025.87	1980.5
1026.16	2011.23
1026.449	1962.42
1026.739	1944.34
1027.029	1931.01
1027.319	1928.52
1027.608	1887.85
1027.898	1879.03
1028.187	1870.67
1028.477	1859.6
1028.766	1835.19
1029.055	1827.96
1029.344	1849.2
1029.634	1787.28
1029.923	1810.79
1030.212	1820.05
1030.501	1783.22
1030.79	1775.08
1031.078	1771.92
1031.367	1763.56
1031.656	1740.96
1031.945	1710.22
1032.233	1690.34
1032.522	1683.56
1032.81	1660.06
1033.099	1650.56
1033.387	1655.31
1033.675	1647.4
1033.963	1618.02
1034.251	1606.72
1034.54	1604.46
1034.828	1581.64
1035.116	1589.1
1035.403	1567.18
1035.691	1531.7
1035.979	1533.05
1036.267	1528.99
1036.554	1533.28
1036.842	1492.38
1037.129	1494.64
1037.417	1510.23
1037.704	1486.27
1037.992	1427.52
1038.279	1461.87
1038.566	1458.93
1038.853	1458.93
1039.14	1458.93
