Data from 13-0850_FLMS001491_010.txt Node
Date: Thu Apr 12 17:08:38 BST 2018
User: hsy
Spectrometer: FLMS00149
Trigger mode: 0
Integration Time (sec): 1.000000E-2
Scans to average: 10
Electric dark correction enabled: true
Nonlinearity correction enabled: false
Boxcar width: 0
XAxis mode: Wavelengths
Number of Pixels in Spectrum: 2048
>>>>>Begin Spectral Data<<<<<
341.393	-15.86
341.776	-15.86
342.16	-15.86
342.543	-53.15
342.927	-54.96
343.31	-67.16
343.693	-70.77
344.077	-55.63
344.46	-62.64
344.843	-60.38
345.226	-46.82
345.61	-34.62
345.993	-16.31
346.376	0.86
346.759	-4.79
347.142	37.7
347.525	46.06
347.908	66.85
348.291	57.36
348.674	91.25
349.057	119.05
349.44	143.68
349.823	138.26
350.206	186.17
350.588	225.49
350.971	250.12
351.354	256.45
351.737	272.72
352.119	300.97
352.502	306.16
352.884	338.03
353.267	308.65
353.65	336.9
354.032	341.19
354.414	345.03
354.797	359.04
355.179	359.72
355.562	374.41
355.944	374.64
356.326	363.11
356.709	386.16
357.091	384.58
357.473	381.19
357.855	378.7
358.238	393.17
358.62	387.52
359.002	399.5
359.384	392.94
359.766	388.42
360.148	387.97
360.53	396.11
360.912	425.71
361.294	387.97
361.676	379.61
362.057	383.22
362.439	373.73
362.821	369.44
363.203	389.55
363.584	382.77
363.966	380.51
364.348	377.12
364.729	371.7
365.111	373.28
365.493	367.41
365.874	380.96
366.256	372.6
366.637	350.68
367.019	355.2
367.4	378.7
367.781	358.59
368.163	391.36
368.544	358.14
368.925	370.12
369.306	384.35
369.688	403.56
370.069	383
370.45	379.61
370.831	379.83
371.212	357.24
371.593	383.68
371.974	372.38
372.355	371.7
372.736	386.16
373.117	395.65
373.498	381.42
373.879	402.43
374.26	360.85
374.641	389.33
375.021	399.5
375.402	385.48
375.783	386.16
376.163	414.18
376.544	388.65
376.925	394.75
377.305	416.9
377.686	392.94
378.066	411.92
378.447	388.87
378.827	407.4
379.208	424.13
379.588	409.44
379.968	400.4
380.349	396.11
380.729	413.51
381.109	409.21
381.489	418.25
381.87	419.61
382.25	403.11
382.63	416.22
383.01	444.01
383.39	426.39
383.77	434.52
384.15	427.52
384.53	428.19
384.91	420.74
385.29	455.09
385.67	436.56
386.049	444.01
386.429	446.95
386.809	466.39
387.189	446.05
387.568	456.44
387.948	453.05
388.328	462.54
388.707	460.06
389.087	478.14
389.466	480.17
389.846	448.31
390.225	483.79
390.605	452.15
390.984	510.45
391.363	488.98
391.743	481.98
392.122	483.79
392.501	499.61
392.881	485.37
393.26	497.35
393.639	482.66
394.018	493.73
394.397	514.52
394.776	506.16
395.155	511.58
395.534	524.92
395.913	522.43
396.292	530.34
396.671	523.11
397.05	528.31
397.429	525.37
397.808	520.17
398.186	542.32
398.565	544.8
398.944	552.26
399.323	537.12
399.701	564.69
400.08	535.99
400.458	576.21
400.837	552.94
401.215	555.2
401.594	569.89
401.972	585.03
402.351	579.6
402.729	581.19
403.107	578.47
403.486	585.93
403.864	581.19
404.242	613.27
404.62	604.01
404.999	581.19
405.377	601.98
405.755	617.34
406.133	638.81
406.511	619.15
406.889	632.71
407.267	649.88
407.645	642.43
408.023	662.54
408.401	673.84
408.779	637.45
409.156	686.95
409.534	660.05
409.912	672.03
410.29	709.54
410.667	692.37
411.045	719.03
411.422	730.11
411.8	723.1
412.178	742.54
412.555	747.96
412.933	752.93
413.31	754.74
413.687	755.64
414.065	759.94
414.442	765.36
414.819	802.65
415.197	812.14
415.574	797
415.951	840.84
416.328	808.98
416.705	797.68
417.082	823.44
417.46	819.82
417.837	839.94
418.214	840.39
418.591	863.66
418.967	847.17
419.344	869.54
419.721	865.7
420.098	875.41
420.475	899.37
420.852	869.77
421.228	902.08
421.605	909.76
421.982	900.72
422.358	942.08
422.735	952.93
423.111	941.4
423.488	946.15
423.864	956.32
424.241	970.55
424.617	981.17
424.994	964.23
425.37	953.38
425.746	986.15
426.123	1000.84
426.499	1008.07
426.875	993.38
427.251	1043.55
427.627	1018.91
428.003	1013.49
428.379	1030.66
428.756	1059.82
429.132	1079.25
429.507	1100.49
429.883	1078.8
430.259	1098.46
430.635	1106.14
431.011	1143.66
431.387	1128.06
431.763	1152.47
432.138	1173.03
432.514	1178.91
432.89	1168.06
433.265	1238.57
433.641	1214.84
434.016	1223.43
434.392	1260.04
434.767	1260.94
435.143	1255.52
435.518	1274.73
435.894	1260.04
436.269	1285.12
436.644	1320.37
437.02	1315.4
437.395	1316.76
437.77	1362.86
438.145	1359.92
438.52	1373.71
438.895	1395.4
439.271	1344.78
439.646	1389.98
440.021	1418
440.395	1437.21
440.77	1390.43
441.145	1409.41
441.52	1441.73
441.895	1432.91
442.27	1459.58
442.645	1455.96
443.019	1419.58
443.394	1465.68
443.769	1474.04
444.143	1489.18
444.518	1506.58
444.892	1490.54
445.267	1517.88
445.641	1538.45
446.016	1531.67
446.39	1567.15
446.764	1552.91
447.139	1530.76
447.513	1565.79
447.887	1606.7
448.262	1547.04
448.636	1569.86
449.01	1641.5
449.384	1622.51
449.758	1653.25
450.132	1630.65
450.506	1661.38
450.88	1668.39
451.254	1666.58
451.628	1686.47
452.002	1710.65
452.376	1724.21
452.75	1735.28
453.123	1733.92
453.497	1796.29
453.871	1810.31
454.244	1813.7
454.618	1862.06
454.992	1854.37
455.365	1866.58
455.739	1917.2
456.112	1941.15
456.486	1965.56
456.859	1997.19
457.232	2031.54
457.606	2008.49
457.979	2030.86
458.352	2088.94
458.725	2094.37
459.099	2113.57
459.472	2138.88
459.845	2184.53
460.218	2231.99
460.591	2231.54
460.964	2196.06
461.337	2291.65
461.71	2303.85
462.083	2369.61
462.456	2344.08
462.829	2354.47
463.201	2396.96
463.574	2423.4
463.947	2432.44
464.32	2450.51
464.692	2495.26
465.065	2510.63
465.438	2571.64
465.81	2563.05
466.183	2613
466.555	2616.39
466.928	2681.47
467.3	2676.95
467.672	2716.5
468.045	2738.19
468.417	2758.76
468.789	2804.4
469.161	2816.83
469.534	2837.85
469.906	2946.32
470.278	2897.06
470.65	2976.6
471.022	3045.75
471.394	3083.94
471.766	3072.65
472.138	3137.28
472.51	3195.13
472.882	3219.31
473.253	3239.19
473.625	3321.9
473.997	3399.19
474.369	3425.63
474.74	3459.3
475.112	3568.23
475.484	3586.08
475.855	3668.79
476.227	3691.84
476.598	3796.47
476.97	3792.17
477.341	3892.74
477.713	3953.3
478.084	4004.37
478.455	4108.1
478.827	4177.02
479.198	4297.7
479.569	4321.43
479.94	4416.34
480.311	4459.28
480.682	4598.71
481.053	4683.9
481.424	4748.99
481.795	4807.29
482.166	4882.99
482.537	4959.6
482.908	5112.14
483.279	5196.66
483.65	5320.95
484.021	5414.73
484.391	5523.65
484.762	5532.69
485.133	5686.59
485.503	5830.99
485.874	5963.19
486.244	6018.56
486.615	6175.84
486.985	6276.85
487.356	6449.05
487.726	6508.71
488.097	6712.32
488.467	6853.79
488.837	6953.22
489.207	7080.9
489.578	7280.22
489.948	7415.58
490.318	7519.53
490.688	7608.35
491.058	7864.38
491.428	8079.75
491.798	8179.4
492.168	8395.9
492.538	8597.92
492.908	8716.34
493.278	8953.62
493.648	9026.61
494.017	9211.69
494.387	9429.09
494.757	9512.93
495.126	9691.91
495.496	9857.1
495.866	10093.48
496.235	10265.22
496.605	10466.35
496.974	10555.84
497.344	10790.41
497.713	11017.3
498.082	11211.87
498.452	11440.79
498.821	11642.59
499.19	11792.64
499.559	12101.11
499.928	12237.15
500.298	12440.76
500.667	12780.41
501.036	12896.79
501.405	13063.12
501.774	13277.57
502.143	13550.79
502.512	13807.96
502.88	14089.53
503.249	14131.79
503.618	14467.83
503.987	14606.81
504.356	14902.84
504.724	15060.35
505.093	15290.4
505.462	15524.97
505.83	15600.9
506.199	16055.81
506.567	16338.51
506.936	16480.65
507.304	16786.86
507.672	16915.22
508.041	17158.15
508.409	17459.84
508.777	17686.27
509.145	17922.42
509.514	18095.75
509.882	18365.12
510.25	18515.63
510.618	18779.12
510.986	18860.25
511.354	19201.94
511.722	19544.75
512.09	19759.66
512.458	19689.84
512.826	20140.45
513.193	20222.02
513.561	20466.99
513.929	20732.52
514.297	20931.16
514.664	21149.23
515.032	21327.98
515.4	21674.19
515.767	21849.33
516.135	21858.82
516.502	22006.16
516.869	22529.99
517.237	22610.89
517.604	22653.83
517.972	22997.32
518.339	23253.36
518.706	23378.33
519.073	23533.58
519.44	23788.94
519.808	24129.04
520.175	24170.17
520.542	24564.51
520.909	24720.66
521.276	24855.8
521.643	25289.91
522.009	25391.83
522.376	25596.12
522.743	25775.78
523.11	26126.05
523.477	26413.73
523.843	26534.85
524.21	26999.25
524.577	27231.56
524.943	27420.25
525.31	27524.21
525.676	27921.48
526.043	28178.2
526.409	28236.28
526.776	28744.51
527.142	28822.48
527.508	29046.88
527.874	29367.32
528.241	29407.77
528.607	29579.29
528.973	30010.47
529.339	30045.27
529.705	30469.21
530.071	30675.76
530.437	31026.49
530.803	31166.6
531.169	31249.98
531.535	31525
531.901	31657.2
532.267	31779.01
532.632	32005.67
532.998	32154.59
533.364	32337.86
533.73	32492.44
534.095	32728.14
534.461	32866.21
534.826	33025.53
535.192	33080.9
535.557	33448.8
535.923	33566.53
536.288	33720.2
536.653	33904.6
537.019	33946.18
537.384	34008.33
537.749	34265.27
538.114	34305.04
538.479	34339.39
538.845	34578.03
539.21	34532.16
539.575	34819.83
539.94	34881.07
540.305	35046.95
540.67	35176.21
541.034	35325.81
541.399	35338.92
541.764	35639.7
542.129	35652.35
542.494	35681.28
542.858	35946.36
543.223	35877.66
543.587	36163.53
543.952	36031.1
544.316	36307.93
544.681	36245.56
545.045	36681.93
545.41	36722.38
545.774	36613.68
546.138	36767.35
546.503	36934.35
546.867	37085.54
547.231	37301.8
547.595	37322.82
547.959	37446.43
548.324	37443.94
548.688	37587.9
549.052	37855.23
549.416	37908.11
549.779	37892.52
550.143	37993.76
550.507	38153.76
550.871	38366.63
551.235	38422.68
551.599	38666.96
551.962	38870.57
552.326	38991.93
552.689	39009.33
553.053	38779.95
553.417	39147.4
553.78	39570.22
554.143	39560.05
554.507	39583.55
554.87	39649.54
555.234	39995.52
555.597	39872.13
555.96	40150.99
556.323	40341.27
556.686	40506.24
557.05	40716.85
557.413	40803.4
557.776	40730.64
558.139	41243.84
558.502	41189.61
558.865	41390.51
559.228	41791.85
559.59	41857.16
559.953	42022.81
560.316	42381.44
560.679	42237.27
561.041	42628.22
561.404	42884.71
561.767	43050.58
562.129	43021.2
562.492	43382.32
562.854	43269.55
563.217	43588.19
563.579	43604.91
563.941	43797.45
564.304	44040.38
564.666	44349.07
565.028	44368.51
565.39	44638.56
565.753	44875.84
566.115	44960.13
566.477	45125.32
566.839	45228.6
567.201	45706.1
567.563	45553.56
567.925	45855.48
568.287	45977.28
568.648	46253.2
569.01	46305.41
569.372	46791.27
569.734	46664.72
570.095	46941.77
570.457	47238.49
570.819	47237.81
571.18	47259.51
571.542	47592.15
571.903	47601.87
572.265	47828.08
572.626	47917.12
572.987	48146.71
573.349	48187.84
573.71	48420.15
574.071	48701.5
574.432	48819.92
574.794	48990.99
575.155	49042.06
575.516	49112.56
575.877	49121.83
576.238	49274.59
576.599	49485.21
576.96	49509.84
577.32	49637.97
577.681	49852.88
578.042	49980.56
578.403	50049.49
578.763	50083.16
579.124	50216.04
579.485	50531.28
579.845	50565.63
580.206	50606.99
580.566	50585.29
580.927	50663.71
581.287	50892.63
581.648	50895.79
582.008	51126.07
582.368	51084.04
582.728	51166.97
583.089	51284.26
583.449	51435.67
583.809	51442.45
584.169	51583.01
584.529	51473.18
584.889	51867.75
585.249	51787.52
585.609	51674.76
585.969	51965.37
586.329	51973.05
586.688	52058.93
587.048	52171.24
587.408	52223.67
587.768	52244.23
588.127	52397.22
588.487	52403.78
588.846	52601.06
589.206	52443.32
589.565	52549.08
589.925	52841.96
590.284	52769.42
590.643	52878.12
591.003	53006.02
591.362	53125.79
591.721	53231.33
592.08	53255.05
592.44	53410.53
592.799	53341.38
593.158	53381.83
593.517	53457.08
593.876	53713.8
594.235	53678.77
594.593	53730.97
594.952	53825.66
595.311	53864.08
595.67	53946.11
596.029	54186.56
596.387	54290.73
596.746	54321.92
597.104	54217.74
597.463	54274.01
597.822	54399.88
598.18	54485.53
598.538	54508.35
598.897	54713.1
599.255	54595.36
599.613	55005.29
599.972	54858.63
600.33	55005.07
600.688	54946.08
601.046	55096.59
601.404	55288
601.762	55243.25
602.12	55406.86
602.478	55468.78
602.836	55519.63
603.194	55378.84
603.552	55573.19
603.91	55568.44
604.268	55720.53
604.625	55701.32
604.983	55930.69
605.341	55731.83
605.698	55989.22
606.056	56138.82
606.413	56096.79
606.771	56289.1
607.128	56301.3
607.485	56225.15
607.843	56340.62
608.2	56506.72
608.557	56585.59
608.914	56533.84
609.272	56660.61
609.629	56809.09
609.986	56870.55
610.343	56808.41
610.7	57078
611.057	57045.69
611.414	56972.02
611.771	57221.5
612.127	57273.93
612.484	57285.01
612.841	57401.61
613.198	57349.86
613.554	57304.67
613.911	57484.32
614.267	57553.02
614.624	57515.96
614.98	57645.22
615.337	57854.26
615.693	57776.07
616.05	57817.87
616.406	57982.84
616.762	58013.57
617.118	57951.65
617.475	57996.4
617.831	58162.04
618.187	58154.36
618.543	58205.88
618.899	58274.81
619.255	58347.8
619.611	58248.14
619.967	58467.57
620.323	58411.3
620.678	58368.37
621.034	58425.99
621.39	58449.27
621.746	58432.32
622.101	58707.34
622.457	58465.09
622.812	58722.48
623.168	58804.06
623.523	58725.87
623.879	58793.44
624.234	58693.78
624.589	58837.96
624.945	58809.71
625.3	58838.18
625.655	58842.48
626.01	58828.92
626.365	58894.91
626.72	58851.97
627.075	58750.05
627.43	58917.5
627.785	58950.05
628.14	58856.94
628.495	58851.29
628.85	58903.27
629.205	58841.35
629.559	58939.2
629.914	58868.24
630.269	58877.96
630.623	58765.42
630.978	58734.68
631.332	58952.08
631.687	58893.78
632.041	58882.03
632.396	58819.2
632.75	58755.47
633.104	58784.17
633.459	58718.87
633.813	58710.96
634.167	58668.92
634.521	58727.9
634.875	58701.01
635.229	58651.52
635.583	58515.93
635.937	58560.45
636.291	58468.7
636.645	58569.94
636.999	58433.45
637.352	58467.35
637.706	58334.47
638.06	58489.27
638.413	58446.1
638.767	58310.06
639.121	58417.4
639.474	58237.52
639.828	58280.91
640.181	58279.1
640.534	58242.49
640.888	58201.59
641.241	58074.36
641.594	58145.1
641.947	58178.77
642.301	58110.52
642.654	58151.2
643.007	57946.68
643.36	58140.35
643.713	58098.32
644.066	58134.7
644.419	57977.42
644.771	57662.62
645.124	57465.57
645.477	57393.25
645.83	57336.98
646.182	57330.88
646.535	57206.14
646.888	57275.29
647.24	57198.23
647.593	57327.94
647.945	57213.82
648.298	57148.29
648.65	56979.02
649.002	56925.47
649.355	56862.87
649.707	56806.37
650.059	56924.56
650.411	57221.28
650.763	57268.73
651.115	57640.02
651.467	57556.41
651.819	57522.96
652.171	57468.96
652.523	57407.26
652.875	57487.94
653.227	57318.45
653.578	57558.9
653.93	57464.66
654.282	57249.53
654.633	57267.38
654.985	57356.42
655.337	57361.39
655.688	57308.28
656.039	57355.51
656.391	57088.63
656.742	57179.47
657.094	57202.3
657.445	57205.23
657.796	57193.48
658.147	57136.53
658.498	57162.75
658.849	57183.99
659.2	57151.22
659.551	56990.32
659.902	57215.4
660.253	57039.36
660.604	57097.44
660.955	56936.31
661.306	57131.34
661.656	57013.37
662.007	57065.35
662.358	56920.95
662.708	56958.23
663.059	56949.65
663.409	56838.01
663.76	56920.49
664.11	56998.01
664.461	56956.65
664.811	56920.04
665.161	56911.91
665.511	56892.92
665.862	56862.87
666.212	56926.37
666.562	56952.58
666.912	56928.86
667.262	56707.39
667.612	56874.17
667.962	56808.63
668.312	56769.54
668.662	56953.26
669.011	56847.95
669.361	56768.63
669.711	56784.23
670.06	56773.38
670.41	56713.04
670.76	56709.88
671.109	56816.77
671.459	56734.06
671.808	56635.76
672.157	56695.64
672.507	56605.02
672.856	56604.8
673.205	56630.78
673.554	56749.43
673.904	56628.98
674.253	56856.77
674.602	56624.01
674.951	56351.7
675.3	56152.83
675.649	56658.81
675.998	56594.4
676.346	56636.21
676.695	56569.77
677.044	56523.67
677.393	56567.51
677.741	56572.03
678.09	56540.39
678.438	56448.87
678.787	56544.91
679.135	56535.19
679.484	56356.44
679.832	56461.75
680.181	56428.53
680.529	56372.94
680.877	56257.69
681.225	56267.63
681.573	56480.51
681.922	56274.18
682.27	56228.31
682.618	56282.09
682.966	56258.14
683.314	56146.73
683.661	56184.24
684.009	56084.58
684.357	55923.91
684.705	55911.48
685.053	56038.71
685.4	55892.73
685.748	55880.07
686.095	55904.7
686.443	55760.75
686.79	55744.71
687.138	55882.56
687.485	55806.85
687.832	55780.19
688.18	55746.97
688.527	55616.35
688.874	55595.78
689.221	55622.9
689.568	55388.56
689.915	55468.33
690.262	55435.79
690.609	55349.24
690.956	55314.89
691.303	55237.6
691.65	55153.76
691.997	55162.8
692.344	54949.25
692.69	54945.18
693.037	55039.87
693.383	54799.65
693.73	54871.51
694.077	54789.93
694.423	54780.21
694.769	54634.91
695.116	54615.47
695.462	54575.47
695.808	54546.77
696.155	54523.95
696.501	54262.94
696.847	54368.92
697.193	54128.7
697.539	54197.4
697.885	54000.35
698.231	53948.82
698.577	53946.79
698.923	53957.18
699.269	53747.02
699.614	53635.38
699.96	53608.49
700.306	53644.42
700.651	53466.12
700.997	53307.93
701.342	53348.16
701.688	53324.66
702.033	53213.93
702.379	53145.9
702.724	53003.76
703.069	53048.05
703.415	52840.15
703.76	52800.15
704.105	52752.24
704.45	52566.49
704.795	52504.11
705.14	52429.31
705.485	52449.43
705.83	52229.54
706.175	52375.3
706.52	52182.77
706.865	52143.45
707.209	52032.94
707.554	51987.97
707.899	51973.28
708.243	51795.43
708.588	51810.57
708.932	51651.71
709.277	51623.91
709.621	51472.05
709.966	51351.15
710.31	51480.19
710.654	51164.26
710.998	51224.15
711.342	51278.38
711.687	51186.18
712.031	50957.04
712.375	50837.94
712.719	50818.28
713.063	50880.88
713.407	50965.17
713.75	50707.55
714.094	50730.38
714.438	50557.5
714.782	50500.1
715.125	50387.79
715.469	50557.95
715.812	50193.67
716.156	50039.09
716.499	50019.66
716.843	50129.49
717.186	49912.32
717.53	50095.82
717.873	50118.87
718.216	49974.69
718.559	49856.27
718.902	49615.6
719.246	49695.15
719.589	49546.23
719.932	49375.16
720.275	49481.59
720.617	49503.51
720.96	49281.6
721.303	49342.39
721.646	49251.09
721.989	49041.38
722.331	49181.49
722.674	49087.03
723.016	49043.64
723.359	48891.33
723.701	48945.34
724.044	48975.39
724.386	48551
724.729	48807.49
725.071	48777.21
725.413	48635.74
725.755	48676.19
726.097	48583.54
726.439	48380.83
726.782	48330.66
727.124	48585.35
727.465	48338.57
727.807	48134.96
728.149	48335.64
728.491	48035.76
728.833	48206.6
729.175	48014.29
729.516	47913.95
729.858	47983.78
730.199	47922.31
730.541	48050.67
730.882	47776.78
731.224	47913.5
731.565	47782.2
731.906	47714.86
732.248	47720.74
732.589	47491.82
732.93	47468.77
733.271	47437.58
733.612	47424.93
733.953	47577.46
734.294	47474.64
734.635	47261.99
734.976	47419.95
735.317	47207.76
735.658	47234.65
735.999	47059.06
736.339	47067.87
736.68	47207.76
737.021	47076.91
737.361	46840.76
737.702	47106.74
738.042	46984.71
738.383	46978.16
738.723	47102.22
739.063	46817.26
739.404	46989
739.744	46746.98
740.084	46734.32
740.424	46617.71
740.764	46569.81
741.104	46827.2
741.444	46600.54
741.784	46381.56
742.124	46506.53
742.464	46446.87
742.804	46405.74
743.143	46303.6
743.483	46426.99
743.823	46163.94
744.162	46202.36
744.502	46272.41
744.841	46145.86
745.181	46257.5
745.52	46063.83
745.86	46102.25
746.199	45913.78
746.538	45991.29
746.877	46121.23
747.216	46081.01
747.556	45871.07
747.895	45970.95
748.234	45804.85
748.573	45636.05
748.911	45639.44
749.25	45718.3
749.589	45470.63
749.928	45697.74
750.267	45690.73
750.605	45488.48
750.944	45460.01
751.283	45304.98
751.621	45428.82
751.96	45109.28
752.298	45254.36
752.636	45244.87
752.975	44997.87
753.313	44930.98
753.651	45130.75
753.989	44829.29
754.327	44808.72
754.666	44570.54
755.004	44762.17
755.342	44545.45
755.679	44600.37
756.017	44313.82
756.355	44433.37
756.693	44244.9
757.031	44523.98
757.368	44036.77
757.706	44085.13
758.044	44051
758.381	43909.31
758.719	43776.21
759.056	43873.15
759.394	43613.27
759.731	43558.13
760.068	43395.88
760.405	43388.42
760.743	43302.1
761.08	43231.59
761.417	42994.99
761.754	42956.79
762.091	42921.09
762.428	42728.1
762.765	42508.44
763.102	42646.52
763.438	42494.21
763.775	42253.76
764.112	42238.17
764.449	42276.36
764.785	42167.21
765.122	41875.69
765.458	41759.09
765.795	41632.76
766.131	41763.61
766.467	41489.26
766.804	41258.99
767.14	40994.36
767.476	40897.87
767.812	40973.57
768.148	40999.78
768.485	40701.03
768.821	40405
769.157	40364.55
769.492	40327.48
769.828	40114.38
770.164	39967.72
770.5	39916.42
770.836	39832.81
771.171	39692.25
771.507	39529.99
771.842	39318.25
772.178	39380.39
772.513	39025.82
772.849	39027.86
773.184	38898.6
773.519	38759.62
773.855	38517.81
774.19	38413.86
774.525	38292.28
774.86	38290.7
775.195	38130.71
775.53	37945.17
775.865	37761.9
776.2	37674
776.535	37325.3
776.87	37322.59
777.205	37007.8
777.539	37025.88
777.874	37089.38
778.209	36731.2
778.543	36864.75
778.878	36465.89
779.212	36498.66
779.547	36105.22
779.881	36254.15
780.215	35908.84
780.55	35987.26
780.884	35871.1
781.218	35595.18
781.552	35497.1
781.886	35440.83
782.22	35200.61
782.554	35077.23
782.888	34809.44
783.222	34818.03
783.556	34491.03
783.889	34443.12
784.223	34194.76
784.557	34286.51
784.89	34307.53
785.224	33978.73
785.557	33854.43
785.891	33765.17
786.224	33725.4
786.558	33690.15
786.891	33393.66
787.224	33312.3
787.557	33200.89
787.891	33104.62
788.224	33010.84
788.557	32901.24
788.89	32896.95
789.223	32707.8
789.556	32585.32
789.888	32400.46
790.221	32306
790.554	32196.85
790.887	32240.01
791.219	32062.62
791.552	31843.19
791.884	31640.93
792.217	31609.52
792.549	31457.66
792.882	31286.37
793.214	31252.02
793.546	31269.42
793.879	31052.47
794.211	30861.97
794.543	31006.6
794.875	30886.6
795.207	30807.06
795.539	30676.21
795.871	30635.99
796.203	30518.7
796.535	30348.31
796.867	30350.8
797.198	30092.5
797.53	30083.69
797.862	29799.17
798.193	29901.09
798.525	29726.41
798.856	29867.87
799.188	29430.82
799.519	29320.54
799.85	29239.41
800.182	29313.31
800.513	29382.24
800.844	28924.17
801.175	29108.57
801.506	29014.79
801.837	28801.23
802.168	28876.49
802.499	28773.21
802.83	28559.66
803.161	28450.51
803.491	28513.56
803.822	28548.59
804.153	28209.39
804.483	28169.16
804.814	27989.96
805.145	28002.61
805.475	28038.77
805.805	27943.4
806.136	27889.85
806.466	27786.57
806.796	27565.79
807.126	27496.41
807.457	27438.78
807.787	27517.2
808.117	27429.52
808.447	27223.2
808.777	27292.35
809.107	26995.86
809.436	26883.09
809.766	27018.23
810.096	27074.27
810.426	26796.77
810.755	26727.16
811.085	26801.29
811.414	26760.16
811.744	26485.59
812.073	26529.43
812.403	26369.21
812.732	26191.13
813.061	26366.27
813.39	26102.55
813.719	26225.71
814.049	26283.79
814.378	26162.66
814.707	25866.62
815.036	25904.59
815.365	25724.93
815.693	25595.67
816.022	25651.03
816.351	25621.66
816.68	25536.69
817.008	25521.32
817.337	25408.33
817.665	25304.6
817.994	25251.27
818.322	25350.25
818.651	25148.67
818.979	25118.17
819.307	25260.54
819.636	24974.22
819.964	24973.54
820.292	25032.97
820.62	24993.65
820.948	25040.88
821.276	25118.17
821.604	24947.55
821.932	25039.07
822.259	24965.18
822.587	24872.3
822.915	24815.8
823.243	24976.02
823.57	24748.01
823.898	24930.6
824.225	24888.79
824.553	24890.6
824.88	24908.91
825.207	24975.35
825.535	24946.42
825.862	24896.48
826.189	24910.26
826.516	25094.21
826.843	25029.81
827.17	24951.17
827.497	24974.44
827.824	25045.17
828.151	25071.84
828.478	24938.28
828.805	25069.13
829.131	24921.34
829.458	25018.73
829.785	24816.71
830.111	24925.86
830.438	24964.72
830.764	24890.6
831.09	24869.36
831.417	24772.19
831.743	25076.59
832.069	24820.1
832.395	24846.54
832.722	24866.42
833.048	24830.72
833.374	24974.22
833.7	24794.33
834.026	24828.23
834.351	24812.19
834.677	24808.34
835.003	24779.42
835.329	24786.65
835.654	24878.85
835.98	24620.78
836.306	24804.28
836.631	24547.11
836.956	24779.19
837.282	24604.06
837.607	24500.78
837.932	24572.19
838.258	24526.32
838.583	24545.3
838.908	24326.32
839.233	24400.22
839.558	24309.6
839.883	24363.16
840.208	24187.57
840.533	24197.97
840.858	24234.12
841.182	24124.3
841.507	24083.62
841.832	24146.22
842.156	23917.52
842.481	23962.94
842.805	23894.92
843.13	23797.3
843.454	23793.23
843.778	23723.63
844.103	23606.34
844.427	23635.04
844.751	23718.88
845.075	23691.99
845.399	23450.19
845.723	23464.43
846.047	23405.9
846.371	23302.4
846.695	23233.92
847.019	23085.68
847.343	23084.77
847.666	22887.94
847.99	22847.04
848.313	22697.21
848.637	22732.92
848.96	22525.69
849.284	22527.5
849.607	22349.65
849.931	22290.44
850.254	22253.84
850.577	22083.22
850.9	21966.39
851.223	21853.62
851.546	21861.08
851.869	21672.38
852.192	21798.03
852.515	21501.77
852.838	21442.11
853.161	21532.05
853.483	21292.05
853.806	21242.79
854.129	21304.48
854.451	21090.7
854.774	20923.93
855.096	20996.92
855.419	20916.7
855.741	20879.41
856.063	20750.15
856.385	20798.73
856.708	20639.41
857.03	20621.56
857.352	20523.03
857.674	20511.73
857.996	20346.09
858.318	20330.5
858.64	20368.46
858.961	20131.18
859.283	20133.21
859.605	20091.18
859.926	20173.66
860.248	20054.8
860.57	19940.68
860.891	19875.59
861.212	19770.51
861.534	19784.07
861.855	19779.55
862.176	19754.24
862.498	19696.16
862.819	19619.1
863.14	19544.75
863.461	19636.96
863.782	19469.73
864.103	19583.4
864.424	19510.41
864.745	19487.58
865.065	19377.75
865.386	19289.85
865.707	19337.3
866.027	19300.47
866.348	19298.66
866.668	19214.59
866.989	19239.23
867.309	19148.61
867.63	19124.88
867.95	19173.46
868.27	18917.88
868.59	19076.74
868.91	18993.13
869.23	18988.38
869.55	18797.43
869.87	18985.22
870.19	18782.97
870.51	18860.48
870.83	18839.91
871.15	18683.08
871.469	18746.13
871.789	18761.27
872.109	18732.57
872.428	18685.57
872.748	18689.86
873.067	18703.19
873.386	18678.56
873.706	18516.76
874.025	18452.58
874.344	18363.77
874.663	18452.58
874.982	18398.34
875.301	18364.9
875.62	18236.99
875.939	18217.33
876.258	18295.07
876.577	18152.7
876.896	18177.33
877.214	18199.48
877.533	18121.74
877.852	18114.51
878.17	18092.59
878.489	18165.36
878.807	18134.17
879.125	17991.12
879.444	18008.52
879.762	17937.11
880.08	17944.34
880.398	17771.47
880.716	17889.2
881.034	17760.62
881.352	17830.68
881.67	17745.48
881.988	17740.06
882.306	17658.02
882.624	17711.58
882.941	17519.72
883.259	17522.89
883.577	17541.87
883.894	17440.63
884.212	17393.62
884.529	17197.02
884.846	17270.46
885.164	17234.98
885.481	17295.55
885.798	17257.13
886.115	17137.81
886.432	17213.52
886.75	17077.47
887.067	17128.77
887.383	17033.41
887.7	17022.33
888.017	16838.61
888.334	17016.01
888.651	16850.59
888.967	16773.08
889.284	16684.26
889.6	16635.9
889.917	16527.21
890.233	16575.34
890.55	16493.76
890.866	16482.24
891.182	16489.92
891.498	16434.78
891.815	16258.29
892.131	16236.37
892.447	16358.4
892.763	16193.2
893.079	16127.9
893.395	16127.22
893.71	16135.35
894.026	16082.25
894.342	16100.55
894.657	15996.37
894.973	15860.33
895.289	15854.68
895.604	15900.1
895.92	15805.64
896.235	15686.78
896.55	15691.75
896.865	15595.03
897.181	15585.99
897.496	15572.66
897.811	15446.11
898.126	15396.16
898.441	15395.49
898.756	15268.03
899.071	15196.85
899.386	15286.79
899.7	15077.53
900.015	14996.63
900.33	14947.14
900.644	14998.89
900.959	15004.76
901.273	14901.26
901.588	14827.36
901.902	14677.99
902.216	14661.27
902.531	14677.09
902.845	14560.03
903.159	14552.12
903.473	14459.69
903.787	14479.58
904.101	14397.32
904.415	14362.29
904.729	14274.16
905.042	14243.2
905.356	14225.57
905.67	14149.64
905.984	14143.77
906.297	14101.51
906.611	13913.04
906.924	13972.47
907.237	13867.39
907.551	13882.53
907.864	13774.06
908.177	13731.8
908.491	13739.03
908.804	13600.05
909.117	13617.68
909.43	13491.35
909.743	13464.46
910.056	13441.64
910.368	13356.44
910.681	13299.04
910.994	13184.02
911.307	13137.01
911.619	13023.57
911.932	13115.54
912.244	12983.35
912.557	12996
912.869	12810.02
913.181	12888.88
913.494	12805.27
913.806	12771.15
914.118	12717.82
914.43	12640.76
914.742	12561.44
915.054	12553.3
915.366	12417.03
915.678	12415.9
915.99	12391.27
916.302	12324.61
916.613	12217.94
916.925	12249.35
917.236	12158.96
917.548	12103.59
917.859	12089.58
918.171	12024.73
918.482	11942.47
918.794	11929.81
919.105	11877.16
919.416	11779.99
919.727	11860.89
920.038	11713.1
920.349	11667.9
920.66	11582.93
920.971	11539.32
921.282	11575.7
921.593	11515.59
921.903	11360.56
922.214	11313.56
922.525	11244.41
922.835	11246.89
923.146	11191.75
923.456	11125.09
923.767	11101.59
924.077	11071.08
924.387	11095.26
924.697	11066.11
925.008	10926.22
925.318	10878.54
925.628	10899.33
925.938	10830.18
926.248	10689.17
926.558	10618.21
926.867	10670.86
927.177	10538.44
927.487	10514.94
927.796	10464.99
928.106	10392.45
928.416	10436.75
928.725	10385
929.034	10288.05
929.344	10319.69
929.653	10249.86
929.962	10179.35
930.271	10117.21
930.581	10132.35
930.89	10020.49
931.199	10029.98
931.508	9966.48
931.817	9952.01
932.125	9954.72
932.434	9816.2
932.743	9767.61
933.051	9748.4
933.36	9753.83
933.669	9642.87
933.977	9582.76
934.286	9559.25
934.594	9500.05
934.902	9441.97
935.21	9426.6
935.519	9394.06
935.827	9408.98
936.135	9269.32
936.443	9264.35
936.751	9191.35
937.059	9212.37
937.367	9076.33
937.674	9125.37
937.982	9047.86
938.29	9077.69
938.597	9006.05
938.905	8918.37
939.213	8874.98
939.52	8832.27
939.827	8867.75
940.135	8846.73
940.442	8816
940.749	8751.59
941.056	8754.3
941.363	8566.51
941.67	8632.27
941.977	8601.09
942.284	8517.47
942.591	8552.05
942.898	8489.68
943.205	8426.85
943.511	8414.43
943.818	8356.8
944.125	8359.96
944.431	8281.32
944.738	8264.15
945.044	8180.08
945.35	8176.92
945.657	8105.28
945.963	8194.32
946.269	8062.8
946.575	8032.29
946.881	7998.17
947.187	7940.99
947.493	7937.38
947.799	7849.92
948.105	7857.38
948.41	7745.29
948.716	7765.63
949.022	7784.39
949.327	7686.76
949.633	7625.29
949.938	7610.83
950.244	7595.46
950.549	7495.81
950.854	7531.96
951.16	7489.25
951.465	7446.54
951.77	7423.04
952.075	7419.42
952.38	7326.54
952.685	7327.45
952.99	7299.88
953.294	7265.08
953.599	7226.43
953.904	7195.47
954.209	7155.48
954.513	7192.54
954.818	7141.46
955.122	7070.96
955.426	7070.28
955.731	7005.65
956.035	6996.16
956.339	6983.95
956.643	6911.87
956.948	6866.67
957.252	6886.78
957.556	6859.21
957.86	6809.27
958.163	6789.38
958.467	6788.93
958.771	6737.63
959.075	6672.55
959.378	6649.05
959.682	6614.25
959.985	6612.21
960.289	6531.99
960.592	6587.36
960.896	6509.84
961.199	6470.75
961.502	6456.06
961.805	6422.84
962.108	6324.09
962.411	6372.45
962.714	6307.36
963.017	6360.92
963.32	6288.38
963.623	6267.14
963.926	6234.37
964.228	6197.99
964.531	6167.93
964.833	6142.39
965.136	6090.87
965.438	6028.05
965.741	6044.77
966.043	6069.63
966.345	5987.14
966.648	5953.93
966.95	5961.83
967.252	5930.88
967.554	5862.63
967.856	5874.38
968.158	5841.84
968.46	5853.14
968.761	5765
969.063	5723.65
969.365	5744.21
969.666	5717.55
969.968	5653.59
970.269	5716.42
970.571	5640.49
970.872	5613.82
971.174	5596.87
971.475	5575.18
971.776	5527.5
972.077	5518.68
972.378	5480.49
972.679	5468.29
972.98	5444.56
973.281	5395.07
973.582	5395.75
973.883	5367.27
974.183	5339.48
974.484	5316.2
974.785	5284.79
975.085	5243.21
975.386	5290.67
975.686	5202.31
975.986	5207.05
976.287	5177.22
976.587	5141.97
976.887	5092.03
977.187	5120.5
977.487	5072.37
977.787	5029.66
978.087	4960.51
978.387	5060.16
978.687	5001.86
978.987	4996.66
979.286	4981.07
979.586	4949.88
979.885	4883.9
980.185	4878.7
980.484	4821.98
980.784	4848.19
981.083	4818.81
981.382	4785.14
981.682	4723
981.981	4704.24
982.28	4727.29
982.579	4718.48
982.878	4708.53
983.177	4627.41
983.475	4676.67
983.774	4606.16
984.073	4605.49
984.372	4572.04
984.67	4512.38
984.969	4565.26
985.267	4474.64
985.566	4478.03
985.864	4420.18
986.162	4453.17
986.461	4395.1
986.759	4386.51
987.057	4346.51
987.355	4346.51
987.653	4342.22
987.951	4314.65
988.249	4243.01
988.547	4261.77
988.844	4251.15
989.142	4229
989.44	4199.85
989.737	4212.28
990.035	4204.82
990.332	4103.13
990.63	4088.66
990.927	4124.37
991.224	4080.08
991.521	4061.32
991.819	4065.61
992.116	3984.49
992.413	3986.29
992.71	3956.24
993.006	3977.93
993.303	3945.84
993.6	3915.79
993.897	3929.12
994.193	3877.82
994.49	3900.19
994.787	3819.07
995.083	3826.75
995.379	3820.2
995.676	3758.5
995.972	3810.03
996.268	3776.13
996.565	3674.66
996.861	3726.87
997.157	3741.55
997.453	3668.56
997.749	3641.44
998.044	3657.49
998.34	3624.72
998.636	3588.79
998.932	3594.89
999.227	3569.58
999.523	3579.3
999.818	3534.1
1000.114	3515.12
1000.409	3481
1000.704	3470.37
1001	3436.48
1001.295	3440.55
1001.59	3411.85
1001.885	3417.72
1002.18	3373.88
1002.475	3324.16
1002.77	3315.35
1003.065	3291.4
1003.359	3285.75
1003.654	3323.94
1003.949	3256.6
1004.243	3239.65
1004.538	3200.78
1004.832	3217.95
1005.127	3201.46
1005.421	3130.04
1005.715	3152.87
1006.009	3131.63
1006.304	3109.71
1006.598	3110.61
1006.892	3076.26
1007.186	3027.67
1007.48	3043.04
1007.773	3021.12
1008.067	3009.37
1008.361	2975.02
1008.655	2950.16
1008.948	2939.54
1009.242	2935.25
1009.535	2866.1
1009.829	2911.07
1010.122	2901.58
1010.415	2850.05
1010.708	2850.96
1011.001	2818.19
1011.295	2810.05
1011.588	2795.14
1011.881	2774.8
1012.173	2751.98
1012.466	2730.51
1012.759	2714.46
1013.052	2690.28
1013.344	2682.15
1013.637	2678.98
1013.93	2650.51
1014.222	2638.53
1014.514	2632.43
1014.807	2582.26
1015.099	2568.48
1015.391	2565.09
1015.683	2536.84
1015.976	2505.65
1016.268	2487.12
1016.56	2464.3
1016.851	2479.67
1017.143	2457.29
1017.435	2467.92
1017.727	2455.71
1018.018	2423.17
1018.31	2416.62
1018.602	2363.06
1018.893	2349.27
1019.185	2368.03
1019.476	2344.98
1019.767	2320.35
1020.058	2300.69
1020.35	2307.69
1020.641	2243.74
1020.932	2234.48
1021.223	2224.98
1021.514	2231.76
1021.804	2193.35
1022.095	2189.05
1022.386	2178.88
1022.677	2133.46
1022.967	2152.9
1023.258	2128.04
1023.548	2144.99
1023.839	2093.01
1024.129	2092.11
1024.419	2079.68
1024.709	2055.72
1025	2059.11
1025.29	2043.07
1025.58	1975.72
1025.87	2010.3
1026.16	1989.96
1026.449	1979.11
1026.739	1981.15
1027.029	1941.83
1027.319	1893.47
1027.608	1937.53
1027.898	1889.4
1028.187	1893.24
1028.477	1889.85
1028.766	1873.81
1029.055	1844.2
1029.344	1829.97
1029.634	1809.4
1029.923	1802.62
1030.212	1794.49
1030.501	1813.47
1030.79	1758.33
1031.078	1744.77
1031.367	1745.45
1031.656	1720.14
1031.945	1725.11
1032.233	1708.39
1032.522	1668.84
1032.81	1627.71
1033.099	1700.48
1033.387	1691.44
1033.675	1653.47
1033.963	1616.41
1034.251	1632.91
1034.54	1610.08
1034.828	1603.76
1035.116	1578.9
1035.403	1562.18
1035.691	1557.2
1035.979	1544.55
1036.267	1553.36
1036.554	1534.15
1036.842	1495.51
1037.129	1494.16
1037.417	1485.57
1037.704	1488.51
1037.992	1477.21
1038.279	1468.17
1038.566	1451.22
1038.853	1451.22
1039.14	1451.22
