Data from 13-0850_FLMS001491_001.txt Node
Date: Thu Apr 12 17:08:19 BST 2018
User: hsy
Spectrometer: FLMS00149
Trigger mode: 0
Integration Time (sec): 1.000000E-2
Scans to average: 10
Electric dark correction enabled: true
Nonlinearity correction enabled: false
Boxcar width: 0
XAxis mode: Wavelengths
Number of Pixels in Spectrum: 2048
>>>>>Begin Spectral Data<<<<<
341.393	3.66
341.776	3.66
342.16	3.66
342.543	-65.94
342.927	-58.94
343.31	-82.44
343.693	-77.24
344.077	-64.14
344.46	-47.87
344.843	-35.66
345.226	-40.41
345.61	-23.69
345.993	-32.5
346.376	-5.83
346.759	11.12
347.142	26.03
347.525	39.14
347.908	62.41
348.291	89.98
348.674	83.2
349.057	97.89
349.44	112.81
349.823	150.32
350.206	174.05
350.588	230.77
350.971	228.96
351.354	268.51
351.737	275.06
352.119	287.72
352.502	313.71
352.884	314.61
353.267	330.2
353.65	330.88
354.032	336.3
354.414	347.38
354.797	363.87
355.179	365.46
355.562	367.04
355.944	378.79
356.326	380.15
356.709	379.69
357.091	381.05
357.473	401.84
357.855	402.29
358.238	396.42
358.62	400.48
359.002	388.05
359.384	388.96
359.766	383.99
360.148	388.51
360.53	376.3
360.912	373.14
361.294	371.11
361.676	385.79
362.057	388.05
362.439	383.99
362.821	386.7
363.203	378.56
363.584	383.76
363.966	388.73
364.348	370.43
364.729	390.09
365.111	369.07
365.493	386.7
365.874	389.41
366.256	375.4
366.637	376.3
367.019	363.65
367.4	369.3
367.781	366.59
368.163	388.28
368.544	360.94
368.925	360.94
369.306	371.33
369.688	407.26
370.069	371.33
370.45	383.08
370.831	362.52
371.212	367.72
371.593	384.44
371.974	365.68
372.355	379.69
372.736	382.63
373.117	376.76
373.498	357.1
373.879	402.97
374.26	391.9
374.641	385.34
375.021	373.59
375.402	391.22
375.783	422.18
376.163	393.7
376.544	405
376.925	400.48
377.305	402.74
377.686	429.41
378.066	418.11
378.447	412.01
378.827	407.94
379.208	405.23
379.588	397.09
379.968	425.57
380.349	413.36
380.729	409.52
381.109	415.62
381.489	407.72
381.87	436.42
382.25	429.64
382.63	433.93
383.01	439.35
383.39	420.14
383.77	423.53
384.15	418.11
384.53	444.32
384.91	423.53
385.29	466.7
385.67	457.21
386.049	444.1
386.429	470.76
386.809	458.79
387.189	449.3
387.568	466.02
387.948	459.01
388.328	455.4
388.707	465.34
389.087	479.13
389.466	458.56
389.846	460.6
390.225	466.47
390.605	457.66
390.984	467.6
391.363	466.92
391.743	495.62
392.122	507.37
392.501	517.77
392.881	492.68
393.26	492.91
393.639	497.66
394.018	499.46
394.397	498.11
394.776	527.26
395.155	500.37
395.534	524.77
395.913	518.9
396.292	546.47
396.671	522.51
397.05	545.56
397.429	542.85
397.808	548.05
398.186	517.54
398.565	554.38
398.944	576.52
399.323	540.14
399.701	561.16
400.08	589.18
400.458	582.85
400.837	570.87
401.215	563.19
401.594	550.31
401.972	583.53
402.351	584.21
402.729	582.63
403.107	586.69
403.486	583.3
403.864	597.31
404.242	596.18
404.62	593.25
404.999	628.95
405.377	622.62
405.755	617.2
406.133	646.81
406.511	626.24
406.889	631.89
407.267	636.18
407.645	652.91
408.023	672.79
408.401	671.89
408.779	693.81
409.156	715.05
409.534	666.24
409.912	697.2
410.29	725.67
410.667	700.14
411.045	719.12
411.422	726.58
411.8	734.26
412.178	713.24
412.555	727.03
412.933	776.29
413.31	782.62
413.687	789.17
414.065	804.32
414.442	783.3
414.819	801.15
415.197	807.7
415.574	822.17
415.951	829.63
416.328	798.21
416.705	822.39
417.082	848.38
417.46	884.09
417.837	846.12
418.214	842.05
418.591	872.79
418.967	867.59
419.344	875.95
419.721	885.67
420.098	891.32
420.475	905.56
420.852	908.27
421.228	910.98
421.605	922.5
421.982	928.83
422.358	924.54
422.735	938.77
423.111	961.37
423.488	935.61
423.864	967.93
424.241	952.11
424.617	964.31
424.994	983.97
425.37	1015.61
425.746	997.76
426.123	999.79
426.499	1038.89
426.875	1037.53
427.251	1030.52
427.627	1064.65
428.003	1065.78
428.379	1077.53
428.756	1073.91
429.132	1054.7
429.507	1085.66
429.883	1109.17
430.259	1118.21
430.635	1177.64
431.011	1137.87
431.387	1155.04
431.763	1196.4
432.138	1183.29
432.514	1202.72
432.89	1215.83
433.265	1241.59
433.641	1223.06
434.016	1240.46
434.392	1273.91
434.767	1297.18
435.143	1300.57
435.518	1291.08
435.894	1311.87
436.269	1308.03
436.644	1332.66
437.02	1365.88
437.395	1345.54
437.77	1374.24
438.145	1406.33
438.52	1402.94
438.895	1398.88
439.271	1387.58
439.646	1395.26
440.021	1438.65
440.395	1427.8
440.77	1422.38
441.145	1442.49
441.52	1477.29
441.895	1510.29
442.27	1499.21
442.645	1491.08
443.019	1509.83
443.394	1494.47
443.769	1521.58
444.143	1514.58
444.518	1527.23
444.892	1550.51
445.267	1551.19
445.641	1545.54
446.016	1594.8
446.39	1573.79
446.764	1587.57
447.139	1594.58
447.513	1589.61
447.887	1606.1
448.262	1640.45
448.636	1639.1
449.01	1659.89
449.384	1640.68
449.758	1675.03
450.132	1680.45
450.506	1706.21
450.88	1679.55
451.254	1709.15
451.628	1752.76
452.002	1754.57
452.376	1783.05
452.75	1797.51
453.123	1796.38
453.497	1837.96
453.871	1854.91
454.244	1900.78
454.618	1892.2
454.992	1960.89
455.365	1952.08
455.739	1970.39
456.112	1968.13
456.486	1985.53
456.859	2027.11
457.232	2033.66
457.606	2099.87
457.979	2096.71
458.352	2141
458.725	2155.24
459.099	2154.79
459.472	2196.59
459.845	2254.22
460.218	2275.46
460.591	2312.75
460.964	2327.44
461.337	2318.63
461.71	2324.95
462.083	2409.7
462.456	2416.48
462.829	2440.88
463.201	2450.6
463.574	2479.98
463.947	2511.39
464.32	2567.88
464.692	2567.43
465.065	2587.54
465.438	2623.48
465.81	2640.65
466.183	2690.82
466.555	2724.04
466.928	2746.64
467.3	2747.99
467.672	2775.79
468.045	2860.76
468.417	2882.9
468.789	2946.18
469.161	2909.12
469.534	2924.26
469.906	3018.95
470.278	3053.3
470.65	3043.58
471.022	3109.11
471.394	3148.43
471.766	3200.86
472.138	3248.09
472.51	3268.21
472.882	3367.64
473.253	3364.47
473.625	3423.91
473.997	3524.7
474.369	3558.37
474.74	3549.78
475.112	3664.58
475.484	3662.32
475.855	3726.05
476.227	3815.08
476.598	3882.43
476.97	3911.58
477.341	4018.24
477.713	4044.68
478.084	4088.75
478.455	4222.53
478.827	4241.51
479.198	4394.5
479.569	4435.18
479.94	4535.74
480.311	4597.89
480.682	4720.6
481.053	4840.37
481.424	4924.66
481.795	4986.58
482.166	5050.31
482.537	5139.12
482.908	5257.31
483.279	5329.17
483.65	5429.28
484.021	5568.03
484.391	5684.64
484.762	5791.3
485.133	5818.19
485.503	5959.66
485.874	6114.01
486.244	6175.93
486.615	6443.49
486.985	6512.41
487.356	6616.82
487.726	6697.27
488.097	6919.86
488.467	7003.93
488.837	7162.79
489.207	7315.78
489.578	7498.83
489.948	7607.53
490.318	7826.28
490.688	7874.64
491.058	8095.42
491.428	8273.5
491.798	8366.6
492.168	8623.54
492.538	8821.51
492.908	8911.22
493.278	9141.04
493.648	9312.79
494.017	9460.81
494.387	9678.88
494.757	9772.44
495.126	9997.97
495.496	10208.59
495.866	10409.71
496.235	10491.07
496.605	10805.18
496.974	10921.56
497.344	11169.69
497.713	11357.71
498.082	11569.23
498.452	11791.37
498.821	11964.93
499.19	12105.03
499.559	12385.71
499.928	12702.99
500.298	12809.65
500.667	13086.25
501.036	13121.73
501.405	13476.98
501.774	13601.72
502.143	13964.19
502.512	14104.3
502.88	14348.37
503.249	14556.5
503.618	14814.34
503.987	14944.06
504.356	15273.09
504.724	15518.05
505.093	15697.26
505.462	15842.34
505.83	16167.75
506.199	16380.85
506.567	16747.17
506.936	16907.17
507.304	17211.79
507.672	17400.94
508.041	17648.62
508.409	17915.73
508.777	18182.39
509.145	18323.63
509.514	18569.95
509.882	18840.22
510.25	18966.1
510.618	19306.88
510.986	19417.61
511.354	19727.89
511.722	20023.7
512.09	20294.42
512.458	20327.64
512.826	20693.96
513.193	20903.9
513.561	21034.97
513.929	21299.37
514.297	21659.59
514.664	21899.35
515.032	22023.19
515.4	22255.28
515.767	22568.94
516.135	22774.58
516.502	22647.13
516.869	23184.74
517.237	23446.66
517.604	23229.26
517.972	23793.32
518.339	23913.09
518.706	24037.38
519.073	24391.27
519.44	24564.37
519.808	24947.41
520.175	24931.14
520.542	25384.46
520.909	25480.28
521.276	25758.01
521.643	26056.98
522.009	26159.35
522.376	26525.67
522.743	26755.05
523.11	27103.06
523.477	27392.99
523.843	27578.07
524.21	27853.77
524.577	28077.72
524.943	28315.23
525.31	28426.19
525.676	28753.41
526.043	28985.95
526.409	29164.25
526.776	29596.78
527.142	29705.25
527.508	29912.25
527.874	30253.71
528.241	30443.08
528.607	30511.78
528.973	30915.16
529.339	30991.77
529.705	31337.3
530.071	31605.09
530.437	31762.82
530.803	32118.97
531.169	32293.2
531.535	32360.1
531.901	32553.54
532.267	32665.17
532.632	33042.56
532.998	33131.15
533.364	33328.88
533.73	33366.17
534.095	33779.27
534.461	33867.4
534.826	34095.19
535.192	34240.95
535.557	34457.22
535.923	34473.71
536.288	34750.77
536.653	34992.12
537.019	34841.16
537.384	35057.43
537.749	35120.47
538.114	35269.17
538.479	35389.62
538.845	35603.63
539.21	35671.87
539.575	35835.94
539.94	35970.62
540.305	36200.9
540.67	36164.74
541.034	36224.4
541.399	36381.46
541.764	36588.68
542.129	36638.4
542.494	36804.5
542.858	36991.84
543.223	36888.11
543.587	37199.74
543.952	37167.88
544.316	37288.78
544.681	37337.82
545.045	37480.41
545.41	37683.12
545.774	37617.81
546.138	37785.04
546.503	37913.4
546.867	38013.73
547.231	38191.35
547.595	38354.74
547.959	38459.37
548.324	38559.93
548.688	38578.91
549.052	38883.99
549.416	38857.33
549.779	39008.51
550.143	38967.38
550.507	39348.39
550.871	39499.79
551.235	39473.35
551.599	39886.9
551.962	39961.03
552.326	40031.53
552.689	40108.82
553.053	39858.88
553.417	40229.95
553.78	40691.4
554.143	40625.64
554.507	40761.46
554.87	40938.85
555.234	41379.52
555.597	41226.08
555.96	41367.77
556.323	41584.94
556.686	41534.09
557.05	41826.74
557.413	41901.54
557.776	42016.56
558.139	42275.99
558.502	42309.44
558.865	42490.45
559.228	42807.96
559.59	42949.87
559.953	42986.48
560.316	43499.24
560.679	43481.61
561.041	43429.63
561.404	43960.69
561.767	44240.01
562.129	44178.32
562.492	44461.02
562.854	44467.57
563.217	44634.57
563.579	44789.6
563.941	45119.99
564.304	45266.2
564.666	45610.14
565.028	45570.37
565.39	45672.51
565.753	45992.51
566.115	46024.82
566.477	46265.04
566.839	46412.83
567.201	46842.88
567.563	46747.51
567.925	46937.11
568.287	47060.05
568.648	47215.98
569.01	47439.7
569.372	47695.74
569.734	47835.39
570.095	48004.66
570.457	48160.81
570.819	48233.8
571.18	48200.81
571.542	48563.96
571.903	48727.8
572.265	48934.35
572.626	48955.14
572.987	48997.62
573.349	49290.72
573.71	49471.51
574.071	49542.24
574.432	49767.55
574.794	50033.76
575.155	50039.63
575.516	50156.46
575.877	50317.59
576.238	50193.98
576.599	50391.49
576.96	50473.52
577.32	50637.35
577.681	50691.14
578.042	50934.97
578.403	50959.83
578.763	51054.97
579.124	51098.13
579.485	51442.98
579.845	51481.4
580.206	51435.75
580.566	51500.61
580.927	51607.05
581.287	51777.66
581.648	51726.14
582.008	52040.03
582.368	52031.44
582.728	52101.05
583.089	52104.89
583.449	52211.55
583.809	52332.9
584.169	52409.96
584.529	52334.71
584.889	52647.47
585.249	52547.59
585.609	52496.06
585.969	52835.94
586.329	52720.01
586.688	52886.11
587.048	52943.06
587.408	53047.01
587.768	52964.98
588.127	53181.24
588.487	53176.05
588.846	53400.9
589.206	53294.01
589.565	53335.82
589.925	53563.61
590.284	53555.24
590.643	53642.47
591.003	53766.76
591.362	53949.81
591.721	53930.15
592.08	53877.72
592.44	54075.91
592.799	54149.81
593.158	54220.99
593.517	54184.61
593.876	54361.78
594.235	54368.33
594.593	54471.6
594.952	54597.7
595.311	54569.91
595.67	54719.06
596.029	54946.17
596.387	54930.12
596.746	55156.11
597.104	54998.37
597.463	54983.91
597.822	55253.05
598.18	55174.41
598.538	55242.43
598.897	55514.51
599.255	55372.82
599.613	55705.7
599.972	55530.79
600.33	55687.84
600.688	55735.3
601.046	55780.27
601.404	56039.25
601.762	56032.69
602.12	56089.19
602.478	56138.45
602.836	56208.06
603.194	56048.51
603.552	56247.6
603.91	56154.27
604.268	56374.83
604.625	56414.6
604.983	56609.18
605.341	56481.5
605.698	56615.5
606.056	56817.08
606.413	56801.94
606.771	56855.95
607.128	56882.84
607.485	56876.51
607.843	56934.36
608.2	57041.48
608.557	57229.27
608.914	57163.06
609.272	57343.17
609.629	57413.45
609.986	57571.86
610.343	57511.3
610.7	57811.18
611.057	57641.24
611.414	57749.03
611.771	57799.43
612.127	57899.76
612.484	57902.7
612.841	58034.67
613.198	57954.9
613.554	57955.13
613.911	58209.36
614.267	58170.04
614.624	58208
614.98	58279.19
615.337	58446.19
615.693	58416.59
616.05	58519.41
616.406	58554.43
616.762	58551.05
617.118	58577.03
617.475	58553.98
617.831	58724.37
618.187	58708.78
618.543	58787.88
618.899	59033.97
619.255	58897.25
619.611	58946.97
619.967	59069.9
620.323	59133.18
620.678	59058.83
621.034	59102.9
621.39	59121.43
621.746	59102.22
622.101	59413.85
622.457	59193.51
622.812	59315.09
623.168	59320.29
623.523	59336.34
623.879	59405.49
624.234	59237.35
624.589	59373.85
624.945	59320.52
625.3	59401.64
625.655	59438.03
626.01	59396.9
626.365	59450.68
626.72	59415.66
627.075	59386.73
627.43	59460.85
627.785	59471.02
628.14	59479.38
628.495	59457.01
628.85	59506.05
629.205	59439.16
629.559	59559.83
629.914	59444.13
630.269	59464.69
630.623	59378.59
630.978	59319.84
631.332	59488.42
631.687	59477.12
632.041	59424.92
632.396	59428.76
632.75	59353.28
633.104	59441.64
633.459	59320.29
633.813	59292.27
634.167	59333.62
634.521	59293.4
634.875	59300.63
635.229	59246.39
635.583	59162.33
635.937	59149
636.291	59116.23
636.645	59138.83
636.999	59012.05
637.352	59092.73
637.706	58972.28
638.06	59128.88
638.413	58974.08
638.767	58885.5
639.121	59000.07
639.474	58893.64
639.828	58878.04
640.181	58819.51
640.534	58915.78
640.888	58766.63
641.241	58680.76
641.594	58791.94
641.947	58791.49
642.301	58700.42
642.654	58748.78
643.007	58631.95
643.36	58745.39
643.713	58619.07
644.066	58767.54
644.419	58576.81
644.771	58341.33
645.124	57980.21
645.477	58060.89
645.83	57913.55
646.182	57907.67
646.535	57834.68
646.888	57941.34
647.24	57758.3
647.593	57901.8
647.945	57783.83
648.298	57662.48
648.65	57598.53
649.002	57488.02
649.355	57453.67
649.707	57394.47
650.059	57446.22
650.411	57806.43
650.763	57861.8
651.115	58136.82
651.467	58084.62
651.819	58179.98
652.171	58048.46
652.523	57940.67
652.875	58036.26
653.227	57897.73
653.578	58070.38
653.93	57945.64
654.282	57916.26
654.633	57862.02
654.985	57853.89
655.337	57892.76
655.688	57936.6
656.039	57900.67
656.391	57708.13
656.742	57712.42
657.094	57721.69
657.445	57756.72
657.796	57766.21
658.147	57709.71
658.498	57677.85
658.849	57789.03
659.2	57651.41
659.551	57572.99
659.902	57732.76
660.253	57588.13
660.604	57711.29
660.955	57545.2
661.306	57662.48
661.656	57552.43
662.007	57540.45
662.358	57483.5
662.708	57475.37
663.059	57511.07
663.409	57382.71
663.76	57562.37
664.11	57538.87
664.461	57577.96
664.811	57573.9
665.161	57521.69
665.511	57458.19
665.862	57423.62
666.212	57549.26
666.562	57494.58
666.912	57436.5
667.262	57370.96
667.612	57421.36
667.962	57399.89
668.312	57392.66
668.662	57517.85
669.011	57467.91
669.361	57440.79
669.711	57457.97
670.06	57396.27
670.41	57367.12
670.76	57349.72
671.109	57442.37
671.459	57340
671.808	57354.47
672.157	57370.96
672.507	57218.42
672.856	57326.22
673.205	57344.75
673.554	57351.3
673.904	57311.76
674.253	57483.73
674.602	57257.75
674.951	56956.74
675.3	56810.07
675.649	57238.09
675.998	57356.95
676.346	57229.72
676.695	57285.77
677.044	57107.69
677.393	57185.88
677.741	57236.05
678.09	57192.44
678.438	57092.78
678.787	57118.77
679.135	57154.02
679.484	56954.03
679.832	57054.14
680.181	57005.78
680.529	57001.48
680.877	56865.21
681.225	56944.31
681.573	57145.43
681.922	56915.61
682.27	56890.98
682.618	56855.5
682.966	56799.45
683.314	56802.16
683.661	56780.02
684.009	56670.19
684.357	56638.1
684.705	56659.34
685.053	56651.89
685.4	56530.31
685.748	56538.67
686.095	56532.12
686.443	56362.85
686.79	56368.96
687.138	56418.22
687.485	56403.76
687.832	56236.08
688.18	56236.08
688.527	56226.59
688.874	56221.61
689.221	56216.42
689.568	56092.58
689.915	56070.21
690.262	56038.79
690.609	56054.84
690.956	55912.24
691.303	55886.71
691.65	55805.81
691.997	55795.41
692.344	55652.14
692.69	55608.07
693.037	55581.41
693.383	55373.28
693.73	55518.36
694.077	55291.7
694.423	55264.58
694.769	55249.44
695.116	55116.33
695.462	55123.34
695.808	54980.97
696.155	55031.59
696.501	54838.6
696.847	54921.99
697.193	54739.39
697.539	54737.36
697.885	54635.67
698.231	54446.97
698.577	54497.59
698.923	54542.79
699.269	54305.73
699.614	54196.58
699.96	54120.43
700.306	54112.97
700.651	54053.31
700.997	53948.23
701.342	53859.42
701.688	53857.38
702.033	53694.9
702.379	53730.38
702.724	53640.44
703.069	53654.68
703.415	53322.26
703.76	53350.96
704.105	53310.05
704.45	53203.62
704.795	53199.55
705.14	52982.83
705.485	53016.5
705.83	52853.57
706.175	52902.61
706.52	52863.29
706.865	52677.08
707.209	52588.26
707.554	52611.54
707.899	52603.86
708.243	52393.92
708.588	52424.65
708.932	52257.43
709.277	52250.87
709.621	52137.88
709.966	51837.32
710.31	52015.17
710.654	51688.4
710.998	51946.47
711.342	51857.21
711.687	51724.33
712.031	51661.06
712.375	51501.29
712.719	51517.56
713.063	51412.7
713.407	51559.82
713.75	51365.02
714.094	51304.23
714.438	51189.2
714.782	51187.85
715.125	50945.82
715.469	51230.56
715.812	50799.84
716.156	50802.77
716.499	50759.84
716.843	50823.11
717.186	50605.72
717.53	50734.53
717.873	50732.72
718.216	50569.56
718.559	50426.29
718.902	50245.05
719.246	50275.78
719.589	50208.44
719.932	50073.3
720.275	50140.19
720.617	50093.64
720.96	49896.13
721.303	50023.13
721.646	50003.93
721.989	49741.33
722.331	50009.35
722.674	49828.56
723.016	49810.26
723.359	49568.46
723.701	49633.09
724.044	49437.39
724.386	49329.82
724.729	49484.16
725.071	49365.3
725.413	49412.75
725.755	49316.94
726.097	49202.14
726.439	49059.32
726.782	48951.3
727.124	49162.82
727.465	48996.04
727.807	48963.95
728.149	49035.36
728.491	48751.98
728.833	48818.87
729.175	48760.79
729.516	48650.97
729.858	48591.31
730.199	48849.15
730.541	48678.54
730.882	48435.38
731.224	48456.62
731.565	48353.35
731.906	48292.78
732.248	48443.97
732.589	48161.49
732.93	48097.31
733.271	48267.47
733.612	47948.39
733.953	48198.78
734.294	48033.36
734.635	47896.41
734.976	48138.21
735.317	47862.06
735.658	47842.17
735.999	47823.64
736.339	47716.53
736.68	47773.7
737.021	47767.37
737.361	47602.86
737.702	47896.18
738.042	47685.79
738.383	47659.13
738.723	47530.54
739.063	47391.34
739.404	47664.78
739.744	47466.14
740.084	47327.16
740.424	47319.48
740.764	47307.27
741.104	47505.69
741.444	47154.06
741.784	47213.94
742.124	47225.24
742.464	47160.61
742.804	47110.89
743.143	46977.11
743.483	47122.19
743.823	46840.17
744.162	46889.2
744.502	47022.08
744.841	46754.52
745.181	46893.05
745.52	46643.79
745.86	46985.47
746.199	46676.1
746.538	46609.44
746.877	46763.56
747.216	46780.28
747.556	46425.26
747.895	46460.52
748.234	46413.74
748.573	46452.83
748.911	46288.77
749.25	46369.44
749.589	46241.09
749.928	46360.86
750.267	46380.97
750.605	46061.88
750.944	46091.71
751.283	45954.31
751.621	45938.27
751.96	45825.28
752.298	45869.57
752.636	45917.48
752.975	45752.74
753.313	45619.86
753.651	45826.86
753.989	45500.09
754.327	45591.84
754.666	45231.85
755.004	45371.96
755.342	45329.02
755.679	45329.25
756.017	45262.36
756.355	45208.57
756.693	45053.1
757.031	45167.67
757.368	44882.93
757.706	44927.67
758.044	44722.93
758.381	44632.09
758.719	44557.29
759.056	44600.9
759.394	44460.79
759.731	44226.22
760.068	44170.41
760.405	44194.13
760.743	43960.92
761.08	43934.71
761.417	43788.95
761.754	43589.18
762.091	43484.1
762.428	43418.11
762.765	43140.15
763.102	43310.09
763.438	43078.68
763.775	42985.13
764.112	42802.31
764.449	42781.29
764.785	42653.38
765.122	42600.5
765.458	42259.04
765.795	42231.47
766.131	42299.95
766.467	42116.68
766.804	41791.71
767.14	41792.84
767.476	41680.3
767.812	41612.28
768.148	41634.88
768.485	41298.39
768.821	41080.54
769.157	41117.61
769.492	40852.98
769.828	40864.05
770.164	40579.77
770.5	40436.27
770.836	40410.51
771.171	40232.43
771.507	40211.87
771.842	39908.37
772.178	39754.25
772.513	39795.15
772.849	39513.58
773.184	39462.51
773.519	39433.36
773.855	39180.26
774.19	39004.44
774.525	38835.86
774.86	38954.05
775.195	38659.59
775.53	38620.04
775.865	38464.79
776.2	38100.28
776.535	37969.21
776.87	37862.55
777.205	37807.64
777.539	37667.53
777.874	37575.33
778.209	37235.67
778.543	37339.63
778.878	37048.56
779.212	36922.69
779.547	36768.12
779.881	36736.48
780.215	36532.87
780.55	36591.62
780.884	36167.23
781.218	36139.66
781.552	36344.4
781.886	35941.02
782.22	35898.31
782.554	35580.8
782.888	35327.48
783.222	35384.87
783.556	35027.37
783.889	34972.46
784.223	34810.88
784.557	34756.19
784.89	34957.32
785.224	34585.8
785.557	34435.3
785.891	34338.12
786.224	34285.69
786.558	34223.32
786.891	33963.44
787.224	33741.08
787.557	33786.72
787.891	33781.3
788.224	33607.75
788.557	33437.58
788.89	33397.36
789.223	33318.04
789.556	33130.7
789.888	33010.25
790.221	32887.77
790.554	32776.81
790.887	32737.26
791.219	32483.71
791.552	32404.84
791.884	32338.85
792.217	32154.68
792.549	32076.71
792.882	31750.85
793.214	31880.56
793.546	31920.33
793.879	31654.13
794.211	31466.56
794.543	31605.31
794.875	31492.77
795.207	31408.71
795.539	31213.91
795.871	31316.73
796.203	30861.15
796.535	30861.83
796.867	30914.26
797.198	30636.98
797.53	30695.51
797.862	30273.82
798.193	30437.89
798.525	30242.64
798.856	30342.97
799.188	29869.99
799.519	29888.75
799.85	29710.67
800.182	29770.79
800.513	29746.6
800.844	29493.73
801.175	29669.09
801.506	29625.25
801.837	29379.83
802.168	29387.97
802.499	29336.9
802.83	29001.09
803.161	29012.16
803.491	28943.01
803.822	28911.6
804.153	28730.59
804.483	28612.4
804.814	28576.24
805.145	28422.57
805.475	28444.04
805.805	28406.3
806.136	28464.6
806.466	28184.16
806.796	28228.23
807.126	28071.85
807.457	27946.43
807.787	27894
808.117	27875.69
808.447	27841.34
808.777	27730.39
809.107	27588.7
809.436	27555.7
809.766	27532.65
810.096	27379.44
810.426	27146
810.755	27292.88
811.085	27205.88
811.414	27211.76
811.744	27033.91
812.073	27033.68
812.403	26907.81
812.732	26728.38
813.061	26897.64
813.39	26604.31
813.719	26573.13
814.049	26754.82
814.378	26666.69
814.707	26464.66
815.036	26479.8
815.365	26315.06
815.693	26155.74
816.022	26078.68
816.351	26150.09
816.68	25976.53
817.008	25955.52
817.337	25816.99
817.665	25798.69
817.994	25716.43
818.322	25777.22
818.651	25728.63
818.979	25664.23
819.307	25492.03
819.636	25605.24
819.964	25575.64
820.292	25543.1
820.62	25464.68
820.948	25497.23
821.276	25691.34
821.604	25463.55
821.932	25582.42
822.259	25461.52
822.587	25460.84
822.915	25465.59
823.243	25534.29
823.57	25279.6
823.898	25596.66
824.225	25461.97
824.553	25322.54
824.88	25353.5
825.207	25482.99
825.535	25364.57
825.862	25413.39
826.189	25298.81
826.516	25502.42
826.843	25585.13
827.17	25570.22
827.497	25429.66
827.824	25571.12
828.151	25540.16
828.478	25392.14
828.805	25467.85
829.131	25435.31
829.458	25395.98
829.785	25316.66
830.111	25375.19
830.438	25562.08
830.764	25374.52
831.09	25495.19
831.417	25269.66
831.743	25545.81
832.069	25257.91
832.395	25325.48
832.722	25384.01
833.048	25109.44
833.374	25286.16
833.7	25138.59
834.026	25257.91
834.351	25129.78
834.677	25205.03
835.003	25101.98
835.329	25114.41
835.654	25150.79
835.98	25008.2
836.306	25060.85
836.631	25086.39
836.956	25120.29
837.282	25155.77
837.607	25011.36
837.932	25010.68
838.258	24873.96
838.583	24707.42
838.908	24658.15
839.233	24771.14
839.558	24654.76
839.883	24700.64
840.208	24645.27
840.533	24746.74
840.858	24643.24
841.182	24597.81
841.507	24513.97
841.832	24345.84
842.156	24435.33
842.481	24377.03
842.805	24269.01
843.13	24138.62
843.454	24204.6
843.778	24210.93
844.103	24102.23
844.427	23992.41
844.751	23991.5
845.075	24016.13
845.399	23854.78
845.723	23784.28
846.047	23787.21
846.371	23622.92
846.695	23513.55
847.019	23480.33
847.343	23288.47
847.666	23167.34
847.99	23089.38
848.313	23026.1
848.637	22994.47
848.96	22763.96
849.284	22925.54
849.607	22731.87
849.931	22776.62
850.254	22602.39
850.577	22347.03
850.9	22223.64
851.223	22234.49
851.546	22104.77
851.869	21922.18
852.192	22187.48
852.515	21848.06
852.838	21775.74
853.161	21773.03
853.483	21676.99
853.806	21639.47
854.129	21587.95
854.451	21599.25
854.774	21348.41
855.096	21257.56
855.419	21414.62
855.741	21138.47
856.063	21167.62
856.385	21044.91
856.708	20929.89
857.03	21008.08
857.352	20841.75
857.674	20934.18
857.996	20672.49
858.318	20571.48
858.64	20669.56
858.961	20501.42
859.283	20459.84
859.605	20512.72
859.926	20412.84
860.248	20321.09
860.57	20179.4
860.891	20255.33
861.212	20152.28
861.534	20157.93
861.855	19960.42
862.176	20124.48
862.498	20056.01
862.819	20021.21
863.14	20011.95
863.461	19924.26
863.782	19852.63
864.103	19854.66
864.424	19783.03
864.745	19854.44
865.065	19811.95
865.386	19672.07
865.707	19690.37
866.027	19712.52
866.348	19573.09
866.668	19490.38
866.989	19477.27
867.309	19298.29
867.63	19468.01
867.95	19393.88
868.27	19317.5
868.59	19453.99
868.91	19289.03
869.23	19303.49
869.55	19258.75
869.87	19237.05
870.19	19180.33
870.51	19195.02
870.83	19197.96
871.15	19064.17
871.469	19021.46
871.789	19028.47
872.109	19147.56
872.428	19024.63
872.748	18983.27
873.067	18971.52
873.386	18885.2
873.706	18878.19
874.025	18865.54
874.344	18787.12
874.663	18842.48
874.982	18827.12
875.301	18700.57
875.62	18688.14
875.939	18664.18
876.258	18654.69
876.577	18586.9
876.896	18496.96
877.214	18563.62
877.533	18525.88
877.852	18556.84
878.17	18529.05
878.489	18457.64
878.807	18325.66
879.125	18368.37
879.444	18308.49
879.762	18252.44
880.08	18362.05
880.398	18098.55
880.716	18194.37
881.034	18073.24
881.352	18129.06
881.67	18008.38
881.988	18131.77
882.306	18024.43
882.624	17971.55
882.941	17946.69
883.259	17765.45
883.577	17843.42
883.894	17740.37
884.212	17736.98
884.529	17681.16
884.846	17630.77
885.164	17540.37
885.481	17610.2
885.798	17602.29
886.115	17429.19
886.432	17564.1
886.75	17516.19
887.067	17540.15
887.383	17354.61
887.7	17278.23
888.017	17198.46
888.334	17219.02
888.651	17181.51
888.967	17138.57
889.284	17093.38
889.6	16981.29
889.917	17012.02
890.233	16974.29
890.55	16908.98
890.866	16871.01
891.182	16827.85
891.498	16773.61
891.815	16665.37
892.131	16571.58
892.447	16676.44
892.763	16516.44
893.079	16472.15
893.395	16358.71
893.71	16413.62
894.026	16248.65
894.342	16263.12
894.657	16203.01
894.973	16202.33
895.289	16132.73
895.604	16088.43
895.92	16026.29
896.235	15942
896.55	15943.35
896.865	15857.93
897.181	15803.02
897.496	15746.75
897.811	15629.24
898.126	15593.98
898.441	15563.02
898.756	15601.21
899.071	15415.46
899.386	15518.96
899.7	15408.9
900.015	15333.2
900.33	15239.64
900.644	15166.2
900.959	15261.56
901.273	15196.48
901.588	15111.74
901.902	14995.81
902.216	14955.58
902.531	14985.86
902.845	14838.97
903.159	14743.38
903.473	14648.02
903.787	14690.73
904.101	14599.43
904.415	14643.05
904.729	14532.77
905.042	14462.03
905.356	14470.62
905.67	14323.06
905.984	14368.7
906.297	14277.63
906.611	14148.82
906.924	14098.88
907.237	14097.52
907.551	14028.37
907.864	13912.9
908.177	13969.84
908.491	13869.51
908.804	13781.6
909.117	13761.71
909.43	13643.98
909.743	13654.6
910.056	13589.29
910.368	13513.81
910.681	13412.35
910.994	13540.03
911.307	13411.44
911.619	13254.38
911.932	13329.64
912.244	13161.73
912.557	13242.41
912.869	13052.81
913.181	13037.67
913.494	13107.95
913.806	12915.63
914.118	12955.18
914.43	12846.26
914.742	12803.32
915.054	12696.21
915.366	12677.68
915.678	12550.67
915.99	12570.56
916.302	12469.09
916.613	12526.04
916.925	12521.3
917.236	12384.12
917.548	12363.33
917.859	12297.35
918.171	12177.35
918.482	12158.82
918.794	12064.81
919.105	12040.86
919.416	12029.1
919.727	12011.03
920.038	11946.39
920.349	11903.91
920.66	11883.57
920.971	11786.85
921.282	11708.89
921.593	11703.24
921.903	11587.76
922.214	11534.88
922.525	11524.49
922.835	11485.16
923.146	11389.12
923.456	11375.56
923.767	11270.48
924.077	11277.71
924.387	11185.51
924.697	11197.49
925.008	11176.25
925.318	11082.69
925.628	11075.01
925.938	11013.76
926.248	10874.56
926.558	10837.05
926.867	10879.98
927.177	10804.05
927.487	10759.76
927.796	10650.38
928.106	10703.49
928.416	10645.86
928.725	10609.93
929.034	10487.22
929.344	10468.47
929.653	10500.33
929.962	10444.97
930.271	10363.61
930.581	10282.94
930.89	10250.62
931.199	10131.75
931.508	10150.74
931.817	10104.18
932.125	10038.2
932.434	10003.62
932.743	9967.24
933.051	9921.14
933.36	9829.84
933.669	9836.85
933.977	9778.54
934.286	9777.64
934.594	9740.58
934.902	9701.03
935.21	9667.36
935.519	9641.37
935.827	9581.26
936.135	9485.44
936.443	9517.98
936.751	9466.01
937.059	9398.44
937.367	9383.52
937.674	9344.66
937.982	9286.8
938.29	9269.86
938.597	9215.85
938.905	9106.02
939.213	9106.24
939.52	9036.87
939.827	9122.29
940.135	9047.94
940.442	8954.38
940.749	8996.87
941.056	8954.84
941.363	8857.44
941.67	8743.32
941.977	8754.84
942.284	8709.42
942.591	8663.09
942.898	8628.97
943.205	8604.34
943.511	8545.58
943.818	8582.87
944.125	8435.07
944.431	8469.88
944.738	8427.62
945.044	8379.48
945.35	8340.39
945.657	8321.41
945.963	8258.13
946.269	8233.27
946.575	8197.11
946.881	8113.95
947.187	8121.86
947.493	8102.43
947.799	8040.28
948.105	8021.53
948.41	8005.48
948.716	7876.9
949.022	7850.68
949.327	7786.96
949.633	7739.05
949.938	7786.05
950.244	7801.19
950.549	7687.75
950.854	7712.83
951.16	7653.17
951.465	7646.39
951.77	7573.85
952.075	7566.85
952.38	7497.02
952.685	7487.76
952.99	7403.92
953.294	7413.41
953.599	7310.36
953.904	7285.27
954.209	7293.41
954.513	7292.28
954.818	7271.04
955.122	7202.11
955.426	7144.71
955.731	7077.6
956.035	7077.82
956.339	7040.99
956.643	7043.25
956.948	7029.01
957.252	6990.14
957.556	6990.82
957.86	6959.41
958.163	6953.98
958.467	6896.58
958.771	6835.34
959.075	6808.9
959.378	6791.28
959.682	6716.25
959.985	6708.79
960.289	6680.54
960.592	6638.51
960.896	6595.58
961.199	6606.65
961.502	6561.68
961.805	6561
962.108	6521.9
962.411	6471.51
962.714	6433.09
963.017	6426.99
963.32	6396.03
963.623	6353.1
963.926	6311.29
964.228	6316.49
964.531	6262.25
964.833	6236.94
965.136	6209.14
965.438	6134.12
965.741	6175.93
966.043	6104.51
966.345	6062.26
966.648	6060.45
966.95	6048.02
967.252	6033.1
967.554	6010.28
967.856	5964.18
968.158	5917.4
968.46	5946.55
968.761	5846.22
969.063	5862.94
969.365	5827.46
969.666	5833.34
969.968	5755.15
970.269	5771.42
970.571	5756.05
970.872	5691.87
971.174	5630.4
971.475	5641.93
971.776	5579.56
972.077	5572.33
972.378	5572.55
972.679	5514.93
972.98	5539.11
973.281	5518.09
973.582	5510.18
973.883	5415.04
974.183	5432.44
974.484	5412.78
974.785	5363.29
975.085	5299.56
975.386	5328.49
975.686	5282.62
975.986	5284.42
976.287	5249.17
976.587	5201.26
976.887	5226.35
977.187	5169.85
977.487	5115.61
977.787	5052.34
978.087	5095.05
978.387	5052.11
978.687	5021.83
978.987	5035.39
979.286	4955.17
979.586	4996.97
979.885	4959.01
980.185	4946.35
980.484	4942.74
980.784	4929.18
981.083	4894.83
981.382	4863.19
981.682	4837.66
981.981	4797.66
982.28	4799.92
982.579	4755.62
982.878	4763.76
983.177	4715.17
983.475	4721.73
983.774	4689.18
984.073	4657.1
984.372	4632.91
984.67	4610.54
984.969	4592.92
985.267	4559.47
985.566	4500.04
985.864	4531.45
986.162	4497.78
986.461	4495.52
986.759	4448.74
987.057	4467.95
987.355	4421.85
987.653	4401.51
987.951	4388.4
988.249	4375.97
988.547	4338.23
988.844	4331
989.142	4300.95
989.44	4314.28
989.737	4279.7
990.035	4263.66
990.332	4243.32
990.63	4214.17
990.927	4175.3
991.224	4129.43
991.521	4091.91
991.819	4128.75
992.116	4078.13
992.413	4059.37
992.71	4062.76
993.006	4015.53
993.303	3996.1
993.6	4024.12
993.897	3982.54
994.193	3947.06
994.49	3965.36
994.787	3885.14
995.083	3905.25
995.379	3846.49
995.676	3846.95
995.972	3851.01
996.268	3828.19
996.565	3792.94
996.861	3777.34
997.157	3738.48
997.453	3741.86
997.749	3708.65
998.044	3698.02
998.34	3706.39
998.636	3654.64
998.932	3603.79
999.227	3621.42
999.523	3595.43
999.818	3588.87
1000.114	3567.86
1000.409	3573.51
1000.704	3502.78
1001	3529.67
1001.295	3482.89
1001.59	3461.19
1001.885	3439.73
1002.18	3423.68
1002.475	3407.64
1002.77	3404.25
1003.065	3364.93
1003.359	3366.96
1003.654	3303.01
1003.949	3309.11
1004.243	3289.67
1004.538	3246.96
1004.832	3267.75
1005.127	3204.93
1005.421	3221.2
1005.715	3212.39
1006.009	3187.98
1006.304	3170.35
1006.598	3119.06
1006.892	3156.12
1007.186	3078.83
1007.48	3081.09
1007.773	3071.6
1008.067	3070.02
1008.361	3005.84
1008.655	3000.42
1008.948	2994.77
1009.242	2970.36
1009.535	2937.14
1009.829	2898.27
1010.122	2947.54
1010.415	2886.75
1010.708	2887.42
1011.001	2898.72
1011.295	2861.89
1011.588	2821.66
1011.881	2771.72
1012.173	2833.87
1012.466	2771.04
1012.759	2770.59
1013.052	2761.1
1013.344	2752.96
1013.637	2724.04
1013.93	2699.86
1014.222	2679.52
1014.514	2678.84
1014.807	2619.18
1015.099	2611.5
1015.391	2597.49
1015.683	2568.56
1015.976	2609.01
1016.268	2547.77
1016.56	2510.71
1016.851	2503.93
1017.143	2507.32
1017.435	2474.78
1017.727	2457.15
1018.018	2439.75
1018.31	2459.41
1018.602	2431.84
1018.893	2381.67
1019.185	2388.68
1019.476	2373.54
1019.767	2359.53
1020.058	2342.81
1020.35	2319.53
1020.641	2316.82
1020.932	2256.03
1021.223	2276.59
1021.514	2248.12
1021.804	2252.41
1022.095	2215.35
1022.386	2210.15
1022.677	2217.16
1022.967	2167.89
1023.258	2196.14
1023.548	2145.52
1023.839	2139.2
1024.129	2122.02
1024.419	2094.45
1024.709	2102.36
1025	2051.74
1025.29	2048.35
1025.58	2028.46
1025.87	2019.2
1026.16	2028.69
1026.449	2000.44
1026.739	2028.01
1027.029	1958.41
1027.319	1934.23
1027.608	1932.42
1027.898	1927
1028.187	1946.88
1028.477	1926.32
1028.766	1864.17
1029.055	1868.69
1029.344	1873.21
1029.634	1861.46
1029.923	1834.12
1030.212	1820.56
1030.501	1796.83
1030.79	1809.03
1031.078	1761.8
1031.367	1772.65
1031.656	1744.4
1031.945	1767.68
1032.233	1725.87
1032.522	1700.34
1032.81	1697.4
1033.099	1716.61
1033.387	1669.6
1033.675	1721.13
1033.963	1670.05
1034.251	1646.1
1034.54	1652.65
1034.828	1637.06
1035.116	1591.64
1035.403	1612.88
1035.691	1571.98
1035.979	1578.98
1036.267	1574.69
1036.554	1556.16
1036.842	1553.67
1037.129	1548.93
1037.417	1527.91
1037.704	1525.88
1037.992	1489.49
1038.279	1469.61
1038.566	1455.82
1038.853	1455.82
1039.14	1455.82
