Data from 14-0852_FLMS001491_001.txt Node
Date: Thu Apr 12 17:06:58 BST 2018
User: hsy
Spectrometer: FLMS00149
Trigger mode: 0
Integration Time (sec): 1.000000E-2
Scans to average: 10
Electric dark correction enabled: true
Nonlinearity correction enabled: false
Boxcar width: 0
XAxis mode: Wavelengths
Number of Pixels in Spectrum: 2048
>>>>>Begin Spectral Data<<<<<
341.393	-26.78
341.776	-26.78
342.16	-26.78
342.543	-46.44
342.927	-69.94
343.31	-76.72
343.693	-75.59
344.077	-69.26
344.46	-58.64
344.843	-68.59
345.226	-43.95
345.61	-19.55
345.993	-11.86
346.376	10.06
346.759	7.12
347.142	17.29
347.525	50.28
347.908	50.73
348.291	64.74
348.674	104.97
349.057	118.98
349.44	106.78
349.823	115.59
350.206	164.18
350.588	238.52
350.971	253.44
351.354	272.87
351.737	275.13
352.119	292.31
352.502	289.14
352.884	311.07
353.267	298.64
353.65	348.13
354.032	347.45
354.414	361.91
354.797	364.17
355.179	363.95
355.562	386.32
355.944	367.56
356.326	368.24
356.709	375.24
357.091	391.97
357.473	410.5
357.855	397.84
358.238	403.94
358.62	398.29
359.002	384.96
359.384	384.28
359.766	390.39
360.148	387.9
360.53	388.35
360.912	400.1
361.294	398.52
361.676	383.83
362.057	363.27
362.439	397.62
362.821	359.88
363.203	369.14
363.584	383.15
363.966	413.21
364.348	378.63
364.729	381.8
365.111	365.08
365.493	369.37
365.874	396.71
366.256	379.31
366.637	348.35
367.019	368.01
367.4	373.21
367.781	369.14
368.163	379.99
368.544	392.65
368.925	380.22
369.306	385.41
369.688	406.66
370.069	377.05
370.45	356.94
370.831	379.31
371.212	376.15
371.593	371.18
371.974	368.01
372.355	391.06
372.736	388.35
373.117	377.96
373.498	385.41
373.879	394
374.26	386.54
374.641	364.62
375.021	389.93
375.402	389.03
375.783	410.27
376.163	403.72
376.544	383.15
376.925	406.88
377.305	404.4
377.686	384.74
378.066	420.89
378.447	401.01
378.827	419.09
379.208	432.87
379.588	407.79
379.968	414.79
380.349	421.34
380.729	432.19
381.109	416.37
381.489	424.96
381.87	409.82
382.25	438.29
382.63	424.96
383.01	412.76
383.39	419.09
383.77	465.86
384.15	429.03
384.53	458.63
384.91	434.9
385.29	448.24
385.67	451.4
386.049	465.41
386.429	480.55
386.809	458.63
387.189	463.38
387.568	474
387.948	479.65
388.328	447.78
388.707	451.4
389.087	456.15
389.466	487.11
389.846	486.43
390.225	497.5
390.605	487.11
390.984	472.42
391.363	484.85
391.743	501.57
392.122	513.77
392.501	507.22
392.881	524.62
393.26	505.64
393.639	490.27
394.018	493.66
394.397	529.59
394.776	526.88
395.155	522.13
395.534	513.77
395.913	542.25
396.292	534.56
396.671	539.99
397.05	542.92
397.429	530.27
397.808	533.43
398.186	534.56
398.565	554
398.944	523.49
399.323	549.25
399.701	565.07
400.08	577.27
400.458	569.36
400.837	568.91
401.215	575.47
401.594	577.72
401.972	571.62
402.351	549.48
402.729	587.22
403.107	572.3
403.486	608.46
403.864	587.22
404.242	619.76
404.62	601.45
404.999	606.2
405.377	626.31
405.755	628.57
406.133	629.47
406.511	635.35
406.889	660.21
407.267	647.78
407.645	638.51
408.023	657.95
408.401	676.71
408.779	646.65
409.156	649.81
409.534	670.38
409.912	691.39
410.29	721.45
410.667	712.18
411.045	681.68
411.422	690.04
411.8	717.61
412.178	721
412.555	721.9
412.933	746.99
413.31	765.29
413.687	747.89
414.065	759.87
414.442	769.58
414.819	755.8
415.197	752.18
415.574	770.04
415.951	802.8
416.328	800.54
416.705	805.06
417.082	806.42
417.46	813.2
417.837	818.17
418.214	829.47
418.591	826.98
418.967	808
419.344	822.92
419.721	857.72
420.098	837.15
420.475	832.63
420.852	872.18
421.228	851.62
421.605	872.41
421.982	889.36
422.358	887.1
422.735	902.91
423.111	899.75
423.488	899.52
423.864	885.51
424.241	904.95
424.617	935.68
424.994	936.81
425.37	912.18
425.746	933.87
426.123	932.97
426.499	938.39
426.875	969.35
427.251	967.09
427.627	997.37
428.003	1010.26
428.379	993.31
428.756	1023.59
429.132	1014.32
429.507	1030.59
429.883	1055.45
430.259	1055
430.635	1060.65
431.011	1090.48
431.387	1065.85
431.763	1113.98
432.138	1136.13
432.514	1116.24
432.89	1102.46
433.265	1160.08
433.641	1166.64
434.016	1179.29
434.392	1193.53
434.767	1195.56
435.143	1173.64
435.518	1236.46
435.894	1236.01
436.269	1231.49
436.644	1239.85
437.02	1241.66
437.395	1229.46
437.77	1267.2
438.145	1275.33
438.52	1275.56
438.895	1318.27
439.271	1283.92
439.646	1298.16
440.021	1325.28
440.395	1341.55
440.77	1319.17
441.145	1349.46
441.52	1392.62
441.895	1365.27
442.27	1378.16
442.645	1388.1
443.019	1406.63
443.394	1383.81
443.769	1389.45
444.143	1392.39
444.518	1422
444.892	1424.03
445.267	1435.33
445.641	1435.33
446.016	1462
446.39	1465.61
446.764	1442.33
447.139	1450.47
447.513	1492.96
447.887	1487.08
448.262	1497.7
448.636	1528.89
449.01	1536.12
449.384	1519.85
449.758	1574.76
450.132	1557.13
450.506	1585.38
450.88	1560.75
451.254	1598.94
451.628	1618.83
452.002	1639.84
452.376	1612.95
452.75	1634.19
453.123	1653.18
453.497	1691.82
453.871	1721.42
454.244	1739.28
454.618	1730.69
454.992	1720.97
455.365	1765.26
455.739	1804.59
456.112	1810.23
456.486	1846.62
456.859	1858.82
457.232	1877.35
457.606	1868.99
457.979	1875.09
458.352	1960.51
458.725	1932.27
459.099	1970.23
459.472	1989.89
459.845	2054.3
460.218	2033.96
460.591	2081.87
460.964	2093.17
461.337	2131.36
461.71	2151.69
462.083	2211.13
462.456	2226.72
462.829	2210.22
463.201	2233.27
463.574	2219.04
463.947	2290.9
464.32	2317.57
464.692	2315.08
465.065	2336.32
465.438	2391.24
465.81	2407.06
466.183	2426.72
466.555	2442.99
466.928	2508.97
467.3	2478.92
467.672	2498.58
468.045	2592.14
468.417	2575.41
468.789	2625.35
469.161	2651.34
469.534	2647.05
469.906	2736.99
470.278	2717.33
470.65	2805.01
471.022	2840.04
471.394	2892.69
471.766	2855.63
472.138	2924.1
472.51	2977.44
472.882	3033.48
473.253	3077.77
473.625	3120.03
473.997	3146.92
474.369	3164.32
474.74	3231.44
475.112	3271.21
475.484	3338.56
475.855	3392.11
476.227	3447.25
476.598	3494.03
476.97	3566.8
477.341	3617.64
477.713	3684.31
478.084	3691.32
478.455	3841.37
478.827	3824.42
479.198	3957.07
479.569	3976.05
479.94	4106.67
480.311	4116.16
480.682	4249.72
481.053	4316.16
481.424	4380.11
481.795	4493.33
482.166	4538.75
482.537	4640.22
482.908	4717.05
483.279	4818.52
483.65	4861.68
484.021	4986.42
484.391	5078.62
484.762	5156.59
485.133	5218.28
485.503	5342.8
485.874	5419.63
486.244	5531.04
486.615	5626.63
486.985	5732.39
487.356	5908.21
487.726	5989.56
488.097	6133.51
488.467	6246.73
488.837	6418.25
489.207	6559.71
489.578	6611.01
489.948	6775.08
490.318	6938.46
490.688	6953.83
491.058	7213.48
491.428	7329.19
491.798	7478.79
492.168	7666.8
492.538	7845.1
492.908	7980.69
493.278	8170.75
493.648	8206.22
494.017	8354.7
494.387	8556.72
494.757	8738.87
495.126	8844.63
495.496	9025.64
495.866	9218.85
496.235	9412.52
496.605	9651.84
496.974	9785.39
497.344	10017.93
497.713	10146.29
498.082	10291.14
498.452	10542.21
498.821	10725.93
499.19	10890.67
499.559	11027.39
499.928	11292.25
500.298	11500.38
500.667	11772.23
501.036	11877.99
501.405	12124.54
501.774	12323.4
502.143	12561.36
502.512	12775.82
502.88	13053.1
503.249	13228.24
503.618	13503.71
503.987	13686.08
504.356	13907.77
504.724	14106.63
505.093	14347.53
505.462	14562.67
505.83	14728.31
506.199	15019.83
506.567	15399.93
506.936	15436.77
507.304	15831.34
507.672	16130.08
508.041	16203.53
508.409	16537.98
508.777	16695.27
509.145	16958.31
509.514	17158.53
509.882	17391.52
510.25	17540.89
510.618	17876.71
510.986	18070.82
511.354	18292.29
511.722	18648.89
512.09	18850.01
512.458	18869.9
512.826	19326.61
513.193	19486.83
513.561	19737.45
513.929	19885.01
514.297	20145.35
514.664	20434.6
515.032	20552.57
515.4	21019
515.767	21094.02
516.135	21340.34
516.502	21185.32
516.869	21670.73
517.237	21883.38
517.604	21962.47
517.972	22400.2
518.339	22470.93
518.706	22789.12
519.073	22884.48
519.44	23105.27
519.808	23455.54
520.175	23567.4
520.542	23832.71
520.909	24137.56
521.276	24121.06
521.643	24594.49
522.009	24825
522.376	25080.13
522.743	25210.07
523.11	25542.04
523.477	25909.94
523.843	25993.1
524.21	26363.71
524.577	26513.77
524.943	26807.54
525.31	26974.54
525.676	27226.29
526.043	27566.39
526.409	27738.14
526.776	27980.85
527.142	27993.73
527.508	28368.41
527.874	28653.14
528.241	28736.98
528.607	28910.77
528.973	29244.09
529.339	29513.91
529.705	29818.76
530.071	30109.15
530.437	30206.78
530.803	30477.5
531.169	30626.43
531.535	30707.55
531.901	30920.66
532.267	31134.21
532.632	31338.05
532.998	31385.05
533.364	31751.82
533.73	31816.45
534.095	32068.87
534.461	32261.19
534.826	32378.24
535.192	32636.77
535.557	32774.62
535.923	32857.78
536.288	33102.75
536.653	33195.62
537.019	33125.34
537.384	33353.81
537.749	33454.6
538.114	33626.8
538.479	33804.87
538.845	33898.66
539.21	33896.4
539.575	34169.61
539.94	34296.84
540.305	34507
540.67	34396.5
541.034	34805.3
541.399	34802.59
541.764	34942.7
542.129	35017.05
542.494	35238.06
542.858	35355.57
543.223	35213.88
543.587	35469.91
543.952	35494.32
544.316	35780.87
544.681	35577.71
545.045	36009.11
545.41	36105.6
545.774	36148.32
546.138	36178.82
546.503	36302.89
546.867	36478.02
547.231	36625.82
547.595	36678.92
547.959	36825.81
548.324	36880.5
548.688	36972.7
549.052	37185.12
549.416	37107.84
549.779	37262.64
550.143	37401.84
550.507	37695.17
550.871	37937.42
551.235	37857.42
551.599	38266.23
551.962	38284.3
552.326	38422.83
552.689	38515.03
553.053	38289.28
553.417	38564.75
553.78	38985.08
554.143	39005.42
554.507	39141
554.87	39222.81
555.234	39581.45
555.597	39313.43
555.96	39593.87
556.323	39769.24
556.686	39991.83
557.05	40155.44
557.413	40043.81
557.776	40197.25
558.139	40556.11
558.502	40649.67
558.865	40771.92
559.228	41132.59
559.59	41170.78
559.953	41149.99
560.316	41794.27
560.679	41689.64
561.041	41875.62
561.404	42149.06
561.767	42549.95
562.129	42377.53
562.492	42637.64
562.854	42745.66
563.217	42808.7
563.579	42956.05
563.941	43255.92
564.304	43487.56
564.666	43578.18
565.028	43664.73
565.39	43885.74
565.753	44095.45
566.115	44141.1
566.477	44466.97
566.839	44633.29
567.201	44941.98
567.563	44788.09
567.925	45165.25
568.287	45237.34
568.648	45411.8
569.01	45564.79
569.372	46020.6
569.734	45872.13
570.095	46120.71
570.457	46356.41
570.819	46522.28
571.18	46609.51
571.542	46958.2
571.903	47020.35
572.265	47232.32
572.626	47445.87
572.987	47449.94
573.349	47613.32
573.71	47873.43
574.071	48108.68
574.432	48270.48
574.794	48552.51
575.155	48580.98
575.516	48540.08
575.877	48713.86
576.238	48822.11
576.599	49018.03
576.96	49141.87
577.32	49348.42
577.681	49366.72
578.042	49714.96
578.403	49717.22
578.763	49822.76
579.124	50002.64
579.485	50275.18
579.845	50357.66
580.206	50371.22
580.566	50502.29
580.927	50601.95
581.287	50805.56
581.648	50866.57
582.008	51077.87
582.368	51069.5
582.728	51138.43
583.089	51356.05
583.449	51396.95
583.809	51563.5
584.169	51799.2
584.529	51680.34
584.889	52098.63
585.249	52003.04
585.609	51925.75
585.969	52348.57
586.329	52311.51
586.688	52436.7
587.048	52515.12
587.408	52739.74
587.768	52688.67
588.127	52840.98
588.487	52946.74
588.846	53309.22
589.206	53158.49
589.565	53320.29
589.925	53584.24
590.284	53558.93
590.643	53668.98
591.003	53906.72
591.362	54096.54
591.721	54092.93
592.08	54209.54
592.44	54386.03
592.799	54412.24
593.158	54509.87
593.517	54586.25
593.876	54797.32
594.235	54837.32
594.593	54900.59
594.952	55061.49
595.311	55117.53
595.67	55310.07
596.029	55459.45
596.387	55646.11
596.746	55726.56
597.104	55668.03
597.463	55785.09
597.822	56013.78
598.18	55952.09
598.538	56086.55
598.897	56336.94
599.255	56274.11
599.613	56618.74
599.972	56542.81
600.33	56720.66
600.688	56662.8
601.046	56831.39
601.404	57060.76
601.762	57135.79
602.12	57235.9
602.478	57267.53
602.836	57330.36
603.194	57234.77
603.552	57367.64
603.91	57488.54
604.268	57590.24
604.625	57717.24
604.983	57847.41
605.341	57772.38
605.698	58061.64
606.056	58185.93
606.413	58101.18
606.771	58382.76
607.128	58339.14
607.485	58354.06
607.843	58375.75
608.2	58578.01
608.557	58643.77
608.914	58680.83
609.272	58902.29
609.629	59037.88
609.986	59051.22
610.343	59063.64
610.7	59313.58
611.057	59304.09
611.414	59233.13
611.771	59429.96
612.127	59518.32
612.484	59556.74
612.841	59722.38
613.198	59608.04
613.554	59647.81
613.911	59816.85
614.267	59936.84
614.624	59916.05
614.98	60033.79
615.337	60162.37
615.693	60142.94
616.05	60176.84
616.406	60304.06
616.762	60309.49
617.118	60313.78
617.475	60308.58
617.831	60542.48
618.187	60579.76
618.543	60586.99
618.899	60688.91
619.255	60715.8
619.611	60625.19
619.967	60862.69
620.323	60925.06
620.678	60783.6
621.034	60904.95
621.39	60863.82
621.746	60850.94
622.101	61147.66
622.457	61026.98
622.812	61158.73
623.168	61133.87
623.523	61127.09
623.879	61201.89
624.234	61123.7
624.589	61196.02
624.945	61287.09
625.3	61256.81
625.655	61286.86
626.01	61309.01
626.365	61382.91
626.72	61337.26
627.075	61293.87
627.43	61294.55
627.785	61320.31
628.14	61310.59
628.495	61324.38
628.85	61369.12
629.205	61284.15
629.559	61473.3
629.914	61351.72
630.269	61441.66
630.623	61308.78
630.978	61265.17
631.332	61360.08
631.687	61412.06
632.041	61360.08
632.396	61345.62
632.75	61294.55
633.104	61356.47
633.459	61262.68
633.813	61200.09
634.167	61198.96
634.521	61279.63
634.875	61294.55
635.229	61220.42
635.583	61073.54
635.937	61073.76
636.291	61093.65
636.645	61081.44
636.999	60979.07
637.352	61075.8
637.706	60933.88
638.06	61113.31
638.413	60953.99
638.767	60862.92
639.121	60972.3
639.474	60833.09
639.828	60808.01
640.181	60811.62
640.534	60843.26
640.888	60788.57
641.241	60686.65
641.594	60721.23
641.947	60781.57
642.301	60640.1
642.654	60730.72
643.007	60655.92
643.36	60765.52
643.713	60654.56
644.066	60704.28
644.419	60535.7
644.771	60292.09
645.124	60042.15
645.477	60059.78
645.83	59921.7
646.182	59920.12
646.535	59845.77
646.888	59957.86
647.24	59784.53
647.593	59977.52
647.945	59830.63
648.298	59742.5
648.65	59636.96
649.002	59513.35
649.355	59549.28
649.707	59478.55
650.059	59442.62
650.411	59837.64
650.763	59844.42
651.115	60236.95
651.467	60101.36
651.819	60137.74
652.171	60032.21
652.523	59937.97
652.875	60009.38
653.227	59856.17
653.578	60103.62
653.93	60038.31
654.282	59918.76
654.633	59859.33
654.985	59896.84
655.337	59898.43
655.688	59827.92
656.039	59959.21
656.391	59681.93
656.742	59745.89
657.094	59725.77
657.445	59804.87
657.796	59707.24
658.147	59682.61
658.498	59749.28
658.849	59742.04
659.2	59695.49
659.551	59584.08
659.902	59710.18
660.253	59537.3
660.604	59703.4
660.955	59541.82
661.306	59693.68
661.656	59507.25
662.007	59510.64
662.358	59495.72
662.708	59501.83
663.059	59440.81
663.409	59403.52
663.76	59476.97
664.11	59451.66
664.461	59491.2
664.811	59494.37
665.161	59465.67
665.511	59376.86
665.862	59526.46
666.212	59556.51
666.562	59493.24
666.912	59428.83
667.262	59397.65
667.612	59388.16
667.962	59489.62
668.312	59302.96
668.662	59486.68
669.011	59450.3
669.361	59327.37
669.711	59438.55
670.06	59321.94
670.41	59238.33
670.76	59271.1
671.109	59414.6
671.459	59354.03
671.808	59279.46
672.157	59304.32
672.507	59131.44
672.856	59161.5
673.205	59217.99
673.554	59242.85
673.904	59213.47
674.253	59398.1
674.602	59198.56
674.951	58870.2
675.3	58807.83
675.649	59232.23
675.998	59251.21
676.346	59175.51
676.695	59246.92
677.044	59125.34
677.393	59150.87
677.741	59184.55
678.09	59125.79
678.438	59055.96
678.787	59048.5
679.135	59103.64
679.484	58894.16
679.832	59024.1
680.181	58957.88
680.529	58952.24
680.877	58927.83
681.225	58878.79
681.573	59042.18
681.922	58841.28
682.27	58847.83
682.618	58843.54
682.966	58716.76
683.314	58798.79
683.661	58767.83
684.009	58643.77
684.357	58603.54
684.705	58542.53
685.053	58609.87
685.4	58467.28
685.748	58461.4
686.095	58481.29
686.443	58309.09
686.79	58355.64
687.138	58380.5
687.485	58340.27
687.832	58275.87
688.18	58392.48
688.527	58140.05
688.874	58167.17
689.221	58180.73
689.568	58131.69
689.915	58014.18
690.262	58061.19
690.609	58013.73
690.956	57937.8
691.303	57975.31
691.65	57822.55
691.997	57854.86
692.344	57690.57
692.69	57651.03
693.037	57740.74
693.383	57507.98
693.73	57600.18
694.077	57451.71
694.423	57404.25
694.769	57375.33
695.116	57349.11
695.462	57263.47
695.808	57163.58
696.155	57243.81
696.501	56973.76
696.847	57118.39
697.193	56965.17
697.539	57060.99
697.885	56782.12
698.231	56781.9
698.577	56754.78
698.923	56738.51
699.269	56560.89
699.614	56477.05
699.96	56484.05
700.306	56501
700.651	56417.84
700.997	56222.82
701.342	56209.93
701.688	56199.54
702.033	56046.32
702.379	56082.93
702.724	55928.59
703.069	55963.16
703.415	55727.24
703.76	55700.8
704.105	55715.26
704.45	55572.44
704.795	55537.86
705.14	55528.6
705.485	55460.8
705.83	55260.35
706.175	55438.43
706.52	55401.82
706.865	55215.84
707.209	55065.56
707.554	54999.8
707.899	55076.86
708.243	54884.55
708.588	54735.4
708.932	54687.49
709.277	54779.24
709.621	54609.98
709.966	54485.01
710.31	54490.66
710.654	54297.89
710.998	54343.54
711.342	54417.21
711.687	54344.67
712.031	54217.22
712.375	54024.23
712.719	54029.88
713.063	53998.69
713.407	54057.9
713.75	53875.53
714.094	53856.1
714.438	53839.83
714.782	53771.81
715.125	53611.13
715.469	53723.22
715.812	53438.03
716.156	53416.11
716.499	53368.43
716.843	53477.58
717.186	53238.71
717.53	53416.11
717.873	53410.46
718.216	53285.27
718.559	53126.4
718.902	52861.77
719.246	53009.57
719.589	52867.2
719.932	52798.05
720.275	52799.4
720.617	52819.74
720.96	52748.78
721.303	52789.91
721.646	52726.18
721.989	52531.39
722.331	52581.1
722.674	52481.44
723.016	52513.08
723.359	52359.64
723.701	52426.08
724.044	52252.3
724.386	52089.36
724.729	52305.86
725.071	52232.64
725.413	52173.43
725.755	52185.41
726.097	52018.63
726.439	51992.42
726.782	51780.9
727.124	52052.76
727.465	51848.69
727.807	51709.94
728.149	51764.63
728.491	51572.09
728.833	51624.07
729.175	51624.97
729.516	51550.85
729.858	51450.06
730.199	51526.67
730.541	51337.29
730.882	51343.4
731.224	51413.22
731.565	51272.89
731.906	51318.99
732.248	51329.38
732.589	51017.75
732.93	51008.49
733.271	51076.51
733.612	50949.96
733.953	51126.68
734.294	50961.48
734.635	50855.95
734.976	51000.35
735.317	50873.35
735.658	50821.6
735.999	50727.82
736.339	50744.54
736.68	50838.1
737.021	50608.05
737.361	50500.48
737.702	50766.46
738.042	50599.23
738.383	50525.34
738.723	50546.13
739.063	50325.8
739.404	50582.29
739.744	50496.64
740.084	50285.12
740.424	50422.74
740.764	50173.93
741.104	50285.34
741.444	50215.97
741.784	49994.05
742.124	50121.28
742.464	50052.81
742.804	49935.07
743.143	49930.1
743.483	49952.25
743.823	49774.17
744.162	49698.47
744.502	49695.08
744.841	49692.37
745.181	49684.46
745.52	49580.96
745.86	49630.45
746.199	49532.6
746.538	49445.59
746.877	49636.32
747.216	49482.88
747.556	49369.66
747.895	49392.26
748.234	49228.2
748.573	49247.41
748.911	49065.26
749.25	49147.3
749.589	48935.32
749.928	49023
750.267	48985.27
750.605	48824.14
750.944	48824.37
751.283	48760.86
751.621	48789.56
751.96	48617.59
752.298	48656.01
752.636	48594.54
752.975	48458.27
753.313	48320.2
753.651	48486.07
753.989	48188.45
754.327	48262.8
754.666	48008.34
755.004	48121.33
755.342	48016.03
755.679	47908.68
756.017	47740.1
756.355	47860.32
756.693	47659.88
757.031	47849.48
757.368	47362.71
757.706	47423.27
758.044	47234.58
758.381	47369.94
758.719	47192.77
759.056	47220.34
759.394	47054.92
759.731	46708.94
760.068	46748.94
760.405	46643.63
760.743	46497.87
761.08	46539.91
761.417	46369.97
761.754	46209.52
762.091	46178.33
762.428	46024.89
762.765	45677.56
763.102	45782.19
763.438	45687.27
763.775	45477.11
764.112	45383.1
764.449	45333.16
764.785	45223.78
765.122	45087.06
765.458	44843
765.795	44774.08
766.131	44789.9
766.467	44602.56
766.804	44381.32
767.14	44329.12
767.476	44053.19
767.812	44007.09
768.148	44047.77
768.485	43795.35
768.821	43592.87
769.157	43391.51
769.492	43358.52
769.828	43266.09
770.164	42959.89
770.5	42809.61
770.836	42987.46
771.171	42659.1
771.507	42579.33
771.842	42282.17
772.178	42102.73
772.513	41934.38
772.849	42006.92
773.184	41835.85
773.519	41705.01
773.855	41495.52
774.19	41441.28
774.525	41245.36
774.86	41039.26
775.195	40983.89
775.53	40722.88
775.865	40675.88
776.2	40284.03
776.535	40239.51
776.87	40304.82
777.205	40108.89
777.539	39916.35
777.874	39873.19
778.209	39560.88
778.543	39442.01
778.878	39289.25
779.212	39295.58
779.547	39053.1
779.881	38998.86
780.215	38715.48
780.55	38765.42
780.884	38495.6
781.218	38466.67
781.552	38341.7
781.886	38201.14
782.22	37866.91
782.554	37759.12
782.888	37491.56
783.222	37431.9
783.556	37316.42
783.889	37121.17
784.223	36960.5
784.557	36837.34
784.89	36905.81
785.224	36697.91
785.557	36461.75
785.891	36393.05
786.224	36299.27
786.558	36268.99
786.891	36091.14
787.224	35842.11
787.557	35832.62
787.891	35794.65
788.224	35568.67
788.557	35481.44
788.89	35433.98
789.223	35331.39
789.556	34876.03
789.888	34975.01
790.221	34766.2
790.554	34582.03
790.887	34672.87
791.219	34488.02
791.552	34295.26
791.884	34171.42
792.217	34132.32
792.549	34001.03
792.882	33711.32
793.214	33617.53
793.546	33652.11
793.879	33461.15
794.211	33357.43
794.543	33464.32
794.875	33236.08
795.207	33187.94
795.539	32980.49
795.871	32940.26
796.203	32783.88
796.535	32704.34
796.867	32533.27
797.198	32339.38
797.53	32238.14
797.862	32123.79
798.193	32215.99
798.525	32035.2
798.856	32127.4
799.188	31622.11
799.519	31694.65
799.85	31501.21
800.182	31451.94
800.513	31489.45
800.844	31265.28
801.175	31182.34
801.506	31270.93
801.837	30977.6
802.168	31109.35
802.499	30867.55
802.83	30724.5
803.161	30579.42
803.491	30736.03
803.822	30707.55
804.153	30274.8
804.483	30222.37
804.814	30104.41
805.145	30150.28
805.475	30063.96
805.805	29979.44
806.136	30072.09
806.466	29808.59
806.796	29847.69
807.126	29567.92
807.457	29605.89
807.787	29621.93
808.117	29468.26
808.447	29385.78
808.777	29410.64
809.107	29248.38
809.436	29150.31
809.766	29029.18
810.096	28999.58
810.426	28809.98
810.755	28981.05
811.085	28763.88
811.414	28788.51
811.744	28609.3
812.073	28548.74
812.403	28575.86
812.732	28454.73
813.061	28633.71
813.39	28197.34
813.719	28088.41
814.049	28331.8
814.378	28172.25
814.707	27975.2
815.036	27921.41
815.365	27853.62
815.693	27736.33
816.022	27798.03
816.351	27732.04
816.68	27491.37
817.008	27723.68
817.337	27337.93
817.665	27234.65
817.994	27357.36
818.322	27393.07
818.651	27276.01
818.979	27112.39
819.307	27003.24
819.636	27058.61
819.964	26896.13
820.292	26951.27
820.62	26861.1
820.948	26988.1
821.276	27118.95
821.604	26974.54
821.932	27099.29
822.259	26873.98
822.587	26878.5
822.915	26908.11
823.243	26827.43
823.57	26745.62
823.898	27044.83
824.225	26949.69
824.553	26658.85
824.88	26856.81
825.207	26911.27
825.535	26850.48
825.862	26961.89
826.189	26864.49
826.516	27023.81
826.843	26905.17
827.17	26911.72
827.497	26869.46
827.824	26927.31
828.151	27018.84
828.478	26887.54
828.805	26989.69
829.131	26997.37
829.458	26878.95
829.785	26774.32
830.111	26847.77
830.438	27017.26
830.764	26807.54
831.09	26898.61
831.417	26821.78
831.743	27005.05
832.069	26789.01
832.395	26829.24
832.722	26788.11
833.048	26759.41
833.374	26904.94
833.7	26791.05
834.026	26794.66
834.351	26629.7
834.677	26805.06
835.003	26746.98
835.329	26667.43
835.654	26613.2
835.98	26480.32
836.306	26689.35
836.631	26537.72
836.956	26706.53
837.282	26657.49
837.607	26361
837.932	26431.28
838.258	26308.8
838.583	26323.26
838.908	26290.95
839.233	26339.99
839.558	26251.85
839.883	26254.34
840.208	26003.72
840.533	26213.44
840.858	26047.56
841.182	25962.37
841.507	25917.62
841.832	25763.96
842.156	25842.82
842.481	25810.28
842.805	25777.29
843.13	25620.68
843.454	25693.22
843.778	25511.31
844.103	25517.41
844.427	25463.62
844.751	25455.26
845.075	25372.55
845.399	25317.64
845.723	25196.51
846.047	25223.63
846.371	25125.78
846.695	25022.28
847.019	24830.19
847.343	24688.73
847.666	24670.65
847.99	24537.55
848.313	24454.84
848.637	24425.01
848.96	24352.24
849.284	24296.2
849.607	24012.81
849.931	23974.85
850.254	23874.51
850.577	23715.2
850.9	23543.67
851.223	23571.24
851.546	23478.82
851.869	23327.41
852.192	23469.1
852.515	23163.8
852.838	23056
853.161	23059.62
853.483	22917.25
853.806	22923.13
854.129	22912.73
854.451	22818.04
854.774	22608.78
855.096	22758.16
855.419	22489.69
855.741	22487.88
856.063	22449.69
856.385	22320.88
856.708	22273.43
857.03	22272.97
857.352	22117.05
857.674	22151.62
857.996	21999.08
858.318	21873.89
858.64	22021.68
858.961	21884.51
859.283	21784.85
859.605	21685.42
859.926	21720.9
860.248	21517.74
860.57	21488.14
860.891	21443.16
861.212	21437.29
861.534	21291.53
861.855	21324.98
862.176	21278.2
862.498	21275.26
862.819	21265.77
863.14	21091.76
863.461	21061.93
863.782	21067.81
864.103	21019.22
864.424	20923.86
864.745	21003.63
865.065	20894.93
865.386	20834.37
865.707	20814.71
866.027	20707.14
866.348	20682.51
866.668	20623.75
866.989	20585.33
867.309	20545.56
867.63	20505.11
867.95	20590.08
868.27	20489.97
868.59	20606.58
868.91	20384.44
869.23	20372.01
869.55	20293.82
869.87	20334.49
870.19	20219.47
870.51	20296.53
870.83	20289.75
871.15	20171.11
871.469	20174.72
871.789	20193.03
872.109	20111.22
872.428	20083.2
872.748	20126.59
873.067	20049.53
873.386	20052.92
873.706	20019.25
874.025	19982.64
874.344	19829.65
874.663	19920.27
874.982	19818.57
875.301	19834.62
875.62	19702.87
875.939	19686.83
876.258	19665.58
876.577	19566.6
876.896	19603.89
877.214	19575.87
877.533	19521.41
877.852	19526.38
878.17	19570.22
878.489	19442.99
878.807	19379.94
879.125	19469.21
879.444	19361.19
879.762	19264.69
880.08	19385.59
880.398	19159.38
880.716	19252.71
881.034	19175.65
881.352	19202.77
881.67	19050.46
881.988	19087.52
882.306	18982.21
882.624	18964.13
882.941	18884.36
883.259	18936.11
883.577	18972.04
883.894	18795.78
884.212	18860.86
884.529	18732.28
884.846	18615.44
885.164	18530.02
885.481	18624.93
885.798	18589.91
886.115	18394.43
886.432	18513.07
886.75	18405.05
887.067	18542
887.383	18400.76
887.7	18336.13
888.017	18195.11
888.334	18178.62
888.651	18208.67
888.967	18116.7
889.284	18079.64
889.6	18075.12
889.917	17926.2
890.233	17988.34
890.55	17848.91
890.866	17798.06
891.182	17780.66
891.498	17758.06
891.815	17667.9
892.131	17610.5
892.447	17613.44
892.763	17510.84
893.079	17438.3
893.395	17429.49
893.71	17398.07
894.026	17329.6
894.342	17318.75
894.657	17216.16
894.973	17202.6
895.289	17220.68
895.604	17097.06
895.92	16968.93
896.235	16994.02
896.55	16857.75
896.865	16747.47
897.181	16801.48
897.496	16774.14
897.811	16652.1
898.126	16640.35
898.441	16490.07
898.756	16556.06
899.071	16396.74
899.386	16459.79
899.7	16199.69
900.015	16162.85
900.33	16090.99
900.644	16160.37
900.959	16142.29
901.273	16015.06
901.588	15982.29
901.902	15890.77
902.216	15795.4
902.531	15803.77
902.845	15742.98
903.159	15634.28
903.473	15541.17
903.787	15448.29
904.101	15466.37
904.415	15508.86
904.729	15260.28
905.042	15312.93
905.356	15236.55
905.67	15206.72
905.984	15242.2
906.297	15139.6
906.611	15015.54
906.924	15004.24
907.237	15017.12
907.551	14858.48
907.864	14831.59
908.177	14848.08
908.491	14660.52
908.804	14619.62
909.117	14633.4
909.43	14451.71
909.743	14426.85
910.056	14459.62
910.368	14349.57
910.681	14326.97
910.994	14285.61
911.307	14199.29
911.619	14062.12
911.932	14156.35
912.244	14040.65
912.557	13856.25
912.869	13843.14
913.181	13832.74
913.494	13818.96
913.806	13668.23
914.118	13729.47
914.43	13593.2
914.742	13573.54
915.054	13490.83
915.366	13444.73
915.678	13392.76
915.99	13385.98
916.302	13298.75
916.613	13150.28
916.925	13181.91
917.236	13176.72
917.548	13063.27
917.859	12938.98
918.171	12957.29
918.482	12848.14
918.794	12788.03
919.105	12800.23
919.416	12686.56
919.727	12673.68
920.038	12629.84
920.349	12507.13
920.66	12439.56
920.971	12447.92
921.282	12426.23
921.593	12307.81
921.903	12286.34
922.214	12262.62
922.525	12204.99
922.835	12179.23
923.146	11973.58
923.456	12016.29
923.767	11978.33
924.077	11960.93
924.387	11922.74
924.697	11831.44
925.008	11770.88
925.318	11730.88
925.628	11704.66
925.938	11646.13
926.248	11590.54
926.558	11494.95
926.867	11430.77
927.177	11371.11
927.487	11356.2
927.796	11324.79
928.106	11325.46
928.416	11227.61
928.725	11105.13
929.034	11114.4
929.344	11110.1
929.653	10982.42
929.962	10949.66
930.271	10969.99
930.581	10894.97
930.89	10850
931.199	10791.24
931.508	10811.58
931.817	10748.53
932.125	10651.81
932.434	10647.74
932.743	10568.42
933.051	10561.87
933.36	10447.75
933.669	10327.75
933.977	10406.85
934.286	10371.37
934.594	10236
934.902	10266.06
935.21	10149.22
935.519	10155.78
935.827	10116.91
936.135	10079.85
936.443	9992.84
936.751	9926.86
937.059	9930.25
937.367	9888.44
937.674	9798.95
937.982	9794.43
938.29	9769.12
938.597	9742
938.905	9609.58
939.213	9606.41
939.52	9587.88
939.827	9613.87
940.135	9547.21
940.442	9473.54
940.749	9429.02
941.056	9407.78
941.363	9359.41
941.67	9293.65
941.977	9215.92
942.284	9179.76
942.591	9244.62
942.898	9163.04
943.205	9177.05
943.511	9020.67
943.818	9033.55
944.125	8882.14
944.431	8896.6
944.738	8863.38
945.044	8859.54
945.35	8765.08
945.657	8775.02
945.963	8647.57
946.269	8646.67
946.575	8661.35
946.881	8618.19
947.187	8559.89
947.493	8469.49
947.799	8490.06
948.105	8462.49
948.41	8423.17
948.716	8440.8
949.022	8339.55
949.327	8341.81
949.633	8230.41
949.938	8204.64
950.244	8177.75
950.549	8134.36
950.854	8111.76
951.16	8072.44
951.465	8054.36
951.77	8064.53
952.075	7903.63
952.38	7971.2
952.685	7927.14
952.99	7872.9
953.294	7840.13
953.599	7758.1
953.904	7701.15
954.209	7747.03
954.513	7709.51
954.818	7739.34
955.122	7677.43
955.426	7622.06
955.731	7589.07
956.035	7522.63
956.339	7493.93
956.643	7484.89
956.948	7406.02
957.252	7396.75
957.556	7382.29
957.86	7312.01
958.163	7274.5
958.467	7267.49
958.771	7214.16
959.075	7193.14
959.378	7129.42
959.682	7124.9
959.985	7020.49
960.289	7032.7
960.592	7032.24
960.896	7014.17
961.199	7000.38
961.502	6934.39
961.805	6918.8
962.108	6849.42
962.411	6829.09
962.714	6800.61
963.017	6704.34
963.32	6799.26
963.623	6718.58
963.926	6690.56
964.228	6670.22
964.531	6611.46
964.833	6650.56
965.136	6592.48
965.438	6496.44
965.741	6512.94
966.043	6416.89
966.345	6420.06
966.648	6433.39
966.95	6435.2
967.252	6361.08
967.554	6288.76
967.856	6306.16
968.158	6294.86
968.46	6291.47
968.761	6197.92
969.063	6212.38
969.365	6158.82
969.666	6163.57
969.968	6098.94
970.269	6065.72
970.571	6017.36
970.872	6014.64
971.174	6004.93
971.475	5948.21
971.776	5943.46
972.077	5933.29
972.378	5917.02
972.679	5865.5
972.98	5822.78
973.281	5805.61
973.582	5809.9
973.883	5791.83
974.183	5726.52
974.484	5740.75
974.785	5674.31
975.085	5664.6
975.386	5657.14
975.686	5639.96
975.986	5601.55
976.287	5596.35
976.587	5534.88
976.887	5510.93
977.187	5550.48
977.487	5427.54
977.787	5432.96
978.087	5370.37
978.387	5343.48
978.687	5367.43
978.987	5331.5
979.286	5295.12
979.586	5263.48
979.885	5228.68
980.185	5209.47
980.484	5108
980.784	5160.66
981.083	5170.6
981.382	5129.02
981.682	5161.56
981.981	5063.48
982.28	5118.62
982.579	5023.48
982.878	5052.41
983.177	4989.13
983.475	4961.11
983.774	4949.36
984.073	4929.02
984.372	4917.27
984.67	4883.37
984.969	4852.41
985.267	4837.5
985.566	4788.24
985.864	4775.13
986.162	4762.02
986.461	4735.58
986.759	4754.56
987.057	4690.16
987.355	4662.36
987.653	4637.73
987.951	4606.32
988.249	4564.06
988.547	4566.32
988.844	4557.28
989.142	4515.47
989.44	4482.48
989.737	4502.82
990.035	4455.59
990.332	4447.91
990.63	4436.61
990.927	4428.02
991.224	4367.46
991.521	4409.26
991.819	4331.52
992.116	4283.62
992.413	4291.07
992.71	4255.37
993.006	4243.84
993.303	4228.48
993.6	4225.99
993.897	4177.18
994.193	4194.58
994.49	4158.42
994.787	4161.59
995.083	4122.04
995.379	4109.61
995.676	4040.01
995.972	4043.17
996.268	4003.4
996.565	4015.15
996.861	3931.99
997.157	3975.38
997.453	3948.94
997.749	3935.83
998.044	3912.55
998.34	3865.55
998.636	3857.41
998.932	3881.37
999.227	3847.92
999.523	3813.35
999.818	3762.5
1000.114	3757.3
1000.409	3733.57
1000.704	3697.64
1001	3644.08
1001.295	3640.02
1001.59	3621.94
1001.885	3667.81
1002.18	3586.01
1002.475	3585.33
1002.77	3599.57
1003.065	3526.8
1003.359	3538.55
1003.654	3513.24
1003.949	3473.69
1004.243	3455.62
1004.538	3431.44
1004.832	3433.02
1005.127	3400.02
1005.421	3383.07
1005.715	3358.22
1006.009	3380.59
1006.304	3315.73
1006.598	3319.57
1006.892	3276.19
1007.186	3236.86
1007.48	3222.85
1007.773	3195.96
1008.067	3218.79
1008.361	3213.36
1008.655	3202.06
1008.948	3132.69
1009.242	3134.95
1009.535	3076.64
1009.829	3089.07
1010.122	3065.34
1010.415	3064.21
1010.708	3047.04
1011.001	2973.59
1011.295	2979.47
1011.588	2941.05
1011.881	2945.57
1012.173	2941.28
1012.466	2955.97
1012.759	2935.18
1013.052	2932.69
1013.344	2884.56
1013.637	2830.1
1013.93	2841.17
1014.222	2783.54
1014.514	2796.88
1014.807	2753.03
1015.099	2764.56
1015.391	2725.69
1015.683	2708.06
1015.976	2701.74
1016.268	2689.08
1016.56	2628.29
1016.851	2659.25
1017.143	2640.04
1017.435	2615.64
1017.727	2573.83
1018.018	2562.98
1018.31	2569.54
1018.602	2542.19
1018.893	2539.71
1019.185	2493.15
1019.476	2477.34
1019.767	2484.12
1020.058	2439.6
1020.35	2424.23
1020.641	2412.03
1020.932	2392.14
1021.223	2386.04
1021.514	2366.6
1021.804	2327.96
1022.095	2343.78
1022.386	2344.91
1022.677	2321.41
1022.967	2285.93
1023.258	2268.98
1023.548	2267.85
1023.839	2267.62
1024.129	2223.33
1024.419	2184.69
1024.709	2177.68
1025	2170.45
1025.29	2179.26
1025.58	2165.93
1025.87	2103.33
1026.16	2117.12
1026.449	2075.31
1026.739	2059.04
1027.029	2065.37
1027.319	2044.8
1027.608	2040.51
1027.898	2006.16
1028.187	1988.31
1028.477	2021.98
1028.766	1981.08
1029.055	1946.95
1029.344	1961.64
1029.634	1926.39
1029.923	1921.19
1030.212	1895.43
1030.501	1902.44
1030.79	1882.55
1031.078	1835.09
1031.367	1877.58
1031.656	1851.82
1031.945	1834.19
1032.233	1803.68
1032.522	1828.54
1032.81	1773.85
1033.099	1774.08
1033.387	1761.65
1033.675	1739.95
1033.963	1708.09
1034.251	1732.95
1034.54	1684.14
1034.828	1706.28
1035.116	1670.8
1035.403	1678.49
1035.691	1636.91
1035.979	1647.08
1036.267	1646.62
1036.554	1624.25
1036.842	1593.74
1037.129	1603.46
1037.417	1580.41
1037.704	1569.79
1037.992	1560.75
1038.279	1544.03
1038.566	1558.26
1038.853	1558.26
1039.14	1558.26
