Data from 14-0848_FLMS001491_008.txt Node
Date: Thu Apr 19 16:08:25 BST 2018
User: hsy
Spectrometer: FLMS00149
Trigger mode: 0
Integration Time (sec): 1.000000E-2
Scans to average: 10
Electric dark correction enabled: true
Nonlinearity correction enabled: false
Boxcar width: 0
XAxis mode: Wavelengths
Number of Pixels in Spectrum: 2048
>>>>>Begin Spectral Data<<<<<
341.393	-13.94
341.776	-13.94
342.16	-13.94
342.543	-75.18
342.927	-58.91
343.31	-80.83
343.693	-70.66
344.077	-74.96
344.46	-43.77
344.843	-38.57
345.226	-51.91
345.61	-16.65
345.993	-15.52
346.376	2.56
346.759	1.2
347.142	24.02
347.525	26.51
347.908	59.5
348.291	72.16
348.674	96.79
349.057	110.12
349.44	117.81
349.823	150.8
350.206	178.6
350.588	250.01
350.971	250.69
351.354	265.15
351.737	280.52
352.119	278.03
352.502	292.27
352.884	316.45
353.267	319.61
353.65	317.8
354.032	322.32
354.414	358.93
354.797	347.86
355.179	363.68
355.562	363.22
355.944	369.33
356.326	352.6
356.709	364.58
357.091	379.04
357.473	372.49
357.855	369.78
358.238	386.73
358.62	396.67
359.002	394.41
359.384	385.6
359.766	369.1
360.148	390.79
360.53	389.89
360.912	374.75
361.294	391.7
361.676	377.46
362.057	373.62
362.439	363.45
362.821	366.61
363.203	373.17
363.584	384.02
363.966	360.51
364.348	383.11
364.729	379.95
365.111	338.59
365.493	365.48
365.874	354.41
366.256	362.32
366.637	367.97
367.019	342.89
367.4	360.97
367.781	357.8
368.163	392.83
368.544	372.04
368.925	360.51
369.306	377.69
369.688	345.37
370.069	365.48
370.45	371.36
370.831	351.02
371.212	367.97
371.593	385.15
371.974	368.2
372.355	364.13
372.736	377.91
373.117	374.75
373.498	366.39
373.879	385.6
374.26	373.62
374.641	368.65
375.021	382.66
375.402	384.92
375.783	383.34
376.163	379.04
376.544	392.6
376.925	369.55
377.305	399.61
377.686	390.79
378.066	379.27
378.447	393.73
378.827	409.1
379.208	408.42
379.588	387.63
379.968	407.07
380.349	400.06
380.729	415.65
381.109	421.3
381.489	410.68
381.87	424.01
382.25	425.82
382.63	419.72
383.01	411.81
383.39	398.93
383.77	417.69
384.15	450
384.53	436.67
384.91	419.49
385.29	419.27
385.67	435.54
386.049	443
386.429	425.14
386.809	431.25
387.189	467.18
387.568	441.41
387.948	439.61
388.328	460.85
388.707	468.98
389.087	466.05
389.466	461.75
389.846	443.67
390.225	477.12
390.605	473.73
390.984	458.82
391.363	456.1
391.743	488.87
392.122	461.75
392.501	472.15
392.881	483.9
393.26	479.15
393.639	495.88
394.018	497.91
394.397	493.62
394.776	494.52
395.155	474.86
395.534	507.4
395.913	502.66
396.292	494.75
396.671	525.71
397.05	504.46
397.429	539.04
397.808	515.76
398.186	533.84
398.565	523.67
398.944	544.01
399.323	527.74
399.701	544.46
400.08	547.63
400.458	523.67
400.837	542.66
401.215	552.82
401.594	555.31
401.972	523.67
402.351	553.73
402.729	548.3
403.107	551.92
403.486	564.58
403.864	577.46
404.242	580.85
404.62	587.63
404.999	587.85
405.377	576.78
405.755	591.24
406.133	603.9
406.511	576.78
406.889	626.49
407.267	611.35
407.645	624.91
408.023	646.38
408.401	637.34
408.779	641.41
409.156	628.75
409.534	645.7
409.912	661.75
410.29	660.39
410.667	676.66
411.045	700.39
411.422	681.41
411.8	671.24
412.178	711.69
412.555	702.43
412.933	705.59
413.31	734.51
413.687	720.05
414.065	727.28
414.442	743.78
414.819	772.48
415.197	781.07
415.574	796.66
415.951	788.07
416.328	789.2
416.705	797.56
417.082	808.86
417.46	818.13
417.837	810.67
418.214	804.12
418.591	831.24
418.967	820.61
419.344	819.71
419.721	834.62
420.098	861.52
420.475	826.26
420.852	824.68
421.228	838.01
421.605	850.44
421.982	866.49
422.358	880.95
422.735	897.45
423.111	873.72
423.488	893.15
423.864	868.3
424.241	915.98
424.617	918.46
424.994	905.36
425.37	921.63
425.746	951.91
426.123	920.27
426.499	952.14
426.875	944.68
427.251	980.38
427.627	984.68
428.003	1007.28
428.379	1010.89
428.756	999.59
429.132	999.37
429.507	1031.91
429.883	1022.64
430.259	1061.06
430.635	1055.86
431.011	1073.49
431.387	1082.08
431.763	1120.95
432.138	1094.05
432.514	1120.72
432.89	1118.23
433.265	1130.89
433.641	1156.88
434.016	1178.34
434.392	1169.31
434.767	1198.91
435.143	1200.04
435.518	1196.88
435.894	1210.43
436.269	1233.71
436.644	1240.04
437.02	1230.32
437.395	1257.21
437.77	1265.8
438.145	1290.88
438.52	1282.07
438.895	1306.7
439.271	1303.77
439.646	1322.75
440.021	1353.26
440.395	1315.97
440.77	1338.57
441.145	1351.45
441.52	1362.07
441.895	1378.11
442.27	1369.07
442.645	1421.5
443.019	1394.84
443.394	1408.4
443.769	1398.9
444.143	1379.7
444.518	1414.95
444.892	1436.19
445.267	1440.48
445.641	1421.05
446.016	1461.28
446.39	1448.62
446.764	1470.77
447.139	1494.04
447.513	1505.79
447.887	1490.65
448.262	1491.56
448.636	1474.83
449.01	1524.55
449.384	1536.75
449.758	1551.67
450.132	1541.5
450.506	1581.05
450.88	1598.9
451.254	1572.01
451.628	1613.59
452.002	1633.02
452.376	1635.96
452.75	1656.3
453.123	1659.46
453.497	1705.11
453.871	1720.93
454.244	1741.72
454.618	1720.25
454.992	1747.82
455.365	1804.54
455.739	1828.5
456.112	1833.24
456.486	1825.33
456.859	1835.73
457.232	1883.41
457.606	1911.88
457.979	1902.39
458.352	1974.93
458.725	1957.99
459.099	1991.2
459.472	2043.63
459.845	2028.94
460.218	2050.86
460.591	2102.39
460.964	2106
461.337	2126.79
461.71	2161.82
462.083	2193.91
462.456	2205.21
462.829	2208.15
463.201	2251.08
463.574	2272.1
463.947	2313
464.32	2315.94
464.692	2346.68
465.065	2348.48
465.438	2409.05
465.81	2403.4
466.183	2407.46
466.555	2467.12
466.928	2502.15
467.3	2498.31
467.672	2510.74
468.045	2588.03
468.417	2576.73
468.789	2612.88
469.161	2638.87
469.534	2701.92
469.906	2746.89
470.278	2712.99
470.65	2798.42
471.022	2818.75
471.394	2831.41
471.766	2873.67
472.138	2906.21
472.51	2989.6
472.882	3000.22
473.253	3045.64
473.625	3095.13
473.997	3145.07
474.369	3191.63
474.74	3235.01
475.112	3270.72
475.484	3312.98
475.855	3382.81
476.227	3421.9
476.598	3526.08
476.97	3535.8
477.341	3592.52
477.713	3658.73
478.084	3688.34
478.455	3785.28
478.827	3807.2
479.198	3922.68
479.569	3982.34
479.94	4052.62
480.311	4130.36
480.682	4209.23
481.053	4294.19
481.424	4398.83
481.795	4429.56
482.166	4504.58
482.537	4601.53
482.908	4690.34
483.279	4794.07
483.65	4869.32
484.021	4981.63
484.391	5070.45
484.762	5128.3
485.133	5215.98
485.503	5318.12
485.874	5433.37
486.244	5499.36
486.615	5655.29
486.985	5752.91
487.356	5842.85
487.726	5945.23
488.097	6097.99
488.467	6241.94
488.837	6340.24
489.207	6445.78
489.578	6614.13
489.948	6731.87
490.318	6872.88
490.688	6949.27
491.058	7122.14
491.428	7281.46
491.798	7325.3
492.168	7632.64
492.538	7700.43
492.908	7832.18
493.278	8047.99
493.648	8166.64
494.017	8309.91
494.387	8437.81
494.757	8615.89
495.126	8783.57
495.496	8922.32
495.866	9080.74
496.235	9291.35
496.605	9459.26
496.974	9546.03
497.344	9808.85
497.713	9971.56
498.082	10207.03
498.452	10323.87
498.821	10446.58
499.19	10560.92
499.559	10844.98
499.928	11006.79
500.298	11080.68
500.667	11360.68
501.036	11412.43
501.405	11752.08
501.774	11826.88
502.143	12148.9
502.512	12270.26
502.88	12559.29
503.249	12689.45
503.618	12890.13
503.987	12975.32
504.356	13303
504.724	13422.09
505.093	13637.9
505.462	13793.15
505.83	14024.33
506.199	14184.33
506.567	14471.78
506.936	14599.46
507.304	14917.64
507.672	15005.33
508.041	15147.92
508.409	15460.46
508.777	15631.3
509.145	15796.04
509.514	15931.18
509.882	16196.93
510.25	16364.16
510.618	16590.14
510.986	16647.54
511.354	16988.1
511.722	17170.47
512.09	17471.02
512.458	17431.25
512.826	17734.75
513.193	17931.35
513.561	18157.56
513.929	18266.93
514.297	18463.31
514.664	18770.42
515.032	18849.97
515.4	19108.04
515.767	19132
516.135	19391.43
516.502	19385.78
516.869	19751.87
517.237	19982.82
517.604	19889.94
517.972	20348.69
518.339	20373.32
518.706	20609.7
519.073	20644.5
519.44	20811.5
519.808	21107.31
520.175	21261.43
520.542	21575.32
520.909	21681.53
521.276	21799.95
521.643	22047.85
522.009	22255.53
522.376	22451.01
522.743	22623.2
523.11	22998.34
523.477	23160.37
523.843	23351.32
524.21	23537.53
524.577	23768.71
524.943	23974.81
525.31	24115.37
525.676	24348.58
526.043	24704.73
526.409	24809.36
526.776	24908.57
527.142	25061.78
527.508	25304.49
527.874	25574.54
528.241	25734.08
528.607	25802.78
528.973	26199.83
529.339	26083.23
529.705	26536.55
530.071	26655.64
530.437	26810.44
530.803	27175.4
531.169	27209.52
531.535	27412.46
531.901	27466.92
532.267	27647.71
532.632	27811.77
532.998	27922.27
533.364	28174.02
533.73	28138.54
534.095	28464.86
534.461	28493.56
534.826	28598.19
535.192	28769.48
535.557	29045.41
535.923	29057.61
536.288	29195.01
536.653	29486.07
537.019	29294.44
537.384	29560.65
537.749	29623.47
538.114	29698.5
538.479	29780.08
538.845	29846.29
539.21	29831.83
539.575	29954.99
539.94	30107.3
540.305	30215.55
540.67	30302.78
541.034	30531.92
541.399	30484.47
541.764	30743.67
542.129	30711.81
542.494	30863.89
542.858	30958.35
543.223	30879.71
543.587	31160.38
543.952	31116.77
544.316	31171.91
544.681	31286.48
545.045	31535.06
545.41	31550.88
545.774	31565.79
546.138	31542.29
546.503	31773.47
546.867	31810.76
547.231	31921.94
547.595	31992.9
547.959	32168.49
548.324	32252.33
548.688	32300.46
549.052	32344.3
549.416	32345.43
549.779	32511.08
550.143	32504.98
550.507	32795.37
550.871	32968.7
551.235	32813.9
551.599	33252.98
551.962	33158.75
552.326	33248.24
552.689	33349.7
553.053	33254.11
553.417	33474.22
553.78	33822.91
554.143	33817.94
554.507	33852.51
554.87	33951.72
555.234	34307.87
555.597	34064.03
555.96	34103.35
556.323	34273.52
556.686	34411.14
557.05	34658.14
557.413	34700.63
557.776	34806.84
558.139	35043.44
558.502	35108.53
558.865	35145.59
559.228	35377.45
559.59	35544.22
559.953	35618.34
560.316	36012.23
560.679	35933.14
561.041	36093.13
561.404	36326.35
561.767	36618.32
562.129	36417.42
562.492	36790.06
562.854	36738.09
563.217	36789.61
563.579	36935.14
563.941	37262.59
564.304	37319.77
564.666	37642.02
565.028	37684.28
565.39	37812.86
565.753	38048.56
566.115	38114.1
566.477	38242
566.839	38414.2
567.201	38824.36
567.563	38547.76
567.925	38923.79
568.287	38883.34
568.648	39109.32
569.01	39264.8
569.372	39627.5
569.734	39525.81
570.095	39889.87
570.457	40049.64
570.819	40148.62
571.18	40130.31
571.542	40448.72
571.903	40370.76
572.265	40733.01
572.626	40977.98
572.987	41033.12
573.349	41292.54
573.71	41347.01
574.071	41597.62
574.432	41762.81
574.794	42092.98
575.155	42243.25
575.516	42013.66
575.877	42397.83
576.238	42352.18
576.599	42584.04
576.96	42660.42
577.32	42836.68
577.681	42996.68
578.042	43208.88
578.403	43268.09
578.763	43300.18
579.124	43471.92
579.485	43725.93
579.845	44076.88
580.206	43992.36
580.566	44107.39
580.927	44117.55
581.287	44436.87
581.648	44287.49
582.008	44654.26
582.368	44767.48
582.728	44952.79
583.089	44878.21
583.449	45061.03
583.809	45200.92
584.169	45470.51
584.529	45306
584.889	45758.87
585.249	45549.61
585.609	45740.34
585.969	45986.88
586.329	45859.88
586.688	46253.54
587.048	46242.02
587.408	46444.05
587.768	46484.05
588.127	46741.21
588.487	46675
588.846	47270.69
589.206	46920.64
589.565	47053.07
589.925	47383.46
590.284	47604.92
590.643	47701.42
591.003	47702.55
591.362	48055.98
591.721	48080.16
592.08	48198.8
592.44	48478.34
592.799	48412.58
593.158	48580.94
593.517	48688.06
593.876	48910.2
594.235	48984.32
594.593	49039.91
594.952	49301.6
595.311	49298.44
595.67	49457.75
596.029	49755.37
596.387	49901.13
596.746	50143.16
597.104	49944.97
597.463	50068.58
597.822	50418.41
598.18	50316.94
598.538	50514.22
598.897	50735.01
599.255	50646.42
599.613	51114.21
599.972	51064.94
600.33	51088.67
600.688	51193.98
601.046	51380.19
601.404	51724.81
601.762	51691.82
602.12	51868.76
602.478	51923.45
602.836	52100.85
603.194	51828.31
603.552	52108.76
603.91	52207.51
604.268	52262.43
604.625	52292.71
604.983	52597.78
605.341	52450.89
605.698	52783.32
606.056	52975.4
606.413	52907.15
606.771	53064.21
607.128	53100.6
607.485	53072.8
607.843	53170.65
608.2	53412.23
608.557	53503.52
608.914	53513.01
609.272	53647.25
609.629	53856.51
609.986	53982.83
610.343	53912.55
610.7	54216.95
611.057	54151.19
611.414	54105.31
611.771	54303.28
612.127	54413.33
612.484	54481.8
612.841	54513.21
613.198	54493.55
613.554	54543.5
613.911	54774.9
614.267	54819.19
614.624	54868.46
614.98	54976.25
615.337	55157.72
615.693	55077.72
616.05	55140.09
616.406	55345.06
616.762	55297.37
617.118	55359.07
617.475	55319.75
617.831	55522
618.187	55461.21
618.543	55605.16
618.899	55753.86
619.255	55682.9
619.611	55685.84
619.967	55823.24
620.323	55961.54
620.678	55844.7
621.034	55880.86
621.39	55945.04
621.746	55896.45
622.101	56242.89
622.457	55943.91
622.812	56178.71
623.168	56225.48
623.523	56291.47
623.879	56301.64
624.234	56206.28
624.589	56319.95
624.945	56329.66
625.3	56410.79
625.655	56366.05
626.01	56410.34
626.365	56466.61
626.72	56397.23
627.075	56470.22
627.43	56382.09
627.785	56412.82
628.14	56435.87
628.495	56533.05
628.85	56578.24
629.205	56452.6
629.559	56514.52
629.914	56452.37
630.269	56469.32
630.623	56377.12
630.978	56359.94
631.332	56488.53
631.687	56453.28
632.041	56458.47
632.396	56472.26
632.75	56398.59
633.104	56443.56
633.459	56304.58
633.813	56296.67
634.167	56219.38
634.521	56286.05
634.875	56324.69
635.229	56316.78
635.583	56194.07
635.937	56163.11
636.291	56236.33
636.645	56191.59
636.999	56040.63
637.352	56177.12
637.706	55968.54
638.06	56168.99
638.413	56036.11
638.767	56015.09
639.121	56043.12
639.474	55851.03
639.828	55915.89
640.181	55865.27
640.534	56013.51
640.888	55861.2
641.241	55741.88
641.594	55741.2
641.947	55898.71
642.301	55715.22
642.654	55814.65
643.007	55685.16
643.36	55698.27
643.713	55630.92
644.066	55797.47
644.419	55537.37
644.771	55297.6
645.124	55038.62
645.477	55041.56
645.83	54905.75
646.182	54884.96
646.535	54798.18
646.888	54866.65
647.24	54759.99
647.593	54950.72
647.945	54829.14
648.298	54745.52
648.65	54611.97
649.002	54516.15
649.355	54505.08
649.707	54381.01
650.059	54352.09
650.411	54753.21
650.763	54915.46
651.115	55242.23
651.467	55177.6
651.819	55148.68
652.171	55080.2
652.523	55047.44
652.875	54985.74
653.227	54941.9
653.578	55110.49
653.93	55044.5
654.282	54883.83
654.633	54875.69
654.985	54942.13
655.337	54898.74
655.688	54861
656.039	54988.91
656.391	54701.68
656.742	54781.23
657.094	54753.43
657.445	54769.25
657.796	54813.09
658.147	54742.59
658.498	54831.4
658.849	54868.01
659.2	54709.14
659.551	54635.92
659.902	54830.95
660.253	54653.55
660.604	54826.88
660.955	54628.24
661.306	54784.84
661.656	54632.76
662.007	54723.83
662.358	54641.57
662.708	54665.07
663.059	54668.46
663.409	54484.29
663.76	54618.07
664.11	54687.9
664.461	54739.2
664.811	54662.14
665.161	54595.47
665.511	54492.88
665.862	54588.47
666.212	54645.64
666.562	54604.51
666.912	54509.37
667.262	54485.64
667.612	54556.38
667.962	54563.61
668.312	54489.71
668.662	54623.04
669.011	54590.5
669.361	54521.35
669.711	54553.44
670.06	54533.78
670.41	54350.05
670.76	54389.83
671.109	54470.05
671.459	54395.02
671.808	54465.53
672.157	54395.48
672.507	54283.62
672.856	54304.41
673.205	54254.46
673.554	54405.87
673.904	54221.47
674.253	54459.66
674.602	54304.63
674.951	53872.1
675.3	53848.37
675.649	54315.93
675.998	54234.58
676.346	54274.12
676.695	54306.67
677.044	54057.86
677.393	54220.57
677.741	54255.14
678.09	54196.61
678.438	54043.4
678.787	54137.4
679.135	54181.92
679.484	53919.33
679.832	54078.65
680.181	53979.44
680.529	54048.59
680.877	53903.74
681.225	53934.25
681.573	53988.03
681.922	53896.05
682.27	53812.89
682.618	53763.18
682.966	53693.8
683.314	53784.87
683.661	53769.05
684.009	53586.46
684.357	53582.62
684.705	53545.78
685.053	53537.87
685.4	53285
685.748	53348.27
686.095	53440.93
686.443	53149.18
686.79	53258.56
687.138	53357.99
687.485	53290.87
687.832	53172.01
688.18	53176.07
688.527	53082.97
688.874	52995.29
689.221	53095.62
689.568	52911.22
689.915	52832.35
690.262	52903.31
690.609	52872.58
690.956	52668.06
691.303	52750.32
691.65	52579.25
691.997	52567.05
692.344	52436.66
692.69	52304.91
693.037	52403.44
693.383	52202.54
693.73	52238.02
694.077	52114.63
694.423	52024.24
694.769	51946.05
695.116	51878.25
695.462	51792.83
695.808	51642.33
696.155	51777.69
696.501	51492.5
696.847	51638.94
697.193	51327.53
697.539	51325.95
697.885	51117.6
698.231	51030.37
698.577	51050.25
698.923	51010.93
699.269	50635.12
699.614	50805.29
699.96	50531.62
700.306	50517.61
700.651	50436.71
700.997	50230.61
701.342	50266.77
701.688	50100.9
702.033	50001.69
702.379	50046.21
702.724	49889.38
703.069	49909.27
703.415	49526
703.76	49392.44
704.105	49478.32
704.45	49308.38
704.795	49204.65
705.14	49056.18
705.485	49155.61
705.83	48884.43
706.175	48985.45
706.52	48894.15
706.865	48719.47
707.209	48571.45
707.554	48483.09
707.899	48615.74
708.243	48344.79
708.588	48266.37
708.932	48015.98
709.277	48054.85
709.621	47961.97
709.966	47684.24
710.31	47713.62
710.654	47498.71
710.998	47655.77
711.342	47553.4
711.687	47468.43
712.031	47325.61
712.375	47083.8
712.719	47174.88
713.063	47082.67
713.407	47219.85
713.75	46972.62
714.094	46790.48
714.438	46742.8
714.782	46824.15
715.125	46507.1
715.469	46747.99
715.812	46287.44
716.156	46333.54
716.499	46462.58
716.843	46592.97
717.186	46233.66
717.53	46381.22
717.873	46371.28
718.216	46118.63
718.559	46024.62
718.902	45618.53
719.246	45851.07
719.589	45859.43
719.932	45689.26
720.275	45722.94
720.617	45699.89
720.96	45378.76
721.303	45469.84
721.646	45549.38
721.989	45208.6
722.331	45388.48
722.674	45215.15
723.016	45245.21
723.359	45062.61
723.701	45174.93
724.044	45009.73
724.386	44825.11
724.729	44874.37
725.071	44814.71
725.413	44840.7
725.755	44679.35
726.097	44700.36
726.439	44647.71
726.782	44578.33
727.124	44734.94
727.465	44574.49
727.807	44257.21
728.149	44412.01
728.491	44344.67
728.833	44416.08
729.175	44360.03
729.516	44241.39
729.858	44172.02
730.199	44231
730.541	44087.5
730.882	44200.04
731.224	44018.35
731.565	43894.51
731.906	43993.72
732.248	43993.94
732.589	43729.77
732.93	43779.94
733.271	43799.82
733.612	43776.55
733.953	43915.75
734.294	43739.26
734.635	43599.15
734.976	43832.14
735.317	43562.09
735.658	43593.73
735.999	43394.41
736.339	43436.89
736.68	43516.21
737.021	43473.96
737.361	43397.8
737.702	43520.51
738.042	43299.05
738.383	43397.35
738.723	43472.15
739.063	43219.73
739.404	43414.3
739.744	43450.23
740.084	43305.82
740.424	43355.77
740.764	43289.55
741.104	43377.24
741.444	43211.36
741.784	43174.08
742.124	43231.7
742.464	43140.18
742.804	43071.48
743.143	43108.54
743.483	43143.12
743.823	43032.16
744.162	43003.46
744.502	43071.93
744.841	42974.08
745.181	43176.11
745.52	42851.37
745.86	43073.29
746.199	43128.88
746.538	43178.37
746.877	43164.36
747.216	43120.97
747.556	43012.95
747.895	43090.24
748.234	42876.46
748.573	42934.53
748.911	42976.34
749.25	42970.92
749.589	42889.79
749.928	42986.74
750.267	42829.23
750.605	43037.81
750.944	42956
751.283	42876.68
751.621	42871.03
751.96	42681.21
752.298	42880.98
752.636	42920.07
752.975	42727.99
753.313	42653.19
753.651	43001.2
753.989	42654.54
754.327	42822.22
754.666	42450.71
755.004	42743.35
755.342	42647.54
755.679	42758.27
756.017	42381.1
756.355	42720.76
756.693	42412.51
757.031	42506.52
757.368	42131.84
757.706	42349.92
758.044	42316.02
758.381	42401.22
758.719	42191.05
759.056	42259.3
759.394	42204.16
759.731	41866.77
760.068	41831.06
760.405	41880.33
760.743	41751.74
761.08	41743.83
761.417	41576.6
761.754	41686.21
762.091	41546.55
762.428	41377.74
762.765	41248.48
763.102	41477.62
763.438	41334.35
763.775	41147.46
764.112	41116.28
764.449	41050.52
764.785	40950.41
765.122	40865.21
765.458	40561.04
765.795	40654.82
766.131	40714.25
766.467	40480.59
766.804	40258
767.14	40305.23
767.476	40195.85
767.812	40013.26
768.148	40137.09
768.485	39947.95
768.821	39600.84
769.157	39622.53
769.492	39666.6
769.828	39348.19
770.164	39166.27
770.5	38947.97
770.836	39034.98
771.171	38848.54
771.507	38763.12
771.842	38490.81
772.178	38501.66
772.513	38282.68
772.849	38306.41
773.184	38315
773.519	38023.03
773.855	37841.79
774.19	37799.3
774.525	37630.27
774.86	37610.83
775.195	37480.89
775.53	37322.48
775.865	37229.6
776.2	37122.48
776.535	36644.3
776.87	36787.13
777.205	36571.76
777.539	36549.39
777.874	36537.41
778.209	36105.79
778.543	36207.93
778.878	35939.01
779.212	35971.1
779.547	35671.68
779.881	35736.53
780.215	35459.03
780.55	35612.69
780.884	35194.85
781.218	35074.4
781.552	35221.74
781.886	34977.68
782.22	34686.16
782.554	34633.06
782.888	34412.73
783.222	34313.07
783.556	34101.32
783.889	34115.11
784.223	33768.22
784.557	33907.2
784.89	33870.82
785.224	33703.82
785.557	33456.37
785.891	33476.93
786.224	33466.76
786.558	33306.77
786.891	33184.96
787.224	32823.61
787.557	32788.81
787.891	32678.76
788.224	32711.75
788.557	32554.24
788.89	32510.85
789.223	32396.73
789.556	32204.42
789.888	32106.12
790.221	32032.22
790.554	31891.89
790.887	31817.31
791.219	31672.23
791.552	31495.97
791.884	31415.06
792.217	31388.85
792.549	31329.64
792.882	30999.26
793.214	30941.4
793.546	30951.8
793.879	30841.29
794.211	30475.2
794.543	30646.5
794.875	30519.49
795.207	30504.13
795.539	30377.8
795.871	30359.5
796.203	30146.4
796.535	29948.66
796.867	29946.85
797.198	29715.67
797.53	29561.55
797.862	29582.34
798.193	29610.59
798.525	29406.98
798.856	29559.52
799.188	29155.91
799.519	29045.63
799.85	28971.06
800.182	28988.69
800.513	29099.42
800.844	28746.89
801.175	28813.1
801.506	28681.58
801.837	28646.78
802.168	28487.46
802.499	28483.84
802.83	28346.67
803.161	28074.81
803.491	28115.72
803.822	28325.43
804.153	27935.16
804.483	27928.38
804.814	27687.7
805.145	27734.26
805.475	27689.96
805.805	27564.54
806.136	27622.62
806.466	27404.1
806.796	27488.84
807.126	27183.08
807.457	27303.31
807.787	27342.63
808.117	27099.47
808.447	26991.23
808.777	26979.02
809.107	26875.52
809.436	26753.94
809.766	26804.11
810.096	26896.54
810.426	26693.15
810.755	26654.96
811.085	26580.61
811.414	26628.97
811.744	26439.38
812.073	26421.97
812.403	26353.05
812.732	26152.83
813.061	26263.11
813.39	25962.33
813.719	25819.28
814.049	26141.08
814.378	25955.77
814.707	25826.28
815.036	25820.18
815.365	25728.66
815.693	25502.45
816.022	25413.41
816.351	25401.21
816.68	25426.75
817.008	25469.23
817.337	25237.6
817.665	25150.37
817.994	25116.7
818.322	25250.93
818.651	24979.75
818.979	24898.85
819.307	24962.13
819.636	24956.48
819.964	24891.17
820.292	24871.06
820.62	24851.17
820.948	24837.84
821.276	24997.38
821.604	24864.28
821.932	24955.57
822.259	24858.17
822.587	24759.87
822.915	24769.81
823.243	24816.59
823.57	24659.54
823.898	24838.51
824.225	24698.86
824.553	24774.11
824.88	24756.71
825.207	24938.17
825.535	24700.66
825.862	24913.99
826.189	24811.17
826.516	24935.01
826.843	24874.67
827.17	24928.23
827.497	24781.57
827.824	24866.31
828.151	24852.75
828.478	24839.87
828.805	24823.82
829.131	24872.41
829.458	24813.43
829.785	24590.61
830.111	24893.43
830.438	24838.74
830.764	24767.78
831.09	24828.8
831.417	24707.9
831.743	24805.52
832.069	24809.81
832.395	24627.9
832.722	24754
833.048	24631.74
833.374	24764.17
833.7	24600.78
834.026	24808.46
834.351	24634.9
834.677	24711.96
835.003	24666.31
835.329	24705.86
835.654	24529.6
835.98	24476.26
836.306	24583.61
836.631	24409.15
836.956	24581.57
837.282	24562.36
837.607	24385.42
837.932	24429.71
838.258	24220
838.583	24228.36
838.908	24234.69
839.233	24257.51
839.558	24087.12
839.883	24213.22
840.208	24003.51
840.533	24049.83
840.858	23947.92
841.182	24044.18
841.507	23999.44
841.832	23876.5
842.156	23897.97
842.481	23861.59
842.805	23778.2
843.13	23654.36
843.454	23758.77
843.778	23556.29
844.103	23671.76
844.427	23519
844.751	23549.06
845.075	23419.12
845.399	23269.29
845.723	23317.65
846.047	23267.93
846.371	23103.64
846.695	22938.9
847.019	22920.37
847.343	22762.41
847.666	22735.07
847.99	22631.79
848.313	22601.51
848.637	22580.49
848.96	22475.41
849.284	22383.89
849.607	22257.11
849.931	22125.82
850.254	22074.07
850.577	21984.35
850.9	21868.87
851.223	21711.36
851.546	21674.75
851.869	21529.9
852.192	21768.99
852.515	21498.04
852.838	21364.93
853.161	21412.61
853.483	21200.64
853.806	21256.46
854.129	21158.38
854.451	21160.19
854.774	20949.12
855.096	20913.65
855.419	20790.48
855.741	20741.67
856.063	20632.3
856.385	20600.43
856.708	20597.27
857.03	20418.29
857.352	20516.82
857.674	20450.83
857.996	20273.21
858.318	20180.56
858.64	20247.67
858.961	20161.35
859.283	20093.33
859.605	20007.23
859.926	20021.69
860.248	19880.9
860.57	19871.64
860.891	19850.4
861.212	19837.52
861.534	19736.73
861.855	19670.97
862.176	19718.2
862.498	19643.4
862.819	19590.06
863.14	19655.82
863.461	19535.15
863.782	19410.86
864.103	19411.31
864.424	19348.26
864.745	19322.5
865.065	19245.21
865.386	19137.19
865.707	19206.12
866.027	19122.96
866.348	19180.58
866.668	19206.35
866.989	19042.28
867.309	18977.2
867.63	18977.2
867.95	19030.53
868.27	18912.12
868.59	18957.09
868.91	18859.69
869.23	18812.23
869.55	18789.41
869.87	18898.1
870.19	18733.14
870.51	18692.69
870.83	18694.95
871.15	18620.15
871.469	18589.19
871.789	18734.72
872.109	18543.09
872.428	18514.39
872.748	18601.84
873.067	18517.32
873.386	18456.08
873.706	18483.43
874.025	18344.22
874.344	18331.79
874.663	18371.11
874.982	18348.97
875.301	18339.02
875.62	18183.32
875.939	18172.7
876.258	18207.5
876.577	18113.94
876.896	18077.34
877.214	18080.05
877.533	18043.89
877.852	18066.26
878.17	17957.56
878.489	18085.47
878.807	17953.95
879.125	17962.76
879.444	17824.91
879.762	17826.95
880.08	17884.35
880.398	17701.3
880.716	17717.12
881.034	17750.56
881.352	17714.86
881.67	17612.49
881.988	17633.73
882.306	17492.04
882.624	17577.24
882.941	17364.13
883.259	17351.93
883.577	17393.74
883.894	17276.9
884.212	17283.23
884.529	17150.35
884.846	17210.24
885.164	17147.64
885.481	17068.1
885.798	17085.95
886.115	16976.57
886.432	17060.19
886.75	17058.61
887.067	17011.37
887.383	16874.88
887.7	16804.6
888.017	16847.99
888.334	16700.65
888.651	16617.71
888.967	16670.59
889.284	16661.33
889.6	16629.69
889.917	16568.45
890.233	16569.58
890.55	16468.34
890.866	16433.08
891.182	16452.52
891.498	16287.33
891.815	16276.03
892.131	16208.91
892.447	16171.4
892.763	16129.82
893.079	16102.02
893.395	15965.53
893.71	16005.3
894.026	15936.83
894.342	15997.39
894.657	15771.86
894.973	15819.09
895.289	15757.62
895.604	15694.8
895.92	15665.87
896.235	15620.45
896.55	15585.42
896.865	15499.78
897.181	15481.7
897.496	15450.06
897.811	15421.36
898.126	15309.5
898.441	15196.28
898.756	15267.69
899.071	15150.41
899.386	15157.86
899.7	15051.2
900.015	14927.36
900.33	14836.52
900.644	14835.16
900.959	14858.21
901.273	14702.73
901.588	14764.65
901.902	14700.48
902.216	14636.75
902.531	14625
902.845	14533.93
903.159	14484.89
903.473	14410.09
903.787	14255.74
904.101	14232.92
904.415	14216.42
904.729	14186.14
905.042	14100.49
905.356	14187.04
905.67	14132.58
905.984	14022.75
906.297	13989.31
906.611	13846.49
906.924	13869.31
907.237	13846.03
907.551	13799.48
907.864	13648.98
908.177	13639.03
908.491	13605.14
908.804	13526.04
909.117	13500.28
909.43	13364.69
909.743	13285.82
910.056	13258.48
910.368	13317.01
910.681	13185.49
910.994	13176
911.307	13045.38
911.619	12916.34
911.932	12947.98
912.244	12845.38
912.557	12890.35
912.869	12756.8
913.181	12799.06
913.494	12767.19
913.806	12645.39
914.118	12601.77
914.43	12562.9
914.742	12502.57
915.054	12364.94
915.366	12365.4
915.678	12358.62
915.99	12359.07
916.302	12228.9
916.613	12148.68
916.925	12174.21
917.236	12243.59
917.548	11981.22
917.859	11974.67
918.171	11942.36
918.482	11806.09
918.794	11777.16
919.105	11757.73
919.416	11722.47
919.727	11720.89
920.038	11641.57
920.349	11488.81
920.66	11483.84
920.971	11513.67
921.282	11430.28
921.593	11393.22
921.903	11333.11
922.214	11246.33
922.525	11175.14
922.835	11207.91
923.146	11138.31
923.456	11142.15
923.767	10978.31
924.077	10979.89
924.387	10970.4
924.697	10899.9
925.008	10879.11
925.318	10833.46
925.628	10842.72
925.938	10748.49
926.248	10591.43
926.558	10597.53
926.867	10645.21
927.177	10534.48
927.487	10484.54
927.796	10415.62
928.106	10453.36
928.416	10339.46
928.725	10309.63
929.034	10359.12
929.344	10269.86
929.653	10274.6
929.962	10164.78
930.271	10092.01
930.581	10008.85
930.89	10022.18
931.199	9990.77
931.508	9912.8
931.817	9940.6
932.125	9852.47
932.434	9846.37
932.743	9716.43
933.051	9708.97
933.36	9659.7
933.669	9601.85
933.977	9598.01
934.286	9546.03
934.594	9538.8
934.902	9409.77
935.21	9360.73
935.519	9385.36
935.827	9293.16
936.135	9270.79
936.443	9197.79
936.751	9190.79
937.059	9209.09
937.367	9071.47
937.674	9132.71
937.982	9089.55
938.29	8983.11
938.597	9005.71
938.905	8899.27
939.213	8872.61
939.52	8867.63
939.827	8831.7
940.135	8793.96
940.442	8644.59
940.749	8681.2
941.056	8739.95
941.363	8639.62
941.67	8618.38
941.977	8542.67
942.284	8523.46
942.591	8495.67
942.898	8431.49
943.205	8383.13
943.511	8338.16
943.818	8368.89
944.125	8245.5
944.431	8202.11
944.738	8183.58
945.044	8112.63
945.35	8189.69
945.657	8138.16
945.963	8099.07
946.269	7984.72
946.575	8024.04
946.881	7913.08
947.187	7967.54
947.493	7835.34
947.799	7898.85
948.105	7823.59
948.41	7739.53
948.716	7767.78
949.022	7791.5
949.327	7794.44
949.633	7589.93
949.938	7627.67
950.244	7587.44
950.549	7523.71
950.854	7544.51
951.16	7453.43
951.465	7434
951.77	7365.3
952.075	7376.37
952.38	7365.98
952.685	7336.83
952.99	7257.96
953.294	7204.63
953.599	7209.15
953.904	7139.32
954.209	7104.74
954.513	7092.99
954.818	7038.76
955.122	7053.44
955.426	7035.37
955.731	6964.86
956.035	6933.9
956.339	6934.35
956.643	6916.27
956.948	6822.04
957.252	6829.04
957.556	6822.49
957.86	6834.47
958.163	6827.24
958.467	6779.33
958.771	6712.89
959.075	6722.83
959.378	6596.51
959.682	6561.71
959.985	6556.28
960.289	6518.09
960.592	6522.16
960.896	6494.82
961.199	6463.18
961.502	6447.13
961.805	6401.03
962.108	6336.85
962.411	6335.95
962.714	6321.03
963.017	6246.01
963.32	6276.74
963.623	6237.87
963.926	6154.94
964.228	6140.7
964.531	6149.74
964.833	6149.06
965.136	6074.71
965.438	6010.76
965.741	6007.6
966.043	6002.85
966.345	5949.52
966.648	5972.57
966.95	5914.27
967.252	5877.2
967.554	5873.81
967.856	5884.89
968.158	5794.27
968.46	5834.72
968.761	5764.66
969.063	5742.74
969.365	5723.31
969.666	5720.6
969.968	5612.13
970.269	5636.08
970.571	5598.79
970.872	5555.63
971.174	5516.31
971.475	5513.15
971.776	5457.1
972.077	5476.76
972.378	5457.55
972.679	5409.19
972.98	5454.16
973.281	5355.64
973.582	5324.68
973.883	5347.73
974.183	5347.05
974.484	5241.06
974.785	5175.3
975.085	5212.36
975.386	5231.57
975.686	5197.67
975.986	5136.88
976.287	5135.98
976.587	5109.99
976.887	5080.16
977.187	5098.92
977.487	5072.03
977.787	4989.77
978.087	5009.88
978.387	4971.69
978.687	4899.6
978.987	4935.08
979.286	4879.49
979.586	4906.61
979.885	4856.21
980.185	4877.23
980.484	4750.91
980.784	4718.14
981.083	4776.89
981.382	4748.19
981.682	4765.6
981.981	4719.49
982.28	4672.26
982.579	4603.34
982.878	4686.28
983.177	4620.51
983.475	4635.65
983.774	4589.78
984.073	4512.04
984.372	4507.52
984.67	4521.53
984.969	4518.82
985.267	4507.75
985.566	4434.98
985.864	4449.22
986.162	4406.06
986.461	4353.63
986.759	4368.32
987.057	4324.7
987.355	4314.31
987.653	4282.9
987.951	4249.45
988.249	4285.16
988.547	4220.52
988.844	4230.47
989.142	4192.95
989.44	4196.8
989.737	4176.91
990.035	4091.49
990.332	4115.44
990.63	4095.78
990.927	4070.7
991.224	4048.78
991.521	4049.68
991.819	4022.79
992.116	4036.8
992.413	3979.18
992.71	3960.19
993.006	3951.15
993.303	3939.85
993.6	3925.84
993.897	3896.01
994.193	3858.05
994.49	3831.16
994.787	3844.72
995.083	3814.21
995.379	3764.49
995.676	3803.36
995.972	3737.15
996.268	3697.83
996.565	3705.96
996.861	3680.88
997.157	3641.78
997.453	3672.74
997.749	3647.21
998.044	3609.47
998.34	3633.42
998.636	3561.33
998.932	3563.82
999.227	3513.88
999.523	3493.99
999.818	3512.29
1000.114	3458.51
1000.409	3468
1000.704	3436.36
1001	3443.37
1001.295	3350.72
1001.59	3375.8
1001.885	3359.76
1002.18	3320.89
1002.475	3328.12
1002.77	3351.62
1003.065	3286.54
1003.359	3286.54
1003.654	3250.61
1003.949	3244.51
1004.243	3226.43
1004.538	3159.08
1004.832	3198.63
1005.127	3151.63
1005.421	3097.84
1005.715	3112.08
1006.009	3118.63
1006.304	3062.14
1006.598	3109.82
1006.892	3076.83
1007.186	3030.05
1007.48	3003.16
1007.773	2990.5
1008.067	2957.73
1008.361	2949.15
1008.655	2935.59
1008.948	2925.42
1009.242	2922.03
1009.535	2900.33
1009.829	2879.99
1010.122	2851.75
1010.415	2847.45
1010.708	2841.58
1011.001	2796.61
1011.295	2784.86
1011.588	2792.09
1011.881	2744.63
1012.173	2690.85
1012.466	2709.15
1012.759	2694.69
1013.052	2693.79
1013.344	2690.85
1013.637	2652.2
1013.93	2644.07
1014.222	2630.51
1014.514	2569.95
1014.807	2574.69
1015.099	2590.06
1015.391	2565.2
1015.683	2553.68
1015.976	2516.61
1016.268	2507.35
1016.56	2467.58
1016.851	2448.82
1017.143	2426.22
1017.435	2440.23
1017.727	2407.46
1018.018	2366.34
1018.31	2443.85
1018.602	2414.02
1018.893	2369.5
1019.185	2381.7
1019.476	2327.02
1019.767	2306.22
1020.058	2295.15
1020.35	2277.07
1020.641	2277.3
1020.932	2200.69
1021.223	2210.86
1021.514	2209.96
1021.804	2143.52
1022.095	2204.98
1022.386	2163.86
1022.677	2171.76
1022.967	2156.62
1023.258	2144.2
1023.548	2114.14
1023.839	2080.24
1024.129	2082.5
1024.419	2065.33
1024.709	2064.2
1025	2042.28
1025.29	2009.51
1025.58	2006.12
1025.87	1999.79
1026.16	1964.31
1026.449	1997.53
1026.739	1955.05
1027.029	1923.18
1027.319	1930.42
1027.608	1902.17
1027.898	1917.31
1028.187	1904.43
1028.477	1842.73
1028.766	1853.58
1029.055	1828.5
1029.344	1819.68
1029.634	1839.8
1029.923	1791.44
1030.212	1765
1030.501	1778.78
1030.79	1754.6
1031.078	1748.05
1031.367	1726.13
1031.656	1728.16
1031.945	1729.97
1032.233	1722.06
1032.522	1670.99
1032.81	1666.47
1033.099	1642.06
1033.387	1645.23
1033.675	1659.46
1033.963	1626.69
1034.251	1642.06
1034.54	1603.87
1034.828	1605.68
1035.116	1587.37
1035.403	1578.33
1035.691	1586.92
1035.979	1581.27
1036.267	1529.07
1036.554	1529.97
1036.842	1504.66
1037.129	1503.08
1037.417	1496.75
1037.704	1502.18
1037.992	1470.54
1038.279	1440.48
1038.566	1465.34
1038.853	1465.34
1039.14	1465.34
