Data from 14-0852_FLMS001491_003.txt Node
Date: Thu Apr 12 17:07:04 BST 2018
User: hsy
Spectrometer: FLMS00149
Trigger mode: 0
Integration Time (sec): 1.000000E-2
Scans to average: 10
Electric dark correction enabled: true
Nonlinearity correction enabled: false
Boxcar width: 0
XAxis mode: Wavelengths
Number of Pixels in Spectrum: 2048
>>>>>Begin Spectral Data<<<<<
341.393	-6.07
341.776	-6.07
342.16	-6.07
342.543	-61.67
342.927	-71.38
343.31	-57.37
343.693	-67.54
344.077	-47.2
344.46	-71.16
344.843	-70.03
345.226	-31.38
345.61	-47.88
345.993	-9.01
346.376	-9.01
346.759	6.36
347.142	23.08
347.525	27.15
347.908	88.84
348.291	73.92
348.674	96.97
349.057	94.26
349.44	115.28
349.823	149.63
350.206	167.48
350.588	208.61
350.971	260.81
351.354	273.92
351.737	282.73
352.119	299.68
352.502	287.7
352.884	324.77
353.267	325.22
353.65	340.81
354.032	353.24
354.414	358.44
354.797	350.08
355.179	361.15
355.562	367.48
355.944	371.09
356.326	363.63
356.709	401.6
357.091	377.19
357.473	393.69
357.855	396.63
358.238	400.7
358.62	399.57
359.002	415.16
359.384	400.47
359.766	392.56
360.148	383.75
360.53	382.84
360.912	388.49
361.294	404.99
361.676	386.68
362.057	387.59
362.439	395.05
362.821	382.62
363.203	374.48
363.584	374.48
363.966	375.61
364.348	369.51
364.729	375.84
365.111	373.58
365.493	380.81
365.874	390.3
366.256	388.72
366.637	372.9
367.019	389.62
367.4	378.32
367.781	383.52
368.163	379
368.544	356.86
368.925	366.12
369.306	374.71
369.688	374.71
370.069	379.91
370.45	372
370.831	366.12
371.212	375.61
371.593	372.9
371.974	359.11
372.355	388.49
372.736	395.95
373.117	399.11
373.498	386.68
373.879	390.07
374.26	380.58
374.641	384.88
375.021	387.59
375.402	407.93
375.783	404.99
376.163	421.49
376.544	410.64
376.925	397.53
377.305	416.06
377.686	420.58
378.066	407.02
378.447	429.17
378.827	403.63
379.208	401.37
379.588	422.84
379.968	424.42
380.349	399.34
380.729	415.16
381.109	429.4
381.489	446.8
381.87	424.42
382.25	432.11
382.63	417.64
383.01	443.86
383.39	453.58
383.77	431.43
384.15	427.81
384.53	455.61
384.91	451.09
385.29	432.79
385.67	437.98
386.049	446.12
386.429	461.94
386.809	463.74
387.189	473.46
387.568	453.12
387.948	453.35
388.328	477.76
388.707	493.35
389.087	482.73
389.466	496.74
389.846	483.63
390.225	507.36
390.605	497.64
390.984	468.94
391.363	480.47
391.743	484.31
392.122	506.46
392.501	505.55
392.881	496.51
393.26	514.14
393.639	517.08
394.018	506.68
394.397	506.68
394.776	536.74
395.155	509.85
395.534	511.88
395.913	524.08
396.292	530.64
396.671	522.73
397.05	525.21
397.429	531.99
397.808	528.83
398.186	526.79
398.565	549.39
398.944	553.23
399.323	549.84
399.701	549.84
400.08	559.79
400.458	565.89
400.837	576.51
401.215	564.99
401.594	588.49
401.972	566.12
402.351	595.49
402.729	578.77
403.107	579.22
403.486	579
403.864	597.75
404.242	610.18
404.62	615.61
404.999	586.23
405.377	622.61
405.755	610.63
406.133	624.87
406.511	641.14
406.889	644.76
407.267	624.64
407.645	616.51
408.023	667.58
408.401	643.85
408.779	650.18
409.156	674.36
409.534	668.26
409.912	681.59
410.29	702.38
410.667	711.2
411.045	705.77
411.422	715.94
411.8	689.05
412.178	737.18
412.555	736.05
412.933	724.98
413.31	728.37
413.687	761.36
414.065	733.12
414.442	774.02
414.819	758.88
415.197	764.98
415.574	774.02
415.951	783.06
416.328	789.39
416.705	802.94
417.082	774.02
417.46	776.96
417.837	812.66
418.214	830.51
418.591	814.47
418.967	844.3
419.344	840.01
419.721	818.09
420.098	832.55
420.475	835.94
420.852	864.41
421.228	862.6
421.605	846.33
421.982	859.21
422.358	882.26
422.735	885.43
423.111	872.1
423.488	882.94
423.864	898.54
424.241	900.57
424.617	925.2
424.994	927.01
425.37	931.08
425.746	919.1
426.123	922.26
426.499	961.81
426.875	953.68
427.251	983.51
427.627	973.56
428.003	993.45
428.379	983.51
428.756	1005.65
429.132	1003.62
429.507	1052.88
429.883	1020.11
430.259	1033
430.635	1060.57
431.011	1046.55
431.387	1081.81
431.763	1085.88
432.138	1075.25
432.514	1113.67
432.89	1101.69
433.265	1105.54
433.641	1149.15
434.016	1150.96
434.392	1162.71
434.767	1191.41
435.143	1181.69
435.518	1157.29
435.894	1205.87
436.269	1201.8
436.644	1233.89
437.02	1242.03
437.395	1261.24
437.77	1257.17
438.145	1266.44
438.52	1266.44
438.895	1284.51
439.271	1303.27
439.646	1320.22
440.021	1303.5
440.395	1313.67
440.77	1311.86
441.145	1332.42
441.52	1353.66
441.895	1359.31
442.27	1369.94
442.645	1362.93
443.019	1366.55
443.394	1366.32
443.769	1373.1
444.143	1397.96
444.518	1418.07
444.892	1414.91
445.267	1431.4
445.641	1424.4
446.016	1437.05
446.39	1405.64
446.764	1428.01
447.139	1461.46
447.513	1466.88
447.887	1478.41
448.262	1484.28
448.636	1497.39
449.01	1496.71
449.384	1511.4
449.758	1523.38
450.132	1553.43
450.506	1568.35
450.88	1556.82
451.254	1533.55
451.628	1560.67
452.002	1608.8
452.376	1606.54
452.75	1619.19
453.123	1645.86
453.497	1672.3
453.871	1679.53
454.244	1725.18
454.618	1712.53
454.992	1759.08
455.365	1773.99
455.739	1795.91
456.112	1768.34
456.486	1810.38
456.859	1813.09
457.232	1865.06
457.606	1882.46
457.979	1917.94
458.352	1971.28
458.725	1947.55
459.099	1954.33
459.472	1983.7
459.845	2037.49
460.218	2022.57
460.591	2012.4
460.964	2058.05
461.337	2111.61
461.71	2131.72
462.083	2150.71
462.456	2166.98
462.829	2134.66
463.201	2222.79
463.574	2238.16
463.947	2240.65
464.32	2280.87
464.692	2293.08
465.065	2333.53
465.438	2360.64
465.81	2358.16
466.183	2388.67
466.555	2423.02
466.928	2480.87
467.3	2447.2
467.672	2508.66
468.045	2583.92
468.417	2561.32
468.789	2571.49
469.161	2613.97
469.534	2616
469.906	2703.69
470.278	2746.62
470.65	2735.1
471.022	2816.9
471.394	2855.77
471.766	2881.99
472.138	2909.1
472.51	2957.92
472.882	3003.57
473.253	2974.19
473.625	3099.83
473.997	3100.51
474.369	3134.41
474.74	3219.83
475.112	3216.89
475.484	3253.05
475.855	3341.64
476.227	3402.42
476.598	3515.64
476.97	3520.84
477.341	3548.64
477.713	3642.87
478.084	3682.42
478.455	3782.3
478.827	3804.45
479.198	3932.35
479.569	3982.07
479.94	4051.45
480.311	4122.41
480.682	4172.57
481.053	4310.88
481.424	4413.47
481.795	4455.05
482.166	4537.54
482.537	4616.63
482.908	4723.29
483.279	4759.45
483.65	4911.31
484.021	5026.11
484.391	5083.96
484.762	5180.01
485.133	5210.96
485.503	5351.98
485.874	5559.43
486.244	5580.67
486.615	5708.8
486.985	5828.35
487.356	5900.89
487.726	6042.81
488.097	6230.6
488.467	6273.08
488.837	6481.44
489.207	6528.67
489.578	6744.71
489.948	6817.93
490.318	6968.21
490.688	7075.32
491.058	7315.77
491.428	7455.65
491.798	7521.19
492.168	7832.59
492.538	7912.59
492.908	8043.88
493.278	8267.38
493.648	8323.88
494.017	8553.7
494.387	8698.1
494.757	8862.85
495.126	9033.01
495.496	9284.53
495.866	9428.48
496.235	9632.77
496.605	9787.12
496.974	10011.29
497.344	10145.98
497.713	10351.17
498.082	10611.05
498.452	10756.13
498.821	10934.2
499.19	11157.02
499.559	11422.33
499.928	11622.1
500.298	11797.91
500.667	12126.72
501.036	12209.2
501.405	12502.75
501.774	12619.36
502.143	12908.62
502.512	13116.97
502.88	13405.1
503.249	13478.32
503.618	13883.28
503.987	14003.05
504.356	14261.8
504.724	14524.84
505.093	14748.34
505.462	14913.31
505.83	15227.65
506.199	15487.98
506.567	15819.73
506.936	16031.25
507.304	16278.92
507.672	16548.75
508.041	16723.2
508.409	17051.33
508.777	17293.81
509.145	17572
509.514	17773.8
509.882	17944.87
510.25	18173.79
510.618	18344.4
510.986	18642.93
511.354	18942.58
511.722	19176.25
512.09	19406.98
512.458	19543.24
512.826	19888.54
513.193	20067.75
513.561	20279.5
513.929	20528.3
514.297	20899.59
514.664	21033.37
515.032	21156.99
515.4	21538.44
515.767	21675.39
516.135	21950.64
516.502	21919.9
516.869	22387.46
517.237	22566.21
517.604	22573.22
517.972	23158.97
518.339	23135.47
518.706	23341.11
519.073	23476.25
519.44	23838.95
519.808	24034.88
520.175	24178.15
520.542	24611.81
520.909	24646.16
521.276	24834.63
521.643	25261.74
522.009	25365.01
522.376	25693.14
522.743	25817.2
523.11	26257.42
523.477	26475.49
523.843	26750.29
524.21	26996.83
524.577	27282.93
524.943	27454
525.31	27606.08
525.676	28009.46
526.043	28195.9
526.409	28368.77
526.776	28817.8
527.142	28795.2
527.508	29048.08
527.874	29385.02
528.241	29568.52
528.607	29747.95
528.973	30245.33
529.339	30257.99
529.705	30492.33
530.071	30843.29
530.437	31062.49
530.803	31434.68
531.169	31532.98
531.535	31515.13
531.901	31832.19
532.267	31822.02
532.632	32209.12
532.998	32353.53
533.364	32546.97
533.73	32643.46
534.095	32906.96
534.461	33115.32
534.826	33299.72
535.192	33344.69
535.557	33705.81
535.923	33607.28
536.288	33900.15
536.653	34084.78
537.019	34223.08
537.384	34224.44
537.749	34348.5
538.114	34450.2
538.479	34542.85
538.845	34747.14
539.21	34747.59
539.575	35023.97
539.94	35150.52
540.305	35301.47
540.67	35377.86
541.034	35581.69
541.399	35517.29
541.764	35837.73
542.129	35886.32
542.494	36039.53
542.858	36204.73
543.223	36115.01
543.587	36430.48
543.952	36433.65
544.316	36602.91
544.681	36458.05
545.045	36832.28
545.41	36950.7
545.774	36874.31
546.138	37046.96
546.503	37303.68
546.867	37222.55
547.231	37524.47
547.595	37672.94
547.959	37722.65
548.324	37827.51
548.688	37906.83
549.052	38060.95
549.416	38100.95
549.779	38029.99
550.143	38381.39
550.507	38641.5
550.871	38790.87
551.235	38667.03
551.599	39173.69
551.962	39062.28
552.326	39328.94
552.689	39386.11
553.053	39078.32
553.417	39417.52
553.78	39857.96
554.143	39783.84
554.507	39930.28
554.87	40079.65
555.234	40461.11
555.597	40356.93
555.96	40395.58
556.323	40740.88
556.686	40671.73
557.05	40940.19
557.413	41165.05
557.776	41204.14
558.139	41523
558.502	41513.06
558.865	41690.01
559.228	41970.9
559.59	42008.19
559.953	42156.89
560.316	42548.74
560.679	42533.6
561.041	42722.29
561.404	42981.05
561.767	43443.41
562.129	43125.22
562.492	43577.87
562.854	43629.39
563.217	43655.6
563.579	43800.01
563.941	44109.15
564.304	44310.73
564.666	44621.45
565.028	44527.67
565.39	44822.13
565.753	45073.19
566.115	44998.39
566.477	45271.15
566.839	45510.7
567.201	45820.74
567.563	45848.99
567.925	46167.85
568.287	46269.77
568.648	46386.83
569.01	46570.56
569.372	46931.9
569.734	46859.81
570.095	47111.78
570.457	47318.78
570.819	47528.04
571.18	47475.16
571.542	47819.56
571.903	47837.64
572.265	48159.89
572.626	48262.04
572.987	48310.62
573.349	48498.41
573.71	48707.67
574.071	48897.5
574.432	49058.4
574.794	49370.93
575.155	49373.42
575.516	49443.93
575.877	49576.58
576.238	49668.1
576.599	49790.81
576.96	50059.73
577.32	50094.08
577.681	50238.48
578.042	50414.3
578.403	50571.35
578.763	50638.47
579.124	50864.23
579.485	51106.03
579.845	51166.59
580.206	51132.24
580.566	51320.26
580.927	51345.34
581.287	51689.97
581.648	51664.66
582.008	51899.91
582.368	51911.88
582.728	52101.48
583.089	52104.42
583.449	52234.14
583.809	52394.13
584.169	52564.97
584.529	52481.13
584.889	52883.61
585.249	52805.19
585.609	52753.67
585.969	53092.64
586.329	53062.14
586.688	53304.84
587.048	53417.61
587.408	53429.58
587.768	53537.38
588.127	53697.15
588.487	53739.18
588.846	54076.57
589.206	53895.56
589.565	54102.56
589.925	54310.46
590.284	54255.32
590.643	54438.6
591.003	54611.7
591.362	54801.3
591.721	54861.18
592.08	54946.83
592.44	55167.17
592.799	55168.3
593.158	55257.11
593.517	55326.03
593.876	55459.13
594.235	55498
594.593	55620.03
594.952	55728.28
595.311	55814.15
595.67	55960.36
596.029	56162.85
596.387	56239.45
596.746	56410.75
597.104	56272.9
597.463	56421.6
597.822	56712.89
598.18	56653.91
598.538	56765.32
598.897	56961.92
599.255	56845.09
599.613	57221.12
599.972	57124.63
600.33	57245.75
600.688	57339.31
601.046	57409.82
601.404	57723.93
601.762	57664.73
602.12	57758.96
602.478	57817.49
602.836	57932.74
603.194	57837.83
603.552	58010.71
603.91	58015.9
604.268	58196.46
604.625	58276.69
604.983	58401.88
605.341	58313.98
605.698	58510.35
606.056	58763.23
606.413	58624.25
606.771	58847.75
607.128	58884.36
607.485	58850.68
607.843	58900.17
608.2	59115.54
608.557	59266.04
608.914	59206.16
609.272	59384.23
609.629	59525.24
609.986	59591.46
610.343	59558.24
610.7	59769.3
611.057	59746.03
611.414	59827.38
611.771	59902.63
612.127	60018.11
612.484	60048.84
612.841	60159.8
613.198	60143.98
613.554	60148.96
613.911	60348.05
614.267	60355.28
614.624	60442.05
614.98	60548.04
615.337	60637.98
615.693	60637.08
616.05	60739
616.406	60811.99
616.762	60765.44
617.118	60822.61
617.475	60850.63
617.831	60985.77
618.187	61061.93
618.543	61019.44
618.899	61215.14
619.255	61203.16
619.611	61244.52
619.967	61310.96
620.323	61362.93
620.678	61269.38
621.034	61346.89
621.39	61331.97
621.746	61429.6
622.101	61618.97
622.457	61502.82
622.812	61623.49
623.168	61744.17
623.523	61602.7
623.879	61656.49
624.234	61639.09
624.589	61711.85
624.945	61732.19
625.3	61748.69
625.655	61768.57
626.01	61849.02
626.365	61842.24
626.72	61785.3
627.075	61808.35
627.43	61804.05
627.785	61801.34
628.14	61817.39
628.495	61821.23
628.85	61811.51
629.205	61825.52
629.559	61902.81
629.914	61823.94
630.269	61884.05
630.623	61719.08
630.978	61762.92
631.332	61865.52
631.687	61775.58
632.041	61790.72
632.396	61811.51
632.75	61789.82
633.104	61825.97
633.459	61668.24
633.813	61732.87
634.167	61677.95
634.521	61675.24
634.875	61753.43
635.229	61641.57
635.583	61562.48
635.937	61611.52
636.291	61531.97
636.645	61603.61
636.999	61469.6
637.352	61537.62
637.706	61421.92
638.06	61515.92
638.413	61416.94
638.767	61357.51
639.121	61352.09
639.474	61309.15
639.828	61276.38
640.181	61293.11
640.534	61365.42
640.888	61243.16
641.241	61125.2
641.594	61209.72
641.947	61273.22
642.301	61125.88
642.654	61151.64
643.007	61080.23
643.36	61114.58
643.713	61090.4
644.066	61171.98
644.419	60991.42
644.771	60778.54
645.124	60478.66
645.477	60480.7
645.83	60428.95
646.182	60362.73
646.535	60268.95
646.888	60395.05
647.24	60273.47
647.593	60390.08
647.945	60320.93
648.298	60237.77
648.65	60167.26
649.002	60025.79
649.355	59975.17
649.707	59926.36
650.059	59952.12
650.411	60302.85
650.763	60383.53
651.115	60736.51
651.467	60551.88
651.819	60505.1
652.171	60538.78
652.523	60504.65
652.875	60478.44
653.227	60374.94
653.578	60582.62
653.93	60457.42
654.282	60366.12
654.633	60322.51
654.985	60340.81
655.337	60338.78
655.688	60311.21
656.039	60392.56
656.391	60099.69
656.742	60251.55
657.094	60252.91
657.445	60237.09
657.796	60261.49
658.147	60134.04
658.498	60223.76
658.849	60268.95
659.2	60106.92
659.551	60030.99
659.902	60195.28
660.253	60025.34
660.604	60137.2
660.955	59995.06
661.306	60116.64
661.656	60000.03
662.007	60050.2
662.358	60010.43
662.708	60040.03
663.059	59910.09
663.409	59812.69
663.76	59960.26
664.11	59965.91
664.461	60000.26
664.811	59997.55
665.161	59949.19
665.511	59859.7
665.862	59916.19
666.212	59929.98
666.562	59954.38
666.912	59856.99
667.262	59787.16
667.612	59875.06
667.962	59832.81
668.312	59772.92
668.662	59933.82
669.011	59853.37
669.361	59835.97
669.711	59861.05
670.06	59794.16
670.41	59763.65
670.76	59696.99
671.109	59827.38
671.459	59782.19
671.808	59760.94
672.157	59809.53
672.507	59694.96
672.856	59688.85
673.205	59714.62
673.554	59741.28
673.904	59668.74
674.253	59913.26
674.602	59727.72
674.951	59380.61
675.3	59315.3
675.649	59687.27
675.998	59676.88
676.346	59687.05
676.695	59699.48
677.044	59502.87
677.393	59544.68
677.741	59670.32
678.09	59618.35
678.438	59506.26
678.787	59625.81
679.135	59521.18
679.484	59427.84
679.832	59515.07
680.181	59444.34
680.529	59528.18
680.877	59366.6
681.225	59322.08
681.573	59557.56
681.922	59402.08
682.27	59301.07
682.618	59297.23
682.966	59317.79
683.314	59298.13
683.661	59193.73
684.009	59187.4
684.357	59097.68
684.705	59069.21
685.053	59188.53
685.4	59047.29
685.748	59019.27
686.095	59003.22
686.443	58878.25
686.79	58957.57
687.138	58984.47
687.485	58949.44
687.832	58822.89
688.18	58854.07
688.527	58758.48
688.874	58740.86
689.221	58791.7
689.568	58654.53
689.915	58557.81
690.262	58664.25
690.609	58542.44
690.956	58488.66
691.303	58508.32
691.65	58410.02
691.997	58391.94
692.344	58193.98
692.69	58197.59
693.037	58288.89
693.383	58063.36
693.73	58145.39
694.077	57968.22
694.423	58016.81
694.769	57860.43
695.116	57912.86
695.462	57834.89
695.808	57615.01
696.155	57757.83
696.501	57582.92
696.847	57596.25
697.193	57502.25
697.539	57477.84
697.885	57336.37
698.231	57271.29
698.577	57301.57
698.923	57190.39
699.269	57090.5
699.614	57062.03
699.96	56945.2
700.306	56994.69
700.651	56805.31
700.997	56700.91
701.342	56755.82
701.688	56682.15
702.033	56577.52
702.379	56561.48
702.724	56434.02
703.069	56505.44
703.415	56229.96
703.76	56192.9
704.105	56225.67
704.45	56104.99
704.795	56044.88
705.14	55943.19
705.485	55912.68
705.83	55792.01
706.175	55870.2
706.52	55815.96
706.865	55651.45
707.209	55700.26
707.554	55601.5
707.899	55664.1
708.243	55485.57
708.588	55424.33
708.932	55305.92
709.277	55323.09
709.621	55193.15
709.966	55005.14
710.31	55129.43
710.654	54857.57
710.998	54979.15
711.342	54934.4
711.687	54800.4
712.031	54816.44
712.375	54672.26
712.719	54593.85
713.063	54586.84
713.407	54749.55
713.75	54486.05
714.094	54534.19
714.438	54341.2
714.782	54355.66
715.125	54218.94
715.469	54378.26
715.812	53997.25
716.156	54057.36
716.499	54096.01
716.843	54058.49
717.186	53898.5
717.53	54085.16
717.873	53937.37
718.216	53965.39
718.559	53812.62
718.902	53543.25
719.246	53637.71
719.589	53537.6
719.932	53604.49
720.275	53430.04
720.617	53454.89
720.96	53388.91
721.303	53365.18
721.646	53441.56
721.989	53177.61
722.331	53383.71
722.674	53169.93
723.016	53149.37
723.359	53039.09
723.701	53073.21
724.044	52977.84
724.386	52762.71
724.729	52876.6
725.071	52851.07
725.413	52890.39
725.755	52758.87
726.097	52657.63
726.439	52528.36
726.782	52430.29
727.124	52699.43
727.465	52600
727.807	52410.18
728.149	52471.42
728.491	52252.21
728.833	52358.2
729.175	52377.63
729.516	52155.72
729.858	52130.63
730.199	52267.58
730.541	52245.21
730.882	52022.39
731.224	52123.86
731.565	51946.01
731.906	52003.41
732.248	52076.4
732.589	51765.22
732.93	51797.31
733.271	51877.31
733.612	51749.63
733.953	51855.84
734.294	51721.61
734.635	51564.1
734.976	51659.46
735.317	51565.9
735.658	51532.91
735.999	51440.71
736.339	51500.14
736.68	51396.42
737.021	51439.81
737.361	51209.76
737.702	51441.61
738.042	51310.77
738.383	51308.28
738.723	51227.16
739.063	51064.9
739.404	51214.05
739.744	51110.1
740.084	50972.25
740.424	51117.33
740.764	50895.19
741.104	51003.66
741.444	50840.05
741.784	50685.93
742.124	50866.71
742.464	50789.43
742.804	50564.8
743.143	50548.3
743.483	50612.93
743.823	50431.92
744.162	50475.54
744.502	50530.68
744.841	50328.42
745.181	50508.53
745.52	50341.08
745.86	50360.29
746.199	50281.87
746.538	50306.05
746.877	50358.7
747.216	50204.81
747.556	50165.94
747.895	50121.2
748.234	49989
748.573	49865.16
748.911	49884.59
749.25	49803.01
749.589	49720.75
749.928	49757.82
750.267	49834.65
750.605	49538.39
750.944	49593.53
751.283	49533.64
751.621	49550.82
751.96	49249.35
752.298	49319.86
752.636	49366.41
752.975	49192.63
753.313	49036.25
753.651	49275.79
753.989	48984.73
754.327	49020.89
754.666	48779.08
755.004	48889.14
755.342	48944.5
755.679	48714.91
756.017	48610.95
756.355	48627.68
756.693	48495.7
757.031	48508.36
757.368	48217.29
757.706	48163.73
758.044	48098.88
758.381	48071.76
758.719	47965.77
759.056	48041.02
759.394	47839
759.731	47493.47
760.068	47530.98
760.405	47557.87
760.743	47304.32
761.08	47293.93
761.417	47148.62
761.754	46925.8
762.091	46951.56
762.428	46718.12
762.765	46646.49
763.102	46674.06
763.438	46474.51
763.775	46221.19
764.112	46329.66
764.449	46104.13
764.785	46078.82
765.122	45815.55
765.458	45634.08
765.795	45621.88
766.131	45580.3
766.467	45424.37
766.804	45104.38
767.14	45067.77
767.476	44918.4
767.812	44869.36
768.148	44898.06
768.485	44585.3
768.821	44373.78
769.157	44174.46
769.492	44189.83
769.828	44183.05
770.164	43619.22
770.5	43572.22
770.836	43602.05
771.171	43566.79
771.507	43310.53
771.842	42965.45
772.178	43080.48
772.513	42950.09
772.849	42721.62
773.184	42695.4
773.519	42599.36
773.855	42299.03
774.19	42270.56
774.525	41981.75
774.86	42126.15
775.195	41795.99
775.53	41540.86
775.865	41355.78
776.2	41275.1
776.535	40988.78
776.87	41146.52
777.205	40854.55
777.539	40838.95
777.874	40725.06
778.209	40471.05
778.543	40407.55
778.878	40100.67
779.212	40077.39
779.547	39798.3
779.881	39801.24
780.215	39379.11
780.55	39635.6
780.884	39272.22
781.218	39218.43
781.552	39284.87
781.886	38905.9
782.22	38749.07
782.554	38616.87
782.888	38246.93
783.222	38236.54
783.556	38197.22
783.889	38074.73
784.223	37712.93
784.557	37714.97
784.89	37889.88
785.224	37456.44
785.557	37369.22
785.891	37159.96
786.224	37145.94
786.558	37049.9
786.891	36868.21
787.224	36637.93
787.557	36526.53
787.891	36533.76
788.224	36324.72
788.557	36184.16
788.89	36192.07
789.223	36031.85
789.556	35832.53
789.888	35656.94
790.221	35529.49
790.554	35491.52
790.887	35315.48
791.219	35265.99
791.552	35192.1
791.884	34894.03
792.217	34915.72
792.549	34700.36
792.882	34485
793.214	34385.11
793.546	34358.9
793.879	34071.22
794.211	33995.29
794.543	34160.49
794.875	33960.72
795.207	33976.54
795.539	33788.52
795.871	33758.46
796.203	33512.37
796.535	33294.97
796.867	33322.09
797.198	32978.6
797.53	33009.1
797.862	32900.18
798.193	32961.65
798.525	32720.98
798.856	32737.47
799.188	32459.06
799.519	32397.37
799.85	32210.71
800.182	32130.71
800.513	32104.04
800.844	31783.37
801.175	31974.55
801.506	31958.74
801.837	31739.76
802.168	31536.6
802.499	31649.14
802.83	31406.21
803.161	31233.33
803.491	31341.58
803.822	31403.95
804.153	31056.16
804.483	30916.28
804.814	30747.47
805.145	30788.15
805.475	30803.96
805.805	30624.99
806.136	30615.72
806.466	30504.99
806.796	30509.06
807.126	30326.69
807.457	30262.06
807.787	30288.95
808.117	30094.38
808.447	29847.15
808.777	30187.03
809.107	29863.42
809.436	29664.78
809.766	29856.42
810.096	29681.51
810.426	29498.46
810.755	29630.21
811.085	29389.54
811.414	29457.33
811.744	29179.83
812.073	29246.94
812.403	29042.43
812.732	28885.82
813.061	29108.87
813.39	28808.99
813.719	28840.63
814.049	28874.52
814.378	28748.42
814.707	28643.57
815.036	28613.06
815.365	28442.67
815.693	28334.65
816.022	28309.57
816.351	28141.21
816.68	28042
817.008	28206.97
817.337	27855.34
817.665	27947.32
817.994	27876.58
818.322	27894.89
818.651	27836.13
818.979	27751.39
819.307	27745.06
819.636	27694.22
819.964	27482.47
820.292	27679.53
820.62	27486.99
820.948	27659.41
821.276	27627.55
821.604	27466.42
821.932	27640.43
822.259	27525.86
822.587	27469.81
822.915	27566.54
823.243	27597.72
823.57	27520.21
823.898	27516.82
824.225	27359.76
824.553	27458.52
824.88	27476.59
825.207	27630.49
825.535	27511.85
825.862	27548.23
826.189	27457.84
826.516	27642.47
826.843	27532.86
827.17	27608.79
827.497	27428.91
827.824	27579.64
828.151	27478.85
828.478	27450.15
828.805	27512.3
829.131	27639.98
829.458	27685.63
829.785	27320.67
830.111	27458.52
830.438	27496.25
830.764	27524.05
831.09	27446.54
831.417	27314.79
831.743	27626.65
832.069	27430.27
832.395	27362.02
832.722	27359.31
833.048	27275.92
833.374	27494.9
833.7	27309.14
834.026	27436.14
834.351	27239.09
834.677	27327.9
835.003	27323.38
835.329	27221.23
835.654	27267.11
835.98	27094.46
836.306	27276.83
836.631	27054.68
836.956	27208.8
837.282	27203.15
837.607	27111.63
837.932	26988.7
838.258	26889.49
838.583	26907.57
838.908	26834.12
839.233	26822.37
839.558	26795.93
839.883	26681.13
840.208	26574.92
840.533	26708.03
840.858	26630.29
841.182	26693.34
841.507	26505.09
841.832	26451.54
842.156	26530.63
842.481	26378.77
842.805	26284.31
843.13	26190.75
843.454	26229.85
843.778	26196.4
844.103	26011.55
844.427	26102.84
844.751	26023.3
845.075	26061.72
845.399	25900.36
845.723	25696.3
846.047	25712.8
846.371	25576.08
846.695	25518
847.019	25547.15
847.343	25274.17
847.666	25167.05
847.99	24965.02
848.313	24893.39
848.637	24863.1
848.96	24804.57
849.284	24779.49
849.607	24589.44
849.931	24632.6
850.254	24333.85
850.577	24297.92
850.9	24082.78
851.223	24035.33
851.546	24040.53
851.869	23805.96
852.192	23922.11
852.515	23689.8
852.838	23549.92
853.161	23468.79
853.483	23354.22
853.806	23329.81
854.129	23339.3
854.451	23275.35
854.774	23104.28
855.096	23078.74
855.419	22959.2
855.741	22870.61
856.063	22705.42
856.385	22802.59
856.708	22758.53
857.03	22585.88
857.352	22644.86
857.674	22566.21
857.996	22399.21
858.318	22290.29
858.64	22307.92
858.961	22270.4
859.283	22154.25
859.605	22091.65
859.926	22117.19
860.248	22009.85
860.57	21990.64
860.891	21956.06
861.212	21794.94
861.534	21791.32
861.855	21763.52
862.176	21692.79
862.498	21808.49
862.819	21658.22
863.14	21556.07
863.461	21476.75
863.782	21439.92
864.103	21485.34
864.424	21415.06
864.745	21503.42
865.065	21380.26
865.386	21252.12
865.707	21300.94
866.027	21275.85
866.348	21161.96
866.668	21195.18
866.989	21114.95
867.309	20950.21
867.63	20971.91
867.95	21074.95
868.27	20838.12
868.59	20951.79
868.91	20851.91
869.23	20940.04
869.55	20762.87
869.87	20847.84
870.19	20673.16
870.51	20712.25
870.83	20685.59
871.15	20510.9
871.469	20557.45
871.789	20598.58
872.109	20613.05
872.428	20580.96
872.748	20578.02
873.067	20491.69
873.386	20417.34
873.706	20473.16
874.025	20347.52
874.344	20360.85
874.663	20281.53
874.982	20288.53
875.301	20225.94
875.62	20231.59
875.939	20045.83
876.258	20116.34
876.577	19984.14
876.896	20001.31
877.214	20083.34
877.533	19987.75
877.852	19974.19
878.17	19919.96
878.489	19897.13
878.807	19865.04
879.125	19828.21
879.444	19863.46
879.762	19815.33
880.08	19832.05
880.398	19686.74
880.716	19703.92
881.034	19581.89
881.352	19683.13
881.67	19483.36
881.988	19441.55
882.306	19470.93
882.624	19415.34
882.941	19287.66
883.259	19291.5
883.577	19383.7
883.894	19317.71
884.212	19068
884.529	19201.33
884.846	19081.56
885.164	18955.24
885.481	19019.87
885.798	18986.87
886.115	18927.44
886.432	18918.63
886.75	18875.46
887.067	18734.68
887.383	18757.95
887.7	18743.26
888.017	18612.19
888.334	18661.68
888.651	18611.52
888.967	18472.08
889.284	18367.68
889.6	18354.57
889.917	18187.35
890.233	18294.24
890.55	18263.95
890.866	18151.64
891.182	18217.63
891.498	18190.06
891.815	17967.69
892.131	17936.51
892.447	17941.03
892.763	17884.53
893.079	17856.96
893.395	17758.66
893.71	17682.5
894.026	17682.05
894.342	17583.52
894.657	17526.12
894.973	17528.61
895.289	17409.29
895.604	17385.11
895.92	17356.86
896.235	17293.36
896.55	17282.51
896.865	17140.82
897.181	17138.79
897.496	17154.15
897.811	16946.02
898.126	16948.51
898.441	16879.81
898.756	16924.33
899.071	16749.87
899.386	16741.28
899.7	16678.91
900.015	16578.58
900.33	16529.99
900.644	16467.84
900.959	16455.19
901.273	16424.68
901.588	16343.1
901.902	16262.43
902.216	16106.5
902.531	16119.83
902.845	15992.38
903.159	15908.54
903.473	15931.36
903.787	15803.91
904.101	15794.87
904.415	15825.6
904.729	15722.55
905.042	15608.21
905.356	15552.16
905.67	15569.34
905.984	15484.14
906.297	15460.64
906.611	15244.83
906.924	15279.63
907.237	15258.16
907.551	15212.28
907.864	15143.13
908.177	15106.52
908.491	14983.59
908.804	14891.16
909.117	14913.53
909.43	14807.77
909.743	14675.57
910.056	14755.8
910.368	14609.36
910.681	14552.87
910.994	14495.69
911.307	14445.75
911.619	14329.14
911.932	14413.66
912.244	14257.73
912.557	14260.9
912.869	14172.54
913.181	14070.39
913.494	14069.26
913.806	13852.09
914.118	13907.46
914.43	13852.77
914.742	13891.64
915.054	13757.18
915.366	13770.97
915.678	13685.32
915.99	13587.02
916.302	13557.64
916.613	13468.15
916.925	13424.31
917.236	13342.5
917.548	13339.11
917.859	13220.7
918.171	13232.22
918.482	13115.16
918.794	13101.38
919.105	13045.11
919.416	12829.52
919.727	12934.15
920.038	12881.72
920.349	12707.94
920.66	12791.56
920.971	12771.44
921.282	12678.11
921.593	12651.67
921.903	12492.13
922.214	12487.38
922.525	12415.3
922.835	12365.58
923.146	12308.41
923.456	12262.98
923.767	12214.85
924.077	12154.28
924.387	12103.89
924.697	12084.46
925.008	11967.62
925.318	11877.46
925.628	11954.06
925.938	11831.13
926.248	11767.85
926.558	11663.9
926.867	11707.52
927.177	11675.2
927.487	11581.42
927.796	11528.31
928.106	11568.99
928.416	11400.63
928.725	11441.99
929.034	11323.57
929.344	11280.64
929.653	11204.71
929.962	11169.9
930.271	11101.66
930.581	11092.39
930.89	11039.29
931.199	10946.63
931.508	10945.96
931.817	10905.5
932.125	10938.95
932.434	10826.18
932.743	10734.66
933.051	10703.7
933.36	10667.32
933.669	10600.65
933.977	10479.3
934.286	10573.08
934.594	10435.23
934.902	10427.78
935.21	10326.54
935.519	10414.67
935.827	10324.28
936.135	10279.31
936.443	10178.74
936.751	10156.6
937.059	10144.85
937.367	10033.89
937.674	10030.5
937.982	10026.88
938.29	9934.23
938.597	9975.81
938.905	9856.04
939.213	9801.8
939.52	9785.53
939.827	9726.1
940.135	9671.41
940.442	9699.43
940.749	9600
941.056	9647.91
941.363	9439.78
941.67	9506.22
941.977	9425.54
942.284	9372.66
942.591	9358.43
942.898	9423.74
943.205	9313.23
943.511	9169.96
943.818	9218.54
944.125	9135.38
944.431	9066
944.738	9047.02
945.044	9037.76
945.35	9014.93
945.657	8897.87
945.963	8953.47
946.269	8839.12
946.575	8835.73
946.881	8777.88
947.187	8765.22
947.493	8711.66
947.799	8672.79
948.105	8659.91
948.41	8528.39
948.716	8561.16
949.022	8530.2
949.327	8543.08
949.633	8440.48
949.938	8361.62
950.244	8377.66
950.549	8300.83
950.854	8307.38
951.16	8207.72
951.465	8256.76
951.77	8218.57
952.075	8130.44
952.38	8113.71
952.685	8167.27
952.99	8000.72
953.294	8028.07
953.599	7921.85
953.904	7974.28
954.209	7862.65
954.513	7875.75
954.818	7780.61
955.122	7831.91
955.426	7767.51
955.731	7694.74
956.035	7703.55
956.339	7596.66
956.643	7584.01
956.948	7612.48
957.252	7528.42
957.556	7504.46
957.86	7428.53
958.163	7483.45
958.467	7422.43
958.771	7371.59
959.075	7350.12
959.378	7234.87
959.682	7293.85
959.985	7252.04
960.289	7183.12
960.592	7166.62
960.896	7165.94
961.199	7106.73
961.502	7082.1
961.805	7033.06
962.108	6954.2
962.411	6979.73
962.714	6955.78
963.017	6897.47
963.32	6896.57
963.623	6837.14
963.926	6811.15
964.228	6801.66
964.531	6745.61
964.833	6817.7
965.136	6725.5
965.438	6657.48
965.741	6625.84
966.043	6657.93
966.345	6591.49
966.648	6543.13
966.95	6517.15
967.252	6452.97
967.554	6450.25
967.856	6462.68
968.158	6404.38
968.46	6311.27
968.761	6382.91
969.063	6297.04
969.365	6299.98
969.666	6260.88
969.968	6210.94
970.269	6172.75
970.571	6171.17
970.872	6104.27
971.174	6038.51
971.475	6062.02
971.776	6060.66
972.077	6012.98
972.378	5986.09
972.679	5995.12
972.98	5967.78
973.281	5931.17
973.582	5979.76
973.883	5883.49
974.183	5830.16
974.484	5776.83
974.785	5747.9
975.085	5749.26
975.386	5740.22
975.686	5683.72
975.986	5658.64
976.287	5659.99
976.587	5616.38
976.887	5632.65
977.187	5601.91
977.487	5565.08
977.787	5502.71
978.087	5500.67
978.387	5508.36
978.687	5401.69
978.987	5452.99
979.286	5360.79
979.586	5358.08
979.885	5309.95
980.185	5269.95
980.484	5294.58
980.784	5208.7
981.083	5214.35
981.382	5208.48
981.682	5199.44
981.981	5178.65
982.28	5119.89
982.579	5138.2
982.878	5054.58
983.177	5040.35
983.475	5052.78
983.774	5009.84
984.073	4989.95
984.372	4977.3
984.67	4934.59
984.969	4956.06
985.267	4989.05
985.566	4910.41
985.864	4853.91
986.162	4858.43
986.461	4834.03
986.759	4824.76
987.057	4792.44
987.355	4733.46
987.653	4739.79
987.951	4709.28
988.249	4688.94
988.547	4665.22
988.844	4603.75
989.142	4622.51
989.44	4602.17
989.737	4573.92
990.035	4528.72
990.332	4512
990.63	4482.4
990.927	4485.79
991.224	4467.93
991.521	4452.79
991.819	4409.86
992.116	4388.39
992.413	4395.84
992.71	4305.45
993.006	4365.11
993.303	4293.47
993.6	4311.33
993.897	4266.36
994.193	4261.61
994.49	4218.22
994.787	4205.34
995.083	4147.26
995.379	4143.42
995.676	4176.19
995.972	4150.65
996.268	4090.32
996.565	4044.89
996.861	4043.09
997.157	4059.81
997.453	4009.87
997.749	3960.38
998.044	3983.43
998.34	3963.77
998.636	3948.85
998.932	3912.69
999.227	3918.57
999.523	3868.18
999.818	3879.02
1000.114	3816.43
1000.409	3797.67
1000.704	3758.35
1001	3767.16
1001.295	3734.17
1001.59	3731.91
1001.885	3723.09
1002.18	3658.01
1002.475	3655.3
1002.77	3630.89
1003.065	3585.24
1003.359	3595.41
1003.654	3536.88
1003.949	3559.93
1004.243	3540.27
1004.538	3466.6
1004.832	3492.37
1005.127	3438.81
1005.421	3424.34
1005.715	3417.79
1006.009	3377.34
1006.304	3363.78
1006.598	3325.14
1006.892	3340.96
1007.186	3321.52
1007.48	3310.22
1007.773	3269.32
1008.067	3205.14
1008.361	3237.23
1008.655	3191.13
1008.948	3160.85
1009.242	3148.87
1009.535	3136.22
1009.829	3143.22
1010.122	3100.96
1010.415	3099.16
1010.708	3082.89
1011.001	3085.37
1011.295	3061.42
1011.588	3026.16
1011.881	2997.69
1012.173	2970.35
1012.466	2938.26
1012.759	2946.39
1013.052	2939.16
1013.344	2907.3
1013.637	2862.55
1013.93	2872.27
1014.222	2875.66
1014.514	2831.37
1014.807	2778.94
1015.099	2821.2
1015.391	2766.96
1015.683	2745.04
1015.976	2731.93
1016.268	2678.38
1016.56	2689.68
1016.851	2674.76
1017.143	2665.95
1017.435	2669.11
1017.727	2610.81
1018.018	2612.16
1018.31	2575.33
1018.602	2577.36
1018.893	2566.97
1019.185	2569.68
1019.476	2525.61
1019.767	2496.46
1020.058	2506.85
1020.35	2484.93
1020.641	2458.72
1020.932	2456.46
1021.223	2444.94
1021.514	2401.55
1021.804	2382.56
1022.095	2376.91
1022.386	2368.55
1022.677	2296.47
1022.967	2330.59
1023.258	2290.36
1023.548	2270.03
1023.839	2265.96
1024.129	2255.56
1024.419	2249.46
1024.709	2226.18
1025	2222.79
1025.29	2155.9
1025.58	2173.76
1025.87	2142.12
1026.16	2148.67
1026.449	2140.54
1026.739	2114.32
1027.029	2090.59
1027.319	2056.7
1027.608	2062.12
1027.898	2045.4
1028.187	2017.83
1028.477	2015.57
1028.766	2008.11
1029.055	1982.57
1029.344	1997.49
1029.634	1966.53
1029.923	1969.92
1030.212	1928.11
1030.501	1910.94
1030.79	1884.95
1031.078	1866.65
1031.367	1866.42
1031.656	1851.28
1031.945	1810.6
1032.233	1823.94
1032.522	1793.88
1032.81	1789.13
1033.099	1798.63
1033.387	1765.18
1033.675	1782.81
1033.963	1745.75
1034.251	1765.86
1034.54	1726.08
1034.828	1725.63
1035.116	1704.62
1035.403	1690.83
1035.691	1701.68
1035.979	1686.76
1036.267	1657.39
1036.554	1637.73
1036.842	1627.1
1037.129	1632.98
1037.417	1610.83
1037.704	1606.54
1037.992	1588.01
1038.279	1581
1038.566	1556.15
1038.853	1556.15
1039.14	1556.15
