Data from 14-0848_FLMS001491_003.txt Node
Date: Thu Apr 19 16:08:13 BST 2018
User: hsy
Spectrometer: FLMS00149
Trigger mode: 0
Integration Time (sec): 1.000000E-2
Scans to average: 10
Electric dark correction enabled: true
Nonlinearity correction enabled: false
Boxcar width: 0
XAxis mode: Wavelengths
Number of Pixels in Spectrum: 2048
>>>>>Begin Spectral Data<<<<<
341.393	11.06
341.776	11.06
342.16	11.06
342.543	-47.24
342.927	-55.38
343.31	-63.06
343.693	-69.84
344.077	-61.03
344.46	-61.71
344.843	-45.66
345.226	-48.83
345.61	-17.19
345.993	-27.13
346.376	-12.44
346.759	15.58
347.142	27.56
347.525	28.01
347.908	49.7
348.291	75.24
348.674	96.48
349.057	114.33
349.44	119.08
349.823	161.11
350.206	163.15
350.588	227.1
350.971	262.13
351.354	260.32
351.737	272.75
352.119	288.79
352.502	313.42
352.884	315.46
353.267	325.63
353.65	339.41
354.032	336.02
354.414	354.78
354.797	345.51
355.179	356.81
355.562	383.25
355.944	374.89
356.326	378.51
356.709	376.25
357.091	389.35
357.473	382.8
357.855	395
358.238	375.57
358.62	395.46
359.002	392.29
359.384	385.29
359.766	414.44
360.148	379.18
360.53	370.6
360.912	386.19
361.294	373.08
361.676	411.95
362.057	386.19
362.439	393.87
362.821	386.64
363.203	369.02
363.584	384.16
363.966	368.79
364.348	391.39
364.729	385.06
365.111	392.97
365.493	388.68
365.874	363.14
366.256	381.22
366.637	374.44
367.019	382.35
367.4	376.93
367.781	378.51
368.163	391.84
368.544	383.25
368.925	389.81
369.306	372.63
369.688	364.5
370.069	350.94
370.45	370.6
370.831	377.83
371.212	381.44
371.593	375.12
371.974	393.87
372.355	372.63
372.736	388
373.117	368.79
373.498	392.97
373.879	389.13
374.26	384.38
374.641	389.58
375.021	387.55
375.402	379.41
375.783	410.6
376.163	416.7
376.544	411.73
376.925	429.35
377.305	403.59
377.686	406.98
378.066	390.26
378.447	414.89
378.827	397.04
379.208	420.54
379.588	417.38
379.968	411.73
380.349	416.47
380.729	429.58
381.109	420.99
381.489	402.91
381.87	432.52
382.25	447.21
382.63	438.62
383.01	432.29
383.39	445.4
383.77	442.01
384.15	429.58
384.53	439.97
384.91	442.23
385.29	445.4
385.67	470.93
386.049	483.81
386.429	453.08
386.809	470.48
387.189	458.73
387.568	466.87
387.948	439.07
388.328	469.8
388.707	494.44
389.087	476.36
389.466	455.34
389.846	475.91
390.225	458.96
390.605	485.85
390.984	479.07
391.363	487.43
391.743	499.41
392.122	491.95
392.501	506.64
392.881	508
393.26	505.96
393.639	515.68
394.018	509.13
394.397	557.26
394.776	540.08
395.155	526.07
395.534	527.66
395.913	529.46
396.292	543.47
396.671	536.24
397.05	539.63
397.429	552.97
397.808	536.02
398.186	549.58
398.565	561.1
398.944	548.9
399.323	576.69
399.701	569.46
400.08	539.63
400.458	568.78
400.837	546.64
401.215	575.34
401.594	587.09
401.972	594.77
402.351	580.99
402.729	596.35
403.107	567.2
403.486	601.78
403.864	595
404.242	592.74
404.62	606.3
404.999	611.5
405.377	637.03
405.755	636.81
406.133	635.22
406.511	655.34
406.889	658.5
407.267	684.04
407.645	661.21
408.023	662.79
408.401	673.64
408.779	679.52
409.156	697.59
409.534	692.85
409.912	725.62
410.29	698.05
410.667	711.15
411.045	703.92
411.422	744.83
411.8	751.15
412.178	768.33
412.555	748.21
412.933	780.98
413.31	782.11
413.687	776.91
414.065	778.5
414.442	785.73
414.819	802.45
415.197	837.48
415.574	807.2
415.951	838.38
416.328	806.07
416.705	849.23
417.082	839.51
417.46	874.09
417.837	844.48
418.214	881.77
418.591	898.04
418.967	873.41
419.344	890.36
419.721	893.75
420.098	891.49
420.475	911.37
420.852	917.25
421.228	933.29
421.605	924.03
421.982	929
422.358	947.98
422.735	939.62
423.111	938.04
423.488	949.79
423.864	946.63
424.241	964.25
424.617	983.69
424.994	1004.71
425.37	987.3
425.746	1002.22
426.123	1002.22
426.499	996.8
426.875	1029.11
427.251	1041.77
427.627	1044.93
428.003	1072.73
428.379	1070.69
428.756	1081.77
429.132	1100.52
429.507	1106.17
429.883	1114.08
430.259	1141.2
430.635	1152.72
431.011	1141.88
431.387	1143.46
431.763	1167.41
432.138	1181.2
432.514	1197.24
432.89	1205.83
433.265	1241.31
433.641	1260.52
434.016	1265.04
434.392	1287.86
434.767	1291.25
435.143	1288.31
435.518	1302.78
435.894	1300.52
436.269	1329.89
436.644	1361.31
437.02	1390.46
437.395	1386.39
437.77	1378.25
438.145	1395.43
438.52	1386.62
438.895	1419.16
439.271	1426.62
439.646	1432.26
440.021	1460.96
440.395	1447.18
440.77	1442.66
441.145	1471.13
441.52	1511.81
441.895	1485.6
442.27	1517.69
442.645	1505.48
443.019	1510.45
443.394	1501.64
443.769	1506.84
444.143	1529.21
444.518	1556.1
444.892	1548.65
445.267	1547.52
445.641	1573.28
446.016	1589.77
446.39	1594.52
446.764	1614.18
447.139	1597.91
447.513	1618.02
447.887	1631.58
448.262	1620.51
448.636	1633.62
449.01	1640.62
449.384	1691.92
449.758	1660.51
450.132	1720.62
450.506	1733.73
450.88	1706.61
451.254	1716.55
451.628	1761.97
452.002	1784.8
452.376	1797.68
452.75	1802.65
453.123	1824.34
453.497	1839.71
453.871	1845.81
454.244	1941.18
454.618	1887.85
454.992	1943.66
455.365	1951.12
455.739	1985.02
456.112	2005.13
456.486	2008.07
456.859	2039.48
457.232	2052.36
457.606	2087.61
457.979	2142.53
458.352	2170.78
458.725	2185.01
459.099	2234.96
459.472	2211
459.845	2246.93
460.218	2256.2
460.591	2294.39
460.964	2312.69
461.337	2344.11
461.71	2374.61
462.083	2401.5
462.456	2431.79
462.829	2414.61
463.201	2472.92
463.574	2493.93
463.947	2519.24
464.32	2582.06
464.692	2561.73
465.065	2589.52
465.438	2658.22
465.81	2704.55
466.183	2681.5
466.555	2715.85
466.928	2759.46
467.3	2759.46
467.672	2785.45
468.045	2858.22
468.417	2835.17
468.789	2881.94
469.161	2934.37
469.534	2974.14
469.906	2985.9
470.278	3032.9
470.65	3108.6
471.022	3110.64
471.394	3140.69
471.766	3209.62
472.138	3251.65
472.51	3323.06
472.882	3363.06
473.253	3374.13
473.625	3451.42
473.997	3491.87
474.369	3555.37
474.74	3555.82
475.112	3646.22
475.484	3713.56
475.855	3682.6
476.227	3832.88
476.598	3893.44
476.97	3914.69
477.341	4009.6
477.713	4042.14
478.084	4125.98
478.455	4205.98
478.827	4245.07
479.198	4382.24
479.569	4429.47
479.94	4572.75
480.311	4593.76
480.682	4651.39
481.053	4830.82
481.424	4876.69
481.795	4954.43
482.166	5040.76
482.537	5096.35
482.908	5281.2
483.279	5308.09
483.65	5402.78
484.021	5566.17
484.391	5640.06
484.762	5720.06
485.133	5777.24
485.503	5937.46
485.874	6129.99
486.244	6123.89
486.615	6292.48
486.985	6424.68
487.356	6557.1
487.726	6653.14
488.097	6850.88
488.467	6943.53
488.837	7073.25
489.207	7217.42
489.578	7398.21
489.948	7516.4
490.318	7717.07
490.688	7745.77
491.058	7978.99
491.428	8122.94
491.798	8203.61
492.168	8488.12
492.538	8558.63
492.908	8848.11
493.278	8917.72
493.648	9013.53
494.017	9219.18
494.387	9424.37
494.757	9616.68
495.126	9754.31
495.496	9896.9
495.866	10145.71
496.235	10298.92
496.605	10408.3
496.974	10606.49
497.344	10845.35
497.713	11030.2
498.082	11187.71
498.452	11445.79
498.821	11536.41
499.19	11679
499.559	11945.43
499.928	12117.63
500.298	12332.99
500.667	12533.89
501.036	12684.4
501.405	12798.97
501.774	13100.43
502.143	13205.06
502.512	13470.82
502.88	13581.78
503.249	13805.27
503.618	14073.97
503.987	14275.09
504.356	14401.87
504.724	14695.87
505.093	14914.62
505.462	15059.02
505.83	15263.31
506.199	15449.07
506.567	15800.47
506.936	15957.53
507.304	16282.5
507.672	16376.28
508.041	16604.75
508.409	16803.61
508.777	17014.68
509.145	17292.19
509.514	17331.51
509.882	17647.66
510.25	17792.51
510.618	18100.53
510.986	18174.88
511.354	18431.59
511.722	18735.99
512.09	18977.11
512.458	18973.5
512.826	19211.23
513.193	19380.72
513.561	19573.26
513.929	19797.66
514.297	19954.94
514.664	20265.89
515.032	20467.24
515.4	20656.62
515.767	20853.67
516.135	20943.62
516.502	21007.34
516.869	21427.45
517.237	21583.6
517.604	21531.17
517.972	21922.35
518.339	22032.85
518.706	22196.69
519.073	22372.5
519.44	22511.48
519.808	22819.27
520.175	22986.5
520.542	23352.59
520.909	23425.13
521.276	23532.47
521.643	23983.54
522.009	24046.59
522.376	24245.45
522.743	24399.12
523.11	24710.07
523.477	24923.4
523.843	25092.43
524.21	25538.3
524.577	25645.87
524.943	25898.74
525.31	25970.38
525.676	26320.65
526.043	26435.45
526.409	26718.83
526.776	26930.13
527.142	27109.78
527.508	27276.1
527.874	27493.73
528.241	27625.7
528.607	27860.04
528.973	28119.25
529.339	28198.57
529.705	28533.02
530.071	28782.05
530.437	28960.35
530.803	29169.16
531.169	29262.49
531.535	29480.79
531.901	29588.36
532.267	29646.89
532.632	29926.2
532.998	30019.08
533.364	30281.68
533.73	30314.22
534.095	30676.47
534.461	30637.37
534.826	30790.81
535.192	30955.1
535.557	31195.1
535.923	31060.41
536.288	31363
536.653	31467.18
537.019	31556.67
537.384	31645.03
537.749	31677.35
538.114	31892.71
538.479	32015.19
538.845	32132.7
539.21	32114.85
539.575	32192.81
539.94	32358.68
540.305	32559.81
540.67	32521.39
541.034	32762.06
541.399	32788.95
541.764	32938.55
542.129	32976.52
542.494	33115.05
542.858	33261.71
543.223	33136.06
543.587	33381.26
543.952	33239.56
544.316	33549.16
544.681	33542.15
545.045	33761.81
545.41	33929.04
545.774	33843.16
546.138	33969.94
546.503	34170.39
546.867	34181.01
547.231	34366.31
547.595	34419.87
547.959	34509.81
548.324	34525.41
548.688	34706.87
549.052	34767.21
549.416	34644.05
549.779	34842.91
550.143	34875.23
550.507	35175.78
550.871	35289.91
551.235	35246.06
551.599	35677.69
551.962	35618.03
552.326	35665.49
552.689	35871.59
553.053	35656.68
553.417	35932.37
553.78	36226.38
554.143	36135.31
554.507	36331.23
554.87	36395.19
555.234	36739.36
555.597	36477.67
555.96	36767.61
556.323	36957.21
556.686	36998.34
557.05	37297.76
557.413	37441.49
557.776	37469.74
558.139	37751.31
558.502	37682.38
558.865	37733.23
559.228	38077.4
559.59	38124.86
559.953	38168.93
560.316	38685.07
560.679	38653.88
561.041	38762.13
561.404	38970.03
561.767	39276.24
562.129	39207.54
562.492	39375.9
562.854	39626.74
563.217	39654.31
563.579	39834.87
563.941	40026.5
564.304	40214.07
564.666	40469.88
565.028	40393.05
565.39	40543.33
565.753	40834.62
566.115	40920.72
566.477	41126.59
566.839	41152.8
567.201	41589.17
567.563	41409.07
567.925	41812.67
568.287	41834.59
568.648	41928.6
569.01	42129.27
569.372	42486.78
569.734	42468.47
570.095	42745.3
570.457	42990.95
570.819	43038.63
571.18	43006.09
571.542	43486.53
571.903	43413.76
572.265	43692.62
572.626	43809
572.987	43837.48
573.349	44145.94
573.71	44272.27
574.071	44564.46
574.432	44601.07
574.794	44927.17
575.155	45040.16
575.516	44944.79
575.877	45199.25
576.238	45262.98
576.599	45481.5
576.96	45598.11
577.32	45721.27
577.681	45905.9
578.042	46172.78
578.403	46042.39
578.763	46239.45
579.124	46340.01
579.485	46713.11
579.845	46800.56
580.206	46833.1
580.566	46853.67
580.927	47001.46
581.287	47238.97
581.648	47234.9
582.008	47603.03
582.368	47551.73
582.728	47706.3
583.089	47819.52
583.449	47937.93
583.809	48113.07
584.169	48279.85
584.529	48138.16
584.889	48652.04
585.249	48426.74
585.609	48369.34
585.969	48784.92
586.329	48774.52
586.688	49026.04
587.048	49116.89
587.408	49137.68
587.768	49298.8
588.127	49418.8
588.487	49529.53
588.846	49810.43
589.206	49618.12
589.565	49846.13
589.925	50263.52
590.284	50126.13
590.643	50259.91
591.003	50376.06
591.362	50828.71
591.721	50661.25
592.08	50711.19
592.44	51067.12
592.799	51098.98
593.158	51158.41
593.517	51171.3
593.876	51457.62
594.235	51437.05
594.593	51549.36
594.952	51687.44
595.311	51850.15
595.67	51966.3
596.029	52199.29
596.387	52318.61
596.746	52449.68
597.104	52444.71
597.463	52493.29
597.822	52752.72
598.18	52677.92
598.538	52778.94
598.897	53038.14
599.255	52942.55
599.613	53375.31
599.972	53304.12
600.33	53341.63
600.688	53464.57
601.046	53561.29
601.404	53882.64
601.762	53763.77
602.12	54017.77
602.478	54089.19
602.836	54212.12
603.194	54003.54
603.552	54109.52
603.91	54206.7
604.268	54410.98
604.625	54378.9
604.983	54601.04
605.341	54472.9
605.698	54770.3
606.056	54976.17
606.413	54748.38
606.771	55090.74
607.128	55004.87
607.485	55099.78
607.843	55123.73
608.2	55261.36
608.557	55454.12
608.914	55410.05
609.272	55600.33
609.629	55680.33
609.986	55812.76
610.343	55828.12
610.7	56061.79
611.057	55908.8
611.414	55980.89
611.771	56130.04
612.127	56259.52
612.484	56294.55
612.841	56322.8
613.198	56314.44
613.554	56348.33
613.911	56608.21
614.267	56636.01
614.624	56657.48
614.98	56719.62
615.337	56879.62
615.693	56934.99
616.05	56976.79
616.406	57020.41
616.762	56952.39
617.118	57043.01
617.475	57210.46
617.831	57289.78
618.187	57330
618.543	57379.27
618.899	57482.99
619.255	57534.74
619.611	57446.16
619.967	57592.6
620.323	57708.75
620.678	57665.14
621.034	57691.8
621.39	57615.65
621.746	57599.15
622.101	58032.13
622.457	57709.65
622.812	57881.63
623.168	57930.67
623.523	57895.41
623.879	57970.89
624.234	57885.24
624.589	58035.75
624.945	58054.73
625.3	58049.76
625.655	58080.49
626.01	58067.61
626.365	58156.42
626.72	58070.1
627.075	58047.27
627.43	58150.77
627.785	58188.51
628.14	58148.06
628.495	58147.84
628.85	58157.33
629.205	58182.86
629.559	58212.24
629.914	58195.07
630.269	58129.98
630.623	58043.21
630.978	58084.56
631.332	58218.57
631.687	58167.27
632.041	58150.55
632.396	58119.81
632.75	58057.44
633.104	58122.3
633.459	58041.4
633.813	58014.96
634.167	58057.67
634.521	57960.95
634.875	57982.19
635.229	57994.62
635.583	57854.74
635.937	57887.28
636.291	57878.92
636.645	57833.49
636.999	57757.56
637.352	57857.67
637.706	57670.56
638.06	57809.09
638.413	57718.69
638.767	57674.18
639.121	57718.69
639.474	57616.78
639.828	57580.39
640.181	57551.24
640.534	57587.62
640.888	57532.26
641.241	57369.1
641.594	57441.64
641.947	57529.77
642.301	57361.19
642.654	57506.04
643.007	57397.57
643.36	57363.9
643.713	57288.88
644.066	57439.83
644.419	57286.16
644.771	56965.72
645.124	56703.58
645.477	56679.85
645.83	56650.25
646.182	56513.53
646.535	56507.88
646.888	56498.84
647.24	56530.25
647.593	56630.59
647.945	56423.59
648.298	56478.73
648.65	56305.62
649.002	56232.18
649.355	56203.25
649.707	56144.72
650.059	56196.25
650.411	56501.78
650.763	56617.03
651.115	57001.42
651.467	56814.99
651.819	56813.18
652.171	56726.63
652.523	56770.02
652.875	56795.78
653.227	56660.42
653.578	56868.55
653.93	56778.83
654.282	56656.8
654.633	56525.96
654.985	56648.89
655.337	56614.32
655.688	56589.46
656.039	56670.59
656.391	56442.34
656.742	56473.76
657.094	56484.6
657.445	56480.31
657.796	56471.5
658.147	56446.64
658.498	56457.71
658.849	56599.85
659.2	56391.72
659.551	56384.94
659.902	56575.67
660.253	56306.98
660.604	56455.22
660.955	56271.27
661.306	56458.61
661.656	56335.45
662.007	56376.81
662.358	56308.56
662.708	56360.31
663.059	56313.08
663.409	56112.63
663.76	56307.66
664.11	56333.65
664.461	56366.87
664.811	56336.36
665.161	56292.29
665.511	56234.89
665.862	56250.26
666.212	56352.4
666.562	56332.06
666.912	56362.57
667.262	56215
667.612	56216.13
667.962	56245.96
668.312	56171.39
668.662	56325.06
669.011	56323.25
669.361	56231.73
669.711	56179.07
670.06	56118.28
670.41	56120.09
670.76	56217.72
671.109	56257.26
671.459	56210.71
671.808	56155.12
672.157	56238.73
672.507	56047.55
672.856	55971.62
673.205	56102.01
673.554	56124.39
673.904	56106.53
674.253	56263.37
674.602	56100.88
674.951	55740.89
675.3	55576.6
675.649	56059.53
675.998	56038.51
676.346	56009.81
676.695	56118.28
677.044	55885.3
677.393	55948.35
677.741	55992.41
678.09	55903.6
678.438	55872.19
678.787	55953.99
679.135	55890.72
679.484	55811.17
679.832	55883.71
680.181	55766.66
680.529	55871.51
680.877	55667.45
681.225	55650.05
681.573	55952.19
681.922	55659.09
682.27	55598.98
682.618	55609.37
682.966	55549.03
683.314	55584.74
683.661	55592.42
684.009	55515.59
684.357	55383.84
684.705	55387.91
685.053	55407.79
685.4	55198.31
685.748	55136.84
686.095	55233.11
686.443	55030.4
686.79	55091.19
687.138	55141.59
687.485	55099.78
687.832	54995.38
688.18	55015.71
688.527	54885.55
688.874	54886.68
689.221	54835.38
689.568	54779.34
689.915	54647.14
690.262	54697.53
690.609	54692.11
690.956	54550.19
691.303	54605.33
691.65	54370.99
691.997	54404.21
692.344	54346.35
692.69	54232.46
693.037	54259.58
693.383	54012.8
693.73	54149.75
694.077	53935.06
694.423	53867.04
694.769	53754.73
695.116	53868.17
695.462	53649.2
695.808	53644.45
696.155	53688.07
696.501	53453.27
696.847	53472.48
697.193	53258.7
697.539	53378.02
697.885	53028.2
698.231	53009.67
698.577	53172.6
698.923	53063.45
699.269	52772.61
699.614	52756.11
699.96	52581.65
700.306	52609.45
700.651	52482.67
700.997	52365.61
701.342	52327.2
701.688	52300.53
702.033	52115
702.379	52099.41
702.724	52008.11
703.069	52046.08
703.415	51720.21
703.76	51632.3
704.105	51759.75
704.45	51609.25
704.795	51481.57
705.14	51351.18
705.485	51378.52
705.83	51104.18
706.175	51294.68
706.52	51162.03
706.865	50982.83
707.209	50804.3
707.554	50799.1
707.899	50797.29
708.243	50578.54
708.588	50519.79
708.932	50296.74
709.277	50464.65
709.621	50285.9
709.966	49955.73
710.31	50202.51
710.654	49767.94
710.998	49938.56
711.342	49910.31
711.687	49806.81
712.031	49688.4
712.375	49567.27
712.719	49436.43
713.063	49393.72
713.407	49546.25
713.75	49294.96
714.094	49276.43
714.438	49179.48
714.782	49142.2
715.125	48974.97
715.469	49119.82
715.812	48768.65
716.156	48785.14
716.499	48809.32
716.843	48823.56
717.186	48685.94
717.53	48777.69
717.873	48735.43
718.216	48516.68
718.559	48420.86
718.902	48200.98
719.246	48299.73
719.589	48064.48
719.932	47983.36
720.275	48179.28
720.617	48038.5
720.96	47877.82
721.303	47892.06
721.646	48043.24
721.989	47659.98
722.331	47851.38
722.674	47733.87
723.016	47647.09
723.359	47437.61
723.701	47581.11
724.044	47416.14
724.386	47264.51
724.729	47512.18
725.071	47333.88
725.413	47351.06
725.755	47193.55
726.097	47153.32
726.439	46997.85
726.782	47003.95
727.124	47144.28
727.465	47118.07
727.807	46914.23
728.149	46874.46
728.491	46869.94
728.833	46874.91
729.175	46933.22
729.516	46847.57
729.858	46858.87
730.199	46815.7
730.541	46666.56
730.882	46481.25
731.224	46608.03
731.565	46577.74
731.906	46451.65
732.248	46577.52
732.589	46232.44
732.93	46200.58
733.271	46388.82
733.612	46233.57
733.953	46380.46
734.294	46245.78
734.635	46054.82
734.976	46297.07
735.317	46083.97
735.658	46077.42
735.999	45965.78
736.339	45955.84
736.68	46035.39
737.021	45956.97
737.361	45865.67
737.702	46130.3
738.042	46014.37
738.383	45927.14
738.723	45832.68
739.063	45813.7
739.404	45911.32
739.744	45890.53
740.084	45737.54
740.424	45954.26
740.764	45755.84
741.104	46094.37
741.444	45693.7
741.784	45613.93
742.124	45683.53
742.464	45697.99
742.804	45653.47
743.143	45561.27
743.483	45705.9
743.823	45415.06
744.162	45444.21
744.502	45585.45
744.841	45574.61
745.181	45800.82
745.52	45455.06
745.86	45559.47
746.199	45575.06
746.538	45480.82
746.877	45556.3
747.216	45641.27
747.556	45494.61
747.895	45559.92
748.234	45486.7
748.573	45522.63
748.911	45277.21
749.25	45448.28
749.589	45348.4
749.928	45483.76
750.267	45604.89
750.605	45368.06
750.944	45457.1
751.283	45425.01
751.621	45482.63
751.96	45232.02
752.298	45241.73
752.636	45391.79
752.975	45396.08
753.313	45156.99
753.651	45497.32
753.989	45282.86
754.327	45314.5
754.666	44972.59
755.004	45222.98
755.342	45246.25
755.679	45233.6
756.017	44966.49
756.355	45038.58
756.693	45032.02
757.031	45116.31
757.368	44987.73
757.706	44968.52
758.044	44809.88
758.381	44927.62
758.719	44716.1
759.056	44835.64
759.394	44700.73
759.731	44408.99
760.068	44373.51
760.405	44518.59
760.743	44354.75
761.08	44285.6
761.417	44216.45
761.754	44165.83
762.091	44105.94
762.428	43863.92
762.765	43743.02
763.102	43793.86
763.438	43699.85
763.775	43543.47
764.112	43513.42
764.449	43565.17
764.785	43385.29
765.122	43254.67
765.458	43072.3
765.795	43071.85
766.131	43070.27
766.467	42882.47
766.804	42748.24
767.14	42582.14
767.476	42316.39
767.812	42373.11
768.148	42441.81
768.485	42169.05
768.821	41945.32
769.157	41833.46
769.492	41879.34
769.828	41836.63
770.164	41407.94
770.5	41416.07
770.836	41536.07
771.171	41364.55
771.507	41082.07
771.842	40897.89
772.178	41002.3
772.513	40810.44
772.849	40733.15
773.184	40608.41
773.519	40595.08
773.855	40230.79
774.19	40260.17
774.525	39991.25
774.86	39917.35
775.195	39915.32
775.53	39735.66
775.865	39504.94
776.2	39307.2
776.535	39149.24
776.87	39152.4
777.205	38920.32
777.539	38732.75
777.874	38800.32
778.209	38521.01
778.543	38557.62
778.878	38235.82
779.212	38235.36
779.547	37899.33
779.881	37918.08
780.215	37740.69
780.55	37871.31
780.884	37423.41
781.218	37376.86
781.552	37333.02
781.886	37164.66
782.22	37058.22
782.554	36753.82
782.888	36553.83
783.222	36546.14
783.556	36374.85
783.889	36198.58
784.223	35950.23
784.557	35862.55
784.89	36082.43
785.224	35595.89
785.557	35548.2
785.891	35520.63
786.224	35317.48
786.558	35304.37
786.891	35148.67
787.224	34943.7
787.557	34842.69
787.891	34699.19
788.224	34511.39
788.557	34506.2
788.89	34417.61
789.223	34382.58
789.556	33976.95
789.888	33950.05
790.221	33930.62
790.554	33769.04
790.887	33652.21
791.219	33461.7
791.552	33328.15
791.884	33324.53
792.217	33297.64
792.549	33077.08
792.882	32850.87
793.214	32811.78
793.546	32867.82
793.879	32717.09
794.211	32349.42
794.543	32512.58
794.875	32325.24
795.207	32285.46
795.539	32125.02
795.871	32150.78
796.203	32002.76
796.535	31727.97
796.867	31738.81
797.198	31665.37
797.53	31530.91
797.862	31327.07
798.193	31304.93
798.525	31265.38
798.856	31294.76
799.188	30835.79
799.519	30907.65
799.85	30712.17
800.182	30603.02
800.513	30735.45
800.844	30282.13
801.175	30557.83
801.506	30407.32
801.837	30347.21
802.168	30251.85
802.499	30332.07
802.83	30018.86
803.161	29923.72
803.491	29912.19
803.822	29905.41
804.153	29744.97
804.483	29565.99
804.814	29404.41
805.145	29382.72
805.475	29416.84
805.805	29389.27
806.136	29345.43
806.466	29134.14
806.796	29131.65
807.126	28994.93
807.457	28782.51
807.787	28816.4
808.117	28768.27
808.447	28640.59
808.777	28630.65
809.107	28453.93
809.436	28433.59
809.766	28399.47
810.096	28367.38
810.426	28246.02
810.755	28222.97
811.085	28105.46
811.414	28146.82
811.744	27927.84
812.073	27890.55
812.403	27886.94
812.732	27629.99
813.061	27925.35
813.39	27556.55
813.719	27477.46
814.049	27660.28
814.378	27472.03
814.707	27364.24
815.036	27449.43
815.365	27298.93
815.693	27107.52
816.022	27108.43
816.351	27018.26
816.68	26886.06
817.008	26961.76
817.337	26611.49
817.665	26775.78
817.994	26732.16
818.322	26736.23
818.651	26556.35
818.979	26550.7
819.307	26570.36
819.636	26437.26
819.964	26375.34
820.292	26380.31
820.62	26381.21
820.948	26426.18
821.276	26583.02
821.604	26288.56
821.932	26435.22
822.259	26348.9
822.587	26262.8
822.915	26285.4
823.243	26342.12
823.57	26297.6
823.898	26369.46
824.225	26215.12
824.553	26324.27
824.88	26345.96
825.207	26384.83
825.535	26195
825.862	26319.52
826.189	26240.43
826.516	26345.96
826.843	26448.78
827.17	26431.83
827.497	26373.3
827.824	26384.83
828.151	26297.37
828.478	26298.73
828.805	26473.87
829.131	26355
829.458	26393.42
829.785	26224.38
830.111	26275.68
830.438	26397.94
830.764	26350.93
831.09	26354.1
831.417	26211.73
831.743	26335.56
832.069	26263.25
832.395	26135.57
832.722	26261.44
833.048	26207.43
833.374	26288.79
833.7	26106.87
834.026	26234.32
834.351	26112.52
834.677	26217.83
835.003	26125.63
835.329	26126.98
835.654	26125.85
835.98	25901.23
836.306	26069.58
836.631	25917.72
836.956	26095.57
837.282	25919.53
837.607	25819.87
837.932	25810.83
838.258	25906.42
838.583	25694.68
838.908	25668.01
839.233	25699.65
839.558	25563.38
839.883	25528.35
840.208	25442.25
840.533	25440.22
840.858	25574.91
841.182	25564.29
841.507	25364.74
841.832	25294.01
842.156	25330.17
842.481	25368.81
842.805	25230.73
843.13	25038.65
843.454	25138.31
843.778	24967.24
844.103	25050.63
844.427	24966.56
844.751	24961.82
845.075	24874.36
845.399	24670.52
845.723	24645.21
846.047	24705.32
846.371	24502.62
846.695	24420.36
847.019	24276.41
847.343	24080.93
847.666	24097.21
847.99	23949.19
848.313	23880.04
848.637	23875.97
848.96	23810.66
849.284	23778.8
849.607	23451.12
849.931	23476.43
850.254	23276.21
850.577	23144.24
850.9	23024.47
851.223	23115.08
851.546	22993.28
851.869	22839.61
852.192	22994.18
852.515	22748.77
852.838	22711.03
853.161	22727.52
853.483	22444.82
853.806	22445.27
854.129	22379.96
854.451	22322.56
854.774	22174.32
855.096	22096.13
855.419	22090.93
855.741	21978.39
856.063	21845.51
856.385	21780.2
856.708	21803.71
857.03	21760.09
857.352	21663.15
857.674	21678.96
857.996	21538.4
858.318	21381.8
858.64	21569.59
858.961	21380.21
859.283	21331.18
859.605	21207.56
859.926	21204.63
860.248	21161.92
860.57	21020.68
860.891	21052.99
861.212	21007.34
861.534	20924.41
861.855	20882.37
862.176	20958.08
862.498	20923.05
862.819	20819.55
863.14	20697.97
863.461	20638.31
863.782	20545.21
864.103	20666.56
864.424	20609.61
864.745	20642.61
865.065	20519.45
865.386	20430.86
865.707	20462.72
866.027	20416.17
866.348	20413.46
866.668	20347.47
866.989	20280.36
867.309	20095.05
867.63	20193.13
867.95	20248.72
868.27	20144.99
868.59	20158.55
868.91	20032.68
869.23	19968.27
869.55	19958.78
869.87	20071.77
870.19	19900.71
870.51	19951.55
870.83	19887.37
871.15	19769.18
871.469	19671.56
871.789	19946.35
872.109	19780.93
872.428	19563.54
872.748	19773.03
873.067	19639.47
873.386	19652.58
873.706	19529.42
874.025	19444.67
874.344	19528.29
874.663	19540.94
874.982	19489.64
875.301	19451
875.62	19311.79
875.939	19319.25
876.258	19283.09
876.577	19174.17
876.896	19296.88
877.214	19148.18
877.533	19163.32
877.852	19245.13
878.17	19154.74
878.489	19173.04
878.807	19055.53
879.125	19043.55
879.444	19085.13
879.762	18974.18
880.08	18906.16
880.398	18830.68
880.716	18855.08
881.034	18815.31
881.352	18772.37
881.67	18660.51
881.988	18652.83
882.306	18707.74
882.624	18641.3
882.941	18511.59
883.259	18469.33
883.577	18392.95
883.894	18493.28
884.212	18381.2
884.529	18331.26
884.846	18340.52
885.164	18209.9
885.481	18188.66
885.798	18191.37
886.115	18088.55
886.432	18058.95
886.75	18080.41
887.067	17990.47
887.383	17933.98
887.7	17813.08
888.017	17772.17
888.334	17728.33
888.651	17862.79
888.967	17727.66
889.284	17669.13
889.6	17552.29
889.917	17490.37
890.233	17476.36
890.55	17525.17
890.866	17447.89
891.182	17374.9
891.498	17390.49
891.815	17339.64
892.131	17190.49
892.447	17237.27
892.763	17072.08
893.079	17054.23
893.395	16954.12
893.71	16993.66
894.026	16977.17
894.342	16981.01
894.657	16788.47
894.973	16771.97
895.289	16822.14
895.604	16600.68
895.92	16661.92
896.235	16572.21
896.55	16504.86
896.865	16548.25
897.181	16387.13
897.496	16432.55
897.811	16369.27
898.126	16225.32
898.441	16198.88
898.756	16159.33
899.071	16078.66
899.386	16066.46
899.7	15901.94
900.015	15876.4
900.33	15753.92
900.644	15718.67
900.959	15715.05
901.273	15745.79
901.588	15614.04
901.902	15582.4
902.216	15553.25
902.531	15487.71
902.845	15421.28
903.159	15349.19
903.473	15342.41
903.787	15231
904.101	15185.8
904.415	15180.15
904.729	15130.89
905.042	15025.13
905.356	14913.04
905.67	14885.7
905.984	14888.86
906.297	14847.51
906.611	14708.07
906.924	14659.71
907.237	14684.12
907.551	14589.21
907.864	14534.74
908.177	14491.81
908.491	14419.72
908.804	14296.79
909.117	14237.35
909.43	14143.12
909.743	14139.5
910.056	14127.75
910.368	14094.3
910.681	14008.21
910.994	13971.37
911.307	13849.57
911.619	13702.45
911.932	13861.99
912.244	13645.28
912.557	13700.19
912.869	13584.49
913.181	13565.73
913.494	13500.2
913.806	13447.32
914.118	13403.7
914.43	13355.57
914.742	13174.1
915.054	13183.14
915.366	13149.47
915.678	13146.53
915.99	12994.45
916.302	12932.08
916.613	12906.31
916.925	12930.49
917.236	12844.39
917.548	12726.2
917.859	12827.67
918.171	12629.94
918.482	12572.54
918.794	12490.5
919.105	12434.01
919.416	12389.26
919.727	12321.47
920.038	12429.49
920.349	12297.74
920.66	12210.06
920.971	12218.2
921.282	12222.04
921.593	12008.48
921.903	11985.21
922.214	12017.3
922.525	11921.03
922.835	11868.83
923.146	11803.97
923.456	11810.97
923.767	11643.75
924.077	11640.81
924.387	11619.34
924.697	11536.63
925.008	11457.09
925.318	11501.6
925.628	11406.24
925.938	11427.26
926.248	11334.6
926.558	11180.71
926.867	11314.49
927.177	11151.56
927.487	11093.71
927.796	10978
928.106	11048.96
928.416	10976.42
928.725	10911.56
929.034	10903.65
929.344	10840.6
929.653	10832.92
929.962	10781.17
930.271	10712.25
930.581	10642.87
930.89	10597.67
931.199	10535.75
931.508	10555.19
931.817	10476.77
932.125	10409.88
932.434	10458.24
932.743	10364.01
933.051	10224.58
933.36	10243.78
933.669	10175.31
933.977	10152.49
934.286	10059.61
934.594	10107.06
934.902	9992.49
935.21	9919.95
935.519	9918.37
935.827	9876.11
936.135	9825.49
936.443	9669.34
936.751	9692.84
937.059	9726.74
937.367	9648.32
937.674	9710.92
937.982	9630.24
938.29	9524.26
938.597	9497.82
938.905	9459.85
939.213	9411.49
939.52	9341.89
939.827	9338.05
940.135	9312.51
940.442	9312.06
940.749	9178.73
941.056	9197.26
941.363	9167.2
941.67	9137.82
941.977	9020.77
942.284	8992.97
942.591	8958.62
942.898	8990.03
943.205	8919.98
943.511	8856.93
943.818	8827.55
944.125	8761.11
944.431	8760.43
944.738	8693.32
945.044	8636.82
945.35	8660.32
945.657	8576.48
945.963	8531.96
946.269	8522.25
946.575	8465.53
946.881	8455.36
947.187	8417.84
947.493	8370.16
947.799	8299.43
948.105	8284.74
948.41	8230.96
948.716	8234.12
949.022	8174.91
949.327	8117.06
949.633	8108.25
949.938	8109.38
950.244	8032.77
950.549	7994.13
950.854	7913.68
951.16	7934.47
951.465	7878.2
951.77	7886.78
952.075	7801.14
952.38	7767.69
952.685	7717.3
952.99	7700.35
953.294	7693.57
953.599	7583.29
953.904	7552.33
954.209	7583.52
954.513	7523.86
954.818	7451.32
955.122	7534.7
955.426	7383.52
955.731	7411.32
956.035	7385.55
956.339	7315.27
956.643	7325.89
956.948	7260.13
957.252	7208.61
957.556	7193.92
957.86	7197.76
958.163	7177.42
958.467	7131.78
958.771	7033.47
959.075	7062.63
959.378	7001.38
959.682	7006.81
959.985	6907.37
960.289	6937.88
960.592	6873.25
960.896	6830.77
961.199	6857.43
961.502	6809.52
961.805	6775.4
962.108	6688.85
962.411	6696.08
962.714	6648.85
963.017	6664.67
963.32	6637.1
963.623	6538.8
963.926	6619.47
964.228	6493.83
964.531	6505.13
964.833	6502.41
965.136	6429.42
965.438	6375.64
965.741	6336.09
966.043	6342.64
966.345	6278.24
966.648	6279.37
966.95	6266.71
967.252	6186.26
967.554	6171.8
967.856	6172.93
968.158	6141.75
968.46	6132.03
968.761	6045.48
969.063	6111.01
969.365	6061.75
969.666	5995.08
969.968	5948.53
970.269	5952.15
970.571	5963.67
970.872	5922.09
971.174	5878.02
971.475	5814.52
971.776	5839.61
972.077	5788.53
972.378	5764.35
972.679	5739.5
972.98	5734.3
973.281	5703.56
973.582	5686.16
973.883	5619.5
974.183	5642.32
974.484	5561.65
974.785	5569.78
975.085	5564.13
975.386	5553.29
975.686	5476
975.986	5508.77
976.287	5456.34
976.587	5387.19
976.887	5348.32
977.187	5379.51
977.487	5394.87
977.787	5309.22
978.087	5297.93
978.387	5231.71
978.687	5275.33
978.987	5191.26
979.286	5219.06
979.586	5146.52
979.885	5163.01
980.185	5117.59
980.484	5092.73
980.784	5056.35
981.083	5063.13
981.382	5032.17
981.682	5050.7
981.981	5005.28
982.28	4992.62
982.579	4929.8
982.878	4920.76
983.177	4890.93
983.475	4836.02
983.774	4808
984.073	4841.44
984.372	4790.59
984.67	4820.42
984.969	4740.2
985.267	4750.14
985.566	4696.36
985.864	4715.34
986.162	4682.35
986.461	4636.47
986.759	4627.43
987.057	4568.91
987.355	4543.14
987.653	4538.4
987.951	4504.73
988.249	4460.21
988.547	4504.73
988.844	4414.56
989.142	4459.3
989.44	4368.23
989.737	4400.77
990.035	4386.99
990.332	4369.36
990.63	4311.96
990.927	4306.99
991.224	4310.16
991.521	4266.54
991.819	4284.39
992.116	4264.51
992.413	4165.75
992.71	4162.59
993.006	4215.24
993.303	4123.95
993.6	4178.86
993.897	4104.06
994.193	4096.6
994.49	4077.62
994.787	4026.32
995.083	3992.88
995.379	4015.02
995.676	3999.88
995.972	3963.27
996.268	3937.74
996.565	3904.97
996.861	3897.96
997.157	3889.83
997.453	3896.38
997.749	3841.24
998.044	3820.22
998.34	3802.37
998.636	3740
998.932	3770.28
999.227	3664.3
999.523	3691.19
999.818	3723.05
1000.114	3708.36
1000.409	3647.35
1000.704	3623.17
1001	3617.52
1001.295	3595.37
1001.59	3604.18
1001.885	3582.49
1002.18	3552.66
1002.475	3547.69
1002.77	3468.82
1003.065	3424.08
1003.359	3433.79
1003.654	3427.24
1003.949	3406
1004.243	3383.17
1004.538	3311.99
1004.832	3350.86
1005.127	3355.83
1005.421	3333.46
1005.715	3284.65
1006.009	3250.07
1006.304	3253.01
1006.598	3213.69
1006.892	3179.11
1007.186	3161.94
1007.48	3180.02
1007.773	3135.72
1008.067	3125.33
1008.361	3078.55
1008.655	3075.39
1008.948	3093.69
1009.242	3099.79
1009.535	2987.25
1009.829	3042.62
1010.122	3016.86
1010.415	2978.44
1010.708	2956.29
1011.001	2995.61
1011.295	2911.55
1011.588	2921.26
1011.881	2865.22
1012.173	2858.89
1012.466	2862.74
1012.759	2835.17
1013.052	2792.23
1013.344	2841.49
1013.637	2785.68
1013.93	2806.47
1014.222	2762.85
1014.514	2744.77
1014.807	2717.88
1015.099	2707.94
1015.391	2707.26
1015.683	2658.45
1015.976	2670.65
1016.268	2628.17
1016.56	2577.32
1016.851	2611.22
1017.143	2587.94
1017.435	2559.47
1017.727	2532.8
1018.018	2511.33
1018.31	2529.86
1018.602	2493.71
1018.893	2468.85
1019.185	2429.98
1019.476	2438.57
1019.767	2450.09
1020.058	2401.96
1020.35	2349.53
1020.641	2351.56
1020.932	2354.5
1021.223	2325.35
1021.514	2291.68
1021.804	2317.21
1022.095	2259.59
1022.386	2287.61
1022.677	2270.21
1022.967	2212.13
1023.258	2204.9
1023.548	2205.58
1023.839	2212.58
1024.129	2174.62
1024.419	2139.36
1024.709	2128.97
1025	2136.2
1025.29	2108.86
1025.58	2107.05
1025.87	2061.4
1026.16	2049.88
1026.449	2060.95
1026.739	2050.1
1027.029	2021.18
1027.319	1993.15
1027.608	2001.97
1027.898	1954.51
1028.187	1989.76
1028.477	1964.91
1028.766	1972.82
1029.055	1935.3
1029.344	1933.95
1029.634	1898.69
1029.923	1896.43
1030.212	1857.11
1030.501	1877.9
1030.79	1841.97
1031.078	1824.12
1031.367	1815.98
1031.656	1815.76
1031.945	1778.7
1032.233	1802.65
1032.522	1768.3
1032.81	1774.85
1033.099	1742.31
1033.387	1741.63
1033.675	1712.94
1033.963	1733.05
1034.251	1698.7
1034.54	1675.65
1034.828	1684.91
1035.116	1644.91
1035.403	1622.32
1035.691	1617.8
1035.979	1633.39
1036.267	1608.53
1036.554	1596.78
1036.842	1562.88
1037.129	1576.67
1037.417	1565.14
1037.704	1546.16
1037.992	1527.18
1038.279	1536.44
1038.566	1503
1038.853	1503
1039.14	1503
