Data from 14-0848_FLMS001491_006.txt Node
Date: Thu Apr 19 16:08:20 BST 2018
User: hsy
Spectrometer: FLMS00149
Trigger mode: 0
Integration Time (sec): 1.000000E-2
Scans to average: 10
Electric dark correction enabled: true
Nonlinearity correction enabled: false
Boxcar width: 0
XAxis mode: Wavelengths
Number of Pixels in Spectrum: 2048
>>>>>Begin Spectral Data<<<<<
341.393	-11.53
341.776	-11.53
342.16	-11.53
342.543	-33.22
342.927	-64.41
343.31	-84.29
343.693	-78.42
344.077	-65.99
344.46	-66.66
344.843	-39.55
345.226	-42.94
345.61	-28.25
345.993	-10.62
346.376	-22.15
346.759	14.01
347.142	20.56
347.525	53.33
347.908	50.17
348.291	72.99
348.674	107.57
349.057	120.22
349.44	122.93
349.823	134.23
350.206	176.04
350.588	232.31
350.971	260.56
351.354	272.54
351.737	275.02
352.119	282.7
352.502	294.23
352.884	304.4
353.267	318.41
353.65	352.76
354.032	352.31
354.414	368.58
354.797	364.51
355.179	381.91
355.562	346.43
355.944	362.7
356.326	382.59
356.709	369.03
357.091	371.29
357.473	393.89
357.855	390.5
358.238	391.18
358.62	402.7
359.002	388.46
359.384	376.94
359.766	390.95
360.148	381.91
360.53	373.55
360.912	405.64
361.294	395.7
361.676	394.34
362.057	389.59
362.439	368.58
362.821	388.92
363.203	402.48
363.584	385.07
363.966	378.52
364.348	386.66
364.729	378.75
365.111	383.94
365.493	379.88
365.874	406.99
366.256	399.54
366.637	387.56
367.019	374.23
367.4	379.65
367.781	374.68
368.163	373.55
368.544	377.84
368.925	394.57
369.306	379.2
369.688	380.55
370.069	382.59
370.45	397.28
370.831	386.66
371.212	401.12
371.593	385.53
371.974	373.78
372.355	397.05
372.736	372.65
373.117	392.08
373.498	380.78
373.879	393.44
374.26	379.65
374.641	398.18
375.021	408.8
375.402	401.35
375.783	389.82
376.163	423.04
376.544	420.33
376.925	410.16
377.305	408.8
377.686	399.99
378.066	409.71
378.447	416.26
378.827	419.2
379.208	418.97
379.588	409.25
379.968	427.33
380.349	421.23
380.729	434.11
381.109	420.33
381.489	419.88
381.87	444.06
382.25	443.15
382.63	445.64
383.01	460.1
383.39	437.28
383.77	439.54
384.15	433.43
384.53	431.18
384.91	449.03
385.29	440.89
385.67	462.36
386.049	463.04
386.429	431.4
386.809	437.05
387.189	456.03
387.568	480.89
387.948	486.31
388.328	466.65
388.707	473.89
389.087	481.12
389.466	486.77
389.846	503.72
390.225	487.44
390.605	492.19
390.984	495.58
391.363	500.78
391.743	512.3
392.122	483.6
392.501	496.48
392.881	519.31
393.26	519.53
393.639	514.34
394.018	532.19
394.397	523.15
394.776	529.03
395.155	521.34
395.534	531.51
395.913	543.71
396.292	520.44
396.671	550.49
397.05	527.44
397.429	537.84
397.808	565.86
398.186	547.56
398.565	533.09
398.944	546.2
399.323	559.31
399.701	561.79
400.08	578.06
400.458	572.19
400.837	557.27
401.215	598.4
401.594	589.81
401.972	591.62
402.351	592.07
402.729	607.22
403.107	609.7
403.486	620.32
403.864	618.74
404.242	595.69
404.62	641.57
404.999	633.88
405.377	622.58
405.755	658.51
406.133	638.4
406.511	649.93
406.889	655.8
407.267	663.49
407.645	672.3
408.023	684.73
408.401	669.81
408.779	686.99
409.156	717.95
409.534	713.88
409.912	726.08
410.29	713.88
410.667	717.04
411.045	752.97
411.422	762.24
411.8	738.06
412.178	766.53
412.555	772.64
412.933	785.29
413.31	784.16
413.687	791.84
414.065	799.53
414.442	811.96
414.819	840.66
415.197	818.74
415.574	856.93
415.951	857.38
416.328	855.8
416.705	865.74
417.082	849.7
417.46	864.61
417.837	897.6
418.214	911.16
418.591	884.27
418.967	880.2
419.344	884.95
419.721	919.52
420.098	917.04
420.475	909.58
420.852	921.78
421.228	922.46
421.605	916.81
421.982	941.9
422.358	972.18
422.735	964.49
423.111	964.72
423.488	969.01
423.864	1017.83
424.241	999.52
424.617	1023.02
424.994	1029.58
425.37	1019.41
425.746	1037.26
426.123	1026.41
426.499	1055.11
426.875	1050.82
427.251	1053.98
427.627	1098.5
428.003	1105.73
428.379	1090.59
428.756	1102.34
429.132	1136.02
429.507	1124.72
429.883	1160.42
430.259	1138.05
430.635	1164.04
431.011	1179.63
431.387	1200.87
431.763	1207.43
432.138	1203.36
432.514	1248.55
432.89	1243.36
433.265	1296.92
433.641	1282.9
434.016	1287.2
434.392	1329.46
434.767	1299.17
435.143	1275.67
435.518	1317.71
435.894	1339.85
436.269	1392.05
436.644	1399.06
437.02	1421.43
437.395	1410.36
437.77	1402.9
438.145	1413.75
438.52	1443.58
438.895	1467.31
439.271	1434.54
439.646	1486.29
440.021	1480.41
440.395	1508.66
440.77	1483.8
441.145	1513.18
441.52	1540.07
441.895	1509.79
442.27	1527.42
442.645	1543.69
443.019	1549.11
443.394	1552.95
443.769	1582.11
444.143	1564.93
444.518	1575.1
444.892	1604.7
445.267	1591.82
445.641	1621.65
446.016	1627.08
446.39	1629.56
446.764	1655.1
447.139	1626.62
447.513	1654.87
447.887	1657.81
448.262	1672.5
448.636	1696.45
449.01	1729.67
449.384	1750.01
449.758	1701.2
450.132	1719.73
450.506	1783.91
450.88	1760.63
451.254	1813.51
451.628	1798.37
452.002	1840.63
452.376	1845.15
452.75	1885.37
453.123	1847.86
453.497	1901.87
453.871	1912.94
454.244	1974.64
454.618	1970.57
454.992	2005.6
455.365	2004.24
455.739	2035.43
456.112	2059.38
456.486	2086.72
456.859	2114.07
457.232	2125.37
457.606	2134.63
457.979	2164.91
458.352	2176.89
458.725	2221.64
459.099	2247.17
459.472	2254.86
459.845	2331.92
460.218	2327.4
460.591	2365.81
460.964	2341.63
461.337	2425.92
461.71	2432.48
462.083	2491.01
462.456	2480.39
462.829	2524.45
463.201	2538.92
463.574	2552.25
463.947	2601.06
464.32	2651.46
464.692	2642.64
465.065	2691.23
465.438	2732.36
465.81	2758.12
466.183	2731.23
466.555	2801.51
466.928	2842.86
467.3	2846.25
467.672	2886.7
468.045	2938
468.417	2958.11
468.789	2985.68
469.161	3024.55
469.534	3079.92
469.906	3121.27
470.278	3125.79
470.65	3102.29
471.022	3239.24
471.394	3290.99
471.766	3312.23
472.138	3355.39
472.51	3400.36
472.882	3434.71
473.253	3469.29
473.625	3533.24
473.997	3595.84
474.369	3680.36
474.74	3695.95
475.112	3709.73
475.484	3795.15
475.855	3892.78
476.227	3896.39
476.598	4048.26
476.97	4058.42
477.341	4146.78
477.713	4214.58
478.084	4261.36
478.455	4396.04
478.827	4370.96
479.198	4562.37
479.569	4562.59
479.94	4656.6
480.311	4735.47
480.682	4856.14
481.053	4957.38
481.424	5061.79
481.795	5116.02
482.166	5182.69
482.537	5285.06
482.908	5394.89
483.279	5463.59
483.65	5637.59
484.021	5792.39
484.391	5805.27
484.762	5923.69
485.133	5980.86
485.503	6093.63
485.874	6306.95
486.244	6353.05
486.615	6531.35
486.985	6609.77
487.356	6763.44
487.726	6837.79
488.097	7052.7
488.467	7132.69
488.837	7316.42
489.207	7471.89
489.578	7689.52
489.948	7687.26
490.318	7927.02
490.688	7961.15
491.058	8150.97
491.428	8426.9
491.798	8526.1
492.168	8725.19
492.538	8860.11
492.908	9053.55
493.278	9244.28
493.648	9376.25
494.017	9554.33
494.387	9754.32
494.757	9895.78
495.126	10055.55
495.496	10141.43
495.866	10394.08
496.235	10610.12
496.605	10781.41
496.974	10965.81
497.344	11282.87
497.713	11268.63
498.082	11520.15
498.452	11815.06
498.821	12004.43
499.19	12106.12
499.559	12384.99
499.928	12596.5
500.298	12805.54
500.667	12997.62
501.036	13173.21
501.405	13400.33
501.774	13538.4
502.143	13795.57
502.512	13973.87
502.88	14286.63
503.249	14478.94
503.618	14629.22
503.987	14786.05
504.356	14991.47
504.724	15225.59
505.093	15542.87
505.462	15652.47
505.83	15793.26
506.199	16025.34
506.567	16432.11
506.936	16449.96
507.304	16810.86
507.672	16973.34
508.041	17236.83
508.409	17512.76
508.777	17634.34
509.145	17994.78
509.514	18027.32
509.882	18299.63
510.25	18545.73
510.618	18744.59
510.986	18907.98
511.354	19093.96
511.722	19428.87
512.09	19729.88
512.458	19808.52
512.826	20038.34
513.193	20125.12
513.561	20263.87
513.929	20585
514.297	20789.06
514.664	20989.96
515.032	21243.06
515.4	21480.34
515.767	21640.11
516.135	21780.44
516.502	21880.78
516.869	22311.73
517.237	22381.56
517.604	22400.77
517.972	22731.83
518.339	22916.69
518.706	23023.8
519.073	23268.77
519.44	23406.16
519.808	23675.99
520.175	23895.87
520.542	24211.57
520.909	24413.82
521.276	24532.24
521.643	24787.6
522.009	25154.59
522.376	25174.71
522.743	25329.5
523.11	25874.8
523.477	26014.68
523.843	26063.5
524.21	26451.51
524.577	26673.87
524.943	26806.3
525.31	27026.86
525.676	27406.29
526.043	27492.16
526.409	27730.57
526.776	28027.29
527.142	28127.4
527.508	28359.71
527.874	28536.88
528.241	28856.19
528.607	28884.89
528.973	29250.76
529.339	29305.67
529.705	29629.05
530.071	29917.63
530.437	30145.65
530.803	30305.87
531.169	30456.6
531.535	30636.93
531.901	30845.06
532.267	30941.79
532.632	31158.5
532.998	31196.92
533.364	31490.02
533.73	31566.18
534.095	31896.11
534.461	31956.45
534.826	32108.76
535.192	32132.49
535.557	32638.92
535.923	32510.78
536.288	32688.86
536.653	32850.44
537.019	32865.12
537.384	32932.47
537.749	33138.56
538.114	33218.11
538.479	33326.58
538.845	33299.92
539.21	33408.84
539.575	33614.26
539.94	33815.83
540.305	33821.03
540.67	33975.83
541.034	34113.91
541.399	34176.95
541.764	34276.39
542.129	34455.37
542.494	34583.27
542.858	34683.83
543.223	34620.78
543.587	34916.82
543.952	34828.01
544.316	34981.91
544.681	34784.4
545.045	35134.22
545.41	35282.91
545.774	35188.23
546.138	35186.19
546.503	35455.56
546.867	35413.08
547.231	35873.18
547.595	35812.84
547.959	35867.08
548.324	35971.26
548.688	35948.66
549.052	36174.87
549.416	36165.38
549.779	36271.81
550.143	36380.06
550.507	36694.85
550.871	36634.97
551.235	36667.74
551.599	37099.82
551.962	37070.44
552.326	37060.95
552.689	37323.54
553.053	37189.53
553.417	37210.1
553.78	37600.37
554.143	37752
554.507	37780.02
554.87	37752.68
555.234	38348.6
555.597	38011.2
555.96	38166.68
556.323	38398.31
556.686	38390.85
557.05	38740.9
557.413	38694.58
557.776	38888.69
558.139	39129.59
558.502	39268.12
558.865	39151.96
559.228	39760.31
559.59	39621.78
559.953	39791.95
560.316	40264.03
560.679	40014.54
561.041	40403.46
561.404	40540.18
561.767	40806.61
562.129	40653.85
562.492	40998.47
562.854	41037.34
563.217	41089.32
563.579	41305.58
563.941	41470.32
564.304	41520.04
564.666	41952.57
565.028	41888.62
565.39	42174.71
565.753	42465.78
566.115	42340.36
566.477	42609.28
566.839	42813.34
567.201	43158.19
567.563	43174.91
567.925	43405.64
568.287	43429.37
568.648	43540.32
569.01	43888.79
569.372	44129.69
569.734	44022.35
570.095	44351.15
570.457	44669.33
570.819	44650.58
571.18	44672.72
571.542	45024.35
571.903	45136.67
572.265	45265.02
572.626	45416.66
572.987	45479.93
573.349	45676.54
573.71	45982.07
574.071	45981.62
574.432	46306.13
574.794	46630.41
575.155	46631.09
575.516	46595.38
575.877	46774.82
576.238	46842.38
576.599	47125.54
576.96	47140.23
577.32	47389.49
577.681	47509.71
578.042	47692.98
578.403	47742.25
578.763	47819.08
579.124	47935.91
579.485	48374.77
579.845	48357.6
580.206	48460.65
580.566	48425.62
580.927	48626.07
581.287	48912.61
581.648	48671.49
582.008	49012.72
582.368	49131.59
582.728	49309.44
583.089	49311.92
583.449	49384.69
583.809	49558.47
584.169	49708.52
584.529	49710.11
584.889	50080.94
585.249	50056.08
585.609	50005.69
585.969	50278.23
586.329	50190.32
586.688	50470.09
587.048	50573.13
587.408	50643.64
587.768	50819
588.127	50889.28
588.487	50916.18
588.846	51301.02
589.206	51100.8
589.565	51207.47
589.925	51547.57
590.284	51534.92
590.643	51755.02
591.003	51792.76
591.362	52119.08
591.721	52038.63
592.08	52189.36
592.44	52340.09
592.799	52350.49
593.158	52342.8
593.517	52475.23
593.876	52666.64
594.235	52733.3
594.593	52867.31
594.952	52995.67
595.311	52963.35
595.67	53225.04
596.029	53421.87
596.387	53499.84
596.746	53736.44
597.104	53526.5
597.463	53622.54
597.822	53821.41
598.18	53866.15
598.538	53938.47
598.897	54147.73
599.255	54115.19
599.613	54526.48
599.972	54356.54
600.33	54555.63
600.688	54546.14
601.046	54659.35
601.404	54912.68
601.762	54888.5
602.12	55044.65
602.478	55041.26
602.836	55100.7
603.194	55076.29
603.552	55228.38
603.91	55204.2
604.268	55333.46
604.625	55397.41
604.983	55690.74
605.341	55533.91
605.698	55803.96
606.056	55939.77
606.413	55797.18
606.771	56085.53
607.128	55997.4
607.485	56020.45
607.843	56146.55
608.2	56252.08
608.557	56392.64
608.914	56383.83
609.272	56561
609.629	56706.76
609.986	56765.97
610.343	56695.91
610.7	56911.05
611.057	56866.08
611.414	56904.04
611.771	57105.62
612.127	57271.04
612.484	57211.38
612.841	57293.86
613.198	57188.55
613.554	57272.17
613.911	57524.59
614.267	57513.97
614.624	57453.18
614.98	57684.81
615.337	57753.74
615.693	57758.71
616.05	57782.44
616.406	57966.39
616.762	57956.22
617.118	58002.09
617.475	58003.22
617.831	58185.59
618.187	58223.1
618.543	58200.73
618.899	58401.63
619.255	58320.27
619.611	58247.06
619.967	58448.41
620.323	58539.25
620.678	58476.2
621.034	58459.03
621.39	58444.11
621.746	58568.4
622.101	58752.13
622.457	58573.38
622.812	58624.9
623.168	58678.23
623.523	58775.63
623.879	58824.44
624.234	58713.48
624.589	58788.28
624.945	58831.22
625.3	58888.4
625.655	58853.59
626.01	58839.36
626.365	58848.85
626.72	58831.22
627.075	58821.73
627.43	58857.21
627.785	58802.97
628.14	58891.56
628.495	58956.87
628.85	58905.12
629.205	58840.03
629.559	59007.49
629.914	58882.52
630.269	58869.64
630.623	58799.13
630.978	58775.86
631.332	58908.28
631.687	58908.73
632.041	58891.33
632.396	58909.41
632.75	58882.29
633.104	58879.58
633.459	58715.74
633.813	58752.13
634.167	58706.7
634.521	58741.96
634.875	58767.95
635.229	58699.02
635.583	58632.58
635.937	58581.96
636.291	58621.74
636.645	58547.84
636.999	58520.72
637.352	58565.92
637.706	58499.03
638.06	58530.44
638.413	58419.93
638.767	58388.3
639.121	58395.3
639.474	58322.99
639.828	58286.83
640.181	58271.01
640.534	58322.53
640.888	58263.1
641.241	58081.64
641.594	58148.3
641.947	58241.18
642.301	58163.67
642.654	58170
643.007	58126.61
643.36	58175.42
643.713	58111.01
644.066	58201.18
644.419	57983.11
644.771	57735.88
645.124	57462.9
645.477	57466.74
645.83	57342.67
646.182	57363.69
646.535	57276.01
646.888	57355.1
647.24	57238.72
647.593	57483.69
647.945	57283.24
648.298	57269.68
648.65	57135.67
649.002	57029.69
649.355	56936.36
649.707	56956.24
650.059	57005.51
650.411	57288.66
650.763	57336.35
651.115	57782.21
651.467	57652.72
651.819	57606.39
652.171	57546.06
652.523	57421.09
652.875	57489.56
653.227	57403.24
653.578	57600.52
653.93	57510.35
654.282	57343.35
654.633	57306.52
654.985	57426.29
655.337	57410.02
655.688	57401.65
656.039	57507.64
656.391	57216.8
656.742	57352.39
657.094	57270.36
657.445	57335.67
657.796	57378.38
658.147	57229.68
658.498	57250.7
658.849	57291.6
659.2	57262.68
659.551	57119.4
659.902	57269
660.253	57096.35
660.604	57246.86
660.955	57083.92
661.306	57267.87
661.656	57146.75
662.007	57091.83
662.358	57101.78
662.708	57158.5
663.059	57140.64
663.409	57022.68
663.76	57104.71
664.11	57101.78
664.461	57163.02
664.811	57190.59
665.161	57121.89
665.511	57034.88
665.862	57120.98
666.212	57069.91
666.562	57140.87
666.912	57026.07
667.262	56944.94
667.612	57054.09
667.962	57050.48
668.312	56979.97
668.662	57079.63
669.011	57048.9
669.361	57020.87
669.711	57076.01
670.06	56971.61
670.41	56947.43
670.76	56932.51
671.109	57040.08
671.459	56899.97
671.808	56963.7
672.157	56931.38
672.507	56801.44
672.856	56799.86
673.205	56907.43
673.554	56919.86
673.904	56833.53
674.253	57064.71
674.602	56852.06
674.951	56454.56
675.3	56462.47
675.649	56855.23
675.998	56848.22
676.346	56863.59
676.695	56902.91
677.044	56745.17
677.393	56777.49
677.741	56850.71
678.09	56717.6
678.438	56591.05
678.787	56702.24
679.135	56791.5
679.484	56515.8
679.832	56703.14
680.181	56546.54
680.529	56588.79
680.877	56522.58
681.225	56518.51
681.573	56659.3
681.922	56415.92
682.27	56400.1
682.618	56467.67
682.966	56336.15
683.314	56368.01
683.661	56369.37
684.009	56297.73
684.357	56262.02
684.705	56131.63
685.053	56293.66
685.4	56092.08
685.748	55996.95
686.095	56074.01
686.443	55896.84
686.79	55930.28
687.138	56030.17
687.485	56005.53
687.832	55824.75
688.18	55822.26
688.527	55703.39
688.874	55720.79
689.221	55696.39
689.568	55590.18
689.915	55537.75
690.262	55502.95
690.609	55428.15
690.956	55364.65
691.303	55398.77
691.65	55214.59
691.997	55217.08
692.344	55017.54
692.69	55006.69
693.037	55043.75
693.383	54814.6
693.73	54893.7
694.077	54761.72
694.423	54805.34
694.769	54584.55
695.116	54633.59
695.462	54465.91
695.808	54388.4
696.155	54556.76
696.501	54262.3
696.847	54290.1
697.193	54097.56
697.539	54131.68
697.885	53959.49
698.231	53912.71
698.577	53866.83
698.923	53864.8
699.269	53617.57
699.614	53540.74
699.96	53473.4
700.306	53456.45
700.651	53311.14
700.997	53245.83
701.342	53230.01
701.688	53150.92
702.033	52989.79
702.379	52980.98
702.724	52815.33
703.069	52893.3
703.415	52618.05
703.76	52557.04
704.105	52602.46
704.45	52431.16
704.795	52271.85
705.14	52199.53
705.485	52264.39
705.83	52002.93
706.175	52123.15
706.52	52084.96
706.865	51862.82
707.209	51756.38
707.554	51693.33
707.899	51694.91
708.243	51525.65
708.588	51497.85
708.932	51385.54
709.277	51418.76
709.621	51241.59
709.966	50976.06
710.31	51078.43
710.654	50785.56
710.998	50877.53
711.342	50830.75
711.687	50647.71
712.031	50644.54
712.375	50462.18
712.719	50535.62
713.063	50326.13
713.407	50557.09
713.75	50255.63
714.094	50241.16
714.438	50108.74
714.782	50083.65
715.125	49929.53
715.469	50173.14
715.812	49840.5
716.156	49701.29
716.499	49789.88
716.843	49732.03
717.186	49583.1
717.53	49809.99
717.873	49697.9
718.216	49572.71
718.559	49402.32
718.902	49065.15
719.246	49146.96
719.589	49233.96
719.932	49050.01
720.275	48953.97
720.617	49148.54
720.96	48985.15
721.303	48819.51
721.646	48907.87
721.989	48669.68
722.331	48794.2
722.674	48764.37
723.016	48667.65
723.359	48529.12
723.701	48554.88
724.044	48487.54
724.386	48303.59
724.729	48505.39
725.071	48427.65
725.413	48372.97
725.755	48220.88
726.097	48144.95
726.439	48019.75
726.782	47926.2
727.124	48196.25
727.465	47967.55
727.807	47878.74
728.149	47969.13
728.491	47852.75
728.833	47845.52
729.175	47688.69
729.516	47695.7
729.858	47707.45
730.199	47782.25
730.541	47630.84
730.882	47601.46
731.224	47584.74
731.565	47453.67
731.906	47511.75
732.248	47482.59
732.589	47237.18
732.93	47246.22
733.271	47281.92
733.612	47243.96
733.953	47329.83
734.294	47248.7
734.635	47064.07
734.976	47445.08
735.317	47085.99
735.658	47234.01
735.999	47095.03
736.339	46918.09
736.68	47169.83
737.021	47049.61
737.361	46986.34
737.702	47244.18
738.042	46982.72
738.383	46970.52
738.723	47114.92
739.063	46992.44
739.404	47020.23
739.744	46884.42
740.084	46854.14
740.424	46966
740.764	46655.27
741.104	46982.95
741.444	46728.49
741.784	46715.16
742.124	46766.91
742.464	46714.48
742.804	46609.62
743.143	46671.99
743.483	46688.04
743.823	46643.29
744.162	46593.35
744.502	46589.96
744.841	46524.65
745.181	46649.62
745.52	46493.01
745.86	46606.01
746.199	46533.69
746.538	46495.95
746.877	46746.12
747.216	46606.46
747.556	46480.81
747.895	46596.06
748.234	46516.97
748.573	46386.35
748.911	46476.97
749.25	46325.56
749.589	46426.58
749.928	46379.12
750.267	46590.87
750.605	46446.01
750.944	46391.1
751.283	46291.21
751.621	46542.28
751.96	46284.21
752.298	46424.09
752.636	46391.55
752.975	46256.86
753.313	46230.87
753.651	46406.92
753.989	46253.7
754.327	46314.49
754.666	46055.51
755.004	46139.8
755.342	46173.48
755.679	46210.54
756.017	45972.8
756.355	46147.94
756.693	45999.69
757.031	46141.84
757.368	45909.75
757.706	45916.31
758.044	45818.68
758.381	45863.65
758.719	45763.54
759.056	45798.8
759.394	45601.96
759.731	45406.04
760.068	45401.29
760.405	45318.13
760.743	45184.35
761.08	45321.52
761.417	45238.81
761.754	45229.32
762.091	45114.29
762.428	44851.02
762.765	44765.6
763.102	44891.25
763.438	44847.63
763.775	44463.01
764.112	44539.39
764.449	44515.67
764.785	44380.53
765.122	44207.2
765.458	44043.81
765.795	44068.22
766.131	44192.96
766.467	43964.27
766.804	43784.39
767.14	43486.99
767.476	43363.38
767.812	43294
768.148	43384.17
768.485	43310.95
768.821	42986.44
769.157	42954.8
769.492	42838.65
769.828	42805.43
770.164	42533.34
770.5	42337.87
770.836	42337.42
771.171	42208.16
771.507	42047.26
771.842	41880.48
772.178	41870.99
772.513	41711.67
772.849	41546.25
773.184	41568.4
773.519	41347.16
773.855	41275.98
774.19	41082.08
774.525	40955.08
774.86	40936.78
775.195	40836.21
775.53	40609.55
775.865	40462.89
776.2	40295.44
776.535	40086.86
776.87	40125.72
777.205	39897.71
777.539	39631.05
777.874	39817.94
778.209	39270.83
778.543	39465.63
778.878	39106.54
779.212	39102.47
779.547	38787.91
779.881	38841.92
780.215	38611.87
780.55	38663.39
780.884	38281.03
781.218	38319.67
781.552	38338.2
781.886	38022.05
782.22	37865.22
782.554	37642.17
782.888	37489.18
783.222	37385.68
783.556	37219.81
783.889	37095.97
784.223	36760.39
784.557	36863.89
784.89	36958.12
785.224	36492.83
785.557	36463.9
785.891	36345.03
786.224	36262.32
786.558	36092.16
786.891	35986.4
787.224	35827.31
787.557	35785.27
787.891	35624.37
788.224	35546.41
788.557	35379.86
788.89	35404.27
789.223	35235.46
789.556	34999.76
789.888	34993.2
790.221	34808.35
790.554	34621.24
790.887	34707.79
791.219	34357.29
791.552	34432.09
791.884	34284.75
792.217	34081.59
792.549	33955.04
792.882	33636.86
793.214	33652.9
793.546	33690.19
793.879	33523.19
794.211	33167.04
794.543	33282.29
794.875	33326.81
795.207	33178.56
795.539	33196.42
795.871	33169.98
796.203	32793.94
796.535	32712.59
796.867	32651.12
797.198	32454.29
797.53	32348.3
797.862	32180.4
798.193	32240.06
798.525	32122.77
798.856	32165.48
799.188	31705.61
799.519	31666.29
799.85	31622.67
800.182	31522.79
800.513	31601.88
800.844	31080.54
801.175	31324.37
801.506	31250.93
801.837	31036.92
802.168	30948.79
802.499	30965.51
802.83	30704.05
803.161	30605.97
803.491	30649.82
803.822	30610.72
804.153	30501.57
804.483	30302.48
804.814	30074.01
805.145	30255.48
805.475	30134.57
805.805	30032.43
806.136	30047.8
806.466	29847.8
806.796	29819.1
807.126	29665.43
807.457	29526.91
807.787	29565.78
808.117	29605.1
808.447	29378.89
808.777	29401.26
809.107	29120.14
809.436	29114.49
809.766	29056.41
810.096	28984.55
810.426	28852.57
810.755	28971.44
811.085	28834.04
811.414	28905.23
811.744	28520.38
812.073	28534.39
812.403	28494.62
812.732	28251.01
813.061	28472.25
813.39	28168.3
813.719	28163.33
814.049	28426.6
814.378	28129.66
814.707	28027.06
815.036	28100.05
815.365	27825.71
815.693	27684.24
816.022	27721.53
816.351	27563.34
816.68	27549.78
817.008	27627.52
817.337	27459.39
817.665	27324.03
817.994	27276.8
818.322	27264.59
818.651	27223.69
818.979	27115.9
819.307	27146.63
819.636	27037.03
819.964	27173.75
820.292	27169
820.62	26931.04
820.948	27011.04
821.276	27072.06
821.604	26932.63
821.932	27043.81
822.259	27035.67
822.587	26987.31
822.915	26906.86
823.243	27000.42
823.57	26776.25
823.898	27015.33
824.225	26840.2
824.553	26929.24
824.88	26886.52
825.207	26942.79
825.535	26679.75
825.862	26912.06
826.189	26812.18
826.516	27017.82
826.843	27004.71
827.17	27022.79
827.497	26978.27
827.824	26963.81
828.151	26984.38
828.478	26861.21
828.805	27145.95
829.131	26924.94
829.458	26936.69
829.785	26806.75
830.111	26878.16
830.438	26969.01
830.764	26893.98
831.09	26982.57
831.417	26768.11
831.743	26928.56
832.069	26847.88
832.395	26930.14
832.722	26786.87
833.048	26867.54
833.374	26962.68
833.7	26606.08
834.026	26887.65
834.351	26804.49
834.677	26872.51
835.003	26804.27
835.329	26729.47
835.654	26772.4
835.98	26526.53
836.306	26844.94
836.631	26598.4
836.956	26738.28
837.282	26684.04
837.607	26575.57
837.932	26501.68
838.258	26470.94
838.583	26479.76
838.908	26464.39
839.233	26440.21
839.558	26314.34
839.883	26372.64
840.208	26158.41
840.533	26174.9
840.858	26269.82
841.182	26161.12
841.507	26081.8
841.832	26052.65
842.156	25986.66
842.481	25951.63
842.805	25887.68
843.13	25856.04
843.454	25762.94
843.778	25627.12
844.103	25592.55
844.427	25597.29
844.751	25644.98
845.075	25585.32
845.399	25452.44
845.723	25256.06
846.047	25441.59
846.371	25174.71
846.695	25012.9
847.019	25021.94
847.343	24754.6
847.666	24781.72
847.99	24617.66
848.313	24479.58
848.637	24578.56
848.96	24383.54
849.284	24487.72
849.607	24180.83
849.931	24186.71
850.254	23988.3
850.577	23826.72
850.9	23758.47
851.223	23767.74
851.546	23630.11
851.869	23508.53
852.192	23613.16
852.515	23309.22
852.838	23161.88
853.161	23320.29
853.483	23012.28
853.806	23115.55
854.129	23042.56
854.451	22891.15
854.774	22657.94
855.096	22726.18
855.419	22620.42
855.741	22525.96
856.063	22445.29
856.385	22379.75
856.708	22340.88
857.03	22268.34
857.352	22174.56
857.674	22165.74
857.996	22029.25
858.318	21944.96
858.64	22038.06
858.961	21796.72
859.283	21787.68
859.605	21712.65
859.926	21751.52
860.248	21696.38
860.57	21592.88
860.891	21533.9
861.212	21324.19
861.534	21439.66
861.855	21407.35
862.176	21347.01
862.498	21369.61
862.819	21315.37
863.14	21227.46
863.461	21233.34
863.782	21175.94
864.103	21179.1
864.424	21067.69
864.745	21171.42
865.065	20919.45
865.386	20806.01
865.707	20987.02
866.027	20960.35
866.348	20841.26
866.668	20854.82
866.989	20776.63
867.309	20574.15
867.63	20586.35
867.95	20657.99
868.27	20553.58
868.59	20585.45
868.91	20538.89
869.23	20514.71
869.55	20366.7
869.87	20432.01
870.19	20338.45
870.51	20370.54
870.83	20312.69
871.15	20227.49
871.469	20131
871.789	20262.29
872.109	20270.65
872.428	20217.1
872.748	20180.49
873.067	20183.42
873.386	20053.48
873.706	20088.06
874.025	19933.94
874.344	19899.36
874.663	19922.41
874.982	19858.01
875.301	19854.39
875.62	19814.85
875.939	19759.48
876.258	19817.56
876.577	19681.52
876.896	19628.86
877.214	19625.92
877.533	19547.96
877.852	19540.96
878.17	19496.89
878.489	19535.08
878.807	19416.89
879.125	19484.23
879.444	19432.26
879.762	19382.32
880.08	19445.14
880.398	19242.21
880.716	19334.63
881.034	19203.79
881.352	19271.58
881.67	19218.48
881.988	19212.38
882.306	19083.79
882.624	19191.59
882.941	18922.21
883.259	18927.86
883.577	18899.16
883.894	18855.32
884.212	18766.74
884.529	18755.21
884.846	18704.14
885.164	18558.16
885.481	18651.71
885.798	18592.96
886.115	18472.96
886.432	18494.88
886.75	18408.56
887.067	18503.92
887.383	18373.75
887.7	18352.96
888.017	18279.07
888.334	18328.33
888.651	18257.83
888.967	18222.57
889.284	18113.87
889.6	18004.95
889.917	17959.53
890.233	18001.56
890.55	17836.59
890.866	17802.7
891.182	17806.09
891.498	17790.27
891.815	17714.34
892.131	17603.6
892.447	17493.1
892.763	17482.7
893.079	17455.36
893.395	17385.98
893.71	17386.44
894.026	17282.71
894.342	17382.82
894.657	17189.83
894.973	17174.69
895.289	17129.04
895.604	17019.67
895.92	17023.51
896.235	16973.56
896.55	16828.94
896.865	16825.09
897.181	16774.7
897.496	16786.45
897.811	16686.79
898.126	16503.52
898.441	16541.49
898.756	16428.04
899.071	16317.09
899.386	16408.16
899.7	16342.62
900.015	16279.12
900.33	16148.95
900.644	16107.37
900.959	16078.45
901.273	15951.44
901.588	15904.89
901.902	15867.83
902.216	15884.78
902.531	15770.88
902.845	15803.88
903.159	15566.37
903.473	15568.63
903.787	15511.23
904.101	15358.47
904.415	15440.27
904.729	15345.36
905.042	15275.76
905.356	15165.93
905.67	15226.72
905.984	15238.92
906.297	15114.4
906.611	15018.59
906.924	14950.34
907.237	14899.5
907.551	14923
907.864	14787.63
908.177	14773.62
908.491	14708.54
908.804	14574.31
909.117	14569.56
909.43	14440.3
909.743	14424.03
910.056	14418.6
910.368	14282.56
910.681	14266.29
910.994	14185.62
911.307	14185.16
911.619	13957.37
911.932	14116.92
912.244	13912.18
912.557	13923.7
912.869	13881.67
913.181	13922.57
913.494	13681.9
913.806	13759.64
914.118	13568
914.43	13666.99
914.742	13617.95
915.054	13494.79
915.366	13437.39
915.678	13345.86
915.99	13367.78
916.302	13201.01
916.613	13166.21
916.925	13165.08
917.236	13097.28
917.548	12988.36
917.859	13062.26
918.171	12934.35
918.482	12905.42
918.794	12767.35
919.105	12745.2
919.416	12650.97
919.727	12692.1
920.038	12676.5
920.349	12565.32
920.66	12628.14
920.971	12387.47
921.282	12378.66
921.593	12289.39
921.903	12210.53
922.214	12267.93
922.525	12124.65
922.835	12169.4
923.146	12097.08
923.456	11995.16
923.767	11962.17
924.077	11958.1
924.387	11896.64
924.697	11829.75
925.008	11745.23
925.318	11773.25
925.628	11732.57
925.938	11635.4
926.248	11477.44
926.558	11483.54
926.867	11499.58
927.177	11418.91
927.487	11331.23
927.796	11253.04
928.106	11289.87
928.416	11220.95
928.725	11177.56
929.034	11122.19
929.344	11164.45
929.653	11092.36
929.962	11033.61
930.271	10916.32
930.581	10976.43
930.89	10816.89
931.199	10817.57
931.508	10775.99
931.817	10728.53
932.125	10625.94
932.434	10609.21
932.743	10508.88
933.051	10483.79
933.36	10543.23
933.669	10398.82
933.977	10345.94
934.286	10266.62
934.594	10266.4
934.902	10213.97
935.21	10250.8
935.519	10191.14
935.827	10151.82
936.135	10071.83
936.443	9999.74
936.751	9986.4
937.059	9964.26
937.367	9870.47
937.674	9813.98
937.982	9822.11
938.29	9866.86
938.597	9744.38
938.905	9620.76
939.213	9621.22
939.52	9588.22
939.827	9615.57
940.135	9494.21
940.442	9464.61
940.749	9396.14
941.056	9421.45
941.363	9341
941.67	9324.27
941.977	9334.22
942.284	9240.89
942.591	9206.09
942.898	9229.36
943.205	9164.05
943.511	9085.64
943.818	9067.56
944.125	8955.02
944.431	8947.11
944.738	8918.18
945.044	8850.16
945.35	8854.68
945.657	8750.5
945.963	8775.81
946.269	8684.07
946.575	8717.51
946.881	8668.02
947.187	8668.7
947.493	8524.07
947.799	8539.21
948.105	8496.95
948.41	8362.94
948.716	8371.98
949.022	8432.77
949.327	8280.46
949.633	8225.09
949.938	8259.9
950.244	8201.82
950.549	8138.32
950.854	8153.01
951.16	8180.12
951.465	8076.62
951.77	8015.38
952.075	7967.7
952.38	7981.03
952.685	7929.73
952.99	7860.58
953.294	7833.24
953.599	7762.51
953.904	7744.66
954.209	7707.59
954.513	7754.6
954.818	7632.12
955.122	7647.26
955.426	7644.77
955.731	7539.01
956.035	7488.16
956.339	7517.77
956.643	7469.63
956.948	7409.3
957.252	7414.72
957.556	7392.8
957.86	7335.63
958.163	7243.65
958.467	7317.32
958.771	7266.48
959.075	7212.01
959.378	7121.17
959.682	7115.97
959.985	7111.45
960.289	7106.03
960.592	7043.43
960.896	7046.37
961.199	6967.05
961.502	6954.62
961.805	6890.67
962.108	6888.18
962.411	6892.25
962.714	6756.21
963.017	6770.22
963.32	6819.26
963.623	6679.15
963.926	6728.64
964.228	6634.63
964.531	6617
964.833	6609.54
965.136	6565.48
965.438	6529.77
965.741	6492.26
966.043	6535.65
966.345	6397.8
966.648	6445.03
966.95	6439.6
967.252	6347.86
967.554	6320.51
967.856	6283.68
968.158	6265.15
968.46	6256.11
968.761	6224.02
969.063	6206.62
969.365	6189.67
969.666	6173.17
969.968	6068.99
970.269	6084.36
970.571	6075.55
970.872	5986.74
971.174	6035.55
971.475	6026.51
971.776	5924.14
972.077	5901.54
972.378	5887.3
972.679	5901.99
972.98	5859.05
973.281	5778.83
973.582	5827.19
973.883	5768.89
974.183	5764.82
974.484	5688.66
974.785	5629
975.085	5639.63
975.386	5619.97
975.686	5590.81
975.986	5541.78
976.287	5593.07
976.587	5533.87
976.887	5459.07
977.187	5466.3
977.487	5496.58
977.787	5366.86
978.087	5347.2
978.387	5369.8
978.687	5348.56
978.987	5308.56
979.286	5257.04
979.586	5256.13
979.885	5222.69
980.185	5216.59
980.484	5191.28
980.784	5160.32
981.083	5123.48
981.382	5089.58
981.682	5121
981.981	5120.54
982.28	5076.93
982.579	5020.88
982.878	5019.08
983.177	5000.77
983.475	4960.1
983.774	4912.87
984.073	4878.97
984.372	4909.93
984.67	4887.56
984.969	4841.91
985.267	4833.32
985.566	4788.12
985.864	4739.31
986.162	4758.74
986.461	4681.23
986.759	4718.97
987.057	4697.73
987.355	4671.29
987.653	4620.22
987.951	4562.82
988.249	4585.87
988.547	4549.94
988.844	4517.62
989.142	4491.63
989.44	4542.71
989.737	4456.83
990.035	4467.68
990.332	4441.69
990.63	4403.5
990.927	4363.05
991.224	4403.27
991.521	4400.11
991.819	4342.94
992.116	4330.51
992.413	4246.44
992.71	4268.59
993.006	4243.5
993.303	4222.04
993.6	4251.87
993.897	4216.61
994.193	4182.04
994.49	4165.31
994.787	4125.32
995.083	4100.68
995.379	4083.28
995.676	4089.84
995.972	4035.37
996.268	4059.55
996.565	4019.1
996.861	4000.35
997.157	3959.9
997.453	3939.78
997.749	3910.63
998.044	3851.2
998.34	3882.84
998.636	3858.2
998.932	3818.43
999.227	3789.28
999.523	3802.39
999.818	3737.08
1000.114	3718.55
1000.409	3726
1000.704	3686.68
1001	3662.73
1001.295	3659.34
1001.59	3701.82
1001.885	3632.45
1002.18	3601.71
1002.475	3610.75
1002.77	3582.28
1003.065	3490.98
1003.359	3531.21
1003.654	3514.03
1003.949	3513.13
1004.243	3486.91
1004.538	3443.53
1004.832	3434.26
1005.127	3400.81
1005.421	3380.25
1005.715	3386.35
1006.009	3365.79
1006.304	3306.35
1006.598	3288.95
1006.892	3245.34
1007.186	3230.2
1007.48	3192.23
1007.773	3199.46
1008.067	3188.62
1008.361	3156.75
1008.655	3191.78
1008.948	3150.2
1009.242	3141.84
1009.535	3109.3
1009.829	3062.29
1010.122	3091.22
1010.415	3027.94
1010.708	3058.22
1011.001	3022.52
1011.295	2980.71
1011.588	2952.69
1011.881	2948.4
1012.173	2943.43
1012.466	2907.04
1012.759	2907.49
1013.052	2886.25
1013.344	2849.64
1013.637	2863.65
1013.93	2788.85
1014.222	2813.49
1014.514	2768.97
1014.807	2784.56
1015.099	2763.54
1015.391	2725.58
1015.683	2710.66
1015.976	2724
1016.268	2696.88
1016.56	2704.34
1016.851	2626.6
1017.143	2656.88
1017.435	2626.15
1017.727	2560.84
1018.018	2577.11
1018.31	2570.1
1018.602	2564.9
1018.893	2545.7
1019.185	2500.73
1019.476	2503.44
1019.767	2464.34
1020.058	2442.65
1020.35	2422.99
1020.641	2387.96
1020.932	2374.63
1021.223	2402.2
1021.514	2357.9
1021.804	2356.32
1022.095	2343.44
1022.386	2314.06
1022.677	2299.6
1022.967	2249.21
1023.258	2258.92
1023.548	2225.93
1023.839	2205.82
1024.129	2226.83
1024.419	2197
1024.709	2157.01
1025	2154.29
1025.29	2176.21
1025.58	2149.55
1025.87	2102.77
1026.16	2116.33
1026.449	2093.5
1026.739	2128.53
1027.029	2080.62
1027.319	2027.97
1027.608	2017.35
1027.898	1975.99
1028.187	2010.79
1028.477	1989.33
1028.766	1969.44
1029.055	1940.29
1029.344	1936.22
1029.634	1952.27
1029.923	1927.86
1030.212	1935.54
1030.501	1897.58
1030.79	1874.98
1031.078	1847.41
1031.367	1853.96
1031.656	1815.77
1031.945	1831.36
1032.233	1828.88
1032.522	1799.27
1032.81	1773.29
1033.099	1775.09
1033.387	1782.78
1033.675	1759.28
1033.963	1739.39
1034.251	1711.59
1034.54	1722.67
1034.828	1692.84
1035.116	1679.5
1035.403	1696
1035.691	1635.66
1035.979	1667.53
1036.267	1655.1
1036.554	1611.71
1036.842	1621.88
1037.129	1597.47
1037.417	1580.3
1037.704	1593.63
1037.992	1570.35
1038.279	1572.84
1038.566	1544.82
1038.853	1544.82
1039.14	1544.82
