Data from 14-0848_FLMS001491_005.txt Node
Date: Thu Apr 19 16:08:18 BST 2018
User: hsy
Spectrometer: FLMS00149
Trigger mode: 0
Integration Time (sec): 1.000000E-2
Scans to average: 10
Electric dark correction enabled: true
Nonlinearity correction enabled: false
Boxcar width: 0
XAxis mode: Wavelengths
Number of Pixels in Spectrum: 2048
>>>>>Begin Spectral Data<<<<<
341.393	-18.18
341.776	-18.18
342.16	-18.18
342.543	-75.8
342.927	-58.63
343.31	-54.79
343.693	-70.15
344.077	-73.77
344.46	-69.25
344.843	-50.72
345.226	-57.5
345.61	-26.99
345.993	-26.76
346.376	-1.91
346.759	24.31
347.142	25.89
347.525	37.41
347.908	58.88
348.291	82.38
348.674	100.24
349.057	102.72
349.44	125.1
349.823	147.69
350.206	159.44
350.588	231.99
350.971	246.22
351.354	267.01
351.737	298.88
352.119	276.96
352.502	302.27
352.884	288.48
353.267	312.89
353.65	358.54
354.032	349.72
354.414	352.66
354.797	341.81
355.179	370.51
355.562	361.47
355.944	374.81
356.326	380.46
356.709	377.97
357.091	379.78
357.473	387.46
357.855	374.58
358.238	387.01
358.62	386.33
359.002	398.53
359.384	423.17
359.766	396.05
360.148	392.43
360.53	356.73
360.912	376.16
361.294	378.42
361.676	382.26
362.057	382.26
362.439	374.58
362.821	399.66
363.203	373.9
363.584	387.91
363.966	370.96
364.348	391.08
364.729	373
365.111	389.5
365.493	376.16
365.874	384.98
366.256	369.61
366.637	350.4
367.019	375.03
367.4	390.63
367.781	365.32
368.163	362.38
368.544	358.31
368.925	382.94
369.306	373
369.688	388.37
370.069	354.24
370.45	388.14
370.831	369.16
371.212	388.14
371.593	386.78
371.974	374.13
372.355	398.08
372.736	387.01
373.117	382.49
373.498	372.09
373.879	394.69
374.26	380.91
374.641	379.33
375.021	389.27
375.402	391.08
375.783	386.78
376.163	405.09
376.544	393.34
376.925	402.15
377.305	413.68
377.686	408.93
378.066	403.96
378.447	407.57
378.827	413.45
379.208	424.3
379.588	402.38
379.968	415.03
380.349	430.4
380.729	416.84
381.109	437.86
381.489	431.98
381.87	425.65
382.25	413.22
382.63	406.22
383.01	414.13
383.39	433.11
383.77	435.6
384.15	450.06
384.53	455.71
384.91	459.78
385.29	450.74
385.67	453.45
386.049	425.65
386.429	449.38
386.809	458.65
387.189	479.66
387.568	467.46
387.948	464.97
388.328	472.66
388.707	488.48
389.087	482.83
389.466	469.04
389.846	457.74
390.225	486.22
390.605	508.36
390.984	503.62
391.363	509.72
391.743	490.51
392.122	497.74
392.501	533.22
392.881	501.36
393.26	521.47
393.639	525.99
394.018	526.21
394.397	526.89
394.776	524.41
395.155	497.52
395.534	528.7
395.913	532.99
396.292	545.65
396.671	554.91
397.05	549.04
397.429	559.43
397.808	534.8
398.186	518.53
398.565	544.07
398.944	578.19
399.323	560.79
399.701	548.36
400.08	559.43
400.458	551.07
400.837	557.85
401.215	594.91
401.594	578.87
401.972	567.8
402.351	596.72
402.729	603.95
403.107	595.14
403.486	573.45
403.864	611.64
404.242	613.44
404.62	630.84
404.999	625.2
405.377	627.23
405.755	621.81
406.133	639.88
406.511	659.77
406.889	650.51
407.267	646.89
407.645	654.8
408.023	658.87
408.401	684.18
408.779	682.37
409.156	679.88
409.534	696.38
409.912	708.58
410.29	713.78
410.667	735.48
411.045	718.07
411.422	750.62
411.8	742.93
412.178	753.1
412.555	757.85
412.933	748.58
413.31	796.49
413.687	772.76
414.065	797.85
414.442	813.44
414.819	821.35
415.197	814.79
415.574	837.85
415.951	842.14
416.328	852.76
416.705	843.72
417.082	831.29
417.46	861.35
417.837	867
418.214	870.16
418.591	886.43
418.967	889.37
419.344	898.18
419.721	916.94
420.098	907.45
420.475	922.81
420.852	925.75
421.228	907
421.605	941.12
421.982	940.67
422.358	962.36
422.735	948.12
423.111	955.36
423.488	987.9
423.864	1007.11
424.241	1003.04
424.617	981.34
424.994	989.03
425.37	1038.29
425.746	1014.34
426.123	1032.64
426.499	1028.8
426.875	1051.62
427.251	1057.95
427.627	1064.51
428.003	1071.06
428.379	1106.99
428.756	1125.3
429.132	1094.11
429.507	1125.52
429.883	1140.21
430.259	1151.28
430.635	1182.24
431.011	1156.93
431.387	1178.63
431.763	1214.33
432.138	1169.14
432.514	1220.21
432.89	1230.15
433.265	1273.77
433.641	1270.6
434.016	1300.88
434.392	1283.48
434.767	1308.57
435.143	1314.67
435.518	1315.35
435.894	1355.57
436.269	1351.96
436.644	1379.3
437.02	1395.57
437.395	1370.49
437.77	1403.93
438.145	1401.22
438.52	1444.38
438.895	1448.9
439.271	1447.32
439.646	1435.8
440.021	1473.53
440.395	1478.51
440.77	1433.76
441.145	1478.51
441.52	1528.45
441.895	1493.2
442.27	1559.63
442.645	1518.05
443.019	1546.75
443.394	1538.84
443.769	1553.31
444.143	1574.77
444.518	1571.84
444.892	1570.93
445.267	1595.34
445.641	1619.52
446.016	1628.33
446.39	1642.34
446.764	1603.93
447.139	1613.87
447.513	1666.98
447.887	1650.25
448.262	1675.79
448.636	1668.33
449.01	1645.96
449.384	1695
449.758	1714.66
450.132	1711.49
450.506	1738.61
450.88	1756.47
451.254	1753.53
451.628	1770.93
452.002	1806.18
452.376	1828.78
452.75	1820.19
453.123	1862.23
453.497	1868.78
453.871	1916.23
454.244	1957.14
454.618	1935.44
454.992	1956.91
455.365	1996.91
455.739	2035.55
456.112	2032.39
456.486	2072.84
456.859	2084.14
457.232	2116.91
457.606	2145.38
457.979	2138.15
458.352	2172.73
458.725	2226.74
459.099	2223.57
459.472	2275.77
459.845	2272.84
460.218	2306.06
460.591	2343.34
460.964	2380.18
461.337	2381.99
461.71	2424.24
462.083	2471.25
462.456	2464.7
462.829	2481.19
463.201	2499.5
463.574	2527.52
463.947	2575.2
464.32	2623.79
464.692	2642.32
465.065	2647.97
465.438	2690.23
465.81	2732.94
466.183	2718.02
466.555	2789.88
466.928	2765.7
467.3	2792.37
467.672	2847.51
468.045	2900.84
468.417	2902.88
468.789	2960.73
469.161	2949.43
469.534	3030.56
469.906	3103.77
470.278	3127.95
470.65	3142.64
471.022	3186.03
471.394	3232.81
471.766	3266.03
472.138	3305.35
472.51	3402.07
472.882	3425.12
473.253	3421.05
473.625	3502.86
473.997	3520.26
474.369	3612.69
474.74	3635.96
475.112	3706.92
475.484	3772.46
475.855	3849.74
476.227	3830.99
476.598	3936.52
476.97	4008.38
477.341	4079.34
477.713	4171.09
478.084	4173.35
478.455	4300.13
478.827	4320.47
479.198	4499.44
479.569	4536.05
479.94	4569.5
480.311	4673.9
480.682	4771.3
481.053	4851.07
481.424	5019.2
481.795	5058.07
482.166	5138.75
482.537	5200.89
482.908	5292.87
483.279	5439.98
483.65	5560.88
484.021	5694.89
484.391	5757.94
484.762	5850.37
485.133	5946.64
485.503	6018.27
485.874	6132.4
486.244	6267.53
486.615	6371.71
486.985	6530.35
487.356	6677.69
487.726	6742.1
488.097	6957.23
488.467	7002.43
488.837	7253.04
489.207	7368.07
489.578	7502.3
489.948	7715.4
490.318	7898.45
490.688	7890.99
491.058	8170.53
491.428	8300.7
491.798	8445.33
492.168	8608.94
492.538	8666.79
492.908	8914.47
493.278	9119.44
493.648	9225.65
494.017	9408.24
494.387	9617.05
494.757	9747.22
495.126	9897.04
495.496	10104.49
495.866	10300.2
496.235	10485.5
496.605	10618.83
496.974	10824.02
497.344	10992.83
497.713	11174.97
498.082	11286.61
498.452	11559.37
498.821	11752.13
499.19	11890.89
499.559	12054.5
499.928	12284.78
500.298	12523.19
500.667	12771.32
501.036	12861.26
501.405	13126.79
501.774	13194.58
502.143	13516.38
502.512	13643.61
502.88	13936.48
503.249	14102.58
503.618	14316.81
503.987	14495.79
504.356	14797.03
504.724	14960.19
505.093	15155.89
505.462	15360.85
505.83	15581.86
506.199	15772.59
506.567	15995.41
506.936	16204.45
507.304	16478.34
507.672	16629.97
508.041	16833.81
508.409	17234.93
508.777	17328.03
509.145	17649.15
509.514	17688.93
509.882	18001.24
510.25	18138.18
510.618	18299.53
510.986	18413.43
511.354	18755.34
511.722	19007.31
512.09	19231.49
512.458	19321.88
512.826	19554.64
513.193	19771.13
513.561	19948.76
513.929	20107.4
514.297	20370.89
514.664	20595.74
515.032	20821.95
515.4	21014.94
515.767	21126.8
516.135	21423.52
516.502	21316.63
516.869	21833.9
517.237	22002.71
517.604	21958.19
517.972	22483.83
518.339	22495.35
518.706	22543.72
519.073	22781.9
519.44	23002.69
519.808	23282.23
520.175	23337.82
520.542	23719.5
520.909	24005.82
521.276	24050.12
521.643	24323.56
522.009	24512.02
522.376	24757.44
522.743	24910.43
523.11	25293.93
523.477	25497.76
523.843	25613.46
524.21	25971.87
524.577	26189.95
524.943	26462.93
525.31	26524.85
525.676	26838.07
526.043	27010.94
526.409	27271.27
526.776	27607.76
527.142	27702.22
527.508	27928.21
527.874	28116.9
528.241	28253.4
528.607	28401.64
528.973	28645.25
529.339	28721.18
529.705	29169.76
530.071	29337.66
530.437	29526.13
530.803	29693.13
531.169	29823.07
531.535	30024.2
531.901	29997.76
532.267	30385.77
532.632	30579.89
532.998	30606.1
533.364	30965.41
533.73	30985.98
534.095	31278.17
534.461	31303.94
534.826	31534.67
535.192	31604.95
535.557	31833.19
535.923	31924.49
536.288	32034.31
536.653	32178.94
537.019	32156.57
537.384	32337.81
537.749	32526.96
538.114	32632.49
538.479	32543.45
538.845	32765.37
539.21	32753.16
539.575	32964.68
539.94	32892.37
540.305	33231.8
540.67	33367.16
541.034	33449.64
541.399	33475.18
541.764	33538.91
542.129	33741.61
542.494	33939.12
542.858	34053.47
543.223	33964.43
543.587	34232.45
543.952	34150.87
544.316	34380.24
544.681	34083.75
545.045	34408.94
545.41	34711.3
545.774	34521.71
546.138	34749.04
546.503	34881.02
546.867	35001.92
547.231	35051.86
547.595	35225.87
547.959	35318.97
548.324	35330.27
548.688	35327.79
549.052	35546.76
549.416	35487.33
549.779	35601
550.143	35699.08
550.507	35905.85
550.871	36040.54
551.235	35999.18
551.599	36471.03
551.962	36329.79
552.326	36420.41
552.689	36591.71
553.053	36341.77
553.417	36686.39
553.78	37069.89
554.143	36888.87
554.507	37196.66
554.87	37231.92
555.234	37484.34
555.597	37258.36
555.96	37567.73
556.323	37666.93
556.686	37685.24
557.05	38044.78
557.413	38135.4
557.776	38139.01
558.139	38412.22
558.502	38450.19
558.865	38468.95
559.228	38872.78
559.59	39013.11
559.953	39051.76
560.316	39392.09
560.679	39433.21
561.041	39623.72
561.404	39909.81
561.767	40066.42
562.129	39904.84
562.492	40236.36
562.854	40405.17
563.217	40321.55
563.579	40533.52
563.941	40636.35
564.304	40850.58
564.666	41194.75
565.028	41149.1
565.39	41333.96
565.753	41781.18
566.115	41739.59
566.477	41964.45
566.839	42187.94
567.201	42435.62
567.563	42388.84
567.925	42684.88
568.287	42670.64
568.648	42823.18
569.01	43131.42
569.372	43341.13
569.734	43330.06
570.095	43518.08
570.457	43774.57
570.819	43891.18
571.18	43904.96
571.542	44301.56
571.903	44424.5
572.265	44574.55
572.626	44818.38
572.987	44704.26
573.349	45012.5
573.71	45144.93
574.071	45314.42
574.432	45656.78
574.794	45823.56
575.155	45846.61
575.516	45853.38
575.877	46052.48
576.238	46085.7
576.599	46445.46
576.96	46629.41
577.32	46567.72
577.681	46764.77
578.042	46942.85
578.403	46962.96
578.763	47139
579.124	47207.93
579.485	47466.45
579.845	47759.32
580.206	47529.05
580.566	47809.27
580.927	47820.34
581.287	47981.69
581.648	48040.67
582.008	48277.28
582.368	48503.48
582.728	48452.41
583.089	48511.62
583.449	48593.65
583.809	48577.61
584.169	48994.55
584.529	48893.76
584.889	49318.83
585.249	49189.12
585.609	49207.65
585.969	49588.65
586.329	49442.67
586.688	49561.31
587.048	49797.46
587.408	49827.07
587.768	49922.2
588.127	50101.63
588.487	49986.38
588.846	50419.14
589.206	50318.58
589.565	50418.24
589.925	50641.06
590.284	50779.13
590.643	50900.48
591.003	50956.75
591.362	51204.43
591.721	51161.72
592.08	51398.78
592.44	51508.83
592.799	51553.12
593.158	51573.69
593.517	51642.39
593.876	51925.54
594.235	51876.28
594.593	51975.94
594.952	52169.15
595.311	52240.34
595.67	52370.5
596.029	52574.11
596.387	52641.23
596.746	52835.12
597.104	52761.68
597.463	52782.69
597.822	53061.33
598.18	52999.86
598.538	53169.35
598.897	53361.21
599.255	53300.87
599.613	53614.54
599.972	53520.53
600.33	53688.88
600.688	53666.51
601.046	53840.52
601.404	54108.31
601.762	53955.32
602.12	54209.1
602.478	54345.82
602.836	54441.63
603.194	54265.14
603.552	54493.61
603.91	54429.88
604.268	54630.56
604.625	54630.56
604.983	54823.54
605.341	54746.26
605.698	54956.2
606.056	55180.6
606.413	55060.6
606.771	55338.11
607.128	55267.83
607.485	55255.17
607.843	55309.63
608.2	55522.06
608.557	55648.83
608.914	55547.59
609.272	55798.89
609.629	55939.9
609.986	56050.4
610.343	55993.91
610.7	56259.44
611.057	56097.64
611.414	56183.96
611.771	56385.99
612.127	56376.72
612.484	56544.63
612.841	56633.21
613.198	56569.94
613.554	56557.51
613.911	56790.05
614.267	56794.79
614.624	56840.21
614.98	56966.76
615.337	57133.77
615.693	57019.19
616.05	57155.46
616.406	57289.47
616.762	57256.25
617.118	57296.47
617.475	57340.99
617.831	57541.44
618.187	57516.13
618.543	57552.51
618.899	57620.08
619.255	57678.38
619.611	57670.48
619.967	57802.22
620.323	57834.54
620.678	57844.48
621.034	57745.28
621.39	57902.11
621.746	57883.35
622.101	58215.32
622.457	57968.55
622.812	58046.96
623.168	58126.51
623.523	58127.41
623.879	58219.84
624.234	58133.97
624.589	58202.21
624.945	58234.53
625.3	58266.62
625.655	58270.23
626.01	58313.17
626.365	58305.94
626.72	58318.59
627.075	58248.54
627.43	58264.36
627.785	58363.34
628.14	58343.68
628.495	58298.71
628.85	58341.64
629.205	58243.34
629.559	58380.51
629.914	58178.48
630.269	58295.54
630.623	58155.43
630.978	58209.9
631.332	58400.63
631.687	58306.62
632.041	58279.5
632.396	58223.91
632.75	58278.59
633.104	58311.59
633.459	58086.06
633.813	58166.73
634.167	58153.63
634.521	58140.07
634.875	58164.02
635.229	58068.2
635.583	57959.73
635.937	57981.2
636.291	57933.07
636.645	57924.03
636.999	57824.6
637.352	57973.29
637.706	57772.62
638.06	57877.25
638.413	57826.86
638.767	57753.86
639.121	57823.47
639.474	57696.46
639.828	57695.79
640.181	57691.27
640.534	57729.23
640.888	57627.09
641.241	57494.21
641.594	57557.26
641.947	57654.43
642.301	57509.8
642.654	57556.58
643.007	57439.07
643.36	57467.09
643.713	57451.95
644.066	57575.56
644.419	57449.92
644.771	57061
645.124	56809.93
645.477	56822.59
645.83	56774
646.182	56734
646.535	56657.39
646.888	56720.9
647.24	56714.34
647.593	56731.06
647.945	56618.07
648.298	56561.58
648.65	56428.02
649.002	56415.82
649.355	56352.77
649.707	56200.91
650.059	56364.97
650.411	56652.42
650.763	56756.37
651.115	57076.82
651.467	57036.59
651.819	57068.91
652.171	56968.57
652.523	56871.85
652.875	56941.45
653.227	56811.74
653.578	57005.63
653.93	56874.11
654.282	56722.93
654.633	56743.27
654.985	56770.84
655.337	56755.7
655.688	56769.48
656.039	56848.8
656.391	56482.94
656.742	56623.5
657.094	56666.66
657.445	56582.37
657.796	56669.6
658.147	56607.9
658.498	56658.98
658.849	56692.42
659.2	56616.94
659.551	56567.45
659.902	56718.86
660.253	56520.45
660.604	56625.53
660.955	56527.91
661.306	56591.18
661.656	56447
662.007	56421.02
662.358	56501.92
662.708	56538.98
663.059	56423.73
663.409	56277.97
663.76	56449.94
664.11	56416.04
664.461	56478.19
664.811	56446.55
665.161	56379.66
665.511	56320
665.862	56441.58
666.212	56434.58
666.562	56486.1
666.912	56404.52
667.262	56322.49
667.612	56353.67
667.962	56433.67
668.312	56315.26
668.662	56394.35
669.011	56385.31
669.361	56299.66
669.711	56331.53
670.06	56246.11
670.41	56164.3
670.76	56256.73
671.109	56390.73
671.459	56229.16
671.808	56250.4
672.157	56287.01
672.507	56126.79
672.856	56125.88
673.205	56170.4
673.554	56220.12
673.904	56140.35
674.253	56377.18
674.602	56138.76
674.951	55774.48
675.3	55596.86
675.649	56171.53
675.998	56100.35
676.346	56083.17
676.695	56181.25
677.044	56040.46
677.393	56024.42
677.741	56166.79
678.09	56075.26
678.438	55993.46
678.787	56053.79
679.135	56080.69
679.484	55906.45
679.832	55998.88
680.181	55923.4
680.529	55991.65
680.877	55810.19
681.225	55867.81
681.573	56044.3
681.922	55801.82
682.27	55799.79
682.618	55752.56
682.966	55718.66
683.314	55733.58
683.661	55684.54
684.009	55564.32
684.357	55549.17
684.705	55492.68
685.053	55532.23
685.4	55380.37
685.748	55290.42
686.095	55305.57
686.443	55209.07
686.79	55160.26
687.138	55305.11
687.485	55279.35
687.832	55055.85
688.18	55146.47
688.527	55016.76
688.874	55037.78
689.221	55099.02
689.568	54880.72
689.915	54854.96
690.262	54874.84
690.609	54711.91
690.956	54641.63
691.303	54661.06
691.65	54512.37
691.997	54518.47
692.344	54357.34
692.69	54323.22
693.037	54418.81
693.383	54096.56
693.73	54254.75
694.077	54090.91
694.423	54020.85
694.769	54013.62
695.116	54043.68
695.462	53749.22
695.808	53741.99
696.155	53772.72
696.501	53549.45
696.847	53624.48
697.193	53446.41
697.539	53403.69
697.885	53270.14
698.231	53229.24
698.577	53158.05
698.923	53115.11
699.269	52919.64
699.614	52822.02
699.96	52697.05
700.306	52756.03
700.651	52611.4
700.997	52550.61
701.342	52464.51
701.688	52469.03
702.033	52199.66
702.379	52293.67
702.724	52075.82
703.069	52260
703.415	51858.2
703.76	51821.82
704.105	51844.64
704.45	51752.89
704.795	51618.2
705.14	51556.96
705.485	51493.46
705.83	51295.28
706.175	51448.49
706.52	51284.65
706.865	51147.26
707.209	51083.76
707.554	51008.5
707.899	51031.55
708.243	50790.66
708.588	50779.81
708.932	50499.59
709.277	50574.62
709.621	50469.53
709.966	50213.95
710.31	50380.27
710.654	50118.81
710.998	50152.71
711.342	50082.43
711.687	49961.3
712.031	49919.27
712.375	49752.27
712.719	49714.75
713.063	49671.59
713.407	49799.27
713.75	49556.34
714.094	49603.79
714.438	49402.44
714.782	49445.61
715.125	49222.34
715.469	49411.26
715.812	48946.41
716.156	48933.08
716.499	48979.63
716.843	48967.88
717.186	48802.23
717.53	49011.27
717.873	49062.34
718.216	48861.67
718.559	48654.89
718.902	48447.21
719.246	48603.82
719.589	48436.59
719.932	48401.79
720.275	48363.38
720.617	48349.59
720.96	48250.16
721.303	48320.89
721.646	48282.7
721.989	47988.02
722.331	48113.66
722.674	47950.05
723.016	48058.3
723.359	47878.42
723.701	47873.22
724.044	47822.15
724.386	47614.02
724.729	47763.17
725.071	47715.48
725.413	47607.91
725.755	47447.24
726.097	47439.56
726.439	47261.26
726.782	47204.08
727.124	47461.93
727.465	47206.34
727.807	47099.45
728.149	47157.08
728.491	47090.64
728.833	46957.54
729.175	47027.14
729.516	47009.96
729.858	46893.13
730.199	46919.57
730.541	46928.38
730.882	46771.55
731.224	46749.18
731.565	46690.2
731.906	46597.32
732.248	46840.25
732.589	46632.12
732.93	46596.19
733.271	46588.28
733.612	46482.29
733.953	46549.86
734.294	46421.96
734.635	46206.6
734.976	46522.07
735.317	46258.12
735.658	46245.46
735.999	46120.04
736.339	46216.77
736.68	46167.73
737.021	46105.81
737.361	46113.49
737.702	46256.09
738.042	46074.17
738.383	46147.16
738.723	46329.76
739.063	45997.56
739.404	46289.31
739.744	45986.04
740.084	45991.46
740.424	46161.4
740.764	46015.41
741.104	46113.04
741.444	45996.88
741.784	45821.3
742.124	45937.9
742.464	45908.3
742.804	45908.3
743.143	45748.98
743.483	45876.66
743.823	45685.03
744.162	45736.33
744.502	45718.92
744.841	45627.63
745.181	45948.07
745.52	45645.03
745.86	45832.37
746.199	45706.04
746.538	45604.58
746.877	45793.5
747.216	45848.64
747.556	45491.59
747.895	45728.64
748.234	45592.6
748.573	45523
748.911	45504.92
749.25	45672.82
749.589	45466.73
749.928	45594.86
750.267	45589.66
750.605	45373.4
750.944	45500.85
751.283	45259.95
751.621	45537.46
751.96	45316.9
752.298	45446.16
752.636	45368.2
752.975	45257.92
753.313	45189.9
753.651	45505.6
753.989	45280.07
754.327	45299.73
754.666	44993.52
755.004	45189.9
755.342	45288.65
755.679	45193.29
756.017	45047.76
756.355	45206.62
756.693	45018.83
757.031	45195.1
757.368	44890.7
757.706	45002.33
758.044	44898.61
758.381	44856.8
758.719	44799.63
759.056	44790.36
759.394	44716.24
759.731	44525.51
760.068	44536.13
760.405	44472.4
760.743	44292.3
761.08	44456.81
761.417	44277.38
761.754	44222.69
762.091	44263.37
762.428	44016.82
762.765	43994.22
763.102	43967.33
763.438	43825.19
763.775	43654.35
764.112	43534.35
764.449	43589.94
764.785	43613.44
765.122	43176.17
765.458	43090.97
765.795	43155.15
766.131	43105.21
766.467	43032.89
766.804	42774.14
767.14	42677.65
767.476	42627.93
767.812	42515.85
768.148	42586.13
768.485	42328.28
768.821	42173.26
769.157	42051.45
769.492	42065.01
769.828	41826.6
770.164	41529.66
770.5	41460.28
770.836	41609.43
771.171	41203.11
771.507	41215.31
771.842	41000.86
772.178	41035.66
772.513	40806.06
772.849	40612.39
773.184	40573.07
773.519	40635.89
773.855	40359.07
774.19	40259.41
774.525	40146.87
774.86	40048.34
775.195	39872.3
775.53	39597.96
775.865	39462.14
776.2	39331.52
776.535	39124.07
776.87	39096.27
777.205	38897.18
777.539	38821.93
777.874	38823.06
778.209	38439.57
778.543	38470.75
778.878	38266.69
779.212	38181.95
779.547	37986.25
779.881	37941.05
780.215	37692.02
780.55	37772.47
780.884	37352.59
781.218	37316.43
781.552	37364.12
781.886	37142.65
782.22	36895.2
782.554	36713.06
782.888	36520.97
783.222	36551.03
783.556	36335.22
783.889	36166.63
784.223	35914.44
784.557	35953.08
784.89	36026.07
785.224	35715.12
785.557	35455.69
785.891	35335.24
786.224	35392.64
786.558	35234.45
786.891	35111.52
787.224	34955.82
787.557	34936.16
787.891	34896.84
788.224	34636.96
788.557	34669.05
788.89	34402.61
789.223	34483.06
789.556	34243.29
789.888	34168.49
790.221	33885.56
790.554	33890.54
790.887	33779.58
791.219	33598.79
791.552	33540.71
791.884	33401.96
792.217	33339.82
792.549	33215.07
792.882	32872.26
793.214	32846.04
793.546	32807.17
793.879	32635.43
794.211	32405.6
794.543	32674.3
794.875	32480.18
795.207	32430.46
795.539	32377.81
795.871	32352.27
796.203	32165.38
796.535	31745.51
796.867	31851.49
797.198	31620.99
797.53	31644.94
797.862	31357.27
798.193	31464.38
798.525	31231.62
798.856	31450.15
799.188	30957.73
799.519	30872.08
799.85	30711.41
800.182	30754.12
800.513	30818.53
800.844	30395.94
801.175	30582.37
801.506	30609.72
801.837	30393.45
802.168	30328.14
802.499	30358.65
802.83	30152.55
803.161	29948.27
803.491	29999.56
803.822	30024.2
804.153	29683.41
804.483	29667.82
804.814	29350.99
805.145	29443.19
805.475	29556.19
805.805	29354.16
806.136	29396.19
806.466	29195.74
806.796	29144.45
807.126	28895.41
807.457	28791.01
807.787	28918.91
808.117	28843.66
808.447	28786.71
808.777	28771.35
809.107	28555.99
809.436	28513.95
809.766	28518.02
810.096	28470.34
810.426	28233.28
810.755	28288.42
811.085	28153.51
811.414	28191.48
811.744	28017.92
812.073	28000.07
812.403	27950.8
812.732	27767.98
813.061	27870.58
813.39	27574.54
813.719	27541.32
814.049	27721.43
814.378	27556.92
814.707	27388.11
815.036	27443.47
815.365	27327.54
815.693	27098.4
816.022	27096.59
816.351	27097.04
816.68	27018.85
817.008	27050.94
817.337	26696.15
817.665	26826.99
817.994	26704.51
818.322	26764.62
818.651	26787.9
818.979	26491.86
819.307	26644.17
819.636	26485.08
819.964	26375.93
820.292	26466.55
820.62	26457.06
820.948	26427.23
821.276	26596.94
821.604	26377.29
821.932	26582.48
822.259	26423.84
822.587	26410.05
822.915	26390.85
823.243	26307.01
823.57	26213.68
823.898	26380.45
824.225	26379.09
824.553	26330.73
824.88	26320.11
825.207	26396.5
825.535	26196.27
825.862	26429.94
826.189	26217.97
826.516	26511.29
826.843	26448.7
827.17	26497.28
827.497	26341.13
827.824	26455.93
828.151	26523.5
828.478	26426.78
828.805	26498.64
829.131	26439.43
829.458	26413.9
829.785	26359.43
830.111	26309.04
830.438	26313.33
830.764	26314.69
831.09	26305.88
831.417	26228.82
831.743	26275.59
832.069	26286.67
832.395	26170.96
832.722	26293.9
833.048	26069.5
833.374	26221.81
833.7	26140.91
834.026	26250.06
834.351	26127.8
834.677	26193.11
835.003	26213.68
835.329	26085.32
835.654	26123.06
835.98	25986.11
836.306	26046.45
836.631	25986.56
836.956	26171.19
837.282	26039.89
837.607	26071.53
837.932	25835.38
838.258	25907.24
838.583	25914.47
838.908	25784.99
839.233	25737.08
839.558	25700.24
839.883	25696.4
840.208	25436.97
840.533	25478.55
840.858	25630.41
841.182	25581.15
841.507	25427.26
841.832	25413.47
842.156	25523.75
842.481	25316.07
842.805	25258.67
843.13	25183.42
843.454	25178.67
843.778	25130.77
844.103	25028.4
844.427	24970.54
844.751	25020.94
845.075	24866.82
845.399	24792.92
845.723	24774.84
846.047	24831.34
846.371	24688.97
846.695	24510.67
847.019	24460.5
847.343	24236.78
847.666	24246.5
847.99	24035.2
848.313	24066.39
848.637	23987.97
848.96	23865.26
849.284	23944.81
849.607	23679.96
849.931	23674.31
850.254	23489.23
850.577	23348.21
850.9	23195.45
851.223	23286.29
851.546	23094.89
851.869	22949.13
852.192	23170.37
852.515	22828.45
852.838	22726.08
853.161	22691.73
853.483	22555.01
853.806	22490.16
854.129	22439.09
854.451	22385.75
854.774	22289.48
855.096	22217.85
855.419	22151.86
855.741	22118.87
856.063	22021.69
856.385	21920
856.708	21951.41
857.03	21773.34
857.352	21742.38
857.674	21693.12
857.996	21545.1
858.318	21425.1
858.64	21496.29
858.961	21452.67
859.283	21309.17
859.605	21112.11
859.926	21296.06
860.248	21259.68
860.57	21077.99
860.891	21138.1
861.212	21054.94
861.534	21028.95
861.855	20899.46
862.176	20864.44
862.498	21001.38
862.819	20899.24
863.14	20875.06
863.461	20688.85
863.782	20661.96
864.103	20625.35
864.424	20568.63
864.745	20582.86
865.065	20433.49
865.386	20314.62
865.707	20498.35
866.027	20490.21
866.348	20346.03
866.668	20389.65
866.989	20321.63
867.309	20115.53
867.63	20140.39
867.95	20104.23
868.27	20029.43
868.59	20115.98
868.91	20080.96
869.23	20026.95
869.55	19991.47
869.87	19999.83
870.19	19963.67
870.51	19843.45
870.83	19841.87
871.15	19683.9
871.469	19723.9
871.789	19737.91
872.109	19767.52
872.428	19586.05
872.748	19667.41
873.067	19665.37
873.386	19646.84
873.706	19625.15
874.025	19477.13
874.344	19415.66
874.663	19546.96
874.982	19336.57
875.301	19396.91
875.62	19264.71
875.939	19160.53
876.258	19362.1
876.577	19213.41
876.896	19203.92
877.214	19072.62
877.533	19151.49
877.852	19122.11
878.17	19076.69
878.489	19100.42
878.807	19019.29
879.125	19035.11
879.444	18954.21
879.762	18940.19
880.08	18984.94
880.398	18759.63
880.716	18866.3
881.034	18798.05
881.352	18727.09
881.67	18748.11
881.988	18753.98
882.306	18701.33
882.624	18624.5
882.941	18473.99
883.259	18430.38
883.577	18394.45
883.894	18462.47
884.212	18295.01
884.529	18357.16
884.846	18372.98
885.164	18251.85
885.481	18281.68
885.798	18207.33
886.115	18079.2
886.432	18166.2
886.75	18098.18
887.067	18094.11
887.383	18035.59
887.7	17947.45
888.017	17870.17
888.334	17898.41
888.651	17820.9
888.967	17871.07
889.284	17671.53
889.6	17617.07
889.917	17486
890.233	17528.48
890.55	17461.36
890.866	17391.99
891.182	17463.4
891.498	17377.98
891.815	17361.48
892.131	17228.83
892.447	17249.39
892.763	17003.3
893.079	17055.05
893.395	16902.06
893.71	16941.38
894.026	17005.33
894.342	16992.22
894.657	16837.42
894.973	16832
895.289	16754.26
895.604	16670.88
895.92	16581.84
896.235	16597.2
896.55	16590.88
896.865	16534.38
897.181	16528.73
897.496	16415.74
897.811	16321.96
898.126	16213.03
898.441	16132.36
898.756	16145.92
899.071	16029.54
899.386	16008.52
899.7	16019.82
900.015	15905.02
900.33	15781.18
900.644	15775.98
900.959	15865.92
901.273	15655.08
901.588	15595.65
901.902	15460.74
902.216	15431.36
902.531	15451.7
902.845	15419.16
903.159	15270.01
903.473	15192.5
903.787	15191.59
904.101	15120.86
904.415	15171.93
904.729	15065.04
905.042	14981.2
905.356	14919.96
905.67	14904.82
905.984	14876.12
906.297	14780.3
906.611	14597.71
906.924	14716.35
907.237	14536.24
907.551	14571.72
907.864	14522.01
908.177	14422.35
908.491	14424.15
908.804	14288.34
909.117	14262.35
909.43	14216.93
909.743	14188.68
910.056	14189.58
910.368	14115.24
910.681	14018.52
910.994	13969.93
911.307	13919.08
911.619	13766.54
911.932	13802.25
912.244	13794.79
912.557	13656.94
912.869	13632.54
913.181	13472.32
913.494	13584.63
913.806	13391.19
914.118	13423.5
914.43	13239.33
914.742	13288.37
915.054	13200.23
915.366	13236.16
915.678	13087.24
915.99	13053.34
916.302	12988.03
916.613	12909.39
916.925	12957.53
917.236	12893.8
917.548	12807.25
917.859	12796.17
918.171	12733.35
918.482	12543.75
918.794	12575.62
919.105	12501.04
919.416	12409.97
919.727	12432.12
920.038	12390.08
920.349	12264.21
920.66	12231.67
920.971	12221.27
921.282	12160.71
921.593	12058.79
921.903	11992.13
922.214	12010.66
922.525	11936.99
922.835	11897.22
923.146	11778.8
923.456	11796.2
923.767	11727.73
924.077	11658.8
924.387	11650.89
924.697	11546.49
925.008	11527.51
925.318	11458.36
925.628	11432.59
925.938	11458.81
926.248	11278.02
926.558	11234.41
926.867	11262.88
927.177	11224.46
927.487	11106.95
927.796	11065.82
928.106	11037.13
928.416	10934.3
928.725	10915.09
929.034	10859.5
929.344	10809.56
929.653	10878.94
929.962	10725.27
930.271	10673.97
930.581	10728.88
930.89	10595.78
931.199	10536.57
931.508	10436.01
931.817	10477.82
932.125	10439.63
932.434	10359.18
932.743	10281.44
933.051	10273.3
933.36	10185.4
933.669	10126.19
933.977	10156.02
934.286	10089.81
934.594	10114.21
934.902	10001.45
935.21	9956.93
935.519	9960.32
935.827	9890.49
936.135	9810.94
936.443	9737.27
936.751	9713.77
937.059	9677.61
937.367	9637.84
937.674	9627.22
937.982	9645.52
938.29	9607.11
938.597	9565.53
938.905	9434.68
939.213	9448.47
939.52	9390.84
939.827	9382.48
940.135	9321.69
940.442	9231.75
940.749	9242.6
941.056	9300
941.363	9143.16
941.67	9175.03
941.977	9048.93
942.284	9021.58
942.591	9009.83
942.898	8984.75
943.205	8937.52
943.511	8855.04
943.818	8824.75
944.125	8786.79
944.431	8763.06
944.738	8689.16
945.044	8703.18
945.35	8617.98
945.657	8616.17
945.963	8555.38
946.269	8471.09
946.575	8470.19
946.881	8457.98
947.187	8415.73
947.493	8361.26
947.799	8351.09
948.105	8307.71
948.41	8233.81
948.716	8183.19
949.022	8166.69
949.327	8132.12
949.633	8076.3
949.938	8083.08
950.244	8063.42
950.549	7987.26
950.854	7908.39
951.16	7978.45
951.465	7882.86
951.77	7838.11
952.075	7844.89
952.38	7826.14
952.685	7726.48
952.99	7643.77
953.294	7661.39
953.599	7586.59
953.904	7612.36
954.209	7544.34
954.513	7580.27
954.818	7501.85
955.122	7507.73
955.426	7483.55
955.731	7382.08
956.035	7328.75
956.339	7300.05
956.643	7308.86
956.948	7331.46
957.252	7224.8
957.556	7211.01
957.86	7110.45
958.163	7115.87
958.467	7106.61
958.771	7086.27
959.075	7075.87
959.378	6963.56
959.682	7006.5
959.985	6983.22
960.289	6909.55
960.592	6888.31
960.896	6860.06
961.199	6841.98
961.502	6838.59
961.805	6794.07
962.108	6703.68
962.411	6746.62
962.714	6657.13
963.017	6655.77
963.32	6640.86
963.623	6576.23
963.926	6639.73
964.228	6499.62
964.531	6542.78
964.833	6508.88
965.136	6406.74
965.438	6410.13
965.741	6344.59
966.043	6394.76
966.345	6312.05
966.648	6329.45
966.95	6284.48
967.252	6209
967.554	6223.47
967.856	6199.51
968.158	6151.83
968.46	6146.86
968.761	6112.51
969.063	6080.65
969.365	5998.61
969.666	6011.72
969.968	5905.96
970.269	5929.91
970.571	5951.38
970.872	5893.53
971.174	5836.81
971.475	5848.79
971.776	5830.26
972.077	5740.77
972.378	5754.33
972.679	5741.22
972.98	5762.24
973.281	5677.04
973.582	5695.34
973.883	5613.09
974.183	5581.68
974.484	5591.39
974.785	5532.86
975.085	5551.85
975.386	5553.2
975.686	5444.73
975.986	5417.39
976.287	5446.31
976.587	5410.38
976.887	5375.8
977.187	5387.33
977.487	5297.84
977.787	5311.63
978.087	5255.58
978.387	5242.93
978.687	5205.64
978.987	5190.5
979.286	5148.47
979.586	5185.3
979.885	5109.6
980.185	5106.66
980.484	5055.81
980.784	5045.42
981.083	5021.46
981.382	5007.68
981.682	5017.85
981.981	4957.06
982.28	4977.17
982.579	4941.24
982.878	4917.74
983.177	4907.57
983.475	4842.03
983.774	4792.54
984.073	4823.96
984.372	4751.64
984.67	4761.81
984.969	4717.97
985.267	4769.04
985.566	4722.71
985.864	4700.12
986.162	4625.99
986.461	4597.52
986.759	4586.45
987.057	4574.24
987.355	4551.42
987.653	4533.57
987.951	4493.79
988.249	4530.18
988.547	4508.71
988.844	4454.47
989.142	4448.6
989.44	4433.91
989.737	4411.31
990.035	4374.02
990.332	4373.8
990.63	4343.06
990.927	4350.3
991.224	4348.04
991.521	4355.94
991.819	4290.41
992.116	4237.53
992.413	4213.58
992.71	4175.61
993.006	4140.13
993.303	4158.44
993.6	4156.18
993.897	4171.32
994.193	4104.88
994.49	4094.93
994.787	4050.19
995.083	4009.97
995.379	3973.36
995.676	3980.81
995.972	3966.35
996.268	3900.82
996.565	3929.06
996.861	3891.1
997.157	3857.2
997.453	3880.03
997.749	3815.62
998.044	3809.07
998.34	3789.18
998.636	3767.94
998.932	3767.71
999.227	3718.45
999.523	3729.52
999.818	3687.71
1000.114	3642.52
1000.409	3663.76
1000.704	3612.46
1001	3635.51
1001.295	3589.19
1001.59	3609.07
1001.885	3557.55
1002.18	3531.11
1002.475	3514.38
1002.77	3522.07
1003.065	3477.32
1003.359	3424.9
1003.654	3459.7
1003.949	3408.63
1004.243	3413.37
1004.538	3344.45
1004.832	3377.67
1005.127	3333.15
1005.421	3320.49
1005.715	3268.97
1006.009	3276.88
1006.304	3252.92
1006.598	3219.93
1006.892	3194.39
1007.186	3169.54
1007.48	3172.7
1007.773	3150.33
1008.067	3169.54
1008.361	3135.19
1008.655	3117.56
1008.948	3070.55
1009.242	3070.1
1009.535	3058.13
1009.829	3024.68
1010.122	3066.26
1010.415	2976.77
1010.708	2991.91
1011.001	2933.38
1011.295	2958.47
1011.588	2910.56
1011.881	2887.28
1012.173	2882.99
1012.466	2897.45
1012.759	2886.15
1013.052	2816.1
1013.344	2793.95
1013.637	2836.44
1013.93	2759.6
1014.222	2739.72
1014.514	2719.6
1014.807	2697.01
1015.099	2698.14
1015.391	2640.96
1015.683	2678.47
1015.976	2652.94
1016.268	2658.81
1016.56	2607.74
1016.851	2571.36
1017.143	2572.04
1017.435	2580.85
1017.727	2560.74
1018.018	2537.91
1018.31	2547.4
1018.602	2489.1
1018.893	2493.17
1019.185	2458.14
1019.476	2464.7
1019.767	2403.23
1020.058	2400.97
1020.35	2366.62
1020.641	2369.78
1020.932	2384.47
1021.223	2327.52
1021.514	2323.68
1021.804	2316
1022.095	2297.92
1022.386	2295.21
1022.677	2281.42
1022.967	2251.59
1023.258	2213.18
1023.548	2198.94
1023.839	2180.63
1024.129	2214.53
1024.419	2169.34
1024.709	2123.91
1025	2139.05
1025.29	2105.38
1025.58	2101.99
1025.87	2073.74
1026.16	2071.03
1026.449	2045.95
1026.739	2006.85
1027.029	2027.64
1027.319	2005.27
1027.608	1997.59
1027.898	1973.86
1028.187	1969.57
1028.477	1919.4
1028.766	1945.39
1029.055	1926.63
1029.344	1900.87
1029.634	1921.21
1029.923	1899.51
1030.212	1865.39
1030.501	1839.17
1030.79	1827.65
1031.078	1833.07
1031.367	1824.71
1031.656	1788.33
1031.945	1794.66
1032.233	1795.56
1032.522	1774.54
1032.81	1738.84
1033.099	1732.51
1033.387	1715.34
1033.675	1699.97
1033.963	1698.39
1034.251	1693.19
1034.54	1651.61
1034.828	1673.76
1035.116	1655.22
1035.403	1660.65
1035.691	1640.31
1035.979	1636.02
1036.267	1604.15
1036.554	1599.41
1036.842	1554.21
1037.129	1563.48
1037.417	1546.53
1037.704	1558.96
1037.992	1554.44
1038.279	1500.2
1038.566	1515.34
1038.853	1515.34
1039.14	1515.34
