Data from 14-0848_FLMS001491_001.txt Node
Date: Thu Apr 19 16:08:06 BST 2018
User: hsy
Spectrometer: FLMS00149
Trigger mode: 0
Integration Time (sec): 1.000000E-2
Scans to average: 10
Electric dark correction enabled: true
Nonlinearity correction enabled: false
Boxcar width: 0
XAxis mode: Wavelengths
Number of Pixels in Spectrum: 2048
>>>>>Begin Spectral Data<<<<<
341.393	-2.03
341.776	-2.03
342.16	-2.03
342.543	-42.48
342.927	-71.41
343.31	-83.39
343.693	-78.19
344.077	-61.47
344.46	-49.49
344.843	-50.17
345.226	-49.72
345.61	-50.17
345.993	-15.59
346.376	-9.04
346.759	30.06
347.142	34.8
347.525	44.29
347.908	38.87
348.291	90.17
348.674	97.4
349.057	111.64
349.44	141.24
349.823	122.03
350.206	166.1
350.588	237.96
350.971	264.85
351.354	270.05
351.737	291.74
352.119	275.92
352.502	304.4
352.884	309.37
353.267	330.61
353.65	354.57
354.032	351.63
354.414	354.79
354.797	358.63
355.179	359.76
355.562	372.42
355.944	372.65
356.326	382.36
356.709	376.49
357.091	370.16
357.473	389.37
357.855	392.98
358.238	395.02
358.62	385.53
359.002	389.37
359.384	395.7
359.766	379.43
360.148	374.45
360.53	410.84
360.912	382.59
361.294	392.08
361.676	372.65
362.057	387.11
362.439	375.58
362.821	379.2
363.203	375.36
363.584	383.49
363.966	383.94
364.348	382.14
364.729	382.59
365.111	375.36
365.493	387.79
365.874	368.8
366.256	372.42
366.637	382.14
367.019	395.02
367.4	386.66
367.781	372.87
368.163	366.54
368.544	359.99
368.925	369.71
369.306	385.75
369.688	378.97
370.069	364.74
370.45	388.01
370.831	382.36
371.212	368.35
371.593	393.89
371.974	378.3
372.355	397.73
372.736	383.49
373.117	384.85
373.498	379.88
373.879	377.84
374.26	381.46
374.641	353.44
375.021	413.55
375.402	405.64
375.783	382.81
376.163	414.9
376.544	397.05
376.925	393.44
377.305	417.39
377.686	416.71
378.066	402.93
378.447	420.1
378.827	425.53
379.208	413.1
379.588	416.49
379.968	419.2
380.349	426.43
380.729	416.03
381.109	427.79
381.489	428.92
381.87	440.21
382.25	441.12
382.63	441.57
383.01	432.08
383.39	422.36
383.77	445.64
384.15	445.41
384.53	444.06
384.91	462.13
385.29	464.62
385.67	475.02
386.049	479.54
386.429	457.16
386.809	460.78
387.189	464.62
387.568	451.06
387.948	462.59
388.328	477.95
388.707	468.69
389.087	480.67
389.466	458.07
389.846	498.07
390.225	482.25
390.605	473.21
390.984	486.54
391.363	512.75
391.743	486.31
392.122	502.81
392.501	507.56
392.881	516.37
393.26	506.65
393.639	512.53
394.018	498.97
394.397	536.03
394.776	530.61
395.155	530.61
395.534	521.79
395.913	518.4
396.292	538.52
396.671	537.39
397.05	545.75
397.429	536.71
397.808	544.84
398.186	552.98
398.565	550.95
398.944	554.56
399.323	565.41
399.701	571.28
400.08	573.32
400.458	560.21
400.837	573.09
401.215	562.7
401.594	590.72
401.972	584.62
402.351	592.53
402.729	588.23
403.107	602.24
403.486	585.97
403.864	610.61
404.242	596.37
404.62	646.76
404.999	624.16
405.377	639.08
405.755	640.66
406.133	666.65
406.511	635.69
406.889	650.38
407.267	687.44
407.645	669.81
408.023	680.43
408.401	694.67
408.779	694.22
409.156	708.46
409.534	694.67
409.912	715.01
410.29	718.63
410.667	724.73
411.045	729.92
411.422	730.15
411.8	759.75
412.178	762.01
412.555	761.34
412.933	787.78
413.31	771.28
413.687	814.44
414.065	803.14
414.442	804.72
414.819	809.47
415.197	822.58
415.574	837.27
415.951	839.75
416.328	846.08
416.705	806.08
417.082	836.81
417.46	853.54
417.837	861.67
418.214	864.38
418.591	881.78
418.967	878.17
419.344	874.78
419.721	908.45
420.098	914.33
420.475	924.95
420.852	904.61
421.228	919.98
421.605	905.29
421.982	954.55
422.358	950.71
422.735	948.9
423.111	962.01
423.488	996.81
423.864	964.27
424.241	973.31
424.617	1000.43
424.994	1013.98
425.37	1017.83
425.746	1020.99
426.123	1031.61
426.499	1018.05
426.875	1049.46
427.251	1052.63
427.627	1063.7
428.003	1082.23
428.379	1108.45
428.756	1096.24
429.132	1104.15
429.507	1122.23
429.883	1123.13
430.259	1152.06
430.635	1163.13
431.011	1184.6
431.387	1217.14
431.763	1195.22
432.138	1212.85
432.514	1201.1
432.89	1222.79
433.265	1258.05
433.641	1245.62
434.016	1287.65
434.392	1278.38
434.767	1277.25
435.143	1318.61
435.518	1313.41
435.894	1321.32
436.269	1354.54
436.644	1351.83
437.02	1390.02
437.395	1371.72
437.77	1381.66
438.145	1409.68
438.52	1427.53
438.895	1426.4
439.271	1390.47
439.646	1439.28
440.021	1467.31
440.395	1464.37
440.77	1465.72
441.145	1469.57
441.52	1505.27
441.895	1496.46
442.27	1524.03
442.645	1474.99
443.019	1522.45
443.394	1546.17
443.769	1528.1
444.143	1546.63
444.518	1575.1
444.892	1554.54
445.267	1578.94
445.641	1595.21
446.016	1606.96
446.39	1615.78
446.764	1611.71
447.139	1611.03
447.513	1639.73
447.887	1673.4
448.262	1631.6
448.636	1651.48
449.01	1678.15
449.384	1687.87
449.758	1677.7
450.132	1699.16
450.506	1735.1
450.88	1743.91
451.254	1731.03
451.628	1794.53
452.002	1817.81
452.376	1833.17
452.75	1812.16
453.123	1834.53
453.497	1881.98
453.871	1904.58
454.244	1915.2
454.618	1920.4
454.992	1949.78
455.365	1942.32
455.739	2026.84
456.112	2016.67
456.486	2025.71
456.859	2059.83
457.232	2104.8
457.606	2140.51
457.979	2155.65
458.352	2188.42
458.725	2193.84
459.099	2178.93
459.472	2213.73
459.845	2274.74
460.218	2281.07
460.591	2312.03
460.964	2374.85
461.337	2348.19
461.71	2401.97
462.083	2440.16
462.456	2435.64
462.829	2464.34
463.201	2493.72
463.574	2482.42
463.947	2543.21
464.32	2559.25
464.692	2605.13
465.065	2622.08
465.438	2661.4
465.81	2700.27
466.183	2658.24
466.555	2747.72
466.928	2796.08
467.3	2779.59
467.672	2804.22
468.045	2848.96
468.417	2919.47
468.789	2895.74
469.161	2919.25
469.534	2978.45
469.906	3044.67
470.278	3028.17
470.65	3127.6
471.022	3152.69
471.394	3179.13
471.766	3256.41
472.138	3249.63
472.51	3327.6
472.882	3368.5
473.253	3408.27
473.625	3470.87
473.997	3551.09
474.369	3540.92
474.74	3555.84
475.112	3648.94
475.484	3728.72
475.855	3810.3
476.227	3845.55
476.598	3940.69
476.97	3959.22
477.341	4022.95
477.713	4109.27
478.084	4156.73
478.455	4248.25
478.827	4292.09
479.198	4423.61
479.569	4466.1
479.94	4561.46
480.311	4631.74
480.682	4741.57
481.053	4835.35
481.424	4908.12
481.795	4961
482.166	5108.79
482.537	5081.9
482.908	5255.68
483.279	5373.42
483.65	5479.63
484.021	5574.32
484.391	5669.68
484.762	5732.05
485.133	5824.48
485.503	5909.9
485.874	6078.71
486.244	6171.36
486.615	6404.8
486.985	6418.36
487.356	6572.93
487.726	6679.82
488.097	6854.74
488.467	6970.21
488.837	7114.39
489.207	7234.39
489.578	7414.49
489.948	7539.24
490.318	7673.7
490.688	7786.01
491.058	7961.15
491.428	8161.59
491.798	8309.61
492.168	8476.84
492.538	8634.8
492.908	8769.94
493.278	8994.57
493.648	9034.79
494.017	9262.81
494.387	9451.05
494.757	9621.22
495.126	9744.83
495.496	9835.22
495.866	10090.58
496.235	10296.68
496.605	10461.42
496.974	10648.31
497.344	10870.45
497.713	10964.46
498.082	11167.39
498.452	11377.55
498.821	11516.76
499.19	11685.12
499.559	11938.67
499.928	12112.68
500.298	12391.76
500.667	12563.06
501.036	12753.11
501.405	12951.98
501.774	13096.83
502.143	13281.46
502.512	13520.77
502.88	13745.18
503.249	13891.61
503.618	14050.93
503.987	14222.9
504.356	14533.18
504.724	14687.98
505.093	14816.11
505.462	15195.98
505.83	15255.87
506.199	15506.94
506.567	15805.01
506.936	15801.84
507.304	16193.92
507.672	16377.42
508.041	16598.89
508.409	16801.82
508.777	17062.6
509.145	17317.74
509.514	17425.98
509.882	17661.68
510.25	17758.86
510.618	18061.45
510.986	18264.83
511.354	18425.05
511.722	18785.27
512.09	18986.39
512.458	19064.36
512.826	19332.82
513.193	19517.68
513.561	19575.08
513.929	19771.23
514.297	20062.75
514.664	20269.3
515.032	20410.99
515.4	20607.59
515.767	20857.76
516.135	21064.76
516.502	20986.79
516.869	21352.43
517.237	21691.18
517.604	21567.57
517.972	21988.57
518.339	22217.04
518.706	22292.52
519.073	22417.94
519.44	22628.33
519.808	22930.92
520.175	23028.55
520.542	23340.4
520.909	23467.86
521.276	23560.51
521.643	23897.9
522.009	24212.02
522.376	24331.79
522.743	24414.05
523.11	24717.99
523.477	25099.9
523.843	25153.91
524.21	25445.21
524.577	25699.44
524.943	25949.6
525.31	26015.36
525.676	26326.31
526.043	26603.59
526.409	26702.12
526.776	26956.35
527.142	27054.43
527.508	27406.06
527.874	27545.04
528.241	27669.1
528.607	27810.79
528.973	28204.23
529.339	28165.81
529.705	28637.44
530.071	28841.73
530.437	28843.99
530.803	29241.94
531.169	29455.04
531.535	29377.76
531.901	29610.75
532.267	29772.1
532.632	29968.48
532.998	30043.5
533.364	30383.83
533.73	30224.52
534.095	30599.65
534.461	30809.13
534.826	30835.12
535.192	31068.11
535.557	31257.03
535.923	31334.77
536.288	31385.16
536.653	31537.25
537.019	31603.24
537.384	31874.64
537.749	31791.93
538.114	31996.9
538.479	32007.29
538.845	32149.21
539.21	32331.13
539.575	32365.02
539.94	32485.25
540.305	32685.69
540.67	32714.39
541.034	32794.62
541.399	32890.89
541.764	32953.71
542.129	33060.37
542.494	33171.78
542.858	33417.65
543.223	33214.04
543.587	33451.55
543.952	33468.5
544.316	33630.3
544.681	33629.62
545.045	33932.89
545.41	33933.35
545.774	34028.48
546.138	34002.04
546.503	34029.84
546.867	34217.86
547.231	34418.98
547.595	34489.94
547.959	34430.28
548.324	34557.74
548.688	34704.85
549.052	34819.88
549.416	34763.61
549.779	34731.74
550.143	35089.92
550.507	35208.57
550.871	35290.37
551.235	35301.9
551.599	35711.38
551.962	35588.67
552.326	35764.26
552.689	35859.62
553.053	35688.55
553.417	35810.58
553.78	36199.27
554.143	36307.97
554.507	36355.65
554.87	36507.74
555.234	36728.98
555.597	36489.66
555.96	36631.58
556.323	36816.43
556.686	36960.38
557.05	37183.43
557.413	37328.74
557.776	37216.2
558.139	37665.9
558.502	37749.06
558.865	37767.37
559.228	38048.49
559.59	38010.3
559.953	38213.91
560.316	38572.77
560.679	38457.97
561.041	38795.59
561.404	38983.83
561.767	39109.48
562.129	39026.32
562.492	39446.42
562.854	39570.94
563.217	39539.3
563.579	39686.64
563.941	39906.07
564.304	40031.49
564.666	40311.71
565.028	40326.85
565.39	40436.45
565.753	40788.76
566.115	40661.08
566.477	40984.46
566.839	41257.22
567.201	41496.31
567.563	41432.81
567.925	41668.73
568.287	41685.01
568.648	42013.81
569.01	42100.81
569.372	42388.94
569.734	42354.14
570.095	42622.16
570.457	42854.92
570.819	42931.98
571.18	43011.07
571.542	43371.51
571.903	43414
572.265	43563.37
572.626	43946.19
572.987	43828.68
573.349	44186.18
573.71	44223.47
574.071	44456.23
574.432	44647.87
574.794	44872.04
575.155	45080.17
575.516	45118.14
575.877	45300.96
576.238	45230.45
576.599	45657.1
576.96	45691.68
577.32	45708.63
577.681	45912.69
578.042	46209.41
578.403	46182.97
578.763	46251.44
579.124	46399.23
579.485	46634.93
579.845	46686.68
580.206	46752.89
580.566	46942.49
580.927	47040.12
581.287	47245.09
581.648	47283.73
582.008	47572.99
582.368	47600.1
582.728	47806.88
583.089	47751.96
583.449	47812.53
583.809	47995.8
584.169	48160.09
584.529	48064.72
584.889	48452.51
585.249	48398.5
585.609	48357.15
585.969	48810.47
586.329	48691.6
586.688	48876
587.048	48965.72
587.408	49073.29
587.768	49199.84
588.127	49360.51
588.487	49451.36
588.846	49799.59
589.206	49616.1
589.565	49708.75
589.925	50044.11
590.284	50017.67
590.643	50131.11
591.003	50328.39
591.362	50658.78
591.721	50603.19
592.08	50695.39
592.44	50823.75
592.799	51008.38
593.158	51098.32
593.517	51131.99
593.876	51485.88
594.235	51393.9
594.593	51464.18
594.952	51663.27
595.311	51712.54
595.67	51837.28
596.029	52095.81
596.387	52213.77
596.746	52364.05
597.104	52225.07
597.463	52438.4
597.822	52613.98
598.18	52586.19
598.538	52695.56
598.897	53089.9
599.255	52912.06
599.613	53298.03
599.972	53183.01
600.33	53280.63
600.688	53367.64
601.046	53486.96
601.404	53766.5
601.762	53764.91
602.12	53949.09
602.478	53991.12
602.836	54036.55
603.194	53853.27
603.552	54083.1
603.91	54117.22
604.268	54327.39
604.625	54332.13
604.983	54554.27
605.341	54338.23
605.698	54683.99
606.056	54800.14
606.413	54740.03
606.771	54979.12
607.128	54946.13
607.485	54934.37
607.843	55068.61
608.2	55220.69
608.557	55423.4
608.914	55350.41
609.272	55512.89
609.629	55663.85
609.986	55711.98
610.343	55770.51
610.7	55963.05
611.057	55904.29
611.414	55937.96
611.771	56125.98
612.127	56118.52
612.484	56204.85
612.841	56331.4
613.198	56316.94
613.554	56298.63
613.911	56572.3
614.267	56559.19
614.624	56554.22
614.98	56604.39
615.337	56876.92
615.693	56821.78
616.05	56856.36
616.406	56937.03
616.762	56932.29
617.118	57051.61
617.475	57089.8
617.831	57166.63
618.187	57247.08
618.543	57270.58
618.899	57460.18
619.255	57481.88
619.611	57405.5
619.967	57505.15
620.323	57674.42
620.678	57619.73
621.034	57544.48
621.39	57567.75
621.746	57670.57
622.101	57870.34
622.457	57654.98
622.812	57859.95
623.168	57809.78
623.523	57817.91
623.879	58003.9
624.234	57837.8
624.589	57887.29
624.945	57931.36
625.3	58004.58
625.655	58011.58
626.01	58102.43
626.365	58064.69
626.72	58017.91
627.075	57960.96
627.43	58034.18
627.785	58056.33
628.14	58033.05
628.495	58061.98
628.85	58125.25
629.205	58060.17
629.559	58166.61
629.914	58067.4
630.269	58098.13
630.623	57963.9
630.978	57949.89
631.332	58078.47
631.687	58050.9
632.041	58025.37
632.396	58015.2
632.75	57996.67
633.104	58017.68
633.459	57859.5
633.813	57943.34
634.167	57895.65
634.521	57929.55
634.875	57955.31
635.229	57877.35
635.583	57722.1
635.937	57821.76
636.291	57810.01
636.645	57826.73
636.999	57669.67
637.352	57814.98
637.706	57619.95
638.06	57693.62
638.413	57686.17
638.767	57489.34
639.121	57643.23
639.474	57516.68
639.828	57521.43
640.181	57572.05
640.534	57565.27
640.888	57412.95
641.241	57347.64
641.594	57355.55
641.947	57415.21
642.301	57382.22
642.654	57385.61
643.007	57277.59
643.36	57372.28
643.713	57272.62
644.066	57390.81
644.419	57129.35
644.771	56923.7
645.124	56713.31
645.477	56673.76
645.83	56517.16
646.182	56457.5
646.535	56414.11
646.888	56470.38
647.24	56391.96
647.593	56601.68
647.945	56349.25
648.298	56374.11
648.65	56353.55
649.002	56124.17
649.355	56196.26
649.707	56050.73
650.059	56074.91
650.411	56427.44
650.763	56539.53
651.115	56909.92
651.467	56693.42
651.819	56825.62
652.171	56723.03
652.523	56673.09
652.875	56776.13
653.227	56642.8
653.578	56808.9
653.93	56700.66
654.282	56525.52
654.633	56572.52
654.985	56654.1
655.337	56615.23
655.688	56548.8
656.039	56693.65
656.391	56382.47
656.742	56407.78
657.094	56492.07
657.445	56445.75
657.796	56519.42
658.147	56387.22
658.498	56484.84
658.849	56497.95
659.2	56319.42
659.551	56259.54
659.902	56467.67
660.253	56323.72
660.604	56414.34
660.955	56230.84
661.306	56393.55
661.656	56246.88
662.007	56309.93
662.358	56248.24
662.708	56255.92
663.059	56169.82
663.409	56096.6
663.76	56180.22
664.11	56213.44
664.461	56290.72
664.811	56291.18
665.161	56206.66
665.511	56156.49
665.862	56262.25
666.212	56223.61
666.562	56254.34
666.912	56161.91
667.262	56133.21
667.612	56193.1
667.962	56180.67
668.312	56117.85
668.662	56302.47
669.011	56183.38
669.361	56126.89
669.711	56176.83
670.06	56094.34
670.41	56057.06
670.76	56001.47
671.109	56182.03
671.459	56109.26
671.808	56041.01
672.157	56118.3
672.507	55974.12
672.856	55892.54
673.205	55921.92
673.554	56028.58
673.904	55898.19
674.253	56072.2
674.602	55964.4
674.951	55564.87
675.3	55439.45
675.649	55933.9
675.998	55924.63
676.346	55898.42
676.695	55968.92
677.044	55760.12
677.393	55850.96
677.741	55896.16
678.09	55767.57
678.438	55755.14
678.787	55815.26
679.135	55844.41
679.484	55603.06
679.832	55773.67
680.181	55634.02
680.529	55762.15
680.877	55539.78
681.225	55609.39
681.573	55760.34
681.922	55646.9
682.27	55553.12
682.618	55496.39
682.966	55420.69
683.314	55593.11
683.661	55394.48
684.009	55368.94
684.357	55302.95
684.705	55248.94
685.053	55295.04
685.4	55186.12
685.748	55169.62
686.095	55125.56
686.443	55003.98
686.79	54989.51
687.138	55080.13
687.485	55007.14
687.832	54976.63
688.18	54958.33
688.527	54814.38
688.874	54821.16
689.221	54811.89
689.568	54630.65
689.915	54638.56
690.262	54679.47
690.609	54551.79
690.956	54384.56
691.303	54470.88
691.65	54330.32
691.997	54227.5
692.344	54138.92
692.69	54073.61
693.037	54138.24
693.383	53800.62
693.73	53960.39
694.077	53769.21
694.423	53754.97
694.769	53716.55
695.116	53644.47
695.462	53490.12
695.808	53557.46
696.155	53570.57
696.501	53310.91
696.847	53427.52
697.193	53126.74
697.539	53152.73
697.885	52925.39
698.231	52906.18
698.577	52874.32
698.923	52855.11
699.269	52596.81
699.614	52561.33
699.96	52476.36
700.306	52477.04
700.651	52330.38
700.997	52179.87
701.342	52220.55
701.688	52043.38
702.033	51976.71
702.379	52028.01
702.724	51747.11
703.069	51888.13
703.415	51504.86
703.76	51525.88
704.105	51529.04
704.45	51473
704.795	51228.26
705.14	51144.64
705.485	51150.07
705.83	50906.91
706.175	51014.93
706.52	50837.99
706.865	50828.49
707.209	50747.59
707.554	50671.89
707.899	50655.62
708.243	50446.81
708.588	50332.01
708.932	50254.95
709.277	50323.87
709.621	50049.76
709.966	49972.25
710.31	50010.44
710.654	49764.34
710.998	49800.72
711.342	49818.8
711.687	49662.87
712.031	49503.33
712.375	49408.87
712.719	49391.24
713.063	49350.57
713.407	49476.89
713.75	49258.59
714.094	49202.77
714.438	48946.06
714.782	49067.18
715.125	48883.69
715.469	48907.19
715.812	48720.98
716.156	48587.87
716.499	48769.34
716.843	48613.64
717.186	48447.99
717.53	48692.96
717.873	48606.63
718.216	48355.79
718.559	48245.06
718.902	48006.2
719.246	48209.35
719.589	48020.21
719.932	47854.79
720.275	47926.65
720.617	47950.15
720.96	47772.76
721.303	47871.28
721.646	47882.36
721.989	47695.02
722.331	47778.63
722.674	47589.94
723.016	47606.66
723.359	47465.19
723.701	47649.37
724.044	47336.38
724.386	47297.74
724.729	47381.35
725.071	47374.8
725.413	47246.22
725.755	47153.34
726.097	47035.37
726.439	46931.65
726.782	47035.37
727.124	47093
727.465	46982.95
727.807	46931.65
728.149	46770.97
728.491	46693.91
728.833	46766.23
729.175	46671.09
729.516	46432
729.858	46449.63
730.199	46551.77
730.541	46563.3
730.882	46270.87
731.224	46469.74
731.565	46341.15
731.906	46321.95
732.248	46447.82
732.589	46216.41
732.93	46266.13
733.271	46274.04
733.612	46124.21
733.953	46330.31
734.294	46119.24
734.635	46046.7
734.976	46274.49
735.317	46063.87
735.658	45994.72
735.999	45940.94
736.339	45832.69
736.68	45947.94
737.021	45916.98
737.361	45650.33
737.702	46032.46
738.042	45811.68
738.383	45950.43
738.723	45891.22
739.063	45654.39
739.404	45811
739.744	45855.52
740.084	45661.4
740.424	45779.59
740.764	45629.53
741.104	45869.75
741.444	45520.39
741.784	45516.54
742.124	45789.98
742.464	45589.31
742.804	45421.18
743.143	45444.91
743.483	45526.26
743.823	45378.69
744.162	45310
744.502	45524
744.841	45321.29
745.181	45629.31
745.52	45421.86
745.86	45409.2
746.199	45382.31
746.538	45450.78
746.877	45504.79
747.216	45472.02
747.556	45342.08
747.895	45443.32
748.234	45349.09
748.573	45340.5
748.911	45289.66
749.25	45313.84
749.589	45117.01
749.928	45286.94
750.267	45236.55
750.605	45206.04
750.944	45238.58
751.283	45068.42
751.621	45256.21
751.96	45090.11
752.298	45194.52
752.636	45262.54
752.975	45093.73
753.313	44926.73
753.651	45201.98
753.989	44946.84
754.327	45076.33
754.666	44783
755.004	45023
755.342	44992.49
755.679	45108.64
756.017	44801.99
756.355	44897.58
756.693	44829.78
757.031	44936.67
757.368	44766.96
757.706	44725.38
758.044	44644.93
758.381	44640.41
758.719	44593.4
759.056	44677.47
759.394	44570.13
759.731	44277.03
760.068	44216.92
760.405	44242.68
760.743	44118.16
761.08	44163.58
761.417	43995.45
761.754	43909.13
762.091	44009.01
762.428	43744.84
762.765	43620.1
763.102	43639.08
763.438	43577.39
763.775	43410.16
764.112	43449.03
764.449	43315.7
764.785	43260.56
765.122	43093.33
765.458	42904.63
765.795	42987.57
766.131	42978.98
766.467	42936.95
766.804	42600.46
767.14	42489.05
767.476	42381.03
767.812	42238.44
768.148	42366.34
768.485	42158.67
768.821	41777.21
769.157	41797.32
769.492	41863.98
769.828	41786.02
770.164	41287.05
770.5	41293.38
770.836	41497.67
771.171	41138.81
771.507	41035.76
771.842	40797.35
772.178	40758.48
772.513	40706.95
772.849	40544.92
773.184	40365.72
773.519	40317.81
773.855	40105.61
774.19	40098.38
774.525	39880.76
774.86	39872.62
775.195	39613.2
775.53	39490.49
775.865	39333.88
776.2	39195.35
776.535	39022.48
776.87	38924.4
777.205	38786.32
777.539	38584.97
777.874	38701.36
778.209	38353.12
778.543	38279.9
778.878	38155.15
779.212	38101.15
779.547	37815.95
779.881	37745.45
780.215	37628.39
780.55	37663.42
780.884	37426.13
781.218	37158.12
781.552	37291.22
781.886	36982.76
782.22	36835.19
782.554	36659.38
782.888	36443.79
783.222	36287.63
783.556	36178.48
783.889	36064.14
784.223	35897.59
784.557	35816.23
784.89	35896.23
785.224	35671.38
785.557	35441.78
785.891	35457.37
786.224	35391.61
786.558	35157.04
786.891	34926.54
787.224	34692.42
787.557	34717.05
787.891	34644.51
788.224	34400.45
788.557	34460.11
788.89	34339.89
789.223	34247.46
789.556	34054.7
789.888	34035.49
790.221	33963.85
790.554	33689.06
790.887	33710.98
791.219	33391.44
791.552	33395.05
791.884	33248.84
792.217	33236.19
792.549	33116.42
792.882	32942.86
793.214	32782.19
793.546	32709.42
793.879	32583.78
794.211	32364.8
794.543	32613.15
794.875	32315.53
795.207	32331.58
795.539	32133.17
795.871	32171.81
796.203	32069.44
796.535	31683.69
796.867	31736.34
797.198	31468.55
797.53	31467.2
797.862	31316.46
798.193	31343.13
798.525	31297.26
798.856	31244.38
799.188	30930.26
799.519	30772.98
799.85	30727.33
800.182	30627.22
800.513	30840.32
800.844	30439.43
801.175	30492.76
801.506	30368.02
801.837	30282.82
802.168	30180.9
802.499	30238.75
802.83	30043.73
803.161	29900
803.491	29872.43
803.822	29947.69
804.153	29732.55
804.483	29477.64
804.814	29451.2
805.145	29404.2
805.475	29386.35
805.805	29339.12
806.136	29305.9
806.466	29139.57
806.796	29092.79
807.126	28821.16
807.457	28765.8
807.787	28874.95
808.117	28723.99
808.447	28626.14
808.777	28697.32
809.107	28447.16
809.436	28261.18
809.766	28334.4
810.096	28220.5
810.426	28144.34
810.755	28151.12
811.085	28041.75
811.414	28073.39
811.744	27948.64
812.073	27905.25
812.403	27882.2
812.732	27699.84
813.061	27809.21
813.39	27667.07
813.719	27493.29
814.049	27644.24
814.378	27540.97
814.707	27318.83
815.036	27317.02
815.365	27176.91
815.693	26996.13
816.022	27033.19
816.351	26893.3
816.68	26837.71
817.008	26856.47
817.337	26674.55
817.665	26635.23
817.994	26590.49
818.322	26673.65
818.651	26545.97
818.979	26473.65
819.307	26573.99
819.636	26395.01
819.964	26276.82
820.292	26373.09
820.62	26321.34
820.948	26373.32
821.276	26357.5
821.604	26290.61
821.932	26321.34
822.259	26211.97
822.587	26209.03
822.915	26137.84
823.243	26349.36
823.57	26208.58
823.898	26355.01
824.225	26195.7
824.553	26116.15
824.88	26293.32
825.207	26185.98
825.535	26199.76
825.862	26347.33
826.189	26203.6
826.516	26413.32
826.843	26396.82
827.17	26341.45
827.497	26361.79
827.824	26361.11
828.151	26393.88
828.478	26162.93
828.805	26367.89
829.131	26265.75
829.458	26221.91
829.785	26181.01
830.111	26265.3
830.438	26333.09
830.764	26244.51
831.09	26269.14
831.417	26151.85
831.743	26297.16
832.069	26157.96
832.395	26089.71
832.722	26192.98
833.048	26104.62
833.374	26255.81
833.7	26126.77
834.026	26169.71
834.351	26149.59
834.677	26033.44
835.003	26004.06
835.329	25995.47
835.654	25945.76
835.98	25861.69
836.306	26024.17
836.631	25877.29
836.956	25955.48
837.282	25936.72
837.607	25683.62
837.932	25731.75
838.258	25660.34
838.583	25794.8
838.908	25668.03
839.233	25639.78
839.558	25564.53
839.883	25520.68
840.208	25364.08
840.533	25482.72
840.858	25463.29
841.182	25435.49
841.507	25381.71
841.832	25265.78
842.156	25288.83
842.481	25187.81
842.805	25123.18
843.13	25157.98
843.454	25160.92
843.778	25023.97
844.103	25054.71
844.427	24896.97
844.751	24932.68
845.075	24843.87
845.399	24810.65
845.723	24605.23
846.047	24651.78
846.371	24501.05
846.695	24388.06
847.019	24329.98
847.343	24267.61
847.666	24068.75
847.99	23996.88
848.313	24009.99
848.637	23945.59
848.96	23898.35
849.284	23873.27
849.607	23571.58
849.931	23438.93
850.254	23451.59
850.577	23244.59
850.9	23047.53
851.223	23058.83
851.546	22955.55
851.869	22876.91
852.192	23041.2
852.515	22841.66
852.838	22683.25
853.161	22599.41
853.483	22411.39
853.806	22389.92
854.129	22386.53
854.451	22301.79
854.774	22249.81
855.096	22193.09
855.419	22032.64
855.741	21988.57
856.063	21821.57
856.385	21772.99
856.708	21827.67
857.03	21619.32
857.352	21716.72
857.674	21568.7
857.996	21488.47
858.318	21304.98
858.64	21398.76
858.961	21286.67
859.283	21196.5
859.605	21193.34
859.926	21146.56
860.248	21041.25
860.57	20979.56
860.891	20969.17
861.212	20913.57
861.534	20884.42
861.855	20817.31
862.176	20844.42
862.498	20765.1
862.819	20790.19
863.14	20693.02
863.461	20585.22
863.782	20559.69
864.103	20576.18
864.424	20442.4
864.745	20544.77
865.065	20461.38
865.386	20278.56
865.707	20330.54
866.027	20365.11
866.348	20190.43
866.668	20186.14
866.989	20229.75
867.309	20101.17
867.63	20027.27
867.95	20046.03
868.27	19950.66
868.59	20087.61
868.91	19931
869.23	19934.62
869.55	19915.63
869.87	19928.29
870.19	19780.5
870.51	19854.62
870.83	19825.24
871.15	19679.03
871.469	19595.19
871.789	19764.68
872.109	19697.79
872.428	19624.79
872.748	19681.52
873.067	19566.27
873.386	19617.34
873.706	19567.4
874.025	19442.2
874.344	19319.27
874.663	19352.26
874.982	19406.04
875.301	19342.54
875.62	19308.42
875.939	19320.62
876.258	19262.32
876.577	19190.91
876.896	19149.55
877.214	19218.25
877.533	19150.46
877.852	19161.3
878.17	19036.79
878.489	19089.89
878.807	18972.83
879.125	19006.05
879.444	18920.18
879.762	18966.05
880.08	18966.96
880.398	18778.26
880.716	18779.17
881.034	18734.42
881.352	18847.41
881.67	18659.17
881.988	18670.02
882.306	18562.68
882.624	18637.93
882.941	18483.81
883.259	18444.71
883.577	18397.93
883.894	18412.62
884.212	18304.6
884.529	18280.2
884.846	18175.57
885.164	18213.31
885.481	18115.46
885.798	18173.76
886.115	18065.74
886.432	18042.46
886.75	18039.98
887.067	17986.42
887.383	17940.09
887.7	17983.26
888.017	17733.32
888.334	17814.9
888.651	17744.17
888.967	17750.04
889.284	17603.38
889.6	17494.46
889.917	17581.68
890.233	17634.56
890.55	17462.82
890.866	17515.47
891.182	17370.62
891.498	17339.21
891.815	17317.51
892.131	17121.58
892.447	17237.51
892.763	17111.64
893.079	16990.74
893.395	17004.75
893.71	16948.93
894.026	16908.48
894.342	16846.56
894.657	16706.91
894.973	16763.18
895.289	16749.62
895.604	16720.69
895.92	16591.88
896.235	16529.96
896.55	16454.71
896.865	16398.21
897.181	16327.48
897.496	16406.57
897.811	16242.74
898.126	16238.44
898.441	16244.54
898.756	16154.83
899.071	16076.64
899.386	16081.16
899.7	15857.21
900.015	15837.78
900.33	15689.76
900.644	15697.44
900.959	15746.25
901.273	15678.46
901.588	15628.52
901.902	15463.55
902.216	15453.6
902.531	15417.45
902.845	15398.69
903.159	15215.19
903.473	15269.66
903.787	15157.12
904.101	15098.13
904.415	15138.58
904.729	15005.93
905.042	14948.08
905.356	14904.92
905.67	14866.5
905.984	14779.95
906.297	14777.01
906.611	14672.61
906.924	14707.41
907.237	14561.2
907.551	14556.91
907.864	14481.43
908.177	14461.31
908.491	14392.84
908.804	14372.96
909.117	14203.47
909.43	14125.05
909.743	14074.21
910.056	14180.42
910.368	14134.09
910.681	13994.21
910.994	13894.1
911.307	13927.09
911.619	13662.01
911.932	13800.09
912.244	13639.19
912.557	13686.87
912.869	13586.31
913.181	13500.44
913.494	13473.77
913.806	13343.83
914.118	13295.92
914.43	13297.96
914.742	13257.73
915.054	13122.14
915.366	13153.78
915.678	13085.98
915.99	13045.53
916.302	12889.15
916.613	12884.41
916.925	12917.85
917.236	12886.21
917.548	12718.54
917.859	12732.32
918.171	12621.36
918.482	12490.75
918.794	12599.22
919.105	12547.69
919.416	12372.33
919.727	12410.3
920.038	12299.11
920.349	12216.18
920.66	12216.63
920.971	12228.38
921.282	12130.98
921.593	12030.87
921.903	11989.29
922.214	12003.98
922.525	11880.59
922.835	11922.4
923.146	11763.76
923.456	11735.06
923.767	11632.69
924.077	11662.07
924.387	11680.37
924.697	11556.76
925.008	11447.16
925.318	11408.29
925.628	11395.86
925.938	11349.98
926.248	11234.28
926.558	11184.11
926.867	11204
927.177	11207.39
927.487	11135.07
927.796	11076.32
928.106	10993.61
928.416	10987.96
928.725	10985.25
929.034	10860.51
929.344	10882.88
929.653	10906.61
929.962	10750.9
930.271	10637.69
930.581	10619.61
930.89	10567.63
931.199	10519.72
931.508	10496.22
931.817	10426.84
932.125	10419.39
932.434	10344.81
932.743	10179.85
933.051	10307.75
933.36	10211.26
933.669	10178.49
933.977	10175.1
934.286	10070.7
934.594	10007.42
934.902	9951.6
935.21	9979.4
935.519	9928.33
935.827	9873.64
936.135	9798.16
936.443	9751.38
936.751	9650.82
937.059	9620.09
937.367	9580.54
937.674	9654.44
937.982	9575.12
938.29	9604.49
938.597	9531.5
938.905	9399.75
939.213	9322.92
939.52	9358.4
939.827	9285.86
940.135	9289.25
940.442	9229.81
940.749	9197.5
941.056	9235.24
941.363	9084.51
941.67	9110.27
941.977	9015.13
942.284	8977.62
942.591	8967.45
942.898	8909.82
943.205	8911.86
943.511	8852.42
943.818	8872.76
944.125	8667.12
944.431	8702.37
944.738	8738.75
945.044	8662.6
945.35	8573.56
945.657	8561.81
945.963	8519.32
946.269	8531.08
946.575	8484.52
946.881	8418.76
947.187	8433.68
947.493	8345.54
947.799	8320.23
948.105	8300.8
948.41	8198.88
948.716	8243.63
949.022	8202.27
949.327	8193.46
949.633	8113.91
949.938	8066.23
950.244	8051.31
950.549	8008.6
950.854	7941.49
951.16	7928.61
951.465	7880.02
951.77	7797.54
952.075	7777.65
952.38	7813.13
952.685	7711.66
952.99	7666.01
953.294	7599.57
953.599	7663.98
953.904	7602.96
954.209	7481.39
954.513	7560.25
954.818	7505.11
955.122	7459.24
955.426	7491.33
955.731	7422.4
956.035	7382.18
956.339	7359.58
956.643	7309.86
956.948	7268.06
957.252	7244.78
957.556	7193.26
957.86	7183.09
958.163	7165.46
958.467	7101.73
958.771	7062.19
959.075	7007.05
959.378	6980.83
959.682	6923.89
959.985	6919.59
960.289	6890.67
960.592	6840.05
960.896	6852.7
961.199	6769.99
961.502	6765.47
961.805	6765.25
962.108	6723.44
962.411	6707.39
962.714	6642.54
963.017	6581.97
963.32	6612.48
963.623	6580.62
963.926	6588.98
964.228	6538.36
964.531	6499.04
964.833	6538.13
965.136	6405.71
965.438	6345.14
965.741	6364.13
966.043	6288.65
966.345	6293.39
966.648	6337.91
966.95	6271.93
967.252	6212.27
967.554	6207.52
967.856	6183.11
968.158	6188.99
968.46	6102.89
968.761	6120.29
969.063	6102.89
969.365	5996.68
969.666	6006.85
969.968	5987.41
970.269	5971.14
970.571	5967.3
970.872	5932.27
971.174	5906.74
971.475	5845.72
971.776	5844.82
972.077	5785.61
972.378	5709.91
972.679	5706.74
972.98	5767.08
973.281	5706.29
973.582	5709
973.883	5603.02
974.183	5692.51
974.484	5530.7
974.785	5500.87
975.085	5506.75
975.386	5500.65
975.686	5499.97
975.986	5420.2
976.287	5438.73
976.587	5405.51
976.887	5384.72
977.187	5346.3
977.487	5331.61
977.787	5337.26
978.087	5273.76
978.387	5248.22
978.687	5267.43
978.987	5193.54
979.286	5185.4
979.586	5143.59
979.885	5170.71
980.185	5096.14
980.484	5130.49
980.784	5031.28
981.083	5085.06
981.382	5020.66
981.682	5041.9
981.981	4980.21
982.28	4956.03
982.579	4947.67
982.878	4890.04
983.177	4890.94
983.475	4852.75
983.774	4803.94
984.073	4819.76
984.372	4788.8
984.67	4765.52
984.969	4746.54
985.267	4759.2
985.566	4724.85
985.864	4657.73
986.162	4651.86
986.461	4659.76
986.759	4638.07
987.057	4551.07
987.355	4516.49
987.653	4540.9
987.951	4497.73
988.249	4465.87
988.547	4493.67
988.844	4451.18
989.142	4422.48
989.44	4390.84
989.737	4414.57
990.035	4374.35
990.332	4325.76
990.63	4343.39
990.927	4281.92
991.224	4310.17
991.521	4288.47
991.819	4285.09
992.116	4213.9
992.413	4185.2
992.71	4179.33
993.006	4141.59
993.303	4170.74
993.6	4090.97
993.897	4133
994.193	4107.69
994.49	4071.53
994.787	4050.74
995.083	4069.05
995.379	3988.82
995.676	3956.28
995.972	3950.63
996.268	3902.04
996.565	3911.76
996.861	3869.05
997.157	3875.6
997.453	3856.17
997.749	3845.32
998.044	3784.31
998.34	3770.97
998.636	3765.1
998.932	3743.63
999.227	3714.93
999.523	3703.63
999.818	3720.81
1000.114	3672.22
1000.409	3667.47
1000.704	3645.55
1001	3622.28
1001.295	3565.33
1001.59	3537.08
1001.885	3575.73
1002.18	3541.83
1002.475	3497.99
1002.77	3498.44
1003.065	3442.17
1003.359	3457.99
1003.654	3459.8
1003.949	3394.49
1004.243	3404.66
1004.538	3374.15
1004.832	3400.14
1005.127	3360.36
1005.421	3305.9
1005.715	3288.73
1006.009	3262.97
1006.304	3275.39
1006.598	3228.84
1006.892	3215.51
1007.186	3203.53
1007.48	3139.35
1007.773	3140.03
1008.067	3091.22
1008.361	3146.81
1008.655	3092.57
1008.948	3114.95
1009.242	3027.94
1009.535	3045.8
1009.829	3024.55
1010.122	2987.49
1010.415	2986.59
1010.708	2961.5
1011.001	2945.46
1011.295	2937.78
1011.588	2905.46
1011.881	2889.64
1012.173	2870.43
1012.466	2856.87
1012.759	2877.66
1013.052	2824.33
1013.344	2820.04
1013.637	2793.37
1013.93	2785.24
1014.222	2723.32
1014.514	2733.94
1014.807	2727.61
1015.099	2734.62
1015.391	2703.66
1015.683	2667.73
1015.976	2655.75
1016.268	2603.1
1016.56	2602.42
1016.851	2595.86
1017.143	2567.16
1017.435	2572.81
1017.727	2530.78
1018.018	2545.7
1018.31	2495.75
1018.602	2488.75
1018.893	2471.35
1019.185	2474.96
1019.476	2408.3
1019.767	2409.43
1020.058	2403.55
1020.35	2404.46
1020.641	2397.9
1020.932	2347.06
1021.223	2349.32
1021.514	2326.94
1021.804	2293.5
1022.095	2283.78
1022.386	2278.36
1022.677	2272.48
1022.967	2240.85
1023.258	2237.68
1023.548	2224.57
1023.839	2214.63
1024.129	2137.57
1024.419	2142.77
1024.709	2145.03
1025	2124.01
1025.29	2114.75
1025.58	2097.8
1025.87	2091.02
1026.16	2078.36
1026.449	2048.08
1026.739	2064.58
1027.029	2032.94
1027.319	2038.14
1027.608	1973.06
1027.898	1990.68
1028.187	1992.72
1028.477	2000.63
1028.766	1927.63
1029.055	1903.68
1029.344	1897.13
1029.634	1893.96
1029.923	1926.95
1030.212	1866.39
1030.501	1865.26
1030.79	1861.42
1031.078	1837.01
1031.367	1800.4
1031.656	1801.31
1031.945	1786.17
1032.233	1778.71
1032.522	1756.79
1032.81	1767.86
1033.099	1766.28
1033.387	1745.49
1033.675	1730.35
1033.963	1705.27
1034.251	1707.07
1034.54	1693.06
1034.828	1664.36
1035.116	1644.25
1035.403	1675.21
1035.691	1615.55
1035.979	1618.04
1036.267	1607.19
1036.554	1593.86
1036.842	1568.77
1037.129	1587.08
1037.417	1529.23
1037.704	1559.28
1037.992	1527.87
1038.279	1510.92
1038.566	1532.39
1038.853	1532.39
1039.14	1532.39
