Data from 14-0852_FLMS001491_006.txt Node
Date: Thu Apr 12 17:07:11 BST 2018
User: hsy
Spectrometer: FLMS00149
Trigger mode: 0
Integration Time (sec): 1.000000E-2
Scans to average: 10
Electric dark correction enabled: true
Nonlinearity correction enabled: false
Boxcar width: 0
XAxis mode: Wavelengths
Number of Pixels in Spectrum: 2048
>>>>>Begin Spectral Data<<<<<
341.393	-8.83
341.776	-8.83
342.16	-8.83
342.543	-69.16
342.927	-71.2
343.31	-66.23
343.693	-50.63
344.077	-74.59
344.46	-50.18
344.843	-35.95
345.226	-47.02
345.61	-27.58
345.993	-32.33
346.376	-13.12
346.759	15.13
347.142	11.74
347.525	53.54
347.908	60.1
348.291	61.23
348.674	78.18
349.057	117.72
349.44	98.74
349.823	122.69
350.206	171.05
350.588	253.54
350.971	246.08
351.354	268.91
351.737	303.03
352.119	291.96
352.502	296.25
352.884	319.75
353.267	340.99
353.65	343.03
354.032	358.39
354.414	346.19
354.797	361.11
355.179	371.28
355.562	389.81
355.944	389.81
356.326	374.89
356.709	375.34
357.091	403.37
357.473	392.97
357.855	376.47
358.238	410.6
358.62	407.21
359.002	397.04
359.384	399.52
359.766	366.76
360.148	405.62
360.53	381.67
360.912	373.54
361.294	385.96
361.676	402.91
362.057	384.83
362.439	373.54
362.821	379.86
363.203	391.39
363.584	383.03
363.966	395.68
364.348	379.41
364.729	403.59
365.111	378.73
365.493	383.7
365.874	370.15
366.256	377.15
366.637	373.31
367.019	365.85
367.4	367.66
367.781	379.41
368.163	374.44
368.544	371.5
368.925	385.29
369.306	395
369.688	383.93
370.069	375.57
370.45	361.56
370.831	375.8
371.212	389.13
371.593	378.51
371.974	373.31
372.355	366.08
372.736	392.52
373.117	404.72
373.498	399.3
373.879	409.69
374.26	392.74
374.641	390.26
375.021	401.33
375.402	396.59
375.783	407.21
376.163	404.72
376.544	396.81
376.925	425.96
377.305	412.63
377.686	390.71
378.066	429.13
378.447	413.31
378.827	381.9
379.208	416.25
379.588	408.56
379.968	433.19
380.349	428.68
380.729	423.93
381.109	414.89
381.489	442.23
381.87	423.25
382.25	447.88
382.63	435
383.01	448.79
383.39	448.11
383.77	443.14
384.15	457.6
384.53	452.63
384.91	463.93
385.29	456.7
385.67	459.41
386.049	481.56
386.429	455.12
386.809	471.16
387.189	439.52
387.568	483.36
387.948	472.52
388.328	484.27
388.707	484.72
389.087	471.39
389.466	472.06
389.846	481.78
390.225	502.8
390.605	473.19
390.984	495.34
391.363	485.17
391.743	505.51
392.122	505.28
392.501	495.11
392.881	493.53
393.26	500.31
393.639	521.1
394.018	518.84
394.397	526.98
394.776	535.79
395.155	534.66
395.534	551.84
395.913	543.02
396.292	560.42
396.671	531.05
397.05	540.08
397.429	568.78
397.808	559.97
398.186	529.46
398.565	563.36
398.944	537.15
399.323	600.2
399.701	564.04
400.08	576.47
400.458	585.73
400.837	568.56
401.215	575.11
401.594	581.21
401.972	603.59
402.351	591.61
402.729	602
403.107	598.61
403.486	608.33
403.864	601.1
404.242	618.73
404.62	624.15
404.999	619.63
405.377	625.28
405.755	609.01
406.133	635.9
406.511	644.71
406.889	659.86
407.267	656.01
407.645	642.45
408.023	684.94
408.401	666.64
408.779	660.76
409.156	680.19
409.534	665.73
409.912	698.27
410.29	704.37
410.667	706.18
411.045	717.71
411.422	736.24
411.8	717.26
412.178	715.45
412.555	717.93
412.933	741.21
413.31	802.22
413.687	755.9
414.065	758.16
414.442	783.24
414.819	769.68
415.197	774.43
415.574	791.6
415.951	772.85
416.328	809.23
416.705	794.32
417.082	797.93
417.46	831.38
417.837	827.99
418.214	851.04
418.591	834.54
418.967	831.38
419.344	827.08
419.721	845.39
420.098	857.14
420.475	866.4
420.852	866.18
421.228	882.67
421.605	889
421.982	871.38
422.358	894.65
422.735	895.33
423.111	892.39
423.488	910.7
423.864	909.57
424.241	929.68
424.617	925.61
424.994	923.35
425.37	937.59
425.746	936.01
426.123	948.44
426.499	966.51
426.875	964.03
427.251	1013.52
427.627	998.38
428.003	1020.07
428.379	1039.05
428.756	1039.51
429.132	1040.41
429.507	1032.05
429.883	1040.41
430.259	1077.25
430.635	1135.1
431.011	1070.24
431.387	1081.31
431.763	1094.87
432.138	1101.65
432.514	1132.39
432.89	1134.87
433.265	1164.02
433.641	1185.27
434.016	1180.07
434.392	1189.33
434.767	1209.9
435.143	1197.69
435.518	1246.05
435.894	1224.59
436.269	1210.8
436.644	1241.31
437.02	1274.53
437.395	1259.16
437.77	1291.03
438.145	1282.66
438.52	1315.43
438.895	1313.4
439.271	1270.01
439.646	1341.42
440.021	1332.83
440.395	1344.36
440.77	1333.28
441.145	1355.66
441.52	1375.77
441.895	1364.92
442.27	1394.3
442.645	1392.94
443.019	1391.81
443.394	1397.92
443.769	1422.1
444.143	1422.55
444.518	1446.73
444.892	1423.9
445.267	1435.2
445.641	1472.04
446.016	1441.3
446.39	1451.7
446.764	1482.66
447.139	1465.48
447.513	1480.17
447.887	1490.79
448.262	1478.37
448.636	1486.73
449.01	1550.23
449.384	1540.06
449.758	1563.11
450.132	1585.03
450.506	1594.29
450.88	1581.87
451.254	1590.23
451.628	1660.06
452.002	1666.61
452.376	1665.48
452.75	1703.9
453.123	1691.24
453.497	1713.84
453.871	1713.84
454.244	1773.72
454.618	1780.96
454.992	1779.6
455.365	1835.64
455.739	1844.01
456.112	1848.98
456.486	1841.07
456.859	1883.1
457.232	1913.83
457.606	1943.66
457.979	1950.22
458.352	1984.57
458.725	2007.62
459.099	2007.84
459.472	2050.78
459.845	2056.65
460.218	2065.24
460.591	2095.52
460.964	2115.18
461.337	2192.24
461.71	2193.37
462.083	2215.52
462.456	2230.21
462.829	2207.61
463.201	2283.09
463.574	2297.78
463.947	2323.31
464.32	2316.99
464.692	2356.08
465.065	2416.87
465.438	2429.07
465.81	2431.56
466.183	2488.28
466.555	2512.69
466.928	2506.81
467.3	2537.55
467.672	2557.88
468.045	2632.91
468.417	2631.33
468.789	2667.49
469.161	2647.83
469.534	2718.11
469.906	2798.33
470.278	2786.81
470.65	2812.12
471.022	2872.45
471.394	2929.4
471.766	2955.16
472.138	2990.19
472.51	3059.34
472.882	3085.1
473.253	3108.6
473.625	3175.04
473.997	3219.34
474.369	3226.57
474.74	3261.82
475.112	3354.25
475.484	3325.1
475.855	3429.95
476.227	3474.7
476.598	3589.72
476.97	3610.06
477.341	3697.97
477.713	3712.43
478.084	3775.93
478.455	3920.11
478.827	3914.01
479.198	4065.42
479.569	4049.82
479.94	4190.84
480.311	4216.15
480.682	4310.61
481.053	4447.1
481.424	4457.72
481.795	4580.2
482.166	4642.58
482.537	4773.65
482.908	4813.87
483.279	4884.6
483.65	4955.79
484.021	5091.83
484.391	5239.4
484.762	5247.08
485.133	5345.61
485.503	5445.27
485.874	5570.69
486.244	5639.16
486.615	5763.22
486.985	5856.1
487.356	6074.18
487.726	6129.54
488.097	6264.45
488.467	6333.6
488.837	6519.14
489.207	6638.46
489.578	6833.48
489.948	6938.33
490.318	7054.49
490.688	7171.77
491.058	7340.36
491.428	7521.37
491.798	7608.37
492.168	7824.41
492.538	7929.27
492.908	8181.24
493.278	8335.81
493.648	8402.7
494.017	8621.23
494.387	8745.29
494.757	8993.87
495.126	9122.68
495.496	9279.97
495.866	9455.78
496.235	9610.35
496.605	9792.27
496.974	9975.77
497.344	10226.84
497.713	10489.2
498.082	10521.52
498.452	10782.75
498.821	10990.66
499.19	11101.39
499.559	11366.47
499.928	11595.61
500.298	11774.14
500.667	12109.72
501.036	12214.13
501.405	12432.43
501.774	12676.94
502.143	12903.38
502.512	13065.86
502.88	13407.54
503.249	13506.3
503.618	13793.07
503.987	13946.29
504.356	14168.65
504.724	14379.49
505.093	14642.54
505.462	14915.75
505.83	15041.85
506.199	15405.46
506.567	15725.22
506.936	15935.16
507.304	16147.81
507.672	16346
508.041	16600.91
508.409	16918.19
508.777	17159.99
509.145	17418.06
509.514	17497.15
509.882	17805.17
510.25	17971.49
510.618	18225.27
510.986	18443.57
511.354	18745.71
511.722	18973.05
512.09	19222.08
512.458	19377.33
512.826	19709.52
513.193	19864.55
513.561	20021.61
513.929	20294.82
514.297	20705.88
514.664	20760.12
515.032	20984.07
515.4	21251.18
515.767	21410.72
516.135	21674.9
516.502	21647.1
516.869	22167.99
517.237	22339.29
517.604	22377.7
517.972	22839.84
518.339	22923.45
518.706	23203.44
519.073	23313.5
519.44	23451.12
519.808	23816.53
520.175	23918.68
520.542	24291.1
520.909	24510.3
521.276	24620.13
521.643	24953.68
522.009	25150.96
522.376	25336.49
522.743	25592.99
523.11	25968.57
523.477	26244.95
523.843	26343.93
524.21	26876.34
524.577	27013.51
524.943	27267.29
525.31	27350.23
525.676	27740.95
526.043	28032.92
526.409	28138.68
526.776	28468.84
527.142	28536.64
527.508	28817.99
527.874	29012.78
528.241	29365.99
528.607	29464.3
528.973	29883.95
529.339	29794.91
529.705	30190.83
530.071	30409.81
530.437	30762.57
530.803	30800.31
531.169	31177.47
531.535	31242.55
531.901	31512.15
532.267	31638.25
532.632	31993.95
532.998	32125.24
533.364	32316.65
533.73	32404.78
534.095	32631.9
534.461	32630.77
534.826	32929.06
535.192	33044.77
535.557	33369.5
535.923	33423.51
536.288	33530.4
536.653	33790.28
537.019	33744.86
537.384	34071.86
537.749	33995.7
538.114	34317.5
538.479	34205.19
538.845	34367.67
539.21	34494.22
539.575	34630.49
539.94	34771.5
540.305	35086.75
540.67	35012.62
541.034	35237.7
541.399	35247.87
541.764	35508.66
542.129	35586.85
542.494	35692.61
542.858	35858.03
543.223	35792.72
543.587	35954.52
543.952	36035.2
544.316	36187.28
544.681	36177.57
545.045	36481.29
545.41	36639.47
545.774	36614.84
546.138	36435.64
546.503	36824.78
546.867	36910.2
547.231	37265.45
547.595	37312.45
547.959	37270.64
548.324	37413.24
548.688	37536.85
549.052	37742.5
549.416	37672.44
549.779	37859.1
550.143	37990.63
550.507	38325.31
550.871	38258.87
551.235	38255.48
551.599	38709.25
551.962	38641.68
552.326	38760.1
552.689	38938.4
553.053	38630.38
553.417	39036.93
553.78	39496.12
554.143	39464.26
554.507	39601.2
554.87	39754.19
555.234	39986.73
555.597	39814.08
555.96	40075.99
556.323	40203.67
556.686	40246.84
557.05	40618.13
557.413	40651.35
557.776	40804.34
558.139	40982.41
558.502	41185.57
558.865	41218.56
559.228	41626.46
559.59	41697.19
559.953	41737.19
560.316	42293.34
560.679	42059.44
561.041	42304.86
561.404	42658.07
561.767	43050.15
562.129	42846.77
562.492	43148.91
562.854	43150.49
563.217	43294.21
563.579	43440.65
563.941	43594.32
564.304	43922.45
564.666	44267.07
565.028	44153.18
565.39	44369.21
565.753	44709.54
566.115	44704.35
566.477	45048.29
566.839	45051.23
567.201	45574.38
567.563	45508.85
567.925	45752.68
568.287	45836.75
568.648	46050.53
569.01	46326.45
569.372	46556.95
569.734	46577.74
570.095	46851.64
570.457	47071.29
570.819	47136.37
571.18	47047.79
571.542	47474.67
571.903	47444.16
572.265	47706.75
572.626	47856.58
572.987	47923.47
573.349	48217.7
573.71	48335.89
574.071	48507.86
574.432	48708.99
574.794	49062.2
575.155	49082.09
575.516	49019.26
575.877	49280.05
576.238	49315.98
576.599	49473.71
576.96	49517.1
577.32	49721.84
577.681	49950.99
578.042	50094.04
578.403	50221.04
578.763	50201.6
579.124	50438.43
579.485	50629.39
579.845	50876.84
580.206	50800.91
580.566	50928.82
580.927	50985.54
581.287	51222.82
581.648	51100.79
582.008	51399.76
582.368	51506.88
582.728	51604.5
583.089	51751.17
583.449	51797.72
583.809	51938.51
584.169	52118.16
584.529	52091.05
584.889	52416.91
585.249	52271.15
585.609	52327.2
585.969	52603.57
586.329	52722.89
586.688	52910.01
587.048	52930.12
587.408	53055.09
587.768	53143.45
588.127	53261.41
588.487	53257.57
588.846	53714.51
589.206	53568.52
589.565	53591.12
589.925	53919.7
590.284	53920.15
590.643	54098.22
591.003	54236.07
591.362	54514.03
591.721	54426.13
592.08	54534.15
592.44	54777.3
592.799	54857.53
593.158	54905.89
593.517	54975.04
593.876	55137.97
594.235	55200.12
594.593	55244.86
594.952	55458.19
595.311	55476.49
595.67	55635.81
596.029	55859.76
596.387	56017.5
596.746	56176.81
597.104	56062.47
597.463	56156.25
597.822	56387.66
598.18	56436.02
598.538	56591.49
598.897	56703.13
599.255	56507.88
599.613	56958.71
599.972	56939.73
600.33	57024.25
600.688	57110.12
601.046	57262.44
601.404	57506.04
601.762	57372.71
602.12	57659.49
602.478	57715.98
602.836	57793.95
603.194	57688.64
603.552	57847.96
603.91	57860.84
604.268	57999.36
604.625	58061.74
604.983	58226.48
605.341	58161.17
605.698	58366.59
606.056	58571.33
606.413	58445.91
606.771	58680.02
607.128	58685.9
607.485	58689.29
607.843	58780.14
608.2	58954.14
608.557	59061.48
608.914	59067.36
609.272	59264.87
609.629	59327.69
609.986	59441.36
610.343	59385.32
610.7	59614.69
611.057	59549.38
611.414	59600.23
611.771	59765.19
612.127	59873.89
612.484	59903.04
612.841	59972.65
613.198	59937.39
613.554	59977.39
613.911	60164.28
614.267	60286.31
614.624	60268.91
614.98	60391.39
615.337	60447.89
615.693	60511.16
616.05	60509.36
616.406	60678.84
616.762	60640.43
617.118	60696.92
617.475	60716.13
617.831	60856.01
618.187	60894.43
618.543	60896.46
618.899	61056.01
619.255	61004.71
619.611	61060.53
619.967	61158.6
620.323	61295.55
620.678	61144.59
621.034	61133.07
621.39	61163.35
621.746	61268.88
622.101	61540.51
622.457	61337.13
622.812	61452.61
623.168	61503.23
623.523	61554.98
623.879	61579.38
624.234	61449.67
624.589	61569.89
624.945	61644.01
625.3	61679.95
625.655	61738.93
626.01	61672.04
626.365	61783.67
626.72	61699.83
627.075	61721.3
627.43	61721.3
627.785	61715.43
628.14	61743.22
628.495	61715.43
628.85	61789.77
629.205	61724.69
629.559	61855.53
629.914	61712.49
630.269	61719.27
630.623	61649.21
630.978	61657.35
631.332	61759.72
631.687	61781.64
632.041	61767.63
632.396	61759.72
632.75	61701.87
633.104	61749.1
633.459	61620.51
633.813	61657.12
634.167	61585.49
634.521	61624.81
634.875	61650.79
635.229	61570.34
635.583	61495.54
635.937	61507.75
636.291	61517.92
636.645	61518.59
636.999	61420.74
637.352	61466.39
637.706	61295.55
638.06	61390.91
638.413	61342.78
638.767	61211.03
639.121	61300.75
639.474	61215.55
639.828	61215.1
640.181	61192.95
640.534	61230.24
640.888	61130.58
641.241	60996.8
641.594	61105.72
641.947	61122.9
642.301	61098.72
642.654	61073.18
643.007	60960.87
643.36	61059.17
643.713	60981.21
644.066	61086.74
644.419	60977.82
644.771	60663.48
645.124	60380.77
645.477	60442.92
645.83	60316.59
646.182	60284.28
646.535	60275.46
646.888	60304.61
647.24	60207.44
647.593	60336.93
647.945	60187.56
648.298	60157.27
648.65	59994.34
649.002	59886.77
649.355	59875.25
649.707	59834.8
650.059	59885.64
650.411	60203.6
650.763	60214.67
651.115	60610.6
651.467	60477.72
651.819	60532.41
652.171	60474.33
652.523	60415.57
652.875	60418.74
653.227	60329.47
653.578	60464.16
653.93	60404.5
654.282	60211.06
654.633	60189.82
654.985	60243.37
655.337	60251.96
655.688	60224.84
656.039	60257.84
656.391	60047.67
656.742	60151.4
657.094	60079.76
657.445	60151.17
657.796	60161.79
658.147	60071.4
658.498	60110.72
658.849	60149.82
659.2	59992.31
659.551	59993.44
659.902	60158.18
660.253	59915.02
660.604	60051.97
660.955	59891.07
661.306	60051.06
661.656	59932.65
662.007	59954.12
662.358	59964.96
662.708	59974.68
663.059	59887
663.409	59777.17
663.76	59945.98
664.11	59909.82
664.461	59908.69
664.811	59894
665.161	59822.14
665.511	59812.65
665.862	59895.13
666.212	59881.12
666.562	59937.62
666.912	59807.23
667.262	59744.63
667.612	59768.58
667.962	59800.45
668.312	59694.46
668.662	59915.7
669.011	59849.26
669.361	59784.18
669.711	59817.4
670.06	59680.45
670.41	59597.51
670.76	59681.35
671.109	59815.59
671.459	59769.04
671.808	59669.15
672.157	59768.81
672.507	59566.78
672.856	59587.12
673.205	59649.72
673.554	59727
673.904	59622.15
674.253	59781.69
674.602	59651.98
674.951	59323.62
675.3	59181.71
675.649	59592.54
675.998	59568.59
676.346	59639.32
676.695	59635.48
677.044	59444.52
677.393	59541.25
677.741	59612.2
678.09	59576.72
678.438	59528.82
678.787	59557.29
679.135	59538.08
679.484	59384.19
679.832	59498.76
680.181	59422.83
680.529	59458.08
680.877	59287.24
681.225	59383.06
681.573	59595.03
681.922	59365.66
682.27	59258.09
682.618	59357.3
682.966	59310.29
683.314	59196.4
683.661	59257.18
684.009	59142.61
684.357	59057.87
684.705	59013.8
685.053	59059.68
685.4	58968.15
685.748	58939.68
686.095	59025.55
686.443	58808.61
686.79	58809.51
687.138	58840.02
687.485	58916.18
687.832	58747.37
688.18	58785.11
688.527	58638.44
688.874	58675.96
689.221	58669.63
689.568	58575.85
689.915	58486.36
690.262	58560.25
690.609	58478.67
690.956	58371.11
691.303	58433.93
691.65	58280.49
691.997	58279.81
692.344	58151.9
692.69	58097.22
693.037	58142.86
693.383	57871.46
693.73	58009.08
694.077	57913.49
694.423	57881.85
694.769	57796.21
695.116	57769.31
695.462	57712.59
695.808	57611.8
696.155	57649.32
696.501	57446.16
696.847	57530.9
697.193	57346.05
697.539	57390.79
697.885	57198.03
698.231	57116.68
698.577	57164.58
698.923	57115.09
699.269	56913.52
699.614	56851.37
699.96	56817.02
700.306	56859.28
700.651	56702.22
700.997	56675.33
701.342	56626.29
701.688	56569.12
702.033	56521.89
702.379	56563.92
702.724	56378.62
703.069	56455.22
703.415	56217.26
703.76	56140.66
704.105	56097.27
704.45	56037.38
704.795	56010.26
705.14	55860.44
705.485	55829.7
705.83	55731.18
706.175	55815.24
706.52	55695.47
706.865	55598.3
707.209	55494.57
707.554	55437.85
707.899	55504.06
708.243	55372.99
708.588	55290.51
708.932	55077.18
709.277	55187.01
709.621	55088.93
709.966	54905.21
710.31	54965.09
710.654	54784.31
710.998	54808.94
711.342	54829.5
711.687	54672.9
712.031	54707.7
712.375	54552.45
712.719	54440.14
713.063	54441.27
713.407	54580.47
713.75	54459.57
714.094	54350.65
714.438	54267.94
714.782	54254.15
715.125	54088.51
715.469	54262.74
715.812	53967.38
716.156	53928.06
716.499	53994.27
716.843	53956.76
717.186	53804.22
717.53	53954.5
717.873	53906.37
718.216	53797.89
718.559	53704.79
718.902	53465.7
719.246	53608.75
719.589	53404.23
719.932	53285.36
720.275	53326.49
720.617	53377.34
720.96	53365.36
721.303	53277.23
721.646	53245.37
721.989	53174.41
722.331	53135.99
722.674	53132.15
723.016	53004.02
723.359	53016.67
723.701	52948.2
724.044	52864.13
724.386	52725.61
724.729	52794.53
725.071	52800.41
725.413	52687.19
725.755	52670.69
726.097	52430.47
726.439	52447.87
726.782	52364.48
727.124	52507.98
727.465	52423.47
727.807	52227.99
728.149	52388.89
728.491	52145.96
728.833	52282
729.175	52206.52
729.516	52195
729.858	52094.21
730.199	52165.62
730.541	51985.06
730.882	51989.13
731.224	52004.49
731.565	51830.71
731.906	51785.74
732.248	51933.54
732.589	51649.7
732.93	51602.7
733.271	51678.18
733.612	51626.43
733.953	51664.39
734.294	51530.16
734.635	51404.51
734.976	51553.43
735.317	51352.76
735.658	51372.42
735.999	51279.54
736.339	51279.32
736.68	51291.07
737.021	51177.62
737.361	51056.04
737.702	51271.63
738.042	51047.46
738.383	51107.12
738.723	51149.15
739.063	50949.83
739.404	50993
739.744	50985.31
740.084	50851.76
740.424	50901.7
740.764	50806.79
741.104	50839.55
741.444	50706.68
741.784	50699.44
742.124	50724.08
742.464	50567.92
742.804	50557.07
743.143	50539.67
743.483	50519.34
743.823	50354.14
744.162	50427.13
744.502	50415.61
744.841	50354.37
745.181	50454.25
745.52	50282.96
745.86	50272.56
746.199	50211.1
746.538	50250.42
746.877	50303.07
747.216	50036.41
747.556	49972.01
747.895	49987.37
748.234	49943.08
748.573	49848.62
748.911	49745.8
749.25	49793.7
749.589	49647.27
749.928	49772.24
750.267	49739.69
750.605	49545.8
750.944	49590.77
751.283	49406.14
751.621	49525.46
751.96	49313.72
752.298	49340.38
752.636	49225.81
752.975	49137
753.313	49010.67
753.651	49136.32
753.989	48917.57
754.327	48946.72
754.666	48665.15
755.004	48808.65
755.342	48683.68
755.679	48684.13
756.017	48392.84
756.355	48473.06
756.693	48269.68
757.031	48318.49
757.368	48083.47
757.706	48105.61
758.044	47847.09
758.381	47895.45
758.719	47779.07
759.056	47850.03
759.394	47703.59
759.731	47530.71
760.068	47415.24
760.405	47294.11
760.743	47169.14
761.08	47135.92
761.417	47015.92
761.754	46979.77
762.091	46949.49
762.428	46611.19
762.765	46411.87
763.102	46454.36
763.438	46352.21
763.775	46068.38
764.112	46130.3
764.449	46019.79
764.785	45964.43
765.122	45808.05
765.458	45408.06
765.795	45436.98
766.131	45491.45
766.467	45340.04
766.804	45101.4
767.14	45012.81
767.476	44805.14
767.812	44687.17
768.148	44765.81
768.485	44482.88
768.821	44277.01
769.157	44152.95
769.492	44038.83
769.828	43987.3
770.164	43656.47
770.5	43580.53
770.836	43611.49
771.171	43319.07
771.507	43295.12
771.842	42843.38
772.178	42950.72
772.513	42755.92
772.849	42729.03
773.184	42581.92
773.519	42421.24
773.855	42325.88
774.19	42213.79
774.525	42007.47
774.86	41865.78
775.195	41745.1
775.53	41681.83
775.865	41377.43
776.2	41159.81
776.535	40989.19
776.87	40885.46
777.205	40760.04
777.539	40486.83
777.874	40593.72
778.209	40304.24
778.543	40273.05
778.878	40078.71
779.212	40043
779.547	39754.42
779.881	39709.22
780.215	39426.75
780.55	39536.57
780.884	39202.34
781.218	39109.01
781.552	39136.81
781.886	38763.49
782.22	38703.15
782.554	38512.87
782.888	38197.17
783.222	38194.46
783.556	37903.17
783.889	37868.14
784.223	37704.53
784.557	37474.48
784.89	37797.18
785.224	37259.8
785.557	37183.41
785.891	37059.35
786.224	37112
786.558	36980.26
786.891	36673.6
787.224	36548.86
787.557	36485.58
787.891	36323.1
788.224	36252.82
788.557	36239.94
788.89	36035.87
789.223	36039.72
789.556	35762.21
789.888	35658.03
790.221	35351.82
790.554	35503.46
790.887	35410.58
791.219	35307.98
791.552	34995.68
791.884	34865.28
792.217	34827.54
792.549	34600.66
792.882	34365.18
793.214	34258.75
793.546	34442.92
793.879	34141.69
794.211	33884.07
794.543	34029.37
794.875	33923.84
795.207	33799.1
795.539	33803.39
795.871	33678.42
796.203	33521.14
796.535	33222.84
796.867	33324.31
797.198	33034.15
797.53	33027.82
797.862	32875.73
798.193	32798.9
798.525	32681.16
798.856	32697.21
799.188	32322.98
799.519	32348.97
799.85	32198.01
800.182	32159.37
800.513	32278.23
800.844	31810.22
801.175	32012.48
801.506	31788.98
801.837	31713.95
802.168	31638.93
802.499	31746.04
802.83	31490.68
803.161	31334.3
803.491	31315.32
803.822	31204.36
804.153	31109
804.483	30836.46
804.814	30727.99
805.145	30784.94
805.475	30750.14
805.805	30817.25
806.136	30613.87
806.466	30501.78
806.796	30338.17
807.126	30186.08
807.457	30084.62
807.787	30143.6
808.117	30031.29
808.447	29882.14
808.777	29974.11
809.107	29718.53
809.436	29669.04
809.766	29640.34
810.096	29629.49
810.426	29411.19
810.755	29476.27
811.085	29405.54
811.414	29349.04
811.744	29272.21
812.073	29150.41
812.403	29039.22
812.732	28895.05
813.061	29179.11
813.39	28659.8
813.719	28745.22
814.049	28948.38
814.378	28819.34
814.707	28532.57
815.036	28523.3
815.365	28506.13
815.693	28252.8
816.022	28182.75
816.351	28233.37
816.68	27917.22
817.008	28036.54
817.337	27733.95
817.665	27742.31
817.994	27841.51
818.322	27953.38
818.651	27680.84
818.979	27697.11
819.307	27559.71
819.636	27576.89
819.964	27485.14
820.292	27413.28
820.62	27332.83
820.948	27332.83
821.276	27521.75
821.604	27451.02
821.932	27563.33
822.259	27412.82
822.587	27448.3
822.915	27351.13
823.243	27423.67
823.57	27196.33
823.898	27468.42
824.225	27278.14
824.553	27333.05
824.88	27378.7
825.207	27398.81
825.535	27309.78
825.862	27418.02
826.189	27307.06
826.516	27501.64
826.843	27606.04
827.17	27551.35
827.497	27477.68
827.824	27508.87
828.151	27565.36
828.478	27408.08
828.805	27576.44
829.131	27460.05
829.458	27488.98
829.785	27249.89
830.111	27307.52
830.438	27552.26
830.764	27386.16
831.09	27415.54
831.417	27258.03
831.743	27446.72
832.069	27331.92
832.395	27302.77
832.722	27368.98
833.048	27327.18
833.374	27362.88
833.7	27251.47
834.026	27291.47
834.351	27259.16
834.677	27266.16
835.003	27194.3
835.329	27121.53
835.654	27171.7
835.98	27013.74
836.306	27072.27
836.631	27054.64
836.956	27021.42
837.282	27062.55
837.607	26910.92
837.932	26895.32
838.258	26905.49
838.583	26881.54
838.908	26796.57
839.233	26829.11
839.558	26594.09
839.883	26678.61
840.208	26463.24
840.533	26607.65
840.858	26617.59
841.182	26536.69
841.507	26524.71
841.832	26451.95
842.156	26334.21
842.481	26352.97
842.805	26234.78
843.13	26193.87
843.454	26263.25
843.778	26059.41
844.103	26022.35
844.427	25933.09
844.751	25938.29
845.075	25924.28
845.399	25700.78
845.723	25719.54
846.047	25684.06
846.371	25492.2
846.695	25395.93
847.019	25363.84
847.343	25150.29
847.666	25156.84
847.99	24983.74
848.313	24921.14
848.637	24966.79
848.96	24817.64
849.284	24760.46
849.607	24532.22
849.931	24569.06
850.254	24440.7
850.577	24213.81
850.9	23976.3
851.223	24075.51
851.546	24025.79
851.869	23772.47
852.192	24033.7
852.515	23662.19
852.838	23612.02
853.161	23586.48
853.483	23378.13
853.806	23334.06
854.129	23308.98
854.451	23275.98
854.774	23126.61
855.096	23010.91
855.419	22995.09
855.741	22978.59
856.063	22776.11
856.385	22807.75
856.708	22616.11
857.03	22572.05
857.352	22590.8
857.674	22504.93
857.996	22419.96
858.318	22232.62
858.64	22259.74
858.961	22195.11
859.283	22118.95
859.605	22123.92
859.926	22024.27
860.248	21973.42
860.57	22016.81
860.891	21948.79
861.212	21823.59
861.534	21890.03
861.855	21687.55
862.176	21751.96
862.498	21769.58
862.819	21762.8
863.14	21539.53
863.461	21598.29
863.782	21469.7
864.103	21436.48
864.424	21332.76
864.745	21438.97
865.065	21168.02
865.386	21129.15
865.707	21152.2
866.027	21152.65
866.348	21285.08
866.668	21103.39
866.989	21051.18
867.309	20926.89
867.63	20942.26
867.95	21023.16
868.27	20805.54
868.59	20848.48
868.91	20798.99
869.23	20820
869.55	20707.01
869.87	20798.31
870.19	20709.95
870.51	20703.62
870.83	20641.03
871.15	20544.08
871.469	20495.04
871.789	20586.11
872.109	20523.74
872.428	20412.78
872.748	20445.78
873.067	20404.42
873.386	20453.69
873.706	20438.32
874.025	20195.84
874.344	20289.85
874.663	20281.71
874.982	20289.62
875.301	20187.25
875.62	20049.85
875.939	20027.48
876.258	20094.37
876.577	19985.45
876.896	19975.73
877.214	19996.07
877.533	19957.2
877.852	19876.07
878.17	19820.03
878.489	19878.56
878.807	19926.47
879.125	19844.44
879.444	19784.78
879.762	19716.76
880.08	19755.4
880.398	19675.63
880.716	19743.87
881.034	19550.43
881.352	19589.3
881.67	19482.64
881.988	19574.39
882.306	19454.84
882.624	19343.66
882.941	19281.29
883.259	19216.88
883.577	19239.93
883.894	19175.3
884.212	19208.29
884.529	19079.03
884.846	19055.53
885.164	19001.29
885.481	18942.31
885.798	18981.41
886.115	18787.29
886.432	18718.82
886.75	18746.61
887.067	18742.09
887.383	18684.47
887.7	18683.79
888.017	18553.4
888.334	18605.6
888.651	18583
888.967	18459.61
889.284	18429.56
889.6	18280.86
889.917	18289
890.233	18252.39
890.55	18114.54
890.866	18237.02
891.182	18167.19
891.498	18127.42
891.815	18027.99
892.131	17977.37
892.447	17934.66
892.763	17876.58
893.079	17796.35
893.395	17712.74
893.71	17724.94
894.026	17613.99
894.342	17644.72
894.657	17540.77
894.973	17550.94
895.289	17450.6
895.604	17422.35
895.92	17354.78
896.235	17215.58
896.55	17222.81
896.865	17154.11
897.181	17091.51
897.496	17075.24
897.811	17000.22
898.126	16910.5
898.441	16894.68
898.756	16805.19
899.071	16654.92
899.386	16703.5
899.7	16554.13
900.015	16431.42
900.33	16432.1
900.644	16391.65
900.959	16387.13
901.273	16283.17
901.588	16255.15
901.902	16145.78
902.216	16129.51
902.531	16024.88
902.845	15964.76
903.159	15885.67
903.473	15932
903.787	15793.47
904.101	15711.44
904.415	15686.13
904.729	15603.42
905.042	15566.36
905.356	15608.84
905.67	15595.73
905.984	15489.52
906.297	15478.9
906.611	15312.35
906.924	15250.43
907.237	15181.28
907.551	15187.16
907.864	15031.91
908.177	15038.46
908.491	14907.62
908.804	14893.61
909.117	14800.5
909.43	14667.85
909.743	14725.25
910.056	14662.43
910.368	14464.92
910.681	14555.08
910.994	14459.04
911.307	14441.19
911.619	14229.89
911.932	14317.35
912.244	14188.99
912.557	14216.11
912.869	14126.62
913.181	13977.25
913.494	14100.41
913.806	13970.24
914.118	13839.85
914.43	13876.23
914.742	13812.28
915.054	13593.75
915.366	13615.67
915.678	13535.45
915.99	13605.28
916.302	13523.02
916.613	13494.09
916.925	13422.68
917.236	13408.45
917.548	13286.19
917.859	13282.8
918.171	13219.3
918.482	13119.41
918.794	13150.15
919.105	12979.98
919.416	12975.24
919.727	12875.58
920.038	12893.43
920.349	12762.14
920.66	12721.01
920.971	12701.57
921.282	12647.34
921.593	12558.98
921.903	12490.28
922.214	12392.65
922.525	12355.14
922.835	12389.04
923.146	12225.2
923.456	12185.2
923.767	12161.02
924.077	12167.58
924.387	12152.43
924.697	12071.31
925.008	12016.17
925.318	11954.02
925.628	11936.17
925.938	11887.36
926.248	11761.48
926.558	11713.35
926.867	11664.54
927.177	11598.1
927.487	11553.58
927.796	11520.36
928.106	11479.01
928.416	11450.76
928.725	11363.98
929.034	11301.61
929.344	11304.55
929.653	11275.62
929.962	11129.41
930.271	11121.5
930.581	11082.41
930.89	10977.55
931.199	10966.25
931.508	10927.38
931.817	10920.38
932.125	10874.28
932.434	10881.51
932.743	10684.45
933.051	10665.47
933.36	10636.09
933.669	10650.1
933.977	10616.43
934.286	10562.65
934.594	10427.28
934.902	10425.7
935.21	10385.93
935.519	10315.65
935.827	10285.14
936.135	10265.25
936.443	10110.68
936.751	10128.53
937.059	10139.83
937.367	9994.53
937.674	10036.33
937.982	9994.53
938.29	9948.65
938.597	9940.29
938.905	9762.22
939.213	9775.77
939.52	9766.51
939.827	9841.08
940.135	9646.74
940.442	9593.86
940.749	9600.86
941.056	9610.81
941.363	9531.49
941.67	9388.67
941.977	9404.94
942.284	9390.93
942.591	9303.24
942.898	9385.05
943.205	9308.44
943.511	9215.79
943.818	9209.46
944.125	9054.21
944.431	9130.14
944.738	9041.78
945.044	9035.45
945.35	9008.34
945.657	8920.43
945.963	8897.15
946.269	8847.89
946.575	8823.03
946.881	8738.51
947.187	8793.88
947.493	8648.12
947.799	8645.86
948.105	8636.14
948.41	8550.5
948.716	8550.95
949.022	8558.4
949.327	8463.49
949.633	8379.43
949.938	8383.27
950.244	8402.25
950.549	8338.07
950.854	8254.91
951.16	8281.58
951.465	8227.11
951.77	8134.69
952.075	8162.71
952.38	8113.44
952.685	8097.4
952.99	8024.63
953.294	7986.44
953.599	7939.21
953.904	7937.18
954.209	7785.09
954.513	7900.8
954.818	7818.99
955.122	7773.34
955.426	7663.06
955.731	7716.39
956.035	7689.5
956.339	7613.57
956.643	7547.58
956.948	7527.7
957.252	7496.51
957.556	7508.49
957.86	7432.11
958.163	7428.72
958.467	7417.64
958.771	7392.79
959.075	7387.14
959.378	7283.64
959.682	7276.4
959.985	7265.33
960.289	7151.89
960.592	7109.63
960.896	7093.36
961.199	7062.4
961.502	7046.81
961.805	6988.28
962.108	6930.88
962.411	6978.33
962.714	6967.26
963.017	6882.74
963.32	6945.11
963.623	6845
963.926	6874.38
964.228	6856.08
964.531	6688.4
964.833	6688.17
965.136	6670.09
965.438	6686.36
965.741	6646.59
966.043	6588.97
966.345	6547.84
966.648	6545.12
966.95	6480.95
967.252	6459.03
967.554	6479.14
967.856	6428.74
968.158	6369.54
968.46	6370.67
968.761	6310.33
969.063	6282.08
969.365	6286.15
969.666	6236.88
969.968	6195.3
970.269	6159.6
970.571	6165.47
970.872	6142.65
971.174	6110.79
971.475	6052.71
971.776	6035.76
972.077	5986.95
972.378	5974.97
972.679	5961.19
972.98	5956.67
973.281	5891.58
973.582	5876.44
973.883	5841.87
974.183	5857.46
974.484	5785.37
974.785	5748.99
975.085	5719.16
975.386	5753.96
975.686	5647.52
975.986	5663.57
976.287	5603.23
976.587	5617.01
976.887	5642.32
977.187	5560.97
977.487	5506.96
977.787	5513.97
978.087	5486.62
978.387	5448.66
978.687	5452.05
978.987	5430.35
979.286	5431.26
979.586	5387.41
979.885	5349.22
980.185	5309.9
980.484	5256.34
980.784	5298.15
981.083	5229.9
981.382	5175.67
981.682	5234.65
981.981	5200.98
982.28	5148.1
982.579	5131.6
982.878	5144.48
983.177	5077.14
983.475	5049.34
983.774	4993.98
984.073	4985.39
984.372	4981.55
984.67	4945.62
984.969	4949.46
985.267	4934.09
985.566	4873.76
985.864	4865.62
986.162	4827.43
986.461	4802.35
986.759	4797.37
987.057	4747.88
987.355	4752.86
987.653	4718.96
987.951	4694.78
988.249	4705.62
988.547	4619.07
988.844	4648
989.142	4593.76
989.44	4602.35
989.737	4568.91
990.035	4578.85
990.332	4540.88
990.63	4494.78
990.927	4464.5
991.224	4466.76
991.521	4448.46
991.819	4377.72
992.116	4402.58
992.413	4393.77
992.71	4342.02
993.006	4333.43
993.303	4310.83
993.6	4324.39
993.897	4262.25
994.193	4253.66
994.49	4232.87
994.787	4222.47
995.083	4168.92
995.379	4155.58
995.676	4085.98
995.972	4082.14
996.268	4083.49
996.565	4090.73
996.861	4084.85
997.157	3996.26
997.453	4022.03
997.749	3965.98
998.044	3945.87
998.34	3963.27
998.636	3936.15
998.932	3928.02
999.227	3876.95
999.523	3825.42
999.818	3822.94
1000.114	3809.15
1000.409	3826.55
1000.704	3738.42
1001	3748.36
1001.295	3723.73
1001.59	3719.89
1001.885	3685.76
1002.18	3696.61
1002.475	3663.62
1002.77	3629.95
1003.065	3647.12
1003.359	3581.36
1003.654	3574.58
1003.949	3559.67
1004.243	3526.67
1004.538	3517.86
1004.832	3460.69
1005.127	3486
1005.421	3429.27
1005.715	3401.93
1006.009	3429.05
1006.304	3409.39
1006.598	3397.41
1006.892	3323.97
1007.186	3293.01
1007.48	3310.41
1007.773	3277.41
1008.067	3245.1
1008.361	3229.51
1008.655	3179.11
1008.948	3207.81
1009.242	3215.49
1009.535	3160.35
1009.829	3160.13
1010.122	3122.39
1010.415	3122.39
1010.708	3034.93
1011.001	3016.63
1011.295	3042.17
1011.588	3008.27
1011.881	2987.03
1012.173	2978.89
1012.466	2954.94
1012.759	2935.95
1013.052	2949.51
1013.344	2909.97
1013.637	2870.64
1013.93	2872.45
1014.222	2869.97
1014.514	2822.96
1014.807	2830.65
1015.099	2785.68
1015.391	2773.92
1015.683	2760.59
1015.976	2745.45
1016.268	2725.56
1016.56	2687.82
1016.851	2674.27
1017.143	2709.07
1017.435	2638.11
1017.727	2628.39
1018.018	2606.02
1018.31	2598.11
1018.602	2584.78
1018.893	2525.12
1019.185	2522.41
1019.476	2563.99
1019.767	2497.32
1020.058	2500.03
1020.35	2468.4
1020.641	2429.98
1020.932	2421.84
1021.223	2449.86
1021.514	2404.22
1021.804	2373.48
1022.095	2388.62
1022.386	2323.54
1022.677	2342.52
1022.967	2337.55
1023.258	2312.02
1023.548	2262.3
1023.839	2279.25
1024.129	2252.36
1024.419	2262.98
1024.709	2188.63
1025	2189.08
1025.29	2193.83
1025.58	2195.86
1025.87	2139.14
1026.16	2121.74
1026.449	2169.65
1026.739	2114.96
1027.029	2086.26
1027.319	2063.66
1027.608	2085.35
1027.898	2034.28
1028.187	2027.5
1028.477	2027.73
1028.766	2000.16
1029.055	1967.62
1029.344	1987.73
1029.634	1958.58
1029.923	1945.47
1030.212	1915.87
1030.501	1915.87
1030.79	1902.08
1031.078	1911.12
1031.367	1882.87
1031.656	1868.41
1031.945	1863.89
1032.233	1854.63
1032.522	1839.26
1032.81	1815.08
1033.099	1765.59
1033.387	1787.74
1033.675	1783.22
1033.963	1742.09
1034.251	1780.28
1034.54	1730.11
1034.828	1710.45
1035.116	1688.3
1035.403	1689.66
1035.691	1685.14
1035.979	1664.57
1036.267	1637
1036.554	1633.84
1036.842	1627.29
1037.129	1636.55
1037.417	1583
1037.704	1599.04
1037.992	1624.58
1038.279	1585.25
1038.566	1566.27
1038.853	1566.27
1039.14	1566.27
