Data from 14-0848_FLMS001491_009.txt Node
Date: Thu Apr 19 16:08:27 BST 2018
User: hsy
Spectrometer: FLMS00149
Trigger mode: 0
Integration Time (sec): 1.000000E-2
Scans to average: 10
Electric dark correction enabled: true
Nonlinearity correction enabled: false
Boxcar width: 0
XAxis mode: Wavelengths
Number of Pixels in Spectrum: 2048
>>>>>Begin Spectral Data<<<<<
341.393	-7.77
341.776	-7.77
342.16	-7.77
342.543	-54.77
342.927	-72.4
343.31	-58.84
343.693	-73.53
344.077	-59.29
344.46	-63.81
344.843	-56.35
345.226	-45.73
345.61	-24.94
345.993	-30.82
346.376	-27.43
346.759	13.47
347.142	30.65
347.525	35.17
347.908	70.42
348.291	87.37
348.674	90.31
349.057	113.36
349.44	139.8
349.823	148.61
350.206	172.34
350.588	244.65
350.971	263.86
351.354	269.06
351.737	272
352.119	297.08
352.502	309.96
352.884	332.11
353.267	313.13
353.65	342.05
354.032	342.05
354.414	349.96
354.797	363.97
355.179	360.58
355.562	387.25
355.944	360.36
356.326	374.59
356.709	388.83
357.091	381.37
357.473	384.09
357.855	407.14
358.238	403.97
358.62	371.66
359.002	394.48
359.384	400.81
359.766	369.17
360.148	384.31
360.53	390.64
360.912	387.02
361.294	389.06
361.676	371.2
362.057	373.69
362.439	380.47
362.821	382.5
363.203	365.78
363.584	372.79
363.966	359
364.348	382.73
364.729	383.18
365.111	386.57
365.493	386.12
365.874	364.2
366.256	396.06
366.637	365.56
367.019	382.5
367.4	355.61
367.781	351.54
368.163	367.14
368.544	366.23
368.925	370.75
369.306	370.75
369.688	379.79
370.069	356.52
370.45	380.7
370.831	368.72
371.212	363.3
371.593	358.55
371.974	374.14
372.355	370.98
372.736	373.01
373.117	378.21
373.498	368.72
373.879	385.22
374.26	358.32
374.641	373.69
375.021	363.97
375.402	397.87
375.783	380.7
376.163	394.93
376.544	405.33
376.925	392
377.305	396.97
377.686	378.66
378.066	403.52
378.447	411.43
378.827	395.84
379.208	386.12
379.588	419.79
379.968	400.36
380.349	422.95
380.729	386.35
381.109	408.49
381.489	396.74
381.87	432.45
382.25	423.86
382.63	430.19
383.01	425.21
383.39	430.64
383.77	411.43
384.15	426.34
384.53	423.18
384.91	422.73
385.29	423.41
385.67	425.44
386.049	460.47
386.429	444.88
386.809	448.27
387.189	457.3
387.568	435.84
387.948	466.12
388.328	474.48
388.707	466.57
389.087	458.21
389.466	442.39
389.846	463.18
390.225	470.86
390.605	474.48
390.984	480.35
391.363	473.58
391.743	466.34
392.122	467.02
392.501	489.17
392.881	484.2
393.26	507.92
393.639	504.53
394.018	507.92
394.397	520.35
394.776	502.27
395.155	502.27
395.534	507.02
395.913	514.7
396.292	515.83
396.671	520.58
397.05	543.18
397.429	533.01
397.808	521.48
398.186	529.84
398.565	558.54
398.944	544.08
399.323	512.9
399.701	526.46
400.08	548.15
400.458	535.27
400.837	545.21
401.215	554.25
401.594	556.06
401.972	577.08
402.351	571.43
402.729	564.65
403.107	540.92
403.486	535.72
403.864	573.23
404.242	594.93
404.62	601.48
404.999	584.31
405.377	593.8
405.755	596.51
406.133	613.68
406.511	605.78
406.889	610.29
407.267	643.06
407.645	634.7
408.023	632.22
408.401	637.19
408.779	655.49
409.156	669.5
409.534	667.24
409.912	658.43
410.29	664.98
410.667	688.26
411.045	702.72
411.422	719.9
411.8	709.95
412.178	718.99
412.555	713.79
412.933	747.24
413.31	745.88
413.687	750.86
414.065	757.41
414.442	759.22
414.819	792.44
415.197	769.39
415.574	758.77
415.951	801.7
416.328	811.87
416.705	772.32
417.082	805.77
417.46	814.13
417.837	815.04
418.214	807.35
418.591	822.49
418.967	836.73
419.344	862.27
419.721	871.53
420.098	851.87
420.475	867.69
420.852	862.94
421.228	896.39
421.605	876.95
421.982	874.92
422.358	905.88
422.735	911.76
423.111	891.19
423.488	947.46
423.864	921.47
424.241	903.17
424.617	935.03
424.994	931.42
425.37	951.3
425.746	951.75
426.123	965.54
426.499	973.22
426.875	980.45
427.251	1030.85
427.627	1031.53
428.003	1010.74
428.379	1041.92
428.756	1030.4
429.132	1057.97
429.507	1053.22
429.883	1060
430.259	1124.63
430.635	1081.47
431.011	1101.81
431.387	1103.62
431.763	1150.62
432.138	1135.03
432.514	1148.59
432.89	1159.43
433.265	1159.66
433.641	1217.74
434.016	1201.24
434.392	1205.53
434.767	1243.05
435.143	1210.5
435.518	1245.31
435.894	1262.25
436.269	1276.27
436.644	1283.72
437.02	1294.12
437.395	1306.32
437.77	1291.63
438.145	1328.92
438.52	1318.52
438.895	1337.51
439.271	1334.8
439.646	1356.94
440.021	1390.61
440.395	1362.82
440.77	1389.03
441.145	1375.92
441.52	1406.66
441.895	1408.24
442.27	1424.74
442.645	1402.14
443.019	1445.75
443.394	1435.58
443.769	1419.99
444.143	1461.35
444.518	1465.41
444.892	1465.19
445.267	1464.96
445.641	1463.61
446.016	1510.16
446.39	1508.12
446.764	1542.93
447.139	1509.25
447.513	1527.56
447.887	1526.65
448.262	1529.14
448.636	1562.36
449.01	1549.71
449.384	1599.65
449.758	1625.64
450.132	1608.69
450.506	1610.27
450.88	1633.77
451.254	1640.55
451.628	1647.78
452.002	1652.08
452.376	1668.8
452.75	1701.11
453.123	1730.94
453.497	1735.01
453.871	1746.76
454.244	1801.68
454.618	1787.21
454.992	1836.48
455.365	1821.79
455.739	1869.24
456.112	1880.54
456.486	1892.29
456.859	1938.4
457.232	1968.23
457.606	2014.78
457.979	1989.02
458.352	2015
458.725	2023.59
459.099	2078.5
459.472	2091.84
459.845	2152.18
460.218	2131.16
460.591	2178.16
460.964	2194.66
461.337	2198.95
461.71	2242.34
462.083	2264.71
462.456	2294.77
462.829	2255
463.201	2314.2
463.574	2338.16
463.947	2352.62
464.32	2388.33
464.692	2419.29
465.065	2464.94
465.438	2467.2
465.81	2527.76
466.183	2496.57
466.555	2561.43
466.928	2607.08
467.3	2588.77
467.672	2626.29
468.045	2706.51
468.417	2703.8
468.789	2680.52
469.161	2740.18
469.534	2833.74
469.906	2820.63
470.278	2847.3
470.65	2883.46
471.022	2946.73
471.394	2969.1
471.766	2977.92
472.138	3020.4
472.51	3121.64
472.882	3147.18
473.253	3179.27
473.625	3225.82
473.997	3310.11
474.369	3320.51
474.74	3321.18
475.112	3388.53
475.484	3455.64
475.855	3453.61
476.227	3570.44
476.598	3660.16
476.97	3701.96
477.341	3749.2
477.713	3819.7
478.084	3864.67
478.455	3983.99
478.827	4012.01
479.198	4093.37
479.569	4114.84
479.94	4254.72
480.311	4284.1
480.682	4390.99
481.053	4509.85
481.424	4634.6
481.795	4647.7
482.166	4706.91
482.537	4836.17
482.908	4910.52
483.279	5012.89
483.65	5094.02
484.021	5232.32
484.391	5273.22
484.762	5317.97
485.133	5435.93
485.503	5533.56
485.874	5705.08
486.244	5764.74
486.615	5870.27
486.985	6032.07
487.356	6119.08
487.726	6265.29
488.097	6397.94
488.467	6480.2
488.837	6663.24
489.207	6704.6
489.578	6922.9
489.948	7012.61
490.318	7155.89
490.688	7219.61
491.058	7404.24
491.428	7581.18
491.798	7735.08
492.168	7886.71
492.538	8034.96
492.908	8235.86
493.278	8355.18
493.648	8462.52
494.017	8668.84
494.387	8793.58
494.757	9003.07
495.126	9231.99
495.496	9337.07
495.866	9495.71
496.235	9671.75
496.605	9811.18
496.974	9944.29
497.344	10114.23
497.713	10372.75
498.082	10456.14
498.452	10663.36
498.821	10841.44
499.19	11016.8
499.559	11131.83
499.928	11395.55
500.298	11476.45
500.667	11732.04
501.036	11972.93
501.405	12047.73
501.774	12276.65
502.143	12516.65
502.512	12654.05
502.88	12946.47
503.249	12976.75
503.618	13211.55
503.987	13343.29
504.356	13553.01
504.724	13742.38
505.093	13976.27
505.462	14050.17
505.83	14342.36
506.199	14562.02
506.567	14873.2
506.936	14885.4
507.304	15195.22
507.672	15403.13
508.041	15518.6
508.409	15783.46
508.777	16022.09
509.145	16201.75
509.514	16292.37
509.882	16644.9
510.25	16734.39
510.618	16975.97
510.986	17072.01
511.354	17323.75
511.722	17601.03
512.09	17782.05
512.458	17908.14
512.826	18112.66
513.193	18288.47
513.561	18403.5
513.929	18630.61
514.297	18814.79
514.664	18965.29
515.032	19189.69
515.4	19333.64
515.767	19597.37
516.135	19793.29
516.502	19727.53
516.869	20114.41
517.237	20278.48
517.604	20180.18
517.972	20548.53
518.339	20756.66
518.706	20865.58
519.073	21067.38
519.44	21185.35
519.808	21380.6
520.175	21505.34
520.542	21894.48
520.909	21969.51
521.276	22153.23
521.643	22492.43
522.009	22569.72
522.376	22793.21
522.743	22844.96
523.11	23256.25
523.477	23399.98
523.843	23566.08
524.21	23886.07
524.577	24097.13
524.943	24254.19
525.31	24319.05
525.676	24689.21
526.043	24903.44
526.409	25164.45
526.776	25289.42
527.142	25440.6
527.508	25651.9
527.874	25874.72
528.241	26095.95
528.607	26196.74
528.973	26463.4
529.339	26393.57
529.705	26876.95
530.071	27068.58
530.437	27215.92
530.803	27337.95
531.169	27632.64
531.535	27611.62
531.901	27777.49
532.267	27899.97
532.632	28246.18
532.998	28305.84
533.364	28525.27
533.73	28495.44
534.095	28838.25
534.461	28842.77
534.826	29114.18
535.192	29156.44
535.557	29421.29
535.923	29248.86
536.288	29528.18
536.653	29679.81
537.019	29513.04
537.384	29786.48
537.749	29897.43
538.114	29903.76
538.479	29964.1
538.845	30225.11
539.21	30233.7
539.575	30379.46
539.94	30417.42
540.305	30709.84
540.67	30661.71
541.034	30648.15
541.399	30741.48
541.764	30965.65
542.129	31021.92
542.494	31122.49
542.858	31246.1
543.223	31231.64
543.587	31475.7
543.952	31460.78
544.316	31622.36
544.681	31577.39
545.045	31785.97
545.41	31938.28
545.774	31948.68
546.138	31862.81
546.503	32020.32
546.867	32168.56
547.231	32294.21
547.595	32427.09
547.959	32467.08
548.324	32510.47
548.688	32529.46
549.052	32750.01
549.416	32723.12
549.779	32821.43
550.143	32912.5
550.507	33100.06
550.871	33034.3
551.235	33189.1
551.599	33508.41
551.962	33419.15
552.326	33459.6
552.689	33592.25
553.053	33416.66
553.417	33709.31
553.78	34048.06
554.143	34003.99
554.507	34139.81
554.87	34250.54
555.234	34520.36
555.597	34285.57
555.96	34590.87
556.323	34632
556.686	34709.29
557.05	34977.98
557.413	34989.05
557.776	34995.15
558.139	35262.04
558.502	35405.09
558.865	35375.26
559.228	35615.25
559.59	35756.04
559.953	35734.34
560.316	36201.22
560.679	36224.73
561.041	36447.09
561.404	36584.94
561.767	36761.66
562.129	36651.83
562.492	37097.02
562.854	37152.84
563.217	37027.87
563.579	37213.63
563.941	37484.13
564.304	37668.53
564.666	37825.59
565.028	37874.4
565.39	37947.39
565.753	38254.95
566.115	38292.92
566.477	38540.14
566.839	38593.25
567.201	39051.77
567.563	38936.07
567.925	39191.88
568.287	39211.77
568.648	39411.31
569.01	39557.75
569.372	39885.87
569.734	39874.12
570.095	40140.33
570.457	40388.01
570.819	40479.53
571.18	40577.38
571.542	40800.65
571.903	40905.05
572.265	41090.59
572.626	41322.67
572.987	41249.23
573.349	41639.95
573.71	41737.12
574.071	41845.14
574.432	42099.37
574.794	42408.97
575.155	42489.65
575.516	42396.54
575.877	42668.85
576.238	42634.73
576.599	42926.47
576.96	43015.51
577.32	43264.54
577.681	43254.82
578.042	43716.73
578.403	43715.83
578.763	43789.72
579.124	43777.75
579.485	44104.07
579.845	44428.35
580.206	44219.09
580.566	44541.12
580.927	44591.96
581.287	44892.97
581.648	44828.12
582.008	45169.58
582.368	45150.14
582.728	45384.26
583.089	45391.26
583.449	45547.42
583.809	45592.39
584.169	45838.26
584.529	45767.98
584.889	46354.85
585.249	46102.88
585.609	46255.65
585.969	46679.59
586.329	46372.26
586.688	46791.68
587.048	46748.52
587.408	46980.83
587.768	47052.69
588.127	47317.32
588.487	47321.16
588.846	47796.62
589.206	47427.37
589.565	47811.54
589.925	48231.42
590.284	48167.69
590.643	48234.35
591.003	48543.95
591.362	48726.77
591.721	48774.9
592.08	48919.31
592.44	49221.67
592.799	49099.64
593.158	49361.1
593.517	49406.53
593.876	49585.73
594.235	49738.27
594.593	49736.91
594.952	50045.83
595.311	50052.61
595.67	50216.67
596.029	50482.43
596.387	50654.4
596.746	50784.12
597.104	50728.75
597.463	50879.03
597.822	51128.06
598.18	51143.88
598.538	51232.69
598.897	51548.62
599.255	51355.4
599.613	51894.6
599.972	51722.62
600.33	51962.39
600.688	52003.75
601.046	52076.06
601.404	52436.05
601.762	52314.25
602.12	52657.74
602.478	52607.8
602.836	52778.19
603.194	52576.84
603.552	52780.22
603.91	52810.73
604.268	53069.03
604.625	53069.03
604.983	53271.28
605.341	53135.69
605.698	53428.11
606.056	53653.42
606.413	53628.56
606.771	53794.43
607.128	53776.13
607.485	53750.59
607.843	53926.18
608.2	54091.6
608.557	54223.35
608.914	54168.43
609.272	54377.69
609.629	54532.72
609.986	54641.64
610.343	54554.86
610.7	54857.46
611.057	54883.44
611.414	54833.05
611.771	54933.16
612.127	55105.81
612.484	55049.32
612.841	55263.55
613.198	55190.55
613.554	55215.41
613.911	55421.96
614.267	55508.74
614.624	55498.34
614.98	55660.15
615.337	55827.15
615.693	55707.6
616.05	55743.08
616.406	55933.81
616.762	55885.45
617.118	55987.6
617.475	55981.04
617.831	56179.68
618.187	56238.89
618.543	56320.92
618.899	56396.62
619.255	56333.12
619.611	56397.3
619.967	56491.99
620.323	56612.89
620.678	56529.05
621.034	56540.12
621.39	56534.25
621.746	56605.66
622.101	56834.13
622.457	56635.71
622.812	56790.74
623.168	56739.44
623.523	56834.58
623.879	56898.98
624.234	56857.63
624.589	57016.04
624.945	56912.77
625.3	57000.22
625.655	57011.3
626.01	57095.82
626.365	57051.97
626.72	56999.09
627.075	57017.85
627.43	57026.66
627.785	57012.65
628.14	57027.57
628.495	57056.72
628.85	57062.14
629.205	57020.79
629.559	57131.75
629.914	57035.48
630.269	57112.31
630.623	56977.17
630.978	56894.46
631.332	57069.15
631.687	57030.05
632.041	56995.25
632.396	57011.07
632.75	56973.56
633.104	57004.29
633.459	56880.45
633.813	56915.93
634.167	56847.01
634.521	56934.46
634.875	56971.3
635.229	56873.9
635.583	56838.65
635.937	56771.08
636.291	56805.88
636.645	56807.24
636.999	56634.81
637.352	56736.95
637.706	56587.81
638.06	56669.84
638.413	56660.57
638.767	56556.17
639.121	56637.3
639.474	56473.91
639.828	56528.6
640.181	56487.7
640.534	56593.68
640.888	56433.23
641.241	56296.29
641.594	56454.7
641.947	56477.98
642.301	56419.9
642.654	56384.2
643.007	56328.6
643.36	56339.22
643.713	56319.34
644.066	56434.36
644.419	56190.3
644.771	55944.88
645.124	55766.81
645.477	55666.47
645.83	55491.11
646.182	55516.65
646.535	55433.94
646.888	55497.67
647.24	55441.62
647.593	55606.14
647.945	55492.69
648.298	55373.83
648.65	55251.8
649.002	55176.09
649.355	55135.87
649.707	55079.14
650.059	55077.11
650.411	55444.79
650.763	55469.42
651.115	55859.92
651.467	55788.05
651.819	55863.76
652.171	55776.3
652.523	55668.28
652.875	55671.67
653.227	55567.72
653.578	55729.52
653.93	55640.71
654.282	55521.39
654.633	55549.42
654.985	55590.77
655.337	55521.62
655.688	55471
656.039	55581.73
656.391	55381.06
656.742	55449.53
657.094	55417.89
657.445	55413.6
657.796	55419.02
658.147	55376.31
658.498	55256.99
658.849	55359.36
659.2	55284.56
659.551	55226.26
659.902	55398.23
660.253	55269.42
660.604	55359.36
660.955	55164.34
661.306	55329.31
661.656	55212.25
662.007	55262.87
662.358	55274.17
662.708	55224.45
663.059	55143.1
663.409	55054.96
663.76	55192.59
664.11	55241.85
664.461	55287.73
664.811	55233.04
665.161	55177.67
665.511	55151.69
665.862	55134.74
666.212	55286.37
666.562	55197.11
666.912	55215.19
667.262	55066.04
667.612	55071.01
667.962	55141.29
668.312	54984.01
668.662	55168.86
669.011	55172.02
669.361	55040.05
669.711	55136.54
670.06	55077.34
670.41	54985.59
670.76	54945.36
671.109	55090.9
671.459	55019.71
671.808	55020.62
672.157	54986.94
672.507	54858.36
672.856	54854.97
673.205	54912.82
673.554	55040.5
673.904	54940.62
674.253	55077.11
674.602	54851.81
674.951	54536.56
675.3	54487.97
675.649	54929.77
675.998	54881.41
676.346	54908.08
676.695	54963.89
677.044	54732.94
677.393	54795.54
677.741	54909.88
678.09	54856.1
678.438	54704.47
678.787	54856.78
679.135	54782.88
679.484	54607.07
679.832	54731.58
680.181	54710.34
680.529	54754.86
680.877	54563.9
681.225	54510.12
681.573	54744.46
681.922	54606.62
682.27	54442.55
682.618	54475.32
682.966	54470.12
683.314	54397.35
683.661	54454.53
684.009	54235.1
684.357	54284.82
684.705	54130.24
685.053	54307.64
685.4	54091.37
685.748	54038.95
686.095	54057.48
686.443	53881.21
686.79	53865.17
687.138	53953.07
687.485	53934.32
687.832	53776.81
688.18	53817.71
688.527	53670.37
688.874	53751.72
689.221	53684.83
689.568	53566.19
689.915	53448.23
690.262	53467.21
690.609	53383.37
690.956	53252.75
691.303	53412.3
691.65	53135.69
691.997	53071.51
692.344	52938.86
692.69	53057.28
693.037	53052.98
693.383	52674.69
693.73	52817.74
694.077	52764.18
694.423	52705.65
694.769	52656.61
695.116	52530.29
695.462	52377.97
695.808	52317.86
696.155	52331.19
696.501	52090.07
696.847	52154.02
697.193	51923.75
697.539	52010.53
697.885	51704.54
698.231	51685.56
698.577	51668.84
698.923	51548.16
699.269	51362.63
699.614	51395.63
699.96	51272.47
700.306	51364.21
700.651	51096.42
700.997	50964.68
701.342	50919.25
701.688	50906.6
702.033	50807.84
702.379	50613.05
702.724	50593.16
703.069	50606.49
703.415	50303
703.76	50255.99
704.105	50186.62
704.45	50172.83
704.795	49926.96
705.14	49913.18
705.485	49931.94
705.83	49681.32
706.175	49862.11
706.52	49656.91
706.865	49518.39
707.209	49451.04
707.554	49302.12
707.899	49356.13
708.243	49133.09
708.588	49092.41
708.932	49009.47
709.277	48879.99
709.621	48758.41
709.966	48548.02
710.31	48618.52
710.654	48404.29
710.998	48486.78
711.342	48536.94
711.687	48348.02
712.031	48202.94
712.375	48061.48
712.719	48085.43
713.063	47908.26
713.407	48143.51
713.75	47873.91
714.094	47695.16
714.438	47729.96
714.782	47597.08
715.125	47449.97
715.469	47681.37
715.812	47297.88
716.156	47286.81
716.499	47327.48
716.843	47301.72
717.186	47152.57
717.53	47450.42
717.873	47240.48
718.216	46992.35
718.559	46968.4
718.902	46600.95
719.246	46849.98
719.589	46746.26
719.932	46563.21
720.275	46627.39
720.617	46544.23
720.96	46434.63
721.303	46449.77
721.646	46548.07
721.989	46268.53
722.331	46380.84
722.674	46202.32
723.016	46203.22
723.359	46080.06
723.701	46048.87
724.044	45991.93
724.386	45825.38
724.729	46028.08
725.071	45864.92
725.413	45744.48
725.755	45714.65
726.097	45618.38
726.439	45656.12
726.782	45419.74
727.124	45634.65
727.465	45478.72
727.807	45327.76
728.149	45490.24
728.491	45191.72
728.833	45304.03
729.175	45185.85
729.516	45196.24
729.858	44986.53
730.199	45139.52
730.541	45222.91
730.882	45043.02
731.224	45213.42
731.565	44831.5
731.906	44879.41
732.248	44868.79
732.589	44642.81
732.93	44636.93
733.271	44686.88
733.612	44653.43
733.953	44793.54
734.294	44545.86
734.635	44485.53
734.976	44751.51
735.317	44484.85
735.658	44442.81
735.999	44435.81
736.339	44417.05
736.68	44387.67
737.021	44286.66
737.361	44252.99
737.702	44471.29
738.042	44229.71
738.383	44178.19
738.723	44349.26
739.063	44233.33
739.404	44338.64
739.744	44150.39
740.084	44156.27
740.424	44252.09
740.764	44121.92
741.104	44299.09
741.444	44030.17
741.784	43960.79
742.124	44132.31
742.464	44089.6
742.804	44088.25
743.143	43943.84
743.483	44022.49
743.823	43909.72
744.162	43844.19
744.502	43980.68
744.841	43816.16
745.181	44049.83
745.52	43845.09
745.86	43992.66
746.199	43921.92
746.538	43967.12
746.877	44107.23
747.216	43885.32
747.556	43914.92
747.895	44112.43
748.234	43847.35
748.573	43941.36
748.911	43802.61
749.25	43770.74
749.589	43785.88
749.928	43853.45
750.267	43838.31
750.605	43684.64
750.944	43729.16
751.283	43849.61
751.621	43835.82
751.96	43543.86
752.298	43733
752.636	43689.61
752.975	43693.68
753.313	43486.91
753.651	43846.45
753.989	43556.28
754.327	43642.84
754.666	43488.49
755.004	43530.3
755.342	43433.12
755.679	43527.81
756.017	43259.12
756.355	43505.89
756.693	43305.22
757.031	43513.8
757.368	43106.8
757.706	43113.13
758.044	43058.22
758.381	43103.41
758.719	42942.06
759.056	42962.63
759.394	42949.75
759.731	42718.79
760.068	42668.85
760.405	42750.66
760.743	42630.43
761.08	42577.33
761.417	42569.19
761.754	42386.15
762.091	42334.62
762.428	42135.98
762.765	42054.4
763.102	42130.33
763.438	42063.89
763.775	41771.92
764.112	41711.59
764.449	41814.18
764.785	41722.21
765.122	41498.49
765.458	41318.6
765.795	41369
766.131	41334.2
766.467	41184.6
766.804	40941.21
767.14	40902.79
767.476	40719.3
767.812	40636.36
768.148	40749.35
768.485	40482.24
768.821	40390.04
769.157	40179.42
769.492	40083.83
769.828	40090.84
770.164	39836.61
770.5	39719.55
770.836	39807.46
771.171	39449.73
771.507	39320.24
771.842	39083.41
772.178	39269.84
772.513	38984.88
772.849	38854.71
773.184	38882.73
773.519	38739.01
773.855	38508.96
774.19	38595.74
774.525	38319.59
774.86	38405.46
775.195	38176.76
775.53	38020.84
775.865	37773.16
776.2	37600.73
776.535	37480.51
776.87	37473.05
777.205	37229.22
777.539	37181.08
777.874	37080.97
778.209	36802.56
778.543	36737.93
778.878	36595.34
779.212	36471.72
779.547	36261.11
779.881	36276.02
780.215	36235.35
780.55	36266.31
780.884	35694.8
781.218	35709.71
781.552	35813.66
781.886	35643.27
782.22	35434.01
782.554	35188.59
782.888	34920.13
783.222	34919.68
783.556	34678.1
783.889	34738.66
784.223	34454.15
784.557	34439.69
784.89	34406.02
785.224	34180.94
785.557	34009.42
785.891	34060.71
786.224	33959.47
786.558	33888.29
786.891	33611.23
787.224	33400.84
787.557	33303.9
787.891	33340.28
788.224	33011.02
788.557	33200.4
788.89	33073.17
789.223	32982.55
789.556	32674.31
789.888	32615.1
790.221	32458.27
790.554	32362.45
790.887	32257.37
791.219	32136.25
791.552	32093.53
791.884	31980.77
792.217	31962.01
792.549	31795.92
792.882	31487
793.214	31377.17
793.546	31499.65
793.879	31160.68
794.211	31052.43
794.543	31055.82
794.875	30993.9
795.207	30990.06
795.539	30774.47
795.871	30747.58
796.203	30618.77
796.535	30449.28
796.867	30413.13
797.198	30281.38
797.53	30193.02
797.862	30029.41
798.193	30093.36
798.525	29859.7
798.856	30038.45
799.188	29511
799.519	29375.64
799.85	29460.61
800.182	29480.5
800.513	29352.82
800.844	29024.46
801.175	29299.94
801.506	29295.19
801.837	29030.56
802.168	28983.11
802.499	29048.19
802.83	28777.69
803.161	28531.59
803.491	28657.47
803.822	28803.45
804.153	28481.88
804.483	28339.28
804.814	28137.93
805.145	28218.83
805.475	28236.01
805.805	28059.06
806.136	28036.69
806.466	27993.08
806.796	27936.81
807.126	27757.15
807.457	27729.58
807.787	27676.25
808.117	27628.57
808.447	27485.97
808.777	27458.85
809.107	27273.55
809.436	27220.44
809.766	27259.99
810.096	27216.15
810.426	26932.09
810.755	27140.22
811.085	27003.05
811.414	26918.08
811.744	26879.21
812.073	26802.15
812.403	26577.3
812.732	26601.93
813.061	26595.15
813.39	26377.07
813.719	26461.82
814.049	26583.85
814.378	26416.17
814.707	26249.62
815.036	26301.37
815.365	26084.43
815.693	25964.43
816.022	25969.85
816.351	25875.62
816.68	25746.36
817.008	25896.18
817.337	25535.06
817.665	25626.36
817.994	25517.89
818.322	25661.39
818.651	25563.54
818.979	25428.17
819.307	25309.31
819.636	25281.06
819.964	25291.68
820.292	25436.99
820.62	25295.52
820.948	25255.3
821.276	25424.33
821.604	25213.94
821.932	25370.32
822.259	25223.66
822.587	25169.42
822.915	25151.34
823.243	25228.86
823.57	25125.13
823.898	25219.37
824.225	25041.06
824.553	25111.35
824.88	25152.02
825.207	25235.86
825.535	25025.02
825.862	25232.25
826.189	24968.07
826.516	25237.67
826.843	25262.08
827.17	25254.84
827.497	25249.65
827.824	25240.83
828.151	25248.29
828.478	25134.17
828.805	25193.6
829.131	25237.44
829.458	25341.17
829.785	25068.86
830.111	25197.22
830.438	25315.63
830.764	25182.98
831.09	25155.19
831.417	25048.97
831.743	25383.88
832.069	25137.79
832.395	24998.58
832.722	25209.65
833.048	25002.87
833.374	25204.45
833.7	25008.3
834.026	25170.78
834.351	24959.94
834.677	25129.42
835.003	25022.99
835.329	25012.36
835.654	24960.84
835.98	24813.05
836.306	24944.8
836.631	24835.42
836.956	25090.78
837.282	24811.47
837.607	24799.94
837.932	24773.73
838.258	24697.12
838.583	24735.54
838.908	24644.92
839.233	24727.17
839.558	24554.52
839.883	24501.64
840.208	24355.21
840.533	24594.3
840.858	24399.95
841.182	24477.69
841.507	24354.98
841.832	24201.76
842.156	24362.21
842.481	24333.29
842.805	24127.19
843.13	24030.24
843.454	24126.96
843.778	23966.52
844.103	24081.32
844.427	23811.72
844.751	23911.83
845.075	23782.57
845.399	23713.19
845.723	23553.87
846.047	23558.17
846.371	23513.2
846.695	23300.32
847.019	23314.56
847.343	23273.88
847.666	23111.62
847.99	23181.23
848.313	23017.16
848.637	22903.04
848.96	22895.81
849.284	22772.88
849.607	22623.95
849.931	22518.19
850.254	22418.99
850.577	22313.68
850.9	22173.12
851.223	22199.56
851.546	22154.13
851.869	21976.74
852.192	22107.81
852.515	21776.07
852.838	21671.21
853.161	21745.56
853.483	21515.06
853.806	21590.76
854.129	21392.35
854.451	21303.99
854.774	21297.66
855.096	21264.44
855.419	21152.35
855.741	21066.71
856.063	20991.23
856.385	20948.29
856.708	20942.42
857.03	20826.71
857.352	20884.34
857.674	20730.9
857.996	20616.55
858.318	20548.75
858.64	20558.47
858.961	20446.61
859.283	20351.47
859.605	20306.05
859.926	20315.77
860.248	20216.11
860.57	20176.79
860.891	20265.6
861.212	20076.9
861.534	20113.74
861.855	19904.7
862.176	20057.69
862.498	20073.29
862.819	19968.2
863.14	19773.18
863.461	19832.39
863.782	19789.68
864.103	19835.78
864.424	19707.65
864.745	19725.95
865.065	19540.19
865.386	19392.63
865.707	19563.02
866.027	19500.87
866.348	19455.45
866.668	19408.9
866.989	19416.13
867.309	19292.74
867.63	19309.69
867.95	19382
868.27	19246.41
868.59	19280.09
868.91	19109.24
869.23	19229.92
869.55	19099.3
869.87	19141.78
870.19	19036.02
870.51	19075.12
870.83	19034.44
871.15	18886.88
871.469	18856.82
871.789	18947.21
872.109	18918.74
872.428	18807.56
872.748	18863.83
873.067	18720.78
873.386	18804.39
873.706	18717.16
874.025	18639.2
874.344	18595.13
874.663	18642.36
874.982	18508.13
875.301	18591.74
875.62	18517.62
875.939	18464.29
876.258	18567.34
876.577	18284.18
876.896	18309.49
877.214	18321.69
877.533	18342.71
877.852	18346.78
878.17	18343.39
878.489	18349.26
878.807	18194.69
879.125	18226.55
879.444	18151.3
879.762	18100
880.08	18133.68
880.398	18031.08
880.716	18080.57
881.034	17964.87
881.352	17981.36
881.67	17960.35
881.988	17903.63
882.306	17853.68
882.624	17780.24
882.941	17766.23
883.259	17740.01
883.577	17653.91
883.894	17612.79
884.212	17559
884.529	17485.78
884.846	17453.24
885.164	17414.6
885.481	17390.87
885.798	17487.14
886.115	17209.63
886.432	17325.56
886.75	17231.33
887.067	17305.45
887.383	17257.77
887.7	17169.18
888.017	17033.82
888.334	17047.6
888.651	17086.02
888.967	17013.03
889.284	16873.82
889.6	16859.36
889.917	16827.95
890.233	16788.4
890.55	16688.52
890.866	16687.61
891.182	16653.71
891.498	16567.62
891.815	16573.04
892.131	16459.37
892.447	16464.12
892.763	16331.24
893.079	16440.84
893.395	16277.23
893.71	16244.46
894.026	16187.06
894.342	16176.67
894.657	16048.53
894.973	16073.16
895.289	15951.59
895.604	16048.76
895.92	15938.48
896.235	15825.71
896.55	15814.41
896.865	15813.96
897.181	15743.68
897.496	15712.04
897.811	15557.7
898.126	15538.49
898.441	15498.04
898.756	15403.13
899.071	15352.73
899.386	15442.22
899.7	15261.89
900.015	15185.05
900.33	15075.9
900.644	15047.2
900.959	15089.91
901.273	14969.69
901.588	14902.35
901.902	14854.21
902.216	14782.8
902.531	14835.46
902.845	14687.44
903.159	14591.85
903.473	14527.67
903.787	14504.17
904.101	14496.94
904.415	14412.42
904.729	14494.9
905.042	14355.7
905.356	14302.14
905.67	14235.02
905.984	14188.47
906.297	14187.79
906.611	14059.43
906.924	14085.42
907.237	14061.24
907.551	14001.36
907.864	13928.81
908.177	13932.2
908.491	13827.12
908.804	13757.07
909.117	13611.08
909.43	13545.77
909.743	13470.3
910.056	13524.76
910.368	13450.41
910.681	13342.16
910.994	13329.28
911.307	13156.18
911.619	13113.92
911.932	13141.49
912.244	13035.05
912.557	13021.49
912.869	13009.29
913.181	12997.09
913.494	12929.97
913.806	12824.44
914.118	12760.26
914.43	12786.7
914.742	12752.35
915.054	12614.95
915.366	12636.19
915.678	12536.53
915.99	12463.99
916.302	12453.6
916.613	12338.35
916.925	12279.82
917.236	12244.11
917.548	12191.91
917.859	12216.77
918.171	12144.23
918.482	12078.24
918.794	12049.99
919.105	11947.17
919.416	11890
919.727	11878.7
920.038	11792.6
920.349	11743.56
920.66	11752.83
920.971	11657.01
921.282	11699.95
921.593	11514.41
921.903	11473.74
922.214	11515.54
922.525	11449.33
922.835	11334.76
923.146	11262.9
923.456	11282.1
923.767	11152.84
924.077	11165.95
924.387	11123.24
924.697	11124.82
925.008	11092.05
925.318	10988.78
925.628	10971.83
925.938	10877.37
926.248	10776.36
926.558	10824.04
926.867	10736.36
927.177	10734.55
927.487	10616.81
927.796	10564.61
928.106	10545.4
928.416	10572.07
928.725	10490.71
929.034	10403.26
929.344	10438.96
929.653	10351.06
929.962	10325.97
930.271	10237.39
930.581	10234.45
930.89	10124.17
931.199	10087.11
931.508	10106.32
931.817	9999.88
932.125	10056.83
932.434	9995.36
932.743	9852.31
933.051	9848.24
933.36	9801.69
933.669	9811.18
933.977	9736.38
934.286	9641.47
934.594	9594.24
934.902	9619.78
935.21	9557.63
935.519	9584.07
935.827	9475.15
936.135	9402.38
936.443	9433.34
936.751	9346.11
937.059	9406.67
937.367	9328.48
937.674	9288.03
937.982	9239.22
938.29	9213.01
938.597	9121.48
938.905	9015.72
939.213	9034.93
939.52	8977.98
939.827	9005.55
940.135	8922.39
940.442	8932.56
940.749	8850.53
941.056	8902.51
941.363	8766.24
941.67	8768.05
941.977	8653.02
942.284	8666.13
942.591	8613.47
942.898	8600.14
943.205	8542.29
943.511	8536.87
943.818	8484.44
944.125	8444.44
944.431	8360.15
944.738	8306.36
945.044	8309.98
945.35	8258
945.657	8259.36
945.963	8222.07
946.269	8142.3
946.575	8133.26
946.881	8084.67
947.187	8071.34
947.493	8060.27
947.799	8056.2
948.105	7926.03
948.41	7916.77
948.716	7908.41
949.022	7838.58
949.327	7840.16
949.633	7752.03
949.938	7734.4
950.244	7683.56
950.549	7624.57
950.854	7587.74
951.16	7582.99
951.465	7550
951.77	7518.14
952.075	7529.21
952.38	7455.54
952.685	7363.56
952.99	7336.22
953.294	7438.82
953.599	7314.98
953.904	7244.02
954.209	7232.49
954.513	7241.76
954.818	7199.95
955.122	7143.46
955.426	7151.82
955.731	7089.67
956.035	7079.28
956.339	7034.76
956.643	7020.07
956.948	6925.61
957.252	6938.04
957.556	6885.84
957.86	6926.06
958.163	6879.28
958.467	6833.63
958.771	6830.02
959.075	6762.22
959.378	6658.72
959.682	6713.86
959.985	6683.13
960.289	6618.72
960.592	6642.9
960.896	6593.41
961.199	6557.03
961.502	6503.02
961.805	6476.13
962.108	6406.53
962.411	6430.48
962.714	6340.99
963.017	6381.67
963.32	6379.41
963.623	6338.28
963.926	6353.65
964.228	6276.81
964.531	6223.93
964.833	6247.43
965.136	6121.56
965.438	6138.28
965.741	6129.02
966.043	6031.4
966.345	6005.18
966.648	6030.49
966.95	5993.66
967.252	5983.94
967.554	6028.46
967.856	5947.56
968.158	5898.29
968.46	5910.49
968.761	5795.92
969.063	5838.18
969.365	5747.11
969.666	5757.96
969.968	5723.61
970.269	5699.2
970.571	5699.65
970.872	5658.52
971.174	5602.03
971.475	5605.19
971.776	5598.64
972.077	5515.48
972.378	5537.4
972.679	5499.21
972.98	5529.04
973.281	5445.2
973.582	5440.45
973.883	5457.85
974.183	5391.64
974.484	5364.75
974.785	5288.59
975.085	5310.96
975.386	5293.11
975.686	5268.03
975.986	5256.95
976.287	5203.39
976.587	5148.93
976.887	5149.61
977.187	5100.8
977.487	5208.82
977.787	5076.84
978.087	5065.54
978.387	5025.09
978.687	5038.65
978.987	4961.59
979.286	5004.53
979.586	4961.59
979.885	4959.33
980.185	4914.14
980.484	4917.53
980.784	4855.61
981.083	4834.36
981.382	4874.59
981.682	4827.13
981.981	4789.62
982.28	4786.46
982.579	4809.05
982.878	4743.52
983.177	4625.56
983.475	4685.22
983.774	4649.74
984.073	4673.46
984.372	4569.74
984.67	4573.35
984.969	4542.39
985.267	4550.98
985.566	4530.42
985.864	4472.34
986.162	4447.93
986.461	4440.48
986.759	4421.04
987.057	4402.74
987.355	4374.72
987.653	4320.93
987.951	4302.63
988.249	4324.32
988.547	4281.38
988.844	4255.17
989.142	4303.53
989.44	4235.74
989.737	4214.95
990.035	4202.74
990.332	4172.69
990.63	4170.2
990.927	4155.51
991.224	4159.81
991.521	4092.46
991.819	4073.71
992.116	4028.74
992.413	4059.92
992.71	4006.59
993.006	4019.7
993.303	4026.25
993.6	3953.71
993.897	3953.94
994.193	3939.92
994.49	3906.93
994.787	3882.07
995.083	3832.36
995.379	3863.77
995.676	3839.81
995.972	3862.86
996.268	3832.58
996.565	3750.33
996.861	3774.05
997.157	3781.96
997.453	3718.01
997.749	3675.98
998.044	3633.27
998.34	3668.52
998.636	3657.22
998.932	3660.84
999.227	3626.26
999.523	3568.63
999.818	3531.8
1000.114	3549.2
1000.409	3531.8
1000.704	3515.76
1001	3475.76
1001.295	3479.6
1001.59	3414.51
1001.885	3465.81
1002.18	3436.89
1002.475	3404.8
1002.77	3364.35
1003.065	3333.16
1003.359	3341.97
1003.654	3327.74
1003.949	3286.83
1004.243	3222.43
1004.538	3268.08
1004.832	3222.66
1005.127	3240.28
1005.421	3194.41
1005.715	3195.99
1006.009	3145.14
1006.304	3105.14
1006.598	3087.07
1006.892	3111.02
1007.186	3089.33
1007.48	3092.49
1007.773	3061.76
1008.067	3038.93
1008.361	2994.19
1008.655	2996.22
1008.948	2969.1
1009.242	2970.01
1009.535	2932.95
1009.829	2915.09
1010.122	2869.44
1010.415	2914.41
1010.708	2857.02
1011.001	2848.2
1011.295	2842.33
1011.588	2792.84
1011.881	2780.41
1012.173	2762.33
1012.466	2739.5
1012.759	2725.04
1013.052	2752.39
1013.344	2734.98
1013.637	2709.9
1013.93	2679.17
1014.222	2633.52
1014.514	2629.68
1014.807	2619.73
1015.099	2606.4
1015.391	2609.79
1015.683	2573.18
1015.976	2572.05
1016.268	2543.8
1016.56	2525.27
1016.851	2490.7
1017.143	2447.08
1017.435	2478.95
1017.727	2489.12
1018.018	2455.44
1018.31	2450.47
1018.602	2435.56
1018.893	2387.65
1019.185	2382.9
1019.476	2335.22
1019.767	2347.42
1020.058	2321.89
1020.35	2293.19
1020.641	2257.71
1020.932	2279.4
1021.223	2262.68
1021.514	2248.44
1021.804	2214.55
1022.095	2203.25
1022.386	2223.59
1022.677	2179.74
1022.967	2153.98
1023.258	2136.81
1023.548	2127.32
1023.839	2088.22
1024.129	2136.58
1024.419	2116.24
1024.709	2098.39
1025	2080.09
1025.29	2072.63
1025.58	2003.25
1025.87	2031.95
1026.16	1973.2
1026.449	1994.44
1026.739	1971.39
1027.029	1990.15
1027.319	1936.14
1027.608	1946.76
1027.898	1895.23
1028.187	1954.44
1028.477	1893.42
1028.766	1914.89
1029.055	1881.45
1029.344	1849.36
1029.634	1843.03
1029.923	1826.31
1030.212	1789.02
1030.501	1810.72
1030.79	1778.17
1031.078	1806.2
1031.367	1746.31
1031.656	1734.33
1031.945	1746.08
1032.233	1769.13
1032.522	1695.24
1032.81	1702.24
1033.099	1691.62
1033.387	1669.25
1033.675	1673.09
1033.963	1634.45
1034.251	1652.3
1034.54	1633.09
1034.828	1609.36
1035.116	1624.05
1035.403	1551.29
1035.691	1568.46
1035.979	1577.73
1036.267	1542.02
1036.554	1550.38
1036.842	1534.56
1037.129	1529.59
1037.417	1532.53
1037.704	1496.6
1037.992	1492.76
1038.279	1494.11
1038.566	1479.42
1038.853	1479.42
1039.14	1479.42
