Data from 14-0852_FLMS001491_005.txt Node
Date: Thu Apr 12 17:07:09 BST 2018
User: hsy
Spectrometer: FLMS00149
Trigger mode: 0
Integration Time (sec): 1.000000E-2
Scans to average: 10
Electric dark correction enabled: true
Nonlinearity correction enabled: false
Boxcar width: 0
XAxis mode: Wavelengths
Number of Pixels in Spectrum: 2048
>>>>>Begin Spectral Data<<<<<
341.393	-26.79
341.776	-26.79
342.16	-26.79
342.543	-63.18
342.927	-54.59
343.31	-73.35
343.693	-66.79
344.077	-76.74
344.46	-54.14
344.843	-68.6
345.226	-41.71
345.61	-17.98
345.993	-14.36
346.376	-16.4
346.759	18.18
347.142	39.42
347.525	48.46
347.908	54.33
348.291	79.64
348.674	76.03
349.057	113.99
349.44	113.77
349.823	147.44
350.206	176.14
350.588	238.74
350.971	248.68
351.354	267.44
351.737	292.97
352.119	284.16
352.502	302.24
352.884	335.01
353.267	341.11
353.65	344.95
354.032	348.79
354.414	352.41
354.797	354.21
355.179	359.19
355.562	374.1
355.944	374.33
356.326	383.59
356.709	389.02
357.091	379.98
357.473	382.69
357.855	379.75
358.238	374.1
358.62	389.24
359.002	390.15
359.384	379.52
359.766	375
360.148	372.29
360.53	413.65
360.912	374.55
361.294	379.07
361.676	370.03
362.057	368
362.439	389.69
362.821	392.63
363.203	371.61
363.584	370.94
363.966	392.18
364.348	389.24
364.729	358.28
365.111	374.55
365.493	376.13
365.874	368.68
366.256	389.24
366.637	373.65
367.019	370.71
367.4	380.88
367.781	385.85
368.163	374.78
368.544	356.25
368.925	370.26
369.306	384.04
369.688	361.45
370.069	371.16
370.45	377.94
370.831	405.51
371.212	376.81
371.593	384.04
371.974	363.48
372.355	399.41
372.736	388.11
373.117	389.92
373.498	379.07
373.879	393.99
374.26	386.3
374.641	384.27
375.021	397.83
375.402	404.16
375.783	382.01
376.163	391.28
376.544	403.93
376.925	405.96
377.305	422.69
377.686	411.39
378.066	408.68
378.447	420.2
378.827	413.65
379.208	417.26
379.588	396.47
379.968	400.54
380.349	406.64
380.729	408.9
381.109	428.34
381.489	426.3
381.87	411.61
382.25	427.43
382.63	428.79
383.01	427.66
383.39	423.59
383.77	438.51
384.15	443.7
384.53	437.15
384.91	450.26
385.29	448.67
385.67	434.89
386.049	475.11
386.429	464.04
386.809	452.06
387.189	466.3
387.568	458.62
387.948	479.18
388.328	482.57
388.707	476.92
389.087	480.99
389.466	470.59
389.846	480.09
390.225	499.75
390.605	490.71
390.984	483.25
391.363	473.76
391.743	494.1
392.122	487.77
392.501	496.36
392.881	485.28
393.26	512.4
393.639	504.27
394.018	504.27
394.397	514.21
394.776	527.32
395.155	526.41
395.534	526.64
395.913	525.06
396.292	525.96
396.671	523.7
397.05	517.6
397.429	528.22
397.808	537.03
398.186	547.66
398.565	534.77
398.944	529.8
399.323	539.07
399.701	547.88
400.08	554.66
400.458	569.8
400.837	556.24
401.215	558.28
401.594	543.81
401.972	571.38
402.351	563.02
402.729	578.39
403.107	569.8
403.486	581.55
403.864	583.13
404.242	614.09
404.62	601.89
404.999	630.14
405.377	608.9
405.755	629.01
406.133	630.14
406.511	619.74
406.889	612.96
407.267	627.65
407.645	645.73
408.023	636.24
408.401	641.21
408.779	662.91
409.156	652.74
409.534	665.62
409.912	662.68
410.29	667.65
410.667	680.31
411.045	681.66
411.422	716.92
411.8	684.6
412.178	702.45
412.555	734.32
412.933	723.47
413.31	736.12
413.687	739.51
414.065	721.66
414.442	755.56
414.819	740.64
415.197	776.58
415.574	760.76
415.951	780.19
416.328	770.25
416.705	789.91
417.082	771.83
417.46	806.86
417.837	801.21
418.214	803.24
418.591	804.37
418.967	811.38
419.344	825.61
419.721	820.64
420.098	832.62
420.475	868.55
420.852	822.68
421.228	834.65
421.605	837.59
421.982	856.12
422.358	871.26
422.735	892.05
423.111	857.48
423.488	900.87
423.864	899.06
424.241	899.96
424.617	910.13
424.994	929.79
425.37	911.26
425.746	906.97
426.123	934.54
426.499	942.45
426.875	944.71
427.251	958.27
427.627	971.82
428.003	967.08
428.379	973.41
428.756	997.81
429.132	994.42
429.507	1015.21
429.883	985.84
430.259	1020.86
430.635	1035.78
431.011	1054.99
431.387	1062.9
431.763	1070.35
432.138	1084.36
432.514	1105.38
432.89	1104.25
433.265	1131.14
433.641	1094.53
434.016	1140.63
434.392	1163.01
434.767	1137.47
435.143	1153.51
435.518	1145.83
435.894	1212.95
436.269	1193.29
436.644	1224.47
437.02	1210.91
437.395	1239.39
437.77	1239.39
438.145	1252.95
438.52	1250.69
438.895	1264.7
439.271	1265.83
439.646	1285.71
440.021	1321.19
440.395	1302.89
440.77	1271.25
441.145	1310.57
441.52	1322.55
441.895	1336.33
442.27	1376.79
442.645	1313.96
443.019	1381.08
443.394	1369.1
443.769	1373.85
444.143	1364.36
444.518	1403.23
444.892	1434.41
445.267	1417.01
445.641	1394.19
446.016	1415.88
446.39	1435.32
446.764	1427.18
447.139	1414.52
447.513	1470.79
447.887	1458.59
448.262	1477.8
448.636	1482.77
449.01	1471.02
449.384	1479.83
449.758	1526.39
450.132	1508.08
450.506	1536.33
450.88	1532.94
451.254	1539.27
451.628	1549.66
452.002	1628.53
452.376	1579.94
452.75	1620.4
453.123	1640.51
453.497	1645.25
453.871	1668.08
454.244	1697.46
454.618	1709.88
454.992	1743.56
455.365	1720.96
455.739	1773.61
456.112	1786.27
456.486	1811.8
456.859	1807.06
457.232	1859.49
457.606	1866.26
457.979	1899.71
458.352	1887.73
458.725	1931.57
459.099	1945.81
459.472	1955.08
459.845	2018.12
460.218	1997.33
460.591	2016.09
460.964	2046.15
461.337	2056.09
461.71	2120.27
462.083	2138.35
462.456	2126.82
462.829	2177.44
463.201	2181.96
463.574	2215.41
463.947	2214.96
464.32	2271.23
464.692	2286.82
465.065	2294.05
465.438	2315.74
465.81	2349.42
466.183	2392.13
466.555	2407.72
466.928	2413.14
467.3	2446.36
467.672	2465.34
468.045	2522.07
468.417	2546.7
468.789	2555.29
469.161	2587.38
469.534	2644.78
469.906	2646.36
470.278	2723.42
470.65	2748.5
471.022	2783.3
471.394	2819.91
471.766	2835.5
472.138	2879.35
472.51	2941.04
472.882	2986.91
473.253	2993.69
473.625	3065.78
473.997	3087.93
474.369	3159.56
474.74	3166.12
475.112	3215.16
475.484	3259.9
475.855	3330.63
476.227	3358.88
476.598	3433.45
476.97	3468.26
477.341	3538.08
477.713	3629.61
478.084	3626.22
478.455	3765.2
478.827	3782.6
479.198	3880.45
479.569	3892.43
479.94	4031.18
480.311	4069.6
480.682	4165.19
481.053	4242.93
481.424	4330.15
481.795	4377.16
482.166	4455.57
482.537	4558.4
482.908	4634.78
483.279	4691.5
483.65	4797.94
484.021	4945.73
484.391	4983.24
484.762	5098.95
485.133	5156.57
485.503	5296.68
485.874	5380.07
486.244	5459.84
486.615	5548.88
486.985	5721.53
487.356	5752.26
487.726	5876.1
488.097	6110.45
488.467	6199.71
488.837	6286.94
489.207	6466.82
489.578	6558.57
489.948	6719.24
490.318	6840.15
490.688	6943.42
491.058	7116.97
491.428	7273.81
491.798	7403.97
492.168	7565.78
492.538	7738.2
492.908	7908.37
493.278	8091.19
493.648	8185.65
494.017	8373.44
494.387	8556.03
494.757	8736.82
495.126	8888.9
495.496	9084.83
495.866	9250.25
496.235	9447.08
496.605	9612.28
496.974	9815.21
497.344	9971.36
497.713	10130.68
498.082	10360.5
498.452	10525.7
498.821	10665.58
499.19	10925.24
499.559	11042.07
499.928	11313.47
500.298	11585.56
500.667	11703.29
501.036	11980.57
501.405	12141.7
501.774	12367.01
502.143	12620.11
502.512	12778.97
502.88	13075.91
503.249	13257.15
503.618	13499.18
503.987	13690.81
504.356	13932.61
504.724	14137.81
505.093	14394.52
505.462	14625.93
505.83	14757.9
506.199	15039.7
506.567	15442.4
506.936	15576.64
507.304	15864.99
507.672	16068.38
508.041	16354.92
508.409	16577.52
508.777	16859.54
509.145	17188.12
509.514	17295.01
509.882	17520.99
510.25	17779.29
510.618	18035.1
510.986	18133.86
511.354	18504.92
511.722	18730.45
512.09	19034.63
512.458	19048.64
512.826	19377.44
513.193	19627.38
513.561	19794.61
513.929	20024.66
514.297	20358.43
514.664	20668.03
515.032	20781.02
515.4	20979.66
515.767	21230.05
516.135	21442.47
516.502	21424.17
516.869	21808.34
517.237	22088.11
517.604	22077.26
517.972	22414.42
518.339	22643.8
518.706	22779.61
519.073	23025.71
519.44	23259.6
519.808	23530.33
520.175	23713.6
520.542	24053.93
520.909	24233.13
521.276	24380.47
521.643	24734.36
522.009	24933.91
522.376	25277.63
522.743	25348.58
523.11	25684.85
523.477	25953.77
523.843	26048.68
524.21	26467.65
524.577	26747.87
524.943	26896.11
525.31	27070.12
525.676	27478.47
526.043	27763.66
526.409	27810.44
526.776	28213.82
527.142	28301.28
527.508	28513.7
527.874	28697.88
528.241	29035.49
528.607	29096.73
528.973	29473.9
529.339	29512.09
529.705	29927.45
530.071	30148.91
530.437	30338.06
530.803	30678.39
531.169	30799.74
531.535	30904.82
531.901	31123.57
532.267	31227.07
532.632	31487.41
532.998	31700.73
533.364	31887.4
533.73	31928.75
534.095	32387.95
534.461	32361.06
534.826	32709.07
535.192	32557.43
535.557	32996.52
535.923	33021.83
536.288	33249.85
536.653	33418.2
537.019	33416.85
537.384	33534.58
537.749	33720.12
538.114	33908.36
538.479	33886.21
538.845	34084.17
539.21	34197.84
539.575	34302.25
539.94	34466.76
540.305	34768.45
540.67	34531.39
541.034	34895.23
541.399	34907.43
541.764	35102
542.129	35130.47
542.494	35306.97
542.858	35478.94
543.223	35387.42
543.587	35690.69
543.952	35699.27
544.316	35794.64
544.681	35820.4
545.045	36154.4
545.41	36237.11
545.774	36149.43
546.138	36307.39
546.503	36464.9
546.867	36595.75
547.231	36893.14
547.595	36922.97
547.959	37104.21
548.324	37063.53
548.688	37242.28
549.052	37433.46
549.416	37483.41
549.779	37549.39
550.143	37670.52
550.507	37924.75
550.871	38045.88
551.235	38040.68
551.599	38306.21
551.962	38340.33
552.326	38535.36
552.689	38582.81
553.053	38467.11
553.417	38706.2
553.78	39088.56
554.143	39110.48
554.507	39173.08
554.87	39372.17
555.234	39672.5
555.597	39403.36
555.96	39837.47
556.323	39868.66
556.686	40126.05
557.05	40407.62
557.413	40534.85
557.776	40598.35
558.139	40865.92
558.502	40893.94
558.865	40926.03
559.228	41209.18
559.59	41476.75
559.953	41651.89
560.316	42036.96
560.679	41989.28
561.041	42364.63
561.404	42433.11
561.767	42693.44
562.129	42581.13
562.492	42937.95
562.854	43039.87
563.217	43050.72
563.579	43349.47
563.941	43565.06
564.304	43783.13
564.666	43916.01
565.028	43970.47
565.39	44162.78
565.753	44348.99
566.115	44481.87
566.477	44626.27
566.839	44811.8
567.201	45224.22
567.563	45292.47
567.925	45487.49
568.287	45641.38
568.648	45863.98
569.01	46019.45
569.372	46316.62
569.734	46230.97
570.095	46541.47
570.457	46859.66
570.819	46953.89
571.18	46845.19
571.542	47239.53
571.903	47283.6
572.265	47445.63
572.626	47659.86
572.987	47680.43
573.349	47830.03
573.71	47996.35
574.071	48276.8
574.432	48518.6
574.794	48724.47
575.155	48747.74
575.516	48870.45
575.877	48960.85
576.238	49109.99
576.599	49272.48
576.96	49499.59
577.32	49556.99
577.681	49673.14
578.042	49878.79
578.403	49970.76
578.763	50022.29
579.124	50044.21
579.485	50427.7
579.845	50467.47
580.206	50560.13
580.566	50780.46
580.927	50756.05
581.287	50995.82
581.648	50975.48
582.008	51140.9
582.368	51255.25
582.728	51405.98
583.089	51449.37
583.449	51564.39
583.809	51722.35
584.169	51843.26
584.529	51849.13
584.889	52190.59
585.249	52015.68
585.609	52113.08
585.969	52447.76
586.329	52420.87
586.688	52667.64
587.048	52708.09
587.408	52766.4
587.768	52878.93
588.127	52998.03
588.487	53068.99
588.846	53338.36
589.206	53211.58
589.565	53281.86
589.925	53656.54
590.284	53726.82
590.643	53772.7
591.003	53887.04
591.362	54148.96
591.721	54157.09
592.08	54234.61
592.44	54445.9
592.799	54459.91
593.158	54601.6
593.517	54607.25
593.876	54808.83
594.235	54880.46
594.593	54977.86
594.952	55120.23
595.311	55157.07
595.67	55309.83
596.029	55495.59
596.387	55585.08
596.746	55768.58
597.104	55604.06
597.463	55806.32
597.822	56005.18
598.18	55930.15
598.538	56054.44
598.897	56299.86
599.255	56251.5
599.613	56607.42
599.972	56512.29
600.33	56635.22
600.688	56644.26
601.046	56769
601.404	56936.68
601.762	57035.66
602.12	57183.45
602.478	57222.78
602.836	57344.35
603.194	57264.36
603.552	57415.54
603.91	57399.72
604.268	57652.14
604.625	57605.14
604.983	57769.2
605.341	57696.66
605.698	57975.98
606.056	58157.21
606.413	58008.29
606.771	58273.14
607.128	58322.86
607.485	58271.56
607.843	58341.39
608.2	58506.81
608.557	58691.44
608.914	58676.75
609.272	58753.58
609.629	58933.92
609.986	59060.01
610.343	59026.12
610.7	59227.24
611.057	59153.57
611.414	59189.95
611.771	59369.84
612.127	59447.35
612.484	59480.12
612.841	59573.22
613.198	59513.11
613.554	59596.27
613.911	59745.42
614.267	59792.88
614.624	59813.67
614.98	59949.26
615.337	60019.76
615.693	60076.94
616.05	60131.63
616.406	60230.61
616.762	60222.47
617.118	60232.87
617.475	60299.98
617.831	60442.13
618.187	60428.57
618.543	60522.58
618.899	60640.09
619.255	60580.65
619.611	60546.3
619.967	60726.41
620.323	60829.46
620.678	60706.98
621.034	60699.52
621.39	60764.83
621.746	60823.58
622.101	61033.75
622.457	60840.76
622.812	60991.26
623.168	61037.82
623.523	61061.09
623.879	61128.44
624.234	61003.24
624.589	61103.35
624.945	61174.31
625.3	61174.99
625.655	61271.48
626.01	61218.6
626.365	61250.92
626.72	61200.52
627.075	61221.54
627.43	61242.33
627.785	61219.51
628.14	61196.23
628.495	61260.86
628.85	61288.43
629.205	61230.81
629.559	61315.77
629.914	61217.92
630.269	61257.92
630.623	61167.53
630.978	61140.86
631.332	61256.34
631.687	61330.46
632.041	61216.12
632.396	61279.39
632.75	61204.82
633.104	61233.07
633.459	61126.85
633.813	61139.06
634.167	61106.51
634.521	61118.72
634.875	61143.8
635.229	61046.4
635.583	61000.3
635.937	60927.54
636.291	60992.17
636.645	60975.67
636.999	60882.57
637.352	60972.96
637.706	60795.56
638.06	60929.34
638.413	60832.17
638.767	60810.25
639.121	60804.83
639.474	60731.16
639.828	60725.28
640.181	60720.54
640.534	60786.07
640.888	60644.38
641.241	60568.9
641.594	60606.87
641.947	60704.27
642.301	60549.69
642.654	60581.1
643.007	60541.11
643.36	60596.25
643.713	60489.81
644.066	60606.64
644.419	60448.68
644.771	60211.85
645.124	59954.23
645.477	59940.22
645.83	59820.45
646.182	59809.6
646.535	59828.13
646.888	59879.65
647.24	59735.93
647.593	59902.48
647.945	59723.73
648.298	59669.04
648.65	59515.14
649.002	59394.7
649.355	59429.5
649.707	59329.61
650.059	59367.13
650.411	59697.29
650.763	59784.97
651.115	60171.4
651.467	60037.62
651.819	60030.38
652.171	59967.34
652.523	59893.44
652.875	59939.31
653.227	59814.8
653.578	59979.31
653.93	59837.4
654.282	59701.81
654.633	59726.66
654.985	59784.97
655.337	59826.32
655.688	59706.33
656.039	59752.88
656.391	59545.43
656.742	59603.73
657.094	59632.66
657.445	59653.22
657.796	59590.17
658.147	59551.53
658.498	59542.49
658.849	59643.73
659.2	59568.93
659.551	59473.56
659.902	59657.29
660.253	59438.31
660.604	59581.36
660.955	59414.58
661.306	59528.25
661.656	59441.7
662.007	59390.85
662.358	59436.05
662.708	59410.74
663.059	59444.86
663.409	59308.6
663.76	59445.99
664.11	59415.94
664.461	59414.36
664.811	59406.67
665.161	59403.73
665.511	59242.16
665.862	59374.81
666.212	59405.77
666.562	59401.47
666.912	59330.06
667.262	59260.91
667.612	59319.44
667.962	59319.44
668.312	59250.07
668.662	59349.72
669.011	59289.61
669.361	59220.46
669.711	59279.44
670.06	59195.15
670.41	59168.71
670.76	59121.26
671.109	59252.1
671.459	59193.8
671.808	59154.48
672.157	59196.51
672.507	59075.83
672.856	59101.14
673.205	59166.23
673.554	59183.63
673.904	59067.92
674.253	59231.54
674.602	59106.12
674.951	58748.84
675.3	58646.69
675.649	59128.04
675.998	59170.75
676.346	59129.17
676.695	59098.88
677.044	58969.4
677.393	59028.15
677.741	59139.56
678.09	58994.25
678.438	58909.06
678.787	59062.27
679.135	59013.24
679.484	58887.14
679.832	58994.48
680.181	58848.5
680.529	58905.44
680.877	58816.86
681.225	58846.01
681.573	58987.02
681.922	58792.23
682.27	58756.97
682.618	58771.66
682.966	58658.22
683.314	58692.79
683.661	58671.1
684.009	58561.72
684.357	58584.77
684.705	58444.21
685.053	58548.16
685.4	58452.12
685.748	58471.56
686.095	58435.62
686.443	58397.89
686.79	58326.02
687.138	58444.21
687.485	58344.55
687.832	58214.16
688.18	58224.1
688.527	58175.07
688.874	58124.67
689.221	58143.2
689.568	57974.17
689.915	57979.37
690.262	58000.38
690.609	57953.38
690.956	57853.72
691.303	57871.12
691.65	57782.08
691.997	57759.26
692.344	57599.71
692.69	57548.19
693.037	57608.98
693.383	57419.15
693.73	57556.78
694.077	57353.39
694.423	57372.83
694.769	57291.93
695.116	57289.21
695.462	57160.63
695.808	57058.26
696.155	57159.5
696.501	56905.95
696.847	56999.5
697.193	56803.13
697.539	56864.59
697.885	56610.36
698.231	56679.06
698.577	56553.87
698.923	56600.42
699.269	56379.86
699.614	56345.96
699.96	56300.54
700.306	56286.98
700.651	56152.29
700.997	56099.41
701.342	56012.86
701.688	55975.58
702.033	55934
702.379	55945.52
702.724	55778.29
703.069	55818.74
703.415	55521.12
703.76	55533.33
704.105	55591.86
704.45	55443.84
704.795	55261.02
705.14	55280.91
705.485	55296.95
705.83	55091.98
706.175	55287.68
706.52	55080.91
706.865	55013.57
707.209	54978.31
707.554	54806.79
707.899	54870.07
708.243	54738.55
708.588	54681.82
708.932	54516.18
709.277	54550.75
709.621	54476.18
709.966	54266.02
710.31	54308.73
710.654	54116.42
710.998	54209.52
711.342	54188.73
711.687	54073.48
712.031	54065.8
712.375	53950.77
712.719	53951.9
713.063	53829.42
713.407	53862.86
713.75	53785.58
714.094	53738.12
714.438	53633.04
714.782	53547.17
715.125	53407.51
715.469	53661.51
715.812	53362.31
716.156	53259.26
716.499	53309.21
716.843	53230.34
717.186	53135.2
717.53	53223.56
717.873	53251.13
718.216	53081.42
718.559	52971.14
718.902	52730.92
719.246	52783.57
719.589	52702.67
719.932	52694.76
720.275	52769.11
720.617	52688.66
720.96	52546.51
721.303	52482.11
721.646	52523.69
721.989	52311.49
722.331	52430.81
722.674	52296.58
723.016	52153.08
723.359	52131.84
723.701	52244.83
724.044	52097.26
724.386	51943.82
724.729	52062.01
725.071	52028.11
725.413	51899.07
725.755	51987.21
726.097	51733.43
726.439	51681.68
726.782	51638.74
727.124	51733.65
727.465	51570.95
727.807	51539.31
728.149	51572.75
728.491	51432.64
728.833	51404.62
729.175	51426.32
729.516	51325.98
729.858	51110.17
730.199	51363.27
730.541	51247.11
730.882	51045.99
731.224	51097.06
731.565	51027.01
731.906	51024.52
732.248	50956.5
732.589	50782.27
732.93	50788.59
733.271	50855.26
733.612	50775.49
733.953	50889.38
734.294	50683.74
734.635	50600.8
734.976	50711.31
735.317	50600.12
735.658	50513.35
735.999	50480.35
736.339	50390.86
736.68	50563.52
737.021	50318.55
737.361	50265.44
737.702	50420.02
738.042	50168.27
738.383	50285.1
738.723	50281.04
739.063	50049.18
739.404	50284.88
739.744	50181.15
740.084	49955.85
740.424	50093.92
740.764	49926.7
741.104	49991.33
741.444	49724.22
741.784	49706.81
742.124	49981.16
742.464	49840.37
742.804	49768.96
743.143	49615.07
743.483	49758.11
743.823	49566.03
744.162	49556.99
744.502	49580.49
744.841	49389.53
745.181	49528.29
745.52	49240.39
745.86	49479.93
746.199	49353.38
746.538	49270.22
746.877	49407.61
747.216	49161.97
747.556	49111.12
747.895	49132.82
748.234	49023.22
748.573	49013.05
748.911	48881.75
749.25	48830.91
749.589	48716.56
749.928	48851.02
750.267	48904.58
750.605	48654.41
750.944	48685.15
751.283	48578.93
751.621	48688.99
751.96	48372.39
752.298	48434.53
752.636	48434.08
752.975	48365.83
753.313	48085.39
753.651	48233.18
753.989	47967.43
754.327	48073.19
754.666	47810.37
755.004	47945.28
755.342	47884.26
755.679	47803.81
756.017	47534.89
756.355	47692.4
756.693	47414.9
757.031	47576.48
757.368	47269.59
757.706	47367.67
758.044	46997.73
758.381	47086.54
758.719	47041.12
759.056	47049.26
759.394	46913.44
759.731	46573.34
760.068	46501.25
760.405	46509.61
760.743	46310.75
761.08	46355.49
761.417	46155.72
761.754	46077.76
762.091	45985.33
762.428	45655.17
762.765	45623.98
763.102	45611.55
763.438	45527.26
763.775	45303.77
764.112	45232.81
764.449	45247.5
764.785	44988.75
765.122	44779.49
765.458	44702.2
765.795	44596.67
766.131	44557.12
766.467	44483.67
766.804	44203.91
767.14	44175.89
767.476	43969.56
767.812	43840.3
768.148	43979.73
768.485	43618.39
768.821	43332.07
769.157	43241
769.492	43081.68
769.828	43158.74
770.164	42814.11
770.5	42655.47
770.836	42586.32
771.171	42395.82
771.507	42187.69
771.842	41993.8
772.178	42030.86
772.513	41849.17
772.849	41658.21
773.184	41645.11
773.519	41512.45
773.855	41370.76
774.19	41245.34
774.525	41101.84
774.86	40989.76
775.195	40759.25
775.53	40559.26
775.865	40436.32
776.2	40371.01
776.535	39978.71
776.87	39867.07
777.205	39801.99
777.539	39600.87
777.874	39560.87
778.209	39352.74
778.543	39322.45
778.878	39146.87
779.212	39030.26
779.547	38754.33
779.881	38749.59
780.215	38564.51
780.55	38589.37
780.884	38268.25
781.218	38080.68
781.552	38267.57
781.886	37923.62
782.22	37700.12
782.554	37558.89
782.888	37333.35
783.222	37272.79
783.556	37106.69
783.889	36974.49
784.223	36774.27
784.557	36674.16
784.89	36873.03
785.224	36499.03
785.557	36304
785.891	36181.97
786.224	36231.69
786.558	36093.16
786.891	35814.98
787.224	35677.58
787.557	35511.48
787.891	35471.03
788.224	35199.4
788.557	35292.28
788.89	35068.78
789.223	35075.79
789.556	34816.13
789.888	34858.17
790.221	34688.68
790.554	34400.55
790.887	34504.95
791.219	34298.18
791.552	34208.24
791.884	34035.14
792.217	33953.1
792.549	33835.82
792.882	33617.52
793.214	33418.66
793.546	33398.09
793.879	33233.58
794.211	33055.73
794.543	33173.69
794.875	33067.93
795.207	32948.61
795.539	32829.74
795.871	32885.79
796.203	32697.77
796.535	32434.05
796.867	32444.44
797.198	32274.73
797.53	32226.6
797.862	31894.85
798.193	32160.16
798.525	31909.54
798.856	31991.57
799.188	31560.85
799.519	31520.63
799.85	31329.22
800.182	31410.12
800.513	31395.88
800.844	30951.15
801.175	31326.73
801.506	31078.38
801.837	30951.6
802.168	30800.64
802.499	30984.82
802.83	30537.83
803.161	30423.93
803.491	30484.5
803.822	30552.06
804.153	30281.34
804.483	30073.66
804.814	29846.32
805.145	30044.73
805.475	30030.04
805.805	29810.84
806.136	29855.81
806.466	29678.64
806.796	29687.45
807.126	29608.36
807.457	29393.68
807.787	29455.82
808.117	29210.63
808.447	29212.44
808.777	29404.98
809.107	28957.76
809.436	28914.82
809.766	28913.01
810.096	28933.12
810.426	28877.53
810.755	28832.56
811.085	28603.64
811.414	28734.71
811.744	28375.62
812.073	28520.03
812.403	28355.06
812.732	28202.3
813.061	28283.2
813.39	28076.87
813.719	28039.14
814.049	28218.79
814.378	27930.21
814.707	27936.54
815.036	27860.61
815.365	27706.26
815.693	27596.89
816.022	27566.83
816.351	27432.15
816.68	27298.36
817.008	27300.17
817.337	27072.38
817.665	27146.96
817.994	27163
818.322	27288.65
818.651	27053.17
818.979	26885.95
819.307	27020.63
819.636	26893.63
819.964	26763.69
820.292	26951.03
820.62	26827.42
820.948	26753.97
821.276	26818.38
821.604	26788.55
821.932	26781.99
822.259	26840.52
822.587	26641.66
822.915	26612.28
823.243	26684.82
823.57	26575.22
823.898	26819.73
824.225	26809.56
824.553	26644.6
824.88	26769.34
825.207	26827.42
825.535	26599.17
825.862	26809.79
826.189	26669.91
826.516	26832.16
826.843	26863.35
827.17	26829.22
827.497	26810.47
827.824	26731.15
828.151	26938.6
828.478	26652.96
828.805	26856.57
829.131	26787.42
829.458	26714.2
829.785	26643.24
830.111	26730.24
830.438	26831.94
830.764	26613.86
831.09	26715.55
831.417	26601.21
831.743	26789.9
832.069	26680.08
832.395	26584.71
832.722	26688.21
833.048	26484.37
833.374	26703.58
833.7	26527.31
834.026	26574.32
834.351	26491.61
834.677	26603.02
835.003	26577.93
835.329	26527.54
835.654	26481.66
835.98	26315.34
836.306	26412.96
836.631	26333.87
836.956	26491.83
837.282	26355.56
837.607	26345.17
837.932	26306.53
838.258	26175.68
838.583	26206.42
838.908	25996.25
839.233	26111.5
839.558	25943.82
839.883	25930.49
840.208	25802.58
840.533	25980.21
840.858	25890.27
841.182	25954.44
841.507	25829.25
841.832	25697.05
842.156	25726.65
842.481	25705.64
842.805	25516.72
843.13	25508.81
843.454	25528.92
843.778	25403.05
844.103	25379.32
844.427	25359.21
844.751	25307.68
845.075	25189.27
845.399	25128.7
845.723	25077.18
846.047	24993.79
846.371	24896.39
846.695	24863.4
847.019	24653.91
847.343	24637.64
847.666	24455.5
847.99	24309.74
848.313	24365.79
848.637	24338.67
848.96	24215.06
849.284	24184.55
849.607	23934.84
849.931	23912.46
850.254	23741.17
850.577	23547.28
850.9	23481.06
851.223	23542.08
851.546	23460.72
851.869	23241.3
852.192	23503.21
852.515	23233.16
852.838	23000.4
853.161	23048.08
853.483	22891.47
853.806	22811.02
854.129	22747.3
854.451	22688.32
854.774	22607.87
855.096	22504.82
855.419	22423.01
855.741	22392.28
856.063	22301.43
856.385	22264.15
856.708	22149.57
857.03	22075.45
857.352	22085.62
857.674	21966.07
857.996	21839.07
858.318	21814.21
858.64	21891.5
858.961	21751.39
859.283	21618.29
859.605	21552.53
859.926	21523.83
860.248	21528.8
860.57	21414.9
860.891	21465.07
861.212	21290.84
861.534	21201.8
861.855	21152.09
862.176	21240.22
862.498	21272.53
862.819	21231.41
863.14	21120.67
863.461	21069.38
863.782	20934.92
864.103	21031.64
864.424	20831.42
864.745	20918.19
865.065	20747.8
865.386	20702.83
865.707	20741.47
866.027	20782.6
866.348	20722.72
866.668	20662.38
866.989	20610.63
867.309	20497.86
867.63	20395.04
867.95	20534.93
868.27	20383.29
868.59	20476.85
868.91	20415.38
869.23	20307.59
869.55	20265.33
869.87	20299.23
870.19	20234.14
870.51	20186.69
870.83	20128.61
871.15	20068.5
871.469	19957.09
871.789	20157.08
872.109	20001.61
872.428	19951.21
872.748	20043.19
873.067	19971.78
873.386	19873.25
873.706	19902.17
874.025	19873.93
874.344	19781.73
874.663	19809.3
874.982	19737.43
875.301	19710.77
875.62	19618.79
875.939	19564.33
876.258	19511.45
876.577	19520.26
876.896	19553.71
877.214	19486.59
877.533	19480.04
877.852	19422.87
878.17	19452.69
878.489	19408.18
878.807	19329.53
879.125	19339.93
879.444	19340.38
879.762	19242.3
880.08	19350.78
880.398	19068.98
880.716	19223.32
881.034	19130.9
881.352	19187.39
881.67	19053.16
881.988	19085.02
882.306	18997.34
882.624	18929.77
882.941	18836.89
883.259	18659.72
883.577	18710.34
883.894	18718.7
884.212	18699.95
884.529	18651.13
884.846	18627.86
885.164	18587.41
885.481	18517.8
885.798	18588.54
886.115	18458.37
886.432	18380.41
886.75	18251.6
887.067	18266.06
887.383	18186.74
887.7	18367.3
888.017	18170.02
888.334	18128.66
888.651	18110.81
888.967	18091.83
889.284	17932.28
889.6	17871.04
889.917	17832.62
890.233	17797.37
890.55	17730.71
890.866	17695.45
891.182	17747.2
891.498	17660.43
891.815	17646.41
892.131	17517.6
892.447	17490.94
892.763	17301.11
893.079	17349.7
893.395	17280.77
893.71	17266.54
894.026	17230.38
894.342	17243.49
894.657	17094.11
894.973	17135.02
895.289	17008.47
895.604	16948.81
895.92	16804.4
896.235	16837.17
896.55	16834.91
896.865	16617.06
897.181	16726.89
897.496	16592.2
897.811	16603.5
898.126	16581.13
898.441	16450.29
898.756	16391.08
899.071	16304.08
899.386	16312.21
899.7	16181.14
900.015	16072.9
900.33	15990.86
900.644	16013.69
900.959	15999.45
901.273	15843.3
901.588	15846.91
901.902	15788.84
902.216	15679.46
902.531	15701.38
902.845	15683.3
903.159	15471.56
903.473	15514.04
903.787	15402.63
904.101	15307.04
904.415	15381.16
904.729	15293.93
905.042	15286.93
905.356	15133.03
905.67	15160.15
905.984	15128.51
906.297	15125.12
906.611	14968.74
906.924	14967.39
907.237	14915.19
907.551	14795.64
907.864	14706.15
908.177	14653.27
908.491	14629.54
908.804	14572.15
909.117	14499.15
909.43	14453.73
909.743	14438.59
910.056	14365.6
910.368	14300.74
910.681	14197.47
910.994	14145.49
911.307	14026.62
911.619	13990.69
911.932	14123.12
912.244	13919.05
912.557	13881.54
912.869	13767.87
913.181	13714.09
913.494	13694.2
913.806	13551.38
914.118	13574.43
914.43	13468.9
914.742	13516.35
915.054	13456.47
915.366	13416.24
915.678	13334.89
915.99	13307.55
916.302	13090.15
916.613	13090.38
916.925	13029.81
917.236	13012.64
917.548	12908.69
917.859	12939.65
918.171	12864.39
918.482	12797.5
918.794	12772.19
919.105	12641.8
919.416	12614
919.727	12525.65
920.038	12571.52
920.349	12464.4
920.66	12407.23
920.971	12314.58
921.282	12290.4
921.593	12305.31
921.903	12224.64
922.214	12170.63
922.525	12105.09
922.835	12085.2
923.146	11968.6
923.456	11929.05
923.767	11919.33
924.077	11828.49
924.387	11823.29
924.697	11741.26
925.008	11711.2
925.318	11576.07
925.628	11600.7
925.938	11584.43
926.248	11410.65
926.558	11338.56
926.867	11389.63
927.177	11373.59
927.487	11279.12
927.796	11276.64
928.106	11205
928.416	11089.98
928.725	11099.69
929.034	11060.82
929.344	11077.55
929.653	10995.06
929.962	10820.83
930.271	10884.78
930.581	10773.37
930.89	10690.67
931.199	10677.11
931.508	10651.34
931.817	10666.94
932.125	10618.8
932.434	10590.33
932.743	10461.29
933.051	10433.5
933.36	10398.7
933.669	10353.95
933.977	10309.66
934.286	10272.37
934.594	10234.63
934.902	10130.23
935.21	10104.24
935.519	10134.97
935.827	10059.72
936.135	9962.77
936.443	9951.48
936.751	9822.44
937.059	9920.74
937.367	9802.33
937.674	9775.44
937.982	9709.67
938.29	9673.29
938.597	9734.08
938.905	9605.04
939.213	9551.26
939.52	9561.66
939.827	9521.88
940.135	9506.06
940.442	9456.12
940.749	9385.39
941.056	9384.71
941.363	9201.44
941.67	9181.55
941.977	9196.92
942.284	9087.32
942.591	9137.26
942.898	9052.29
943.205	9030.14
943.511	8996.7
943.818	8989.92
944.125	8866.98
944.431	8822.69
944.738	8839.87
945.044	8763.26
945.35	8715.35
945.657	8661.11
945.963	8685.75
946.269	8636.71
946.575	8650.94
946.881	8557.84
947.187	8517.84
947.493	8485.98
947.799	8454.57
948.105	8407.11
948.41	8409.6
948.716	8383.61
949.022	8284.17
949.327	8322.37
949.633	8154.23
949.938	8214.12
950.244	8139.32
950.549	8132.99
950.854	8040.79
951.16	8015.48
951.465	7992.43
951.77	7931.64
952.075	7902.26
952.38	7921.25
952.685	7911.3
952.99	7775.04
953.294	7766.67
953.599	7731.2
953.904	7747.47
954.209	7660.69
954.513	7677.64
954.818	7630.86
955.122	7576.62
955.426	7544.08
955.731	7498.88
956.035	7459.11
956.339	7440.81
956.643	7428.83
956.948	7414.37
957.252	7354.71
957.556	7337.76
957.86	7300.47
958.163	7274.26
958.467	7237.87
958.771	7237.87
959.075	7144.32
959.378	7114.26
959.682	7178.22
959.985	7055.96
960.289	7029.07
960.592	7005.34
960.896	6924.66
961.199	6917.43
961.502	6923.53
961.805	6881.05
962.108	6836.53
962.411	6868.84
962.714	6767.15
963.017	6742.07
963.32	6797.89
963.623	6699.36
963.926	6648.51
964.228	6592.92
964.531	6591.79
964.833	6578.23
965.136	6498.23
965.438	6545.01
965.741	6460.04
966.043	6433.38
966.345	6454.84
966.648	6359.71
966.95	6378.69
967.252	6373.26
967.554	6345.69
967.856	6282.19
968.158	6264.11
968.46	6258.01
968.761	6224.79
969.063	6210.78
969.365	6148.86
969.666	6052.6
969.968	6051.69
970.269	6046.27
970.571	6038.58
970.872	6004.01
971.174	6041.75
971.475	5953.84
971.776	5903.22
972.077	5878.36
972.378	5840.4
972.679	5835.43
972.98	5841.3
973.281	5761.08
973.582	5723.11
973.883	5735.54
974.183	5644.47
974.484	5638.37
974.785	5641.08
975.085	5584.81
975.386	5603.79
975.686	5544.13
975.986	5568.31
976.287	5514.76
976.587	5402.67
976.887	5485.38
977.187	5495.32
977.487	5451.25
977.787	5393.63
978.087	5373.97
978.387	5354.76
978.687	5345.95
978.987	5257.14
979.286	5248.55
979.586	5245.38
979.885	5216.68
980.185	5197.25
980.484	5220.07
980.784	5118.38
981.083	5154.31
981.382	5125.16
981.682	5086.29
981.981	5058.95
982.28	5025.96
982.579	5007.42
982.878	5012.62
983.177	4982.79
983.475	4974.88
983.774	4899.18
984.073	4922
984.372	4842.23
984.67	4847.43
984.969	4825.73
985.267	4801.78
985.566	4764.72
985.864	4835.9
986.162	4760.2
986.461	4757.49
986.759	4688.79
987.057	4670.03
987.355	4596.59
987.653	4586.42
987.951	4552.52
988.249	4565.63
988.547	4536.7
988.844	4559.53
989.142	4550.04
989.44	4496.7
989.737	4466.42
990.035	4470.72
990.332	4442.69
990.63	4415.35
990.927	4393.2
991.224	4401.34
991.521	4323.83
991.819	4299.65
992.116	4274.56
992.413	4263.49
992.71	4282.7
993.006	4224.85
993.303	4202.47
993.6	4184.85
993.897	4209.48
994.193	4142.36
994.49	4159.76
994.787	4126.09
995.083	4075.25
995.379	4049.26
995.676	4065.53
995.972	4022.14
996.268	4050.39
996.565	3966.55
996.861	3972.88
997.157	3991.63
997.453	3934.91
997.749	3879.32
998.044	3886.55
998.34	3843.39
998.636	3849.04
998.932	3770.85
999.227	3798.42
999.523	3792.77
999.818	3762.49
1000.114	3679.55
1000.409	3719.55
1000.704	3678.87
1001	3693.11
1001.295	3632.55
1001.59	3650.62
1001.885	3628.48
1002.18	3595.71
1002.475	3548.03
1002.77	3553.9
1003.065	3510.74
1003.359	3505.32
1003.654	3497.18
1003.949	3470.97
1004.243	3432.1
1004.538	3413.79
1004.832	3429.16
1005.127	3408.14
1005.421	3389.61
1005.715	3341.03
1006.009	3310.75
1006.304	3316.17
1006.598	3258.54
1006.892	3263.97
1007.186	3255.83
1007.48	3242.27
1007.773	3183.74
1008.067	3224.42
1008.361	3160.02
1008.655	3137.19
1008.948	3150.07
1009.242	3132.9
1009.535	3075.05
1009.829	3063.07
1010.122	3031.43
1010.415	3058.32
1010.708	3031.66
1011.001	3001.6
1011.295	2983.52
1011.588	2960.25
1011.881	2960.92
1012.173	2880.7
1012.466	2870.98
1012.759	2888.61
1013.052	2878.67
1013.344	2863.75
1013.637	2834.37
1013.93	2809.29
1014.222	2788.27
1014.514	2811.32
1014.807	2729.74
1015.099	2708.5
1015.391	2703.3
1015.683	2679.12
1015.976	2701.04
1016.268	2684.32
1016.56	2655.4
1016.851	2649.75
1017.143	2611.56
1017.435	2614.04
1017.727	2580.82
1018.018	2583.31
1018.31	2574.72
1018.602	2529.3
1018.893	2512.12
1019.185	2489.75
1019.476	2472.35
1019.767	2478
1020.058	2418.79
1020.35	2427.61
1020.641	2442.29
1020.932	2374.05
1021.223	2390.77
1021.514	2379.25
1021.804	2331.56
1022.095	2313.03
1022.386	2307.38
1022.677	2295.41
1022.967	2299.7
1023.258	2293.37
1023.548	2222.19
1023.839	2215.18
1024.129	2204.79
1024.419	2229.64
1024.709	2185.58
1025	2167.05
1025.29	2161.85
1025.58	2132.25
1025.87	2120.04
1026.16	2076.88
1026.449	2097.9
1026.739	2053.15
1027.029	2057.67
1027.319	2033.27
1027.608	2050.67
1027.898	2037.56
1028.187	1967.73
1028.477	1993.04
1028.766	1979.93
1029.055	1960.5
1029.344	1939.03
1029.634	1937.45
1029.923	1883.67
1030.212	1919.37
1030.501	1897.22
1030.79	1881.63
1031.078	1870.78
1031.367	1849.54
1031.656	1822.65
1031.945	1854.74
1032.233	1786.49
1032.522	1774.74
1032.81	1783.33
1033.099	1775.65
1033.387	1776.32
1033.675	1743.1
1033.963	1718.47
1034.251	1709.43
1034.54	1705.59
1034.828	1656.1
1035.116	1672.82
1035.403	1699.26
1035.691	1672.37
1035.979	1668.98
1036.267	1660.85
1036.554	1611.81
1036.842	1598.93
1037.129	1636.67
1037.417	1596.44
1037.704	1598.7
1037.992	1556.67
1038.279	1556.22
1038.566	1533.17
1038.853	1533.17
1039.14	1533.17
