Data from 14-0852_FLMS001491_007.txt Node
Date: Thu Apr 12 17:07:14 BST 2018
User: hsy
Spectrometer: FLMS00149
Trigger mode: 0
Integration Time (sec): 1.000000E-2
Scans to average: 10
Electric dark correction enabled: true
Nonlinearity correction enabled: false
Boxcar width: 0
XAxis mode: Wavelengths
Number of Pixels in Spectrum: 2048
>>>>>Begin Spectral Data<<<<<
341.393	0.13
341.776	0.13
342.16	0.13
342.543	-48.01
342.927	-59.53
343.31	-68.35
343.693	-72.41
344.077	-55.01
344.46	-68.12
344.843	-42.13
345.226	-34
345.61	-30.83
345.993	-24.05
346.376	-13.43
346.759	12.78
347.142	17.53
347.525	58.66
347.908	41.93
348.291	72.44
348.674	71.54
349.057	133.46
349.44	151.99
349.823	148.37
350.206	197.18
350.588	250.06
350.971	267.24
351.354	257.97
351.737	284.41
352.119	295.49
352.502	309.95
352.884	306.11
353.267	335.71
353.65	333.23
354.032	354.47
354.414	353.34
354.797	333.68
355.179	352.66
355.562	345.2
355.944	360.34
356.326	397.86
356.709	404.64
357.091	405.09
357.473	400.12
357.855	389.5
358.238	398.99
358.62	398.53
359.002	365.54
359.384	403.51
359.766	386.11
360.148	403.05
360.53	380.23
360.912	399.44
361.294	408.93
361.676	380.91
362.057	380.23
362.439	392.66
362.821	381.36
363.203	411.19
363.584	385.43
363.966	356.05
364.348	391.76
364.729	386.78
365.111	382.94
365.493	356.05
365.874	390.85
366.256	381.13
366.637	386.56
367.019	380.23
367.4	369.16
367.781	361.02
368.163	387.01
368.544	375.94
368.925	368.48
369.306	382.49
369.688	384.07
370.069	392.43
370.45	366.67
370.831	377.74
371.212	376.39
371.593	391.98
371.974	360.57
372.355	378.65
372.736	404.86
373.117	375.94
373.498	382.49
373.879	375.94
374.26	373.22
374.641	397.18
375.021	384.3
375.402	395.6
375.783	412.77
376.163	405.54
376.544	412.55
376.925	405.31
377.305	394.69
377.686	413
378.066	407.57
378.447	416.61
378.827	421.13
379.208	434.24
379.588	412.32
379.968	413
380.349	442.83
380.729	409.83
381.109	426.33
381.489	408.03
381.87	429.49
382.25	437.86
382.63	411.64
383.01	435.37
383.39	437.63
383.77	427.69
384.15	420.46
384.53	427.91
384.91	438.08
385.29	460.23
385.67	450.06
386.049	441.47
386.429	442.38
386.809	449.83
387.189	463.62
387.568	463.17
387.948	464.75
388.328	471.75
388.707	451.41
389.087	450.74
389.466	462.04
389.846	483.5
390.225	505.88
390.605	475.59
390.984	474.46
391.363	483.96
391.743	486.89
392.122	476.05
392.501	497.06
392.881	494.58
393.26	495.71
393.639	488.02
394.018	511.07
394.397	497.74
394.776	511.3
395.155	503.16
395.534	508.81
395.913	507.01
396.292	509.72
396.671	505.65
397.05	544.97
397.429	520.11
397.808	496.84
398.186	517.4
398.565	559.89
398.944	526.44
399.323	539.1
399.701	555.14
400.08	542.71
400.458	557.4
400.837	572.54
401.215	553.56
401.594	580.45
401.972	549.49
402.351	554.69
402.729	562.37
403.107	568.25
403.486	570.06
403.864	584.52
404.242	598.98
404.62	599.43
404.999	597.85
405.377	597.4
405.755	603.73
406.133	585.42
406.511	619.09
406.889	610.96
407.267	639.66
407.645	616.83
408.023	627
408.401	625.87
408.779	621.13
409.156	647.34
409.534	650.73
409.912	660.67
410.29	662.48
410.667	662.71
411.045	688.24
411.422	699.32
411.8	685.08
412.178	691.86
412.555	681.01
412.933	715.81
413.31	715.14
413.687	703.84
414.065	707.91
414.442	711.52
414.819	744.74
415.197	762.82
415.574	738.86
415.951	737.51
416.328	746.77
416.705	748.58
417.082	761.69
417.46	765.08
417.837	794
418.214	776.15
418.591	789.71
418.967	798.3
419.344	791.29
419.721	796.04
420.098	815.02
420.475	807.56
420.852	820.9
421.228	826.09
421.605	824.51
421.982	825.42
422.358	836.72
422.735	853.66
423.111	842.14
423.488	852.99
423.864	871.97
424.241	867.22
424.617	858.86
424.994	849.37
425.37	867.9
425.746	894.57
426.123	875.58
426.499	925.07
426.875	921.23
427.251	946.09
427.627	930.72
428.003	932.76
428.379	936.83
428.756	958.52
429.132	966.2
429.507	959.65
429.883	979.54
430.259	992.42
430.635	1008.01
431.011	1009.82
431.387	1021.34
431.763	1042.59
432.138	1042.36
432.514	1058.18
432.89	1072.42
433.265	1083.71
433.641	1092.08
434.016	1088.23
434.392	1080.1
434.767	1113.32
435.143	1106.31
435.518	1125.3
435.894	1143.15
436.269	1128.23
436.644	1154
437.02	1178.85
437.395	1157.84
437.77	1174.33
438.145	1189.25
438.52	1206.65
438.895	1218.4
439.271	1212.07
439.646	1228.34
440.021	1218.63
440.395	1245.52
440.77	1232.64
441.145	1250.94
441.52	1252.98
441.895	1252.3
442.27	1250.94
442.645	1269.02
443.019	1303.37
443.394	1307.89
443.769	1312.86
444.143	1270.83
444.518	1320.77
444.892	1286.42
445.267	1311.51
445.641	1325.29
446.016	1367.55
446.39	1340.43
446.764	1354.89
447.139	1337.49
447.513	1361.9
447.887	1396.02
448.262	1393.99
448.636	1381.56
449.01	1413.88
449.384	1445.51
449.758	1427.43
450.132	1424.72
450.506	1444.83
450.88	1473.08
451.254	1452.97
451.628	1489.13
452.002	1479.64
452.376	1509.47
452.75	1515.57
453.123	1492.07
453.497	1571.39
453.871	1553.76
454.244	1609.12
454.618	1590.82
454.992	1634.43
455.365	1642.12
455.739	1671.04
456.112	1678.05
456.486	1689.35
456.859	1698.16
457.232	1743.81
457.606	1717.82
457.979	1758.27
458.352	1811.83
458.725	1824.26
459.099	1806.41
459.472	1857.25
459.845	1860.19
460.218	1864.03
460.591	1888.67
460.964	1951.71
461.337	1944.03
461.71	2005.27
462.083	2000.07
462.456	2026.51
462.829	2036.01
463.201	2072.39
463.574	2064.48
463.947	2091.82
464.32	2136.57
464.692	2182.22
465.065	2142.67
465.438	2176.34
465.81	2229.45
466.183	2196.45
466.555	2267.64
466.928	2282.55
467.3	2302.44
467.672	2310.12
468.045	2366.17
468.417	2382.44
468.789	2380.18
469.161	2388.76
469.534	2470.34
469.906	2473.06
470.278	2517.35
470.65	2558.7
471.022	2595.09
471.394	2570.23
471.766	2635.31
472.138	2667.18
472.51	2737.91
472.882	2762.54
473.253	2798.25
473.625	2825.59
473.997	2877.34
474.369	2927.73
474.74	2947.62
475.112	2969.54
475.484	3048.18
475.855	3069.65
476.227	3164.56
476.598	3244.11
476.97	3241.4
477.341	3282.07
477.713	3327.05
478.084	3422.41
478.455	3476.19
478.827	3492.01
479.198	3593.03
479.569	3623.76
479.94	3747.37
480.311	3769.52
480.682	3842.96
481.053	3975.16
481.424	4024.2
481.795	4056.74
482.166	4097.42
482.537	4169.06
482.908	4339.67
483.279	4376.74
483.65	4453.34
484.021	4581.02
484.391	4654.92
484.762	4682.49
485.133	4770.85
485.503	4905.99
485.874	4928.36
486.244	5080.22
486.615	5181.91
486.985	5310.95
487.356	5418.29
487.726	5460.77
488.097	5649.47
488.467	5738.73
488.837	5852.4
489.207	5965.85
489.578	6073.19
489.948	6269.11
490.318	6336.68
490.688	6433.4
491.058	6552.5
491.428	6747.29
491.798	6815.09
492.168	7052.37
492.538	7127.62
492.908	7290.56
493.278	7498.01
493.648	7602.19
494.017	7786.36
494.387	7909.52
494.757	8083.53
495.126	8214.6
495.496	8372.56
495.866	8628.83
496.235	8808.26
496.605	8952.89
496.974	9142.94
497.344	9302.71
497.713	9453.66
498.082	9690.95
498.452	9828.12
498.821	10071.95
499.19	10202.12
499.559	10364.15
499.928	10639.4
500.298	10800.97
500.667	11024.02
501.036	11208.65
501.405	11478.92
501.774	11539.48
502.143	11733.83
502.512	12075.29
502.88	12319.58
503.249	12448.61
503.618	12736.52
503.987	12874.82
504.356	13140.57
504.724	13311.64
505.093	13572.2
505.462	13774.45
505.83	14002.7
506.199	14238.4
506.567	14514.55
506.936	14712.73
507.304	14950.02
507.672	15194.08
508.041	15394.98
508.409	15602.2
508.777	15865.7
509.145	16182.3
509.514	16356.99
509.882	16546.58
510.25	16755.17
510.618	17141.82
510.986	17228.83
511.354	17388.14
511.722	17768.47
512.09	18000.56
512.458	18133.21
512.826	18411.85
513.193	18563.93
513.561	18771.61
513.929	18995.11
514.297	19263.12
514.664	19416.57
515.032	19774.3
515.4	19884.35
515.767	20091.8
516.135	20301.06
516.502	20357.33
516.869	20762.75
517.237	21008.16
517.604	21037.99
517.972	21464.42
518.339	21542.16
518.706	21814.69
519.073	21901.47
519.44	22098.08
519.808	22412.65
520.175	22511.63
520.542	22733.54
520.909	22965.4
521.276	23166.52
521.643	23459.4
522.009	23599.51
522.376	23934.19
522.743	24085.14
523.11	24437.68
523.477	24693.26
523.843	24807.38
524.21	25127.15
524.577	25500.02
524.943	25611.66
525.31	25721.48
525.676	26156.95
526.043	26290.51
526.409	26456.38
526.776	26844.17
527.142	26881.45
527.508	27184.72
527.874	27405.73
528.241	27529.57
528.607	27703.58
528.973	28114.42
529.339	28085.04
529.705	28493.62
530.071	28737.22
530.437	28876.2
530.803	29175.86
531.169	29313.71
531.535	29415.85
531.901	29499.69
532.267	29713.7
532.632	29987.81
532.998	30228.94
533.364	30400.46
533.73	30537.18
534.095	30809.03
534.461	30836.6
534.826	30962.48
535.192	31223.71
535.557	31413.99
535.923	31450.6
536.288	31585.06
536.653	31826.86
537.019	31710.25
537.384	32089
537.749	32106.63
538.114	32374.19
538.479	32145.72
538.845	32464.36
539.21	32463.91
539.575	32629.55
539.94	32762.66
540.305	33047.17
540.67	33015.76
541.034	33227.73
541.399	33185.24
541.764	33362.87
542.129	33607.83
542.494	33665.91
542.858	33833.14
543.223	33676.08
543.587	34089.17
543.952	34036.52
544.316	34255.95
544.681	34095.95
545.045	34357.64
545.41	34567.13
545.774	34605.54
546.138	34633.11
546.503	34850.74
546.867	34921.24
547.231	35219.09
547.595	35255.7
547.959	35377.95
548.324	35409.82
548.688	35499.76
549.052	35692.07
549.416	35718.51
549.779	35795.57
550.143	36015.68
550.507	36289.79
550.871	36240.53
551.235	36216.35
551.599	36548.77
551.962	36533.18
552.326	36646.62
552.689	36776.79
553.053	36748.09
553.417	36930.68
553.78	37336.55
554.143	37296.77
554.507	37386.26
554.87	37524.56
555.234	37989.64
555.597	37765.24
555.96	37940.37
556.323	38138.11
556.686	38200.93
557.05	38449.51
557.413	38547.59
557.776	38605.21
558.139	38961.59
558.502	38977.41
558.865	39185.99
559.228	39589.37
559.59	39443.38
559.953	39770.83
560.316	40053.99
560.679	40151.84
561.041	40324.49
561.404	40547.31
561.767	40696.46
562.129	40707.08
562.492	40908.2
562.854	41064.58
563.217	41093.51
563.579	41261.87
563.941	41487.62
564.304	41579.15
564.666	41922.87
565.028	42003.54
565.39	42193.59
565.753	42402.18
566.115	42481.5
566.477	42721.04
566.839	42885.1
567.201	43233.11
567.563	43221.36
567.925	43483.96
568.287	43513.79
568.648	43737.73
569.01	44080.1
569.372	44376.36
569.734	44299.75
570.095	44710.82
570.457	44851.83
570.819	44859.96
571.18	44868.33
571.542	45482.77
571.903	45273.29
572.265	45483.22
572.626	45762.54
572.987	45823.56
573.349	46065.81
573.71	46076.2
574.071	46444.56
574.432	46560.03
574.794	46899.23
575.155	46927.93
575.516	46986.69
575.877	47192.33
576.238	47389.84
576.599	47671.64
576.96	47537.18
577.32	47734.47
577.681	47899.88
578.042	48270.5
578.403	48195.7
578.763	48302.13
579.124	48457.16
579.485	48772.86
579.845	48861.22
580.206	48828.22
580.566	48987.54
580.927	49103.47
581.287	49469.79
581.648	49321.09
582.008	49553.4
582.368	49662.1
582.728	49724.7
583.089	49788.2
583.449	50032.48
583.809	50089.21
584.169	50264.79
584.529	50281.74
584.889	50721.73
585.249	50505.92
585.609	50502.53
585.969	50866.13
586.329	50900.94
586.688	51080.59
587.048	51197.65
587.408	51281.26
587.768	51353.58
588.127	51457.08
588.487	51537.98
588.846	51961.02
589.206	51792.66
589.565	51929.38
589.925	52307.45
590.284	52292.54
590.643	52412.53
591.003	52546.54
591.362	52812.75
591.721	52816.82
592.08	52959.64
592.44	53117.83
592.799	53174.77
593.158	53277.82
593.517	53336.13
593.876	53531.37
594.235	53576.8
594.593	53675.33
594.952	53840.97
595.311	53876.68
595.67	54075.32
596.029	54278.7
596.387	54346.04
596.746	54554.85
597.104	54495.42
597.463	54634.85
597.822	54888.63
598.18	54887.05
598.538	54930.89
598.897	55251.78
599.255	55043.43
599.613	55484.32
599.972	55420.36
600.33	55526.12
600.688	55586.24
601.046	55658.55
601.404	55882.27
601.762	55935.15
602.12	56160.46
602.478	56130.18
602.836	56261.92
603.194	56139.22
603.552	56411.07
603.91	56357.52
604.268	56577.62
604.625	56605.87
604.983	56736.26
605.341	56689.48
605.698	56956.37
606.056	57143.94
606.413	57047.89
606.771	57283.14
607.128	57262.58
607.485	57282.69
607.843	57391.84
608.2	57539.63
608.557	57659.63
608.914	57579.86
609.272	57793.64
609.629	57910.24
609.986	57987.75
610.343	57937.13
610.7	58193.63
611.057	58134.87
611.414	58273.85
611.771	58347.07
612.127	58438.14
612.484	58511.36
612.841	58572.82
613.198	58525.14
613.554	58592.48
613.911	58813.27
614.267	58831.8
614.624	58835.42
614.98	58950.89
615.337	59093.26
615.693	59086.03
616.05	59111.57
616.406	59271.11
616.762	59253.94
617.118	59328.96
617.475	59342.75
617.831	59475.63
618.187	59517.21
618.543	59586.13
618.899	59715.17
619.255	59642.17
619.611	59622.97
619.967	59828.38
620.323	59860.25
620.678	59878.78
621.034	59809.63
621.39	59783.87
621.746	59820.25
622.101	60103.86
622.457	59915.84
622.812	60034.71
623.168	60055.05
623.523	60101.15
623.879	60164.42
624.234	59995.39
624.589	60131.43
624.945	60117.64
625.3	60252.55
625.655	60187.92
626.01	60279.22
626.365	60338.43
626.72	60267.69
627.075	60280.58
627.43	60300.91
627.785	60252.1
628.14	60314.93
628.495	60313.8
628.85	60333.46
629.205	60307.47
629.559	60414.81
629.914	60262.27
630.269	60316.06
630.623	60216.4
630.978	60174.59
631.332	60334.13
631.687	60312.44
632.041	60302.5
632.396	60246.9
632.75	60220.46
633.104	60237.41
633.459	60190.86
633.813	60165.78
634.167	60156.96
634.521	60150.86
634.875	60217.53
635.229	60156.96
635.583	59982.73
635.937	60046.68
636.291	60033.35
636.645	60078.32
636.999	59939.34
637.352	60024.31
637.706	59862.96
638.06	59999.68
638.413	59865.9
638.767	59776.86
639.121	59864.99
639.474	59738.22
639.828	59712.68
640.181	59724.43
640.534	59787.03
640.888	59735.28
641.241	59573.02
641.594	59626.81
641.947	59733.47
642.301	59618.9
642.654	59623.87
643.007	59563.98
643.36	59581.61
643.713	59494.38
644.066	59636.07
644.419	59470.65
644.771	59166.03
645.124	58975.07
645.477	58942.76
645.83	58845.13
646.182	58802.65
646.535	58780.05
646.888	58832.7
647.24	58784.57
647.593	58876.55
647.945	58782.54
648.298	58730.11
648.65	58630.22
649.002	58480.62
649.355	58409.44
649.707	58365.82
650.059	58382.77
650.411	58719.04
650.763	58799.71
651.115	59185.92
651.467	59015.52
651.819	59126.71
652.171	59027.73
652.523	58944.11
652.875	58978.46
653.227	58836.32
653.578	59068.63
653.93	58914.28
654.282	58803.33
654.633	58875.42
654.985	58826.83
655.337	58795.87
655.688	58811.91
656.039	58830.67
656.391	58652.82
656.742	58706.61
657.094	58741.18
657.445	58715.65
657.796	58700.5
658.147	58631.13
658.498	58634.74
658.849	58671.8
659.2	58590.9
659.551	58575.76
659.902	58652.82
660.253	58564.24
660.604	58622.09
660.955	58454.64
661.306	58618.25
661.656	58460.74
662.007	58472.94
662.358	58516.1
662.708	58428.42
663.059	58399.95
663.409	58282.44
663.76	58457.8
664.11	58374.64
664.461	58458.48
664.811	58463.45
665.161	58450.79
665.511	58291.48
665.862	58349.78
666.212	58396.56
666.562	58377.8
666.912	58373.06
667.262	58297.8
667.612	58260.06
667.962	58313.85
668.312	58290.57
668.662	58367.41
669.011	58305.94
669.361	58260.52
669.711	58326.28
670.06	58171.48
670.41	58176.68
670.76	58147.75
671.109	58284.47
671.459	58189.11
671.808	58165.6
672.157	58259.39
672.507	58100.29
672.856	58085.83
673.205	58191.14
673.554	58290.57
673.904	58108.2
674.253	58302.1
674.602	58079.96
674.951	57820.98
675.3	57642
675.649	58091.03
675.998	58097.36
676.346	58097.13
676.695	58129.67
677.044	57958.38
677.393	58044.48
677.741	58132.38
678.09	58002.22
678.438	57944.14
678.787	57994.76
679.135	57979.17
679.484	57892.84
679.832	57935.78
680.181	57858.94
680.529	57893.75
680.877	57842.9
681.225	57776.01
681.573	58089.9
681.922	57809.23
682.27	57791.83
682.618	57831.83
682.966	57677.71
683.314	57760.87
683.661	57736.91
684.009	57689.68
684.357	57617.14
684.705	57525.39
685.053	57581.89
685.4	57479.52
685.748	57419.41
686.095	57456.02
686.443	57311.16
686.79	57306.42
687.138	57412.85
687.485	57413.31
687.832	57237.72
688.18	57335.34
688.527	57193.65
688.874	57270.49
689.221	57185.29
689.568	57115.91
689.915	56997.27
690.262	57054.22
690.609	56972.41
690.956	56917.05
691.303	56917.73
691.65	56795.47
691.997	56741.46
692.344	56606.32
692.69	56578.53
693.037	56631.86
693.383	56369.27
693.73	56465.54
694.077	56351.64
694.423	56327.46
694.769	56206.11
695.116	56277.74
695.462	56068.94
695.808	56034.81
696.155	56166.56
696.501	55873.46
696.847	56010.63
697.193	55794.59
697.539	55825.1
697.885	55621.49
698.231	55597.76
698.577	55609.96
698.923	55575.84
699.269	55327.94
699.614	55259.69
699.96	55275.28
700.306	55222.86
700.651	55098.34
700.997	55093.37
701.342	54991
701.688	54931.79
702.033	54862.87
702.379	54826.48
702.724	54629.65
703.069	54747.39
703.415	54487.51
703.76	54460.39
704.105	54410.45
704.45	54433.95
704.795	54268.76
705.14	54153.96
705.485	54123.22
705.83	54013.62
706.175	54045.49
706.52	53968.65
706.865	53771.59
707.209	53790.13
707.554	53728.66
707.899	53698.15
708.243	53513.52
708.588	53596.91
708.932	53440.3
709.277	53412.96
709.621	53298.39
709.966	53147.88
710.31	53205.06
710.654	52998.51
710.998	53164.6
711.342	53040.09
711.687	53004.84
712.031	52858.4
712.375	52726.2
712.719	52707.89
713.063	52592.64
713.407	52746.31
713.75	52539.99
714.094	52593.77
714.438	52380.67
714.782	52427
715.125	52364.17
715.469	52433.55
715.812	52158.08
716.156	52053.45
716.499	52102.26
716.843	52118.98
717.186	52036.27
717.53	52107.46
717.873	52099.32
718.216	51914.69
718.559	51813.68
718.902	51581.37
719.246	51650.52
719.589	51546.79
719.932	51477.19
720.275	51471.09
720.617	51464.31
720.96	51341.15
721.303	51403.97
721.646	51331.66
721.989	51164.21
722.331	51200.81
722.674	51253.24
723.016	51077.43
723.359	50979.8
723.701	51097.99
724.044	50817.1
724.386	50761.73
724.729	50936.41
725.071	50940.26
725.413	50661.85
725.755	50621.85
726.097	50577.1
726.439	50478.12
726.782	50411.46
727.124	50538.01
727.465	50348.63
727.807	50261.63
728.149	50357.67
728.491	50159.03
728.833	50293.49
729.175	50318.8
729.516	50069.77
729.858	50060.73
730.199	50046.27
730.541	50069.09
730.882	49770.8
731.224	49956.33
731.565	49726.05
731.906	49740.74
732.248	49901.19
732.589	49580.74
732.93	49528.54
733.271	49571.93
733.612	49487.64
733.953	49538.26
734.294	49409
734.635	49329.45
734.976	49458.26
735.317	49225.95
735.658	49204.94
735.999	49222.34
736.339	49106.18
736.68	49261.88
737.021	49131.04
737.361	49039.97
737.702	49240.64
738.042	49003.58
738.383	49057.82
738.723	49057.14
739.063	48804.04
739.404	48869.8
739.744	48771.95
740.084	48597.72
740.424	48686.3
740.764	48597.72
741.104	48714.1
741.444	48408.8
741.784	48399.31
742.124	48511.62
742.464	48421.23
742.804	48225.53
743.143	48313.43
743.483	48352.08
743.823	48189.37
744.162	48102.59
744.502	48084.06
744.841	48072.54
745.181	48133.78
745.52	47924.06
745.86	48022.37
746.199	47872.09
746.538	47921.58
746.877	47979.66
747.216	47901.01
747.556	47736.27
747.895	47828.25
748.234	47654.47
748.573	47613.79
748.911	47563.85
749.25	47484.75
749.589	47327.92
749.928	47435.72
750.267	47396.4
750.605	47351.2
750.944	47204.99
751.283	47114.14
751.621	47198.43
751.96	46975.39
752.298	46925.9
752.636	47074.82
752.975	46889.06
753.313	46493.59
753.651	46812.23
753.989	46599.58
754.327	46556.19
754.666	46160.5
755.004	46405.91
755.342	46374.27
755.679	46285.92
756.017	45858.13
756.355	46158.24
756.693	45888.19
757.031	46027.84
757.368	45734.07
757.706	45678.47
758.044	45505.82
758.381	45605.71
758.719	45399.16
759.056	45455.43
759.394	45341.08
759.731	44978.83
760.068	45094.08
760.405	44930.25
760.743	44729.35
761.08	44763.02
761.417	44488
761.754	44448.22
762.091	44348.57
762.428	44181.11
762.765	44005.3
763.102	44054.11
763.438	43980.67
763.775	43743.38
764.112	43694.12
764.449	43598.53
764.785	43542.03
765.122	43243.06
765.458	43019.33
765.795	42919.9
766.131	43006.23
766.467	42862.73
766.804	42558.1
767.14	42521.72
767.476	42407.6
767.812	42323.76
768.148	42257.32
768.485	42114.27
768.821	41850.33
769.157	41731.69
769.492	41827.95
769.828	41644
770.164	41278.82
770.5	41373.95
770.836	41142.1
771.171	41003.79
771.507	40842.9
771.842	40626.4
772.178	40515.22
772.513	40393.42
772.849	40230.48
773.184	40206.98
773.519	40094.67
773.855	39840.89
774.19	39793.43
774.525	39612.87
774.86	39514.79
775.195	39422.37
775.53	39285.2
775.865	38919.56
776.2	38756.62
776.535	38650.18
776.87	38519.34
777.205	38386.91
777.539	38281.83
777.874	38330.42
778.209	38056.08
778.543	38117.99
778.878	37645.92
779.212	37724.11
779.547	37348.98
779.881	37526.37
780.215	37178.13
780.55	37302.42
780.884	36915.09
781.218	36969.78
781.552	36807.07
781.886	36633.51
782.22	36411.83
782.554	36268.78
782.888	36154.43
783.222	35988.56
783.556	35731.84
783.889	35768.45
784.223	35401.68
784.557	35356.71
784.89	35618.4
785.224	35189.94
785.557	34938.64
785.891	34880.57
786.224	34786.11
786.558	34762.15
786.891	34583.62
787.224	34376.17
787.557	34382.73
787.891	34267.02
788.224	34047.14
788.557	34045.56
788.89	33980.48
789.223	33868.39
789.556	33639.92
789.888	33573.71
790.221	33417.33
790.554	33314.05
790.887	33392.02
791.219	33128.07
791.552	32918.58
791.884	32823.44
792.217	32940.05
792.549	32616.67
792.882	32361.54
793.214	32261.88
793.546	32356.34
793.879	32048.1
794.211	31846.3
794.543	32085.84
794.875	31873.19
795.207	31882.23
795.539	31701.67
795.871	31722
796.203	31440.88
796.535	31311.39
796.867	31291.51
797.198	31051.29
797.53	31041.34
797.862	30803.16
798.193	31021.01
798.525	30740.79
798.856	30945.53
799.188	30432.1
799.519	30343.96
799.85	30284.3
800.182	30134.7
800.513	30308.93
800.844	29830.53
801.175	30166.57
801.506	30020.13
801.837	29803.64
802.168	29770.42
802.499	29873.69
802.83	29572
803.161	29339.47
803.491	29393.7
803.822	29494.49
804.153	29227.83
804.483	29023.32
804.814	28950.78
805.145	28949.42
805.475	28844.34
805.805	28843.89
806.136	28673.95
806.466	28642.31
806.796	28614.74
807.126	28379.72
807.457	28350.34
807.787	28331.13
808.117	28178.14
808.447	28051.37
808.777	28081.87
809.107	27958.71
809.436	27875.55
809.766	28009.11
810.096	27940.64
810.426	27824.03
810.755	27818.38
811.085	27595.33
811.414	27641.21
811.744	27397.82
812.073	27435.56
812.403	27295
812.732	27155.8
813.061	27428.11
813.39	27052.98
813.719	27073.09
814.049	27125.52
814.378	27056.36
814.707	26888.69
815.036	26848.69
815.365	26819.53
815.693	26522.37
816.022	26532.76
816.351	26458.19
816.68	26416.38
817.008	26340.9
817.337	26157.41
817.665	26123.06
817.994	26165.09
818.322	26311.98
818.651	26120.12
818.979	25961.48
819.307	25937.52
819.636	26075.15
819.964	25848.04
820.292	25919.45
820.62	25846.68
820.948	25855.94
821.276	25994.92
821.604	25758.09
821.932	25917.41
822.259	25801.48
822.587	25792.22
822.915	25662.28
823.243	25905.66
823.57	25669.96
823.898	26007.13
824.225	25786.12
824.553	25758.09
824.88	25829.28
825.207	25905.66
825.535	25703.63
825.862	25865.66
826.189	25733.69
826.516	25879.22
826.843	25795.16
827.17	25722.16
827.497	25827.47
827.824	25895.94
828.151	25991.76
828.478	25713.12
828.805	25943.17
829.131	25795.38
829.458	25873.12
829.785	25682.62
830.111	25743.18
830.438	25899.11
830.764	25751.31
831.09	25747.47
831.417	25715.16
831.743	25844.19
832.069	25730.98
832.395	25628.38
832.722	25778.88
833.048	25681.26
833.374	25738.66
833.7	25651.88
834.026	25697.76
834.351	25525.78
834.677	25679.45
835.003	25524.2
835.329	25473.36
835.654	25500.25
835.98	25382.96
836.306	25406.46
836.631	25417.99
836.956	25510.42
837.282	25579.12
837.607	25356.3
837.932	25355.62
838.258	25372.12
838.583	25220.03
838.908	25193.14
839.233	25229.75
839.558	25178.45
839.883	25029.07
840.208	24944.78
840.533	25021.16
840.858	24975.52
841.182	24933.71
841.507	24970.54
841.832	24832.69
842.156	24891.9
842.481	24848.06
842.805	24698.23
843.13	24482.65
843.454	24673.15
843.778	24539.82
844.103	24412.37
844.427	24452.14
844.751	24371.01
845.075	24397.68
845.399	24134.41
845.723	24177.57
846.047	24205.14
846.371	24003.34
846.695	23931.02
847.019	23825.26
847.343	23689
847.666	23673.85
847.99	23560.64
848.313	23352.73
848.637	23426.63
848.96	23371.49
849.284	23176.47
849.607	23061.44
849.931	23191.38
850.254	22871.84
850.577	22689.02
850.9	22609.25
851.223	22613.32
851.546	22566.09
851.869	22454.23
852.192	22575.8
852.515	22263.72
852.838	22194.12
853.161	22129.04
853.483	22099.21
853.806	21944.41
854.129	21923.62
854.451	21914.58
854.774	21806.33
855.096	21699.9
855.419	21647.24
855.741	21544.65
856.063	21464.87
856.385	21379.23
856.708	21405.44
857.03	21324.76
857.352	21265.33
857.674	21235.05
857.996	21056.07
858.318	20941.72
858.64	21017.2
858.961	20926.36
859.283	20835.96
859.605	20852.23
859.926	20821.73
860.248	20710.99
860.57	20659.7
860.891	20631.45
861.212	20548.74
861.534	20482.75
861.855	20404.56
862.176	20487.5
862.498	20483.2
862.819	20520.04
863.14	20355.98
863.461	20317.11
863.782	20239.82
864.103	20218.13
864.424	20017.45
864.745	20195.08
865.065	20016.32
865.386	19912.15
865.707	20041.41
866.027	19885.03
866.348	20002.09
866.668	19964.12
866.989	19884.8
867.309	19679.61
867.63	19752.6
867.95	19786.05
868.27	19668.99
868.59	19731.13
868.91	19534.3
869.23	19655.2
869.55	19503.12
869.87	19649.33
870.19	19550.12
870.51	19511.48
870.83	19438.03
871.15	19352.16
871.469	19338.15
871.789	19381.54
872.109	19358.71
872.428	19238.27
872.748	19324.59
873.067	19182
873.386	19107.65
873.706	19180.87
874.025	18960.53
874.344	19046.86
874.663	19113.07
874.982	19115.56
875.301	19016.58
875.62	18887.31
875.939	18966.18
876.258	18867.88
876.577	18778.39
876.896	18743.14
877.214	18764.83
877.533	18886.86
877.852	18742.69
878.17	18747.43
878.489	18751.72
878.807	18602.8
879.125	18645.06
879.444	18582.46
879.762	18545.4
880.08	18642.57
880.398	18422.92
880.716	18433.77
881.034	18452.3
881.352	18506.31
881.67	18346.99
881.988	18436.03
882.306	18299.08
882.624	18219.31
882.941	18156.03
883.259	18049.6
883.577	18054.12
883.894	17981.58
884.212	18041.91
884.529	17972.76
884.846	17980.9
885.164	17844.18
885.481	17929.83
885.798	17865.87
886.115	17718.98
886.432	17714.46
886.75	17568.25
887.067	17684.63
887.383	17591.3
887.7	17527.58
888.017	17494.58
888.334	17532.32
888.651	17440.8
888.967	17335.94
889.284	17333
889.6	17254.36
889.917	17143.18
890.233	17132.56
890.55	17147.25
890.866	17065.22
891.182	17144.76
891.498	17120.81
891.815	16895.05
892.131	16886.01
892.447	16898.44
892.763	16756.3
893.079	16706.81
893.395	16662.74
893.71	16689.41
894.026	16624.55
894.342	16595.85
894.657	16468.17
894.973	16354.95
895.289	16434.95
895.604	16350.21
895.92	16205.58
896.235	16200.15
896.55	16176.42
896.865	16119.93
897.181	16137.1
897.496	16117.44
897.811	15999.25
898.126	15837.68
898.441	15915.19
898.756	15824.34
899.071	15733.5
899.386	15714.29
899.7	15548.42
900.015	15515.2
900.33	15390.46
900.644	15404.69
900.959	15496.44
901.273	15333.28
901.588	15203.8
901.902	15269.33
902.216	15077.02
902.531	15130.8
902.845	15099.39
903.159	14966.97
903.473	14877.93
903.787	14835.9
904.101	14840.87
904.415	14792.96
904.729	14758.38
905.042	14615.79
905.356	14590.03
905.67	14581.66
905.984	14566.52
906.297	14482.91
906.611	14472.06
906.924	14407.66
907.237	14392.97
907.551	14275.23
907.864	14218.06
908.177	14129.02
908.491	14258.74
908.804	14000.21
909.117	13965.64
909.43	13831.18
909.743	13901.91
910.056	13832.98
910.368	13692.87
910.681	13661.46
910.994	13642.93
911.307	13561.13
911.619	13447.46
911.932	13509.6
912.244	13425.54
912.557	13372.2
912.869	13268.25
913.181	13196.39
913.494	13254.02
913.806	13094.47
914.118	13124.98
914.43	13036.17
914.742	13004.53
915.054	12931.99
915.366	12879.79
915.678	12855.61
915.99	12798.89
916.302	12686.57
916.613	12613.13
916.925	12672.79
917.236	12568.61
917.548	12499.46
917.859	12535.39
918.171	12466.69
918.482	12344.66
918.794	12325
919.105	12301.05
919.416	12145.34
919.727	12146.93
920.038	12087.72
920.349	12053.6
920.66	12003.88
920.971	11966.59
921.282	11883.43
921.593	11877.55
921.903	11771.79
922.214	11690.89
922.525	11681.63
922.835	11647.73
923.146	11621.97
923.456	11530.22
923.767	11491.58
924.077	11445.48
924.387	11401.86
924.697	11321.64
925.008	11274.41
925.318	11276.21
925.628	11253.62
925.938	11131.13
926.248	11159.83
926.558	11024.24
926.867	11031.48
927.177	10954.64
927.487	10850.92
927.796	10823.57
928.106	10817.47
928.416	10798.94
928.725	10737.7
929.034	10671.71
929.344	10628.55
929.653	10595.1
929.962	10538.16
930.271	10485.05
930.581	10450.47
930.89	10424.26
931.199	10316.47
931.508	10278.05
931.817	10296.81
932.125	10238.73
932.434	10189.24
932.743	10104.95
933.051	10044.16
933.36	10045.51
933.669	9983.59
933.977	9916.93
934.286	9907.21
934.594	9824.73
934.902	9775.69
935.21	9750.61
935.519	9698.18
935.827	9726.43
936.135	9643.49
936.443	9571.4
936.751	9517.17
937.059	9599.42
937.367	9501.57
937.674	9496.15
937.982	9427.45
938.29	9329.6
938.597	9392.65
938.905	9243.05
939.213	9201.69
939.52	9194.91
939.827	9240.11
940.135	9160.79
940.442	9055.26
940.749	9083.73
941.056	9099.32
941.363	8962.15
941.67	8893.45
941.977	8870.4
942.284	8829.5
942.591	8815.04
942.898	8818.65
943.205	8762.38
943.511	8683.97
943.818	8650.75
944.125	8568.49
944.431	8572.11
944.738	8524.65
945.044	8519.23
945.35	8452.11
945.657	8413.69
945.963	8352.68
946.269	8321.26
946.575	8309.97
946.881	8217.76
947.187	8274.03
947.493	8258.22
947.799	8156.97
948.105	8092.34
948.41	8097.32
948.716	8069.07
949.022	8043.31
949.327	7973.25
949.633	7892.8
949.938	7905.46
950.244	7898.9
950.549	7815.06
950.854	7848.73
951.16	7785.69
951.465	7744.78
951.77	7660.26
952.075	7732.35
952.38	7655.07
952.685	7571.45
952.99	7558.8
953.294	7566.93
953.599	7488.74
953.904	7425.92
954.209	7434.51
954.513	7372.14
954.818	7370.55
955.122	7361.06
955.426	7288.52
955.731	7259.6
956.035	7182.76
956.339	7210.56
956.643	7155.42
956.948	7144.8
957.252	7116.55
957.556	7116.78
957.86	7045.82
958.163	7022.77
958.467	6992.71
958.771	6989.55
959.075	6886.27
959.378	6844.69
959.682	6908.19
959.985	6822.32
960.289	6785.71
960.592	6811.47
960.896	6756.79
961.199	6651.48
961.502	6685.6
961.805	6680.18
962.108	6580.07
962.411	6577.58
962.714	6510.24
963.017	6517.92
963.32	6575.32
963.623	6448.55
963.926	6460.3
964.228	6378.72
964.531	6351.82
964.833	6392.73
965.136	6307.31
965.438	6294.2
965.741	6200.87
966.043	6207.87
966.345	6162.45
966.648	6170.81
966.95	6145.95
967.252	6075.22
967.554	6113.64
967.856	6099.18
968.158	6016.24
968.46	6028.44
968.761	5965.39
969.063	5964.94
969.365	5888.11
969.666	5957.03
969.968	5881.78
970.269	5878.39
970.571	5820.99
970.872	5807.66
971.174	5739.86
971.475	5746.42
971.776	5766.08
972.077	5716.14
972.378	5696.25
972.679	5659.87
972.98	5618.06
973.281	5560.66
973.582	5566.31
973.883	5555.01
974.183	5495.58
974.484	5497.84
974.785	5415.13
975.085	5433.66
975.386	5449.7
975.686	5388.01
975.986	5340.55
976.287	5319.76
976.587	5278.41
976.887	5271.85
977.187	5290.16
977.487	5238.18
977.787	5174.68
978.087	5210.16
978.387	5207
978.687	5157.51
978.987	5070.5
979.286	5121.57
979.586	5104.4
979.885	5039.77
980.185	5001.35
980.484	5031.86
980.784	4978.75
981.083	4915.7
981.382	4930.62
981.682	4862.15
981.981	4916.61
982.28	4884.74
982.579	4828.25
982.878	4853.78
983.177	4809.04
983.475	4826.89
983.774	4721.81
984.073	4701.25
984.372	4694.92
984.67	4701.7
984.969	4667.8
985.267	4688.14
985.566	4619.44
985.864	4639.78
986.162	4628.25
986.461	4548.03
986.759	4538.99
987.057	4487.69
987.355	4529.95
987.653	4448.37
987.951	4423.29
988.249	4453.57
988.547	4394.81
988.844	4414.93
989.142	4377.19
989.44	4328.83
989.737	4301.03
990.035	4278.66
990.332	4316.17
990.63	4248.15
990.927	4250.64
991.224	4221.49
991.521	4204.99
991.819	4153.92
992.116	4150.75
992.413	4140.81
992.71	4118.44
993.006	4086.57
993.303	4110.53
993.6	4109.17
993.897	4046.35
994.193	4063.75
994.49	3975.16
994.787	3984.43
995.083	3930.87
995.379	3933.13
995.676	3943.3
995.972	3920.7
996.268	3846.58
996.565	3868.73
996.861	3852.46
997.157	3800.93
997.453	3856.52
997.749	3789.41
998.044	3766.36
998.34	3759.35
998.636	3768.16
998.932	3710.54
999.227	3651.1
999.523	3653.14
999.818	3667.15
1000.114	3656.08
1000.409	3598.9
1000.704	3566.59
1001	3590.99
1001.295	3552.8
1001.59	3542.41
1001.885	3542.41
1002.18	3460.6
1002.475	3495.63
1002.77	3442.75
1003.065	3411.34
1003.359	3437.1
1003.654	3366.59
1003.949	3358.91
1004.243	3342.41
1004.538	3311.23
1004.832	3314.16
1005.127	3282.53
1005.421	3268.74
1005.715	3228.06
1006.009	3257.89
1006.304	3228.29
1006.598	3206.6
1006.892	3141.06
1007.186	3150.33
1007.48	3138.8
1007.773	3098.58
1008.067	3092.48
1008.361	3090.67
1008.655	3075.53
1008.948	3041.4
1009.242	2972.25
1009.535	2991.91
1009.829	2987.17
1010.122	2944.68
1010.415	2899.26
1010.708	2893.16
1011.001	2906.72
1011.295	2854.52
1011.588	2861.97
1011.881	2836.89
1012.173	2853.39
1012.466	2782.43
1012.759	2800.51
1013.052	2795.99
1013.344	2773.84
1013.637	2772.94
1013.93	2769.55
1014.222	2676.89
1014.514	2701.3
1014.807	2654.07
1015.099	2631.24
1015.391	2608.65
1015.683	2618.14
1015.976	2608.65
1016.268	2595.54
1016.56	2597.35
1016.851	2564.81
1017.143	2570.68
1017.435	2520.96
1017.727	2511.47
1018.018	2483
1018.31	2462.44
1018.602	2496.33
1018.893	2432.38
1019.185	2414.53
1019.476	2412.04
1019.767	2420.18
1020.058	2373.17
1020.35	2345.38
1020.641	2330.01
1020.932	2316
1021.223	2293.85
1021.514	2316.68
1021.804	2254.31
1022.095	2253.63
1022.386	2224.48
1022.677	2223.57
1022.967	2200.07
1023.258	2182.44
1023.548	2171.6
1023.839	2145.38
1024.129	2133.63
1024.419	2130.01
1024.709	2143.35
1025	2101.31
1025.29	2073.52
1025.58	2083.91
1025.87	2033.07
1026.16	2051.82
1026.449	2035.33
1026.739	2036.68
1027.029	2043.92
1027.319	2002.33
1027.608	1998.49
1027.898	1943.13
1028.187	1937.7
1028.477	1941.54
1028.766	1919.4
1029.055	1880.53
1029.344	1874.43
1029.634	1869.68
1029.923	1859.29
1030.212	1862.9
1030.501	1840.76
1030.79	1821.77
1031.078	1809.8
1031.367	1745.62
1031.656	1788.78
1031.945	1805.73
1032.233	1748.56
1032.522	1733.64
1032.81	1750.14
1033.099	1725.05
1033.387	1745.62
1033.675	1726.86
1033.963	1700.87
1034.251	1668.11
1034.54	1636.47
1034.828	1646.86
1035.116	1645.73
1035.403	1608.67
1035.691	1582.01
1035.979	1584.49
1036.267	1585.4
1036.554	1595.57
1036.842	1581.33
1037.129	1523.93
1037.417	1539.52
1037.704	1536.81
1037.992	1536.13
1038.279	1505.4
1038.566	1503.36
1038.853	1503.36
1039.14	1503.36
