Data from 14-0852_FLMS001491_004.txt Node
Date: Thu Apr 12 17:07:07 BST 2018
User: hsy
Spectrometer: FLMS00149
Trigger mode: 0
Integration Time (sec): 1.000000E-2
Scans to average: 10
Electric dark correction enabled: true
Nonlinearity correction enabled: false
Boxcar width: 0
XAxis mode: Wavelengths
Number of Pixels in Spectrum: 2048
>>>>>Begin Spectral Data<<<<<
341.393	-4.14
341.776	-4.14
342.16	-4.14
342.543	-53.63
342.927	-71.93
343.31	-77.36
343.693	-70.13
344.077	-71.71
344.46	-55.21
344.843	-49.79
345.226	-38.26
345.61	-38.49
345.993	-15.66
346.376	-2.33
346.759	8.52
347.142	13.26
347.525	43.54
347.908	67.95
348.291	91.45
348.674	100.49
349.057	93.71
349.44	117.44
349.823	155.41
350.206	181.17
350.588	228.85
350.971	255.29
351.354	278.57
351.737	292.35
352.119	297.77
352.502	305.01
352.884	312.92
353.267	319.24
353.65	310.2
354.032	338.23
354.414	356.53
354.797	342.07
355.179	345.01
355.562	376.19
355.944	369.64
356.326	387.26
356.709	385.68
357.091	390.2
357.473	375.74
357.855	391.33
358.238	389.52
358.62	382.74
359.002	395.4
359.384	391.11
359.766	399.92
360.148	402.18
360.53	409.18
360.912	382.74
361.294	403.99
361.676	387.26
362.057	389.98
362.439	394.27
362.821	391.78
363.203	375.96
363.584	383.42
363.966	375.06
364.348	360.37
364.729	399.92
365.111	381.16
365.493	373.25
365.874	385.46
366.256	382.74
366.637	400.37
367.019	381.84
367.4	383.87
367.781	392.69
368.163	390.2
368.544	387.94
368.925	374.83
369.306	371.67
369.688	392.91
370.069	379.13
370.45	404.66
370.831	370.99
371.212	373.48
371.593	393.37
371.974	378.45
372.355	359.02
372.736	370.54
373.117	389.98
373.498	390.43
373.879	392.24
374.26	401.5
374.641	375.51
375.021	365.34
375.402	400.14
375.783	405.79
376.163	418.68
376.544	385
376.925	403.76
377.305	429.75
377.686	406.47
378.066	411.44
378.447	408.51
378.827	402.86
379.208	413.93
379.588	420.71
379.968	427.71
380.349	439.24
380.729	431.78
381.109	438.79
381.489	435.62
381.87	422.07
382.25	425
382.63	415.74
383.01	410.54
383.39	435.17
383.77	440.82
384.15	422.29
384.53	431.33
384.91	447.38
385.29	445.57
385.67	465
386.049	448.73
386.429	471.1
386.809	477.43
387.189	462.06
387.568	483.53
387.948	470.65
388.328	483.31
388.707	454.38
389.087	465.45
389.466	486.7
389.846	473.82
390.225	475.4
390.605	488.05
390.984	480.59
391.363	497.09
391.743	480.82
392.122	498
392.501	490.09
392.881	493.48
393.26	504.77
393.639	531.89
394.018	523.31
394.397	509.97
394.776	526.47
395.155	520.59
395.534	521.95
395.913	535.96
396.292	516.75
396.671	518.11
397.05	545
397.429	544.55
397.808	534.6
398.186	538.45
398.565	535.28
398.944	533.02
399.323	544.77
399.701	545.68
400.08	545.23
400.458	550.88
400.837	571.67
401.215	553.36
401.594	578.22
401.972	559.01
402.351	585
402.729	579.35
403.107	610.76
403.486	570.54
403.864	592
404.242	583.64
404.62	590.2
404.999	608.27
405.377	631.55
405.755	598.33
406.133	657.54
406.511	616.86
406.889	625.45
407.267	647.6
407.645	628.39
408.023	652.34
408.401	667.71
408.779	639.01
409.156	657.99
409.534	657.77
409.912	662.96
410.29	693.92
410.667	701.61
411.045	691.44
411.422	685.11
411.8	709.74
412.178	709.74
412.555	711.55
412.933	725.33
413.31	740.47
413.687	739.12
414.065	743.19
414.442	775.73
414.819	759.23
415.197	735.05
415.574	762.17
415.951	768.27
416.328	798.55
416.705	790.42
417.082	804.88
417.46	809.85
417.837	793.35
418.214	805.56
418.591	822.96
418.967	808.72
419.344	800.59
419.721	813.92
420.098	837.2
420.475	857.76
420.852	848.72
421.228	820.25
421.605	846.69
421.982	875.61
422.358	860.02
422.735	878.32
423.111	872.67
423.488	860.25
423.864	886.46
424.241	884.2
424.617	899.34
424.994	903.86
425.37	916.74
425.746	895.95
426.123	956.74
426.499	928.27
426.875	944.76
427.251	959.23
427.627	970.98
428.003	956.06
428.379	1003.07
428.756	993.35
429.132	1019.79
429.507	1030.86
429.883	1011.88
430.259	1048.94
430.635	1049.17
431.011	1038.32
431.387	1064.76
431.763	1046.23
432.138	1094.36
432.514	1123.06
432.89	1104.99
433.265	1124.42
433.641	1134.59
434.016	1140.69
434.392	1162.16
434.767	1168.71
435.143	1154.48
435.518	1176.4
435.894	1194.47
436.269	1206.9
436.644	1224.08
437.02	1221.14
437.395	1246.68
437.77	1259.56
438.145	1253
438.52	1231.99
438.895	1277.64
439.271	1264.53
439.646	1293.68
440.021	1292.1
440.395	1314.02
440.77	1284.64
441.145	1304.08
441.52	1320.12
441.895	1335.04
442.27	1345.66
442.645	1333.68
443.019	1358.54
443.394	1354.47
443.769	1357.18
444.143	1362.83
444.518	1392.21
444.892	1384.75
445.267	1381.36
445.641	1390.85
446.016	1414.58
446.39	1418.2
446.764	1424.07
447.139	1417.07
447.513	1443.51
447.887	1442.15
448.262	1467.24
448.636	1469.27
449.01	1492.09
449.384	1489.61
449.758	1488.7
450.132	1504.97
450.506	1526.89
450.88	1545.43
451.254	1543.62
451.628	1576.39
452.002	1587.46
452.376	1567.8
452.75	1636.04
453.123	1631.3
453.497	1608.7
453.871	1647.12
454.244	1705.87
454.618	1695.7
454.992	1692.99
455.365	1725.08
455.739	1756.49
456.112	1770.5
456.486	1819.77
456.859	1832.42
457.232	1829.94
457.606	1879.2
457.979	1884.85
458.352	1899.54
458.725	1922.59
459.099	1932.53
459.472	1945.19
459.845	2007.11
460.218	2029.93
460.591	2060.44
460.964	2047.11
461.337	2095.47
461.71	2131.4
462.083	2121.91
462.456	2157.84
462.829	2132.75
463.201	2154.45
463.574	2169.36
463.947	2214.11
464.32	2242.58
464.692	2276.93
465.065	2300.21
465.438	2338.4
465.81	2339.75
466.183	2356.7
466.555	2440.32
466.928	2440.32
467.3	2393.54
467.672	2470.6
468.045	2501.78
468.417	2523.25
468.789	2532.07
469.161	2570.26
469.534	2592.63
469.906	2650.93
470.278	2632.63
470.65	2716.02
471.022	2784.71
471.394	2807.31
471.766	2830.59
472.138	2833.08
472.51	2900.87
472.882	2956.91
473.253	2990.13
473.625	3000.75
473.997	3102.9
474.369	3090.7
474.74	3143.8
475.112	3249.56
475.484	3313.29
475.855	3323.01
476.227	3347.86
476.598	3425.6
476.97	3489.33
477.341	3497.24
477.713	3612.04
478.084	3610.91
478.455	3725.26
478.827	3750.11
479.198	3871.69
479.569	3872.37
479.94	3991.69
480.311	4064.23
480.682	4142.42
481.053	4242.98
481.424	4325.24
481.795	4332.24
482.166	4425.8
482.537	4522.3
482.908	4614.95
483.279	4724.32
483.65	4807.94
484.021	4845.45
484.391	4995.96
484.762	5032.11
485.133	5092.45
485.503	5243.18
485.874	5386.91
486.244	5443.18
486.615	5588.48
486.985	5631.87
487.356	5832.77
487.726	5946.89
488.097	6115.47
488.467	6100.33
488.837	6277.73
489.207	6423.49
489.578	6594.56
489.948	6686.08
490.318	6856.25
490.688	6913.87
491.058	7115.67
491.428	7319.06
491.798	7376.68
492.168	7576.45
492.538	7674.98
492.908	7903.22
493.278	8096.89
493.648	8204.23
494.017	8380.05
494.387	8542.3
494.757	8725.8
495.126	8870.88
495.496	9023.19
495.866	9232
496.235	9403.75
496.605	9559.68
496.974	9726.91
497.344	10014.58
497.713	10182.71
498.082	10281.69
498.452	10594.91
498.821	10758.06
499.19	10871.96
499.559	11161.44
499.928	11353.98
500.298	11619.96
500.667	11831.93
501.036	12017.47
501.405	12225.6
501.774	12416.55
502.143	12636.21
502.512	12847.05
502.88	13175.85
503.249	13371.1
503.618	13574.94
503.987	13747.59
504.356	14040.92
504.724	14224.87
505.093	14457.18
505.462	14698.3
505.83	14902.14
506.199	15183.26
506.567	15545.06
506.936	15646.3
507.304	15968.1
507.672	16225.94
508.041	16381.42
508.409	16608.08
508.777	16932.82
509.145	17223.66
509.514	17347.04
509.882	17614.38
510.25	17761.04
510.618	18082.84
510.986	18259.56
511.354	18621.59
511.722	18805.31
512.09	19112.42
512.458	19179.31
512.826	19473.99
513.193	19655.23
513.561	19857.49
513.929	20120.98
514.297	20411.14
514.664	20552.61
515.032	20880.74
515.4	21260.39
515.767	21334.51
516.135	21525.69
516.502	21535.86
516.869	21981.95
517.237	22186.01
517.604	22118.9
517.972	22599.79
518.339	22710.52
518.706	22970.4
519.073	23070.51
519.44	23322.93
519.808	23652.64
520.175	23826.42
520.542	24063.25
520.909	24262.79
521.276	24527.87
521.643	24848.09
522.009	25000.4
522.376	25324.91
522.743	25363.1
523.11	25798.35
523.477	26004.44
523.843	26114.72
524.21	26529.18
524.577	26818.21
524.943	26914.93
525.31	27182.72
525.676	27615.7
526.043	27715.13
526.409	27829.71
526.776	28376.36
527.142	28397.37
527.508	28549.46
527.874	28904.03
528.241	29191.03
528.607	29349.89
528.973	29625.59
529.339	29527.06
529.705	30096.77
530.071	30295.86
530.437	30443.87
530.803	30755.28
531.169	30849.29
531.535	30982.62
531.901	31258.99
532.267	31319.56
532.632	31567.01
532.998	31835.48
533.364	32015.58
533.73	32157.28
534.095	32393.2
534.461	32464.61
534.826	32727.88
535.192	32776.92
535.557	33193.63
535.923	33131.71
536.288	33360.63
536.653	33429.33
537.019	33525.83
537.384	33688.99
537.749	33812.83
538.114	33824.8
538.479	34019.83
538.845	34079.71
539.21	34153.16
539.575	34412.36
539.94	34343.89
540.305	34795.85
540.67	34744.1
541.034	34930.54
541.399	35009.86
541.764	35063.19
542.129	35242.62
542.494	35359.45
542.858	35620.24
543.223	35396.74
543.587	35656.62
543.952	35755.83
544.316	35949.72
544.681	35955.59
545.045	36187.23
545.41	36313.55
545.774	36275.13
546.138	36293.21
546.503	36440.78
546.867	36561.23
547.231	36646.2
547.595	37023.14
547.959	37060.2
548.324	37088.45
548.688	37219.06
549.052	37421.54
549.416	37403.24
549.779	37485.27
550.143	37706.06
550.507	37939.72
550.871	38012.94
551.235	37959.84
551.599	38380.84
551.962	38551.01
552.326	38567.5
552.689	38644.34
553.053	38549.42
553.417	38834.39
553.78	39252
554.143	39160.93
554.507	39218.79
554.87	39472.56
555.234	39695.83
555.597	39548.27
555.96	39724.31
556.323	39991.65
556.686	39983.06
557.05	40453.1
557.413	40463.95
557.776	40596.6
558.139	40831.85
558.502	40873.2
558.865	40872.98
559.228	41308.67
559.59	41284.95
559.953	41464.6
560.316	41916.57
560.679	41748.66
561.041	42261.42
561.404	42420.96
561.767	42688.07
562.129	42596.55
562.492	42969.2
562.854	42956.31
563.217	43026.14
563.579	43222.97
563.941	43509.52
564.304	43685.11
564.666	43995.83
565.028	44024.99
565.39	44162.16
565.753	44405.99
566.115	44523.73
566.477	44748.58
566.839	44809.15
567.201	45252.75
567.563	45285.74
567.925	45604.38
568.287	45568.22
568.648	45650.03
569.01	45912.62
569.372	46303.12
569.734	46174.08
570.095	46494.53
570.457	46860.84
570.819	46763.9
571.18	46797.79
571.542	47159.82
571.903	47127.05
572.265	47406.37
572.626	47682.52
572.987	47647.04
573.349	47953.02
573.71	48009.51
574.071	48149.17
574.432	48518.88
574.794	48778.08
575.155	48719.78
575.516	48764.75
575.877	49015.14
576.238	49056.94
576.599	49369.7
576.96	49308.69
577.32	49496.26
577.681	49632.52
578.042	49871.16
578.403	50004.26
578.763	50011.04
579.124	50073.42
579.485	50573.97
579.845	50554.98
580.206	50569.9
580.566	50700.52
580.927	50816.22
581.287	50987.52
581.648	51035.42
582.008	51371.46
582.368	51386.83
582.728	51452.59
583.089	51490.55
583.449	51652.58
583.809	51792.92
584.169	51895.74
584.529	51966.47
584.889	52314.03
585.249	52155.17
585.609	52218.22
585.969	52545.44
586.329	52448.04
586.688	52739.33
587.048	52844.19
587.408	52976.16
587.768	52956.73
588.127	53156.95
588.487	53257.96
588.846	53582.02
589.206	53340.67
589.565	53459.54
589.925	53812.3
590.284	53813.66
590.643	53964.39
591.003	54047.32
591.362	54309.69
591.721	54367.99
592.08	54399.85
592.44	54685.95
592.799	54588.55
593.158	54761.65
593.517	54804.14
593.876	54961.42
594.235	55004.36
594.593	55176.56
594.952	55307.18
595.311	55321.41
595.67	55472.14
596.029	55686.37
596.387	55776.99
596.746	56016.54
597.104	55906.71
597.463	55989.64
597.822	56242.97
598.18	56247.49
598.538	56293.82
598.897	56538.33
599.255	56395.28
599.613	56895.83
599.972	56783.3
600.33	56924.08
600.688	56914.37
601.046	57020.35
601.404	57312.32
601.762	57228.48
602.12	57374.47
602.478	57459.89
602.836	57558.42
603.194	57409.49
603.552	57709.82
603.91	57706.66
604.268	57834.11
604.625	57835.7
604.983	58016.03
605.341	57980.33
605.698	58183.48
606.056	58389.13
606.413	58315.91
606.771	58555.68
607.128	58557.71
607.485	58567.2
607.843	58641.78
608.2	58736.69
608.557	58923.35
608.914	58878.38
609.272	59076.12
609.629	59166.96
609.986	59213.29
610.343	59227.3
610.7	59453.51
611.057	59427.97
611.414	59460.29
611.771	59642.88
612.127	59686.04
612.484	59735.76
612.841	59846.94
613.198	59775.98
613.554	59803.1
613.911	60020.05
614.267	60036.77
614.624	60020.95
614.98	60159.93
615.337	60357.44
615.693	60268.18
616.05	60388.62
616.406	60480.82
616.762	60428.62
617.118	60475.4
617.475	60526.02
617.831	60645.34
618.187	60714.27
618.543	60755.62
618.899	60898.89
619.255	60826.35
619.611	60804.43
619.967	61006.91
620.323	61079.91
620.678	61012.56
621.034	60944.99
621.39	61019.57
621.746	61077.87
622.101	61311.99
622.457	61156.51
622.812	61326.23
623.168	61326.23
623.523	61295.27
623.879	61379.78
624.234	61256.4
624.589	61305.66
624.945	61415.04
625.3	61375.72
625.655	61423.4
626.01	61480.8
626.365	61482.38
626.72	61414.59
627.075	61423.17
627.43	61438.09
627.785	61479.67
628.14	61471.08
628.495	61483.96
628.85	61588.14
629.205	61516.96
629.559	61624.98
629.914	61504.98
630.269	61585.43
630.623	61467.24
630.978	61468.14
631.332	61592.66
631.687	61598.31
632.041	61510.63
632.396	61518.09
632.75	61482.83
633.104	61537.97
633.459	61419.78
633.813	61352.44
634.167	61427.24
634.521	61375.04
634.875	61382.27
635.229	61310.18
635.583	61263.63
635.937	61249.17
636.291	61253.91
636.645	61203.07
636.999	61179.34
637.352	61260.47
637.706	61109.96
638.06	61220.01
638.413	61142.5
638.767	61053.24
639.121	61134.82
639.474	61033.13
639.828	61008.27
640.181	60884.43
640.534	61017.99
640.888	60933.92
641.241	60798.78
641.594	60935.28
641.947	60955.84
642.301	60780.03
642.654	60848.72
643.007	60752.46
643.36	60877.88
643.713	60772.57
644.066	60833.13
644.419	60752
644.771	60503.65
645.124	60213.94
645.477	60188.86
645.83	60042.87
646.182	60058.69
646.535	59951.35
646.888	60075.64
647.24	60007.17
647.593	60095.07
647.945	60006.26
648.298	59925.13
648.65	59822.99
649.002	59686.04
649.355	59712.48
649.707	59636.78
650.059	59677
650.411	59952.7
650.763	60051.91
651.115	60354.05
651.467	60301.62
651.819	60344.11
652.171	60270.89
652.523	60143.21
652.875	60172.58
653.227	60142.3
653.578	60315.63
653.93	60172.81
654.282	60023.21
654.633	59996.09
654.985	60067.73
655.337	60099.37
655.688	60042.19
656.039	60083.32
656.391	59858.92
656.742	59952.25
657.094	59928.75
657.445	59913.16
657.796	59930.33
658.147	59794.06
658.498	59926.94
658.849	59905.47
659.2	59816.89
659.551	59782.76
659.902	59890.56
660.253	59695.99
660.604	59847.4
660.955	59678.36
661.306	59796.78
661.656	59684.24
662.007	59671.13
662.358	59639.27
662.708	59700.96
663.059	59639.04
663.409	59534.86
663.76	59683.78
664.11	59630.23
664.461	59706.61
664.811	59613.96
665.161	59636.1
665.511	59623.67
665.862	59593.62
666.212	59634.97
666.562	59596.33
666.912	59538.7
667.262	59544.8
667.612	59469.78
667.962	59526.05
668.312	59476.11
668.662	59610.11
669.011	59571.47
669.361	59482.43
669.711	59560.17
670.06	59469.55
670.41	59416.9
670.76	59418.71
671.109	59517.23
671.459	59431.81
671.808	59441.08
672.157	59530.34
672.507	59329.44
672.856	59335.54
673.205	59402.21
673.554	59452.15
673.904	59387.75
674.253	59554.97
674.602	59355.2
674.951	59145.49
675.3	58989.79
675.649	59391.14
675.998	59359.5
676.346	59351.14
676.695	59393.62
677.044	59227.52
677.393	59354.3
677.741	59398.14
678.09	59290.8
678.438	59190.92
678.787	59218.71
679.135	59237.47
679.484	59129.67
679.832	59223
680.181	59073.63
680.529	59174.42
680.877	59102.1
681.225	59128.77
681.573	59243.12
681.922	59112.73
682.27	59048.77
682.618	59015.55
682.966	58924.93
683.314	59027.98
683.661	58956.12
684.009	58861.21
684.357	58849
684.705	58774.2
685.053	58781.43
685.4	58761.55
685.748	58656.24
686.095	58683.13
686.443	58573.53
686.79	58583.02
687.138	58593.64
687.485	58547.09
687.832	58482.01
688.18	58520.2
688.527	58405.63
688.874	58457.38
689.221	58400.43
689.568	58309.81
689.915	58269.36
690.262	58251.96
690.609	58224.39
690.956	58134.22
691.303	58161.56
691.65	58002.7
691.997	57997.73
692.344	57847.45
692.69	57838.41
693.037	57871.85
693.383	57612.65
693.73	57709.15
694.077	57610.39
694.423	57613.56
694.769	57520
695.116	57518.87
695.462	57385.99
695.808	57308.25
696.155	57385.31
696.501	57162.72
696.847	57219.44
697.193	57017.41
697.539	57150.74
697.885	56989.62
698.231	56886.8
698.577	56850.64
698.923	56879.11
699.269	56724.77
699.614	56574.04
699.96	56583.53
700.306	56587.82
700.651	56477.54
700.997	56412.46
701.342	56347.6
701.688	56219.02
702.033	56262.18
702.379	56127.72
702.724	56063.54
703.069	56159.36
703.415	55831.23
703.76	55867.39
704.105	55906.48
704.45	55800.04
704.795	55729.31
705.14	55612.03
705.485	55590.33
705.83	55409.32
706.175	55557.56
706.52	55384.69
706.865	55308.76
707.209	55210
707.554	55193.28
707.899	55170.68
708.243	55065.6
708.588	55004.58
708.932	54887.07
709.277	54888.2
709.621	54798.04
709.966	54725.72
710.31	54676.68
710.654	54504.71
710.998	54553.75
711.342	54606.18
711.687	54469.01
712.031	54382.45
712.375	54311.72
712.719	54206.87
713.063	54170.03
713.407	54329.57
713.75	54191.05
714.094	54068.79
714.438	53939.75
714.782	54030.83
715.125	53854.33
715.469	54020.66
715.812	53669.48
716.156	53649.14
716.499	53698.86
716.843	53631.97
717.186	53445.53
717.53	53616.82
717.873	53667.9
718.216	53481.24
718.559	53439.88
718.902	53121.47
719.246	53273.78
719.589	53053.68
719.932	52985.2
720.275	52993.11
720.617	52979.1
720.96	52908.82
721.303	52873.79
721.646	52935.26
721.989	52596.96
722.331	52849.16
722.674	52709.96
723.016	52703.85
723.359	52527.36
723.701	52512.67
724.044	52522.16
724.386	52363.52
724.729	52491.66
725.071	52374.15
725.413	52297.31
725.755	52312.45
726.097	52153.59
726.439	52108.62
726.782	52192.23
727.124	52262.96
727.465	52108.39
727.807	51908.4
728.149	51939.58
728.491	51830.66
728.833	51978.9
729.175	51865.46
729.516	51734.84
729.858	51703.43
730.199	51794.27
730.541	51731.9
730.882	51595.63
731.224	51589.99
731.565	51510.67
731.906	51561.06
732.248	51578.23
732.589	51357.68
732.93	51296.66
733.271	51353.16
733.612	51306.38
733.953	51358.13
734.294	51191.13
734.635	51015.31
734.976	51280.39
735.317	51149.09
735.658	50968.08
735.999	50829.33
736.339	50806.96
736.68	50975.99
737.021	50893.73
737.361	50681.99
737.702	50918.36
738.042	50651.25
738.383	50741.65
738.723	50791.59
739.063	50577.13
739.404	50656.22
739.744	50501.43
740.084	50446.06
740.424	50522.22
740.764	50458.94
741.104	50515.21
741.444	50230.25
741.784	50208.78
742.124	50292.17
742.464	50190.93
742.804	50132.62
743.143	49995
743.483	50063.47
743.823	49849.24
744.162	49928.11
744.502	49924.04
744.841	49749.58
745.181	49894.66
745.52	49740.99
745.86	49875
746.199	49691.73
746.538	49676.59
746.877	49717.72
747.216	49715.91
747.556	49451.06
747.895	49445.41
748.234	49359.76
748.573	49275.24
748.911	49347.11
749.25	49254.68
749.589	49034.57
749.928	49091.75
750.267	49237.5
750.605	49003.84
750.944	48946.66
751.283	48901.92
751.621	48984.18
751.96	48872.32
752.298	48780.57
752.636	48638.88
752.975	48630.29
753.313	48474.59
753.651	48510.52
753.989	48190.3
754.327	48448.15
754.666	48035.73
755.004	48178.78
755.342	48120.25
755.679	48193.24
756.017	47789.18
756.355	48002.74
756.693	47855.85
757.031	47891.55
757.368	47655.4
757.706	47614.27
758.044	47616.53
758.381	47367.5
758.719	47242.08
759.056	47244.79
759.394	47148.07
759.731	46819.94
760.068	46838.7
760.405	46831.24
760.743	46558.93
761.08	46659.27
761.417	46374.76
761.754	46323.23
762.091	46247.75
762.428	45912.39
762.765	45997.36
763.102	46089.11
763.438	45774.77
763.775	45637.83
764.112	45504.72
764.449	45554.89
764.785	45450.49
765.122	45208.68
765.458	44920.33
765.795	44923.27
766.131	45018.41
766.467	44823.16
766.804	44413.68
767.14	44277.41
767.476	44505.88
767.812	44336.16
768.148	44101.82
768.485	44095.27
768.821	43742.28
769.157	43714.03
769.492	43542.29
769.828	43468.84
770.164	43059.81
770.5	42998.35
770.836	42985.47
771.171	42826.83
771.507	42688.75
771.842	42392.94
772.178	42552.93
772.513	42388.19
772.849	42195.66
773.184	42139.39
773.519	42025.27
773.855	41798.83
774.19	41548.22
774.525	41345.28
774.86	41391.16
775.195	41174.89
775.53	41016.7
775.865	40806.54
776.2	40567.68
776.535	40356.16
776.87	40405.19
777.205	40278.42
777.539	40064.86
777.874	40114.13
778.209	39822.61
778.543	39804.98
778.878	39592.33
779.212	39542.17
779.547	39245.23
779.881	39189.63
780.215	38926.82
780.55	39035.97
780.884	38627.84
781.218	38610.67
781.552	38767.95
781.886	38534.96
782.22	38306.04
782.554	38044.35
782.888	37713.97
783.222	37788.77
783.556	37526.17
783.889	37369.34
784.223	37207.76
784.557	37172.06
784.89	37297.93
785.224	36909.02
785.557	36737.49
785.891	36673.99
786.224	36577.05
786.558	36491.63
786.891	36169.83
787.224	36000.11
787.557	36012.54
787.891	35828.82
788.224	35605.55
788.557	35669.5
788.89	35554.93
789.223	35558.77
789.556	35368.72
789.888	35251.66
790.221	35034.49
790.554	34851.44
790.887	34925.56
791.219	34625.46
791.552	34531.45
791.884	34469.98
792.217	34240.61
792.549	34136.66
792.882	33858.02
793.214	33823.67
793.546	33956.55
793.879	33653.06
794.211	33396.11
794.543	33598.59
794.875	33459.61
795.207	33394.76
795.539	33185.72
795.871	33190.24
796.203	32873.42
796.535	32784.15
796.867	32741.22
797.198	32598.62
797.53	32505.97
797.862	32262.13
798.193	32420.32
798.525	32068.01
798.856	32352.3
799.188	31756.61
799.519	31748.7
799.85	31688.59
800.182	31636.84
800.513	31733.33
800.844	31393.91
801.175	31536.28
801.506	31310.52
801.837	31308.71
802.168	31115.72
802.499	31074.59
802.83	30844.32
803.161	30807.48
803.491	30813.13
803.822	30891.77
804.153	30571.33
804.483	30536.75
804.814	30198.46
805.145	30340.15
805.475	30247.72
805.805	30146.26
806.136	30232.35
806.466	30120.72
806.796	29940.84
807.126	29941.74
807.457	29711.92
807.787	29753.95
808.117	29617.91
808.447	29541.75
808.777	29563.45
809.107	29356.9
809.436	29231.25
809.766	29218.82
810.096	29235.77
810.426	29046.17
810.755	28981.77
811.085	28887.53
811.414	28984.03
811.744	28703.36
812.073	28705.39
812.403	28631.49
812.732	28542
813.061	28607.09
813.39	28320.99
813.719	28256.59
814.049	28504.49
814.378	28360.99
814.707	28171.84
815.036	28115.35
815.365	27946.77
815.693	27769.14
816.022	27855.02
816.351	27690.05
816.68	27562.37
817.008	27669.26
817.337	27378.87
817.665	27365.99
817.994	27328.48
818.322	27531.86
818.651	27365.99
818.979	27269.49
819.307	27345.88
819.636	27242.83
819.964	27049.39
820.292	27312.21
820.62	27098.2
820.948	27093.91
821.276	27205.77
821.604	27141.36
821.932	27103.4
822.259	27013.68
822.587	27198.31
822.915	27175.03
823.243	27033.12
823.57	26889.84
823.898	27147.69
824.225	27047.58
824.553	26991.76
824.88	27012.55
825.207	27087.35
825.535	26977.3
825.862	27096.39
826.189	26959.22
826.516	27206.45
826.843	27187.46
827.17	27130.29
827.497	27107.01
827.824	27130.29
828.151	27209.16
828.478	26974.14
828.805	27058.2
829.131	27070.63
829.458	27241.92
829.785	26802.16
830.111	26838.55
830.438	27140.68
830.764	27026.11
831.09	27121.02
831.417	26945.89
831.743	27184.75
832.069	27023.17
832.395	26964.87
832.722	26984.3
833.048	26851.65
833.374	27043.29
833.7	26781.37
834.026	26874.25
834.351	26817.76
834.677	26841.94
835.003	26774.82
835.329	26818.66
835.654	26842.84
835.98	26537.99
836.306	26791.54
836.631	26521.27
836.956	26752.22
837.282	26660.92
837.607	26430.65
837.932	26592.22
838.258	26502.06
838.583	26467.71
838.908	26393.13
839.233	26525.79
839.558	26374.6
839.883	26371.67
840.208	26203.99
840.533	26234.72
840.858	26132.35
841.182	26191.56
841.507	26066.36
841.832	26048.74
842.156	26121.5
842.481	26034.73
842.805	25863.88
843.13	25859.36
843.454	25825.47
843.778	25665.24
844.103	25660.05
844.427	25582.31
844.751	25691.91
845.075	25524.46
845.399	25358.36
845.723	25314.74
846.047	25266.16
846.371	25204.69
846.695	24991.14
847.019	25112.04
847.343	24828.43
847.666	24747.75
847.99	24557.48
848.313	24537.14
848.637	24509.12
848.96	24432.96
849.284	24301.89
849.607	24117.04
849.931	24179.41
850.254	23919.07
850.577	23805.63
850.9	23688.35
851.223	23726.09
851.546	23566.99
851.869	23410.16
852.192	23600.44
852.515	23295.59
852.838	23166.78
853.161	23251.75
853.483	22932.43
853.806	22997.97
854.129	22894.02
854.451	22962.49
854.774	22787.58
855.096	22716.39
855.419	22684.98
855.741	22561.82
856.063	22435.95
856.385	22354.6
856.708	22306.69
857.03	22338.55
857.352	22265.33
857.674	22252.68
857.996	22065.79
858.318	22003.19
858.64	22083.19
858.961	21892.24
859.283	21921.84
859.605	21727.27
859.926	21738.57
860.248	21639.59
860.57	21632.81
860.891	21589.42
861.212	21579.02
861.534	21414.96
861.855	21350.78
862.176	21384.45
862.498	21405.24
862.819	21404.11
863.14	21205.25
863.461	21318.92
863.782	21088.19
864.103	21128.41
864.424	21173.61
864.745	21151.01
865.065	20915.99
865.386	21017.91
865.707	20979.04
866.027	20899.49
866.348	20839.38
866.668	20899.72
866.989	20651.82
867.309	20625.38
867.63	20574.98
867.95	20651.36
868.27	20554.64
868.59	20619.73
868.91	20589.9
869.23	20584.7
869.55	20410.69
869.87	20494.98
870.19	20281.88
870.51	20357.13
870.83	20357.13
871.15	20182.68
871.469	20212.28
871.789	20282.11
872.109	20213.41
872.428	20239.4
872.748	20257.02
873.067	20147.65
873.386	20151.04
873.706	20018.84
874.025	19937.71
874.344	19958.73
874.663	19967.77
874.982	19900.65
875.301	19880.08
875.62	19897.03
875.939	19837.37
876.258	19805.96
876.577	19693.42
876.896	19704.95
877.214	19596.02
877.533	19656.81
877.852	19681.9
878.17	19608
878.489	19621.56
878.807	19512.41
879.125	19488
879.444	19462.24
879.762	19405.07
880.08	19400.1
880.398	19298.86
880.716	19374.56
881.034	19295.69
881.352	19279.87
881.67	19158.07
881.988	19154.45
882.306	19125.98
882.624	19112.2
882.941	19040.56
883.259	18957.85
883.577	18956.27
883.894	18837.17
884.212	18894.8
884.529	18875.59
884.846	18777.06
885.164	18676.05
885.481	18660.46
885.798	18687.12
886.115	18507.01
886.432	18669.27
886.75	18517.41
887.067	18662.04
887.383	18454.13
887.7	18501.59
888.017	18293.01
888.334	18363.06
888.651	18296.62
888.967	18244.87
889.284	18110.64
889.6	18074.93
889.917	18038.1
890.233	18051.21
890.55	17967.14
890.866	17942.73
891.182	17933.92
891.498	17827.71
891.815	17786.81
892.131	17677.88
892.447	17674.27
892.763	17626.81
893.079	17552.69
893.395	17454.84
893.71	17392.92
894.026	17430.66
894.342	17350.21
894.657	17234.05
894.973	17139.82
895.289	17175.52
895.604	17126.71
895.92	17029.54
896.235	16972.59
896.55	16971.23
896.865	16954.06
897.181	16727.63
897.496	16747.06
897.811	16708.87
898.126	16606.95
898.441	16563.56
898.756	16575.54
899.071	16500.29
899.386	16520.62
899.7	16376.22
900.015	16352.27
900.33	16220.07
900.644	16237.69
900.959	16215.32
901.273	16148.21
901.588	16035.21
901.902	16102.56
902.216	15956.12
902.531	15877.03
902.845	15776.01
903.159	15638.16
903.473	15596.13
903.787	15580.76
904.101	15573.53
904.415	15559.97
904.729	15473.87
905.042	15345.29
905.356	15407.21
905.67	15336.7
905.984	15235.46
906.297	15244.05
906.611	15102.58
906.924	15112.3
907.237	15027.56
907.551	14983.94
907.864	14822.82
908.177	14807.9
908.491	14726.1
908.804	14596.61
909.117	14524.97
909.43	14563.84
909.743	14564.07
910.056	14506.21
910.368	14405.43
910.681	14338.31
910.994	14353.68
911.307	14258.31
911.619	14138.77
911.932	14233.45
912.244	13995.27
912.557	14057.41
912.869	13909.39
913.181	13888.15
913.494	13920.24
913.806	13816.97
914.118	13706.46
914.43	13679.12
914.742	13700.36
915.054	13551.89
915.366	13508.73
915.678	13517.31
915.99	13420.82
916.302	13285.23
916.613	13223.76
916.925	13242.07
917.236	13219.92
917.548	13078.91
917.859	13024.22
918.171	12985.35
918.482	12881.85
918.794	12867.61
919.105	12830.55
919.416	12743.32
919.727	12681.4
920.038	12698.13
920.349	12567.28
920.66	12518.02
920.971	12476.66
921.282	12394.63
921.593	12391.69
921.903	12236.67
922.214	12298.14
922.525	12236.22
922.835	12174.3
923.146	12020.86
923.456	12004.13
923.767	11966.62
924.077	11919.62
924.387	11930.01
924.697	11837.13
925.008	11829.45
925.318	11724.14
925.628	11757.81
925.938	11741.54
926.248	11559.4
926.558	11570.92
926.867	11515.33
927.177	11442.34
927.487	11426.07
927.796	11306.07
928.106	11401.89
928.416	11213.19
928.725	11189.01
929.034	11114.67
929.344	11174.55
929.653	11064.27
929.962	10997.61
930.271	10946.53
930.581	10937.49
930.89	10851.85
931.199	10859.98
931.508	10786.99
931.817	10818.63
932.125	10668.12
932.434	10655.02
932.743	10565.08
933.051	10540.67
933.36	10443.95
933.669	10428.13
933.977	10411.18
934.286	10369.37
934.594	10279.21
934.902	10255.03
935.21	10185.65
935.519	10163.5
935.827	10149.72
936.135	10055.26
936.443	9951.08
936.751	9923.06
937.059	9966.67
937.367	9874.02
937.674	9846.45
937.982	9795.83
938.29	9792.44
938.597	9710.41
938.905	9625.44
939.213	9624.31
939.52	9627.47
939.827	9631.99
940.135	9561.49
940.442	9459.34
940.749	9488.04
941.056	9470.19
941.363	9352.9
941.67	9336.18
941.977	9266.13
942.284	9257.77
942.591	9232.45
942.898	9203.76
943.205	9124.44
943.511	9042.4
943.818	9048.51
944.125	9011.22
944.431	8924.89
944.738	8856.87
945.044	8882.86
945.35	8827.49
945.657	8811.22
945.963	8839.7
946.269	8723.77
946.575	8716.99
946.881	8647.61
947.187	8625.92
947.493	8585.01
947.799	8570.78
948.105	8482.87
948.41	8467.73
948.716	8448.07
949.022	8394.28
949.327	8410.56
949.633	8304.57
949.938	8292.37
950.244	8248.75
950.549	8224.35
950.854	8185.93
951.16	8110.22
951.465	8092.15
951.77	8040.17
952.075	8005.59
952.38	8059.15
952.685	7903.45
952.99	7955.88
953.294	7908.87
953.599	7811.93
953.904	7847.86
954.209	7712.49
954.513	7705.72
954.818	7676.56
955.122	7701.87
955.426	7621.42
955.731	7623.46
956.035	7555.89
956.339	7521.99
956.643	7556.79
956.948	7410.58
957.252	7431.15
957.556	7396.8
957.86	7334.43
958.163	7353.86
958.467	7341.21
958.771	7269.79
959.075	7216.24
959.378	7120.65
959.682	7171.49
959.985	7088.56
960.289	7079.52
960.592	7085.62
960.896	7013.08
961.199	7011.5
961.502	6997.94
961.805	6924.04
962.108	6901.89
962.411	6893.76
962.714	6872.29
963.017	6789.58
963.32	6736.48
963.623	6741
963.926	6795.91
964.228	6670.71
964.531	6651.51
964.833	6644.05
965.136	6576.71
965.438	6582.58
965.741	6487.89
966.043	6445.18
966.345	6480.66
966.648	6435.92
966.95	6391.85
967.252	6417.61
967.554	6406.31
967.856	6377.61
968.158	6252.65
968.46	6309.59
968.761	6290.84
969.063	6212.2
969.365	6158.41
969.666	6128.13
969.968	6101.24
970.269	6083.84
970.571	6051.07
970.872	6063.5
971.174	6018.08
971.475	5941.24
971.776	6023.5
972.077	5935.14
972.378	5932.88
972.679	5875.71
972.98	5868.7
973.281	5849.49
973.582	5822.83
973.883	5782.83
974.183	5729.5
974.484	5723.62
974.785	5668.25
975.085	5688.14
975.386	5709.84
975.686	5580.8
975.986	5615.6
976.287	5571.99
976.587	5500.8
976.887	5480.69
977.187	5503.51
977.487	5454.7
977.787	5433.46
978.087	5428.71
978.387	5369.28
978.687	5365.21
978.987	5326.79
979.286	5277.3
979.586	5274.59
979.885	5264.42
980.185	5241.15
980.484	5194.6
980.784	5190.3
981.083	5163.18
981.382	5128.83
981.682	5161.38
981.981	5143.75
982.28	5103.52
982.579	5029.85
982.878	5016.97
983.177	5005.22
983.475	5014.94
983.774	4936.75
984.073	4903.98
984.372	4904.21
984.67	4919.57
984.969	4902.63
985.267	4867.82
985.566	4785.79
985.864	4775.85
986.162	4803.87
986.461	4750.31
986.759	4740.37
987.057	4682.07
987.355	4674.83
987.653	4717.09
987.951	4661.5
988.249	4621.05
988.547	4603.88
988.844	4593.48
989.142	4565.46
989.44	4539.02
989.737	4546.25
990.035	4435.74
990.332	4459.02
990.63	4461.06
990.927	4442.52
991.224	4398.68
991.521	4391.45
991.819	4366.37
992.116	4341.28
992.413	4297.67
992.71	4261.06
993.006	4261.96
993.303	4244.34
993.6	4233.94
993.897	4246.37
994.193	4227.61
994.49	4191.91
994.787	4150.55
995.083	4135.87
995.379	4107.84
995.676	4134.74
995.972	4101.06
996.268	4035.53
996.565	4013.61
996.861	4020.39
997.157	3963.67
997.453	3974.29
997.749	3949.2
998.044	3920.05
998.34	3935.65
998.636	3890.67
998.932	3870.11
999.227	3817
999.523	3821.75
999.818	3820.17
1000.114	3764.12
1000.409	3755.76
1000.704	3720.74
1001	3699.04
1001.295	3709.89
1001.59	3651.58
1001.885	3644.81
1002.18	3631.25
1002.475	3619.95
1002.77	3571.13
1003.065	3528.2
1003.359	3546.95
1003.654	3541.76
1003.949	3524.58
1004.243	3496.79
1004.538	3413.17
1004.832	3408.2
1005.127	3471.02
1005.421	3372.95
1005.715	3377.02
1006.009	3367.07
1006.304	3363.46
1006.598	3300.86
1006.892	3304.93
1007.186	3225.38
1007.48	3259.28
1007.773	3242.78
1008.067	3185.16
1008.361	3176.57
1008.655	3156.23
1008.948	3142.67
1009.242	3110.13
1009.535	3111.03
1009.829	3069.68
1010.122	3111.49
1010.415	3074.88
1010.708	3051.37
1011.001	2998.72
1011.295	3015.9
1011.588	2987.2
1011.881	2951.49
1012.173	2960.53
1012.466	2946.52
1012.759	2924.37
1013.052	2926.41
1013.344	2927.31
1013.637	2870.81
1013.93	2849.8
1014.222	2831.49
1014.514	2824.49
1014.807	2787.43
1015.099	2766.86
1015.391	2767.09
1015.683	2735.45
1015.976	2735.45
1016.268	2680.99
1016.56	2697.49
1016.851	2644.15
1017.143	2658.39
1017.435	2663.36
1017.727	2621.33
1018.018	2553.31
1018.31	2619.97
1018.602	2560.31
1018.893	2535.68
1019.185	2528.9
1019.476	2518.28
1019.767	2491.16
1020.058	2451.84
1020.35	2451.39
1020.641	2440.32
1020.932	2415.69
1021.223	2401.45
1021.514	2396.93
1021.804	2367.1
1022.095	2312.86
1022.386	2342.01
1022.677	2304.5
1022.967	2350.38
1023.258	2281.23
1023.548	2295.69
1023.839	2212.3
1024.129	2243.49
1024.419	2215.01
1024.709	2181.34
1025	2203.94
1025.29	2183.15
1025.58	2159.42
1025.87	2145.18
1026.16	2145.86
1026.449	2121
1026.739	2103.15
1027.029	2049.59
1027.319	2041.23
1027.608	2052.3
1027.898	2012.31
1028.187	2020.67
1028.477	2007.33
1028.766	1995.36
1029.055	1957.39
1029.344	1951.29
1029.634	1937.96
1029.923	1929.37
1030.212	1937.05
1030.501	1902.7
1030.79	1914
1031.078	1881.01
1031.367	1838.98
1031.656	1863.84
1031.945	1847.56
1032.233	1813.44
1032.522	1799.66
1032.81	1781.35
1033.099	1775.02
1033.387	1772.76
1033.675	1770.73
1033.963	1725.99
1034.251	1734.57
1034.54	1697.96
1034.828	1703.39
1035.116	1704.74
1035.403	1693.67
1035.691	1691.86
1035.979	1648.47
1036.267	1642.6
1036.554	1611.19
1036.842	1604.63
1037.129	1607.34
1037.417	1607.34
1037.704	1609.15
1037.992	1582.49
1038.279	1558.98
1038.566	1540.68
1038.853	1540.68
1039.14	1540.68
