Data from 14-0848_FLMS001491_010.txt Node
Date: Thu Apr 19 16:08:30 BST 2018
User: hsy
Spectrometer: FLMS00149
Trigger mode: 0
Integration Time (sec): 1.000000E-2
Scans to average: 10
Electric dark correction enabled: true
Nonlinearity correction enabled: false
Boxcar width: 0
XAxis mode: Wavelengths
Number of Pixels in Spectrum: 2048
>>>>>Begin Spectral Data<<<<<
341.393	3.49
341.776	3.49
342.16	3.49
342.543	-53.01
342.927	-51.88
343.31	-67.47
343.693	-69.5
344.077	-60.92
344.46	-79.67
344.843	-51.2
345.226	-57.53
345.61	-45.32
345.993	-18.88
346.376	-1.48
346.759	13.88
347.142	23.38
347.525	41
347.908	58.85
348.291	94.11
348.674	99.76
349.057	121
349.44	118.06
349.823	140.21
350.206	179.53
350.588	249.13
350.971	234.22
351.354	254.56
351.737	259.75
352.119	301.33
352.502	311.5
352.884	324.61
353.267	343.37
353.65	337.94
354.032	330.94
354.414	370.03
354.797	368
355.179	356.7
355.562	362.8
355.944	363.48
356.326	381.78
356.709	357.83
357.091	365.74
357.473	394.89
357.855	372.97
358.238	375.46
358.62	404.38
359.002	387.89
359.384	383.37
359.766	399.64
360.148	392.63
360.53	375
360.912	388.79
361.294	374.1
361.676	377.94
362.057	399.86
362.439	383.37
362.821	368.45
363.203	378.17
363.584	384.72
363.966	374.33
364.348	368
364.729	376.36
365.111	377.04
365.493	389.24
365.874	390.15
366.256	363.71
366.637	384.95
367.019	377.49
367.4	363.48
367.781	369.13
368.163	368.22
368.544	364.61
368.925	363.25
369.306	367.55
369.688	363.03
370.069	378.62
370.45	395.79
370.831	401.67
371.212	397.83
371.593	402.8
371.974	386.53
372.355	392.86
372.736	386.3
373.117	387.66
373.498	392.86
373.879	373.87
374.26	355.12
374.641	363.71
375.021	385.4
375.402	395.12
375.783	414.33
376.163	405.96
376.544	412.97
376.925	395.34
377.305	410.48
377.686	384.95
378.066	425.17
378.447	388.34
378.827	412.52
379.208	400.77
379.588	388.56
379.968	413.87
380.349	418.84
380.729	423.14
381.109	418.39
381.489	403.03
381.87	424.49
382.25	427.88
382.63	421.33
383.01	431.05
383.39	435.12
383.77	427.43
384.15	435.34
384.53	419.75
384.91	431.5
385.29	433.99
385.67	466.98
386.049	452.52
386.429	448.9
386.809	424.04
387.189	431.27
387.568	483.25
387.948	448.67
388.328	460.2
388.707	445.74
389.087	469.01
389.466	478.73
389.846	464.27
390.225	491.84
390.605	472.4
390.984	469.92
391.363	497.49
391.743	474.21
392.122	523.7
392.501	511.5
392.881	522.12
393.26	499.07
393.639	512.18
394.018	506.53
394.397	496.58
394.776	494.1
395.155	519.86
395.534	518.05
395.913	535.23
396.292	546.75
396.671	562.34
397.05	546.53
397.429	536.13
397.808	541.55
398.186	543.36
398.565	543.14
398.944	552.85
399.323	562.57
399.701	555.34
400.08	568.67
400.458	579.52
400.837	556.47
401.215	559.18
401.594	586.98
401.972	579.29
402.351	582.91
402.729	583.36
403.107	585.85
403.486	572.51
403.864	611.38
404.242	595.79
404.62	591.95
404.999	605.73
405.377	603.02
405.755	636.24
406.133	633.3
406.511	626.07
406.889	636.24
407.267	612.96
407.645	641.21
408.023	669.46
408.401	662.23
408.779	670.14
409.156	662
409.534	694.77
409.912	690.93
410.29	706.29
410.667	696.35
411.045	700.65
411.422	719.85
411.8	732.28
412.178	749.01
412.555	727.31
412.933	764.37
413.31	737.48
413.687	768.89
414.065	769.8
414.442	773.86
414.819	791.04
415.197	791.94
415.574	822.22
415.951	797.59
416.328	813.41
416.705	820.42
417.082	848.89
417.46	833.3
417.837	829.91
418.214	864.71
418.591	867.42
418.967	858.61
419.344	873.52
419.721	867.42
420.098	898.83
420.475	888.66
420.852	883.01
421.228	887.76
421.605	891.15
421.982	908.55
422.358	904.03
422.735	917.81
423.111	930.7
423.488	921.66
423.864	928.44
424.241	920.07
424.617	967.53
424.994	951.03
425.37	964.82
425.746	984.93
426.123	977.7
426.499	1000.3
426.875	990.13
427.251	1006.85
427.627	1019.06
428.003	1028.32
428.379	1045.04
428.756	1057.92
429.132	1100.86
429.507	1055.21
429.883	1079.62
430.259	1097.7
430.635	1100.18
431.011	1117.81
431.387	1130.92
431.763	1161.2
432.138	1161.42
432.514	1199.84
432.89	1168.66
433.265	1182.89
433.641	1209.56
434.016	1207.07
434.392	1221.76
434.767	1246.85
435.143	1248.2
435.518	1255.89
435.894	1243.23
436.269	1280.74
436.644	1297.92
437.02	1302.21
437.395	1314.19
437.77	1321.87
438.145	1336.56
438.52	1366.39
438.895	1372.94
439.271	1372.04
439.646	1368.42
440.021	1397.58
440.395	1405.03
440.77	1369.78
441.145	1419.04
441.52	1451.59
441.895	1436.22
442.27	1469.89
442.645	1429.21
443.019	1453.39
443.394	1462.21
443.769	1475.09
444.143	1462.21
444.518	1501.98
444.892	1478.93
445.267	1516.67
445.641	1504.24
446.016	1520.06
446.39	1539.49
446.764	1528.87
447.139	1550.34
447.513	1570.91
447.887	1550.11
448.262	1602.54
448.636	1599.15
449.01	1614.97
449.384	1643.22
449.758	1615.42
450.132	1638.93
450.506	1664.46
450.88	1658.59
451.254	1659.72
451.628	1699.94
452.002	1697
452.376	1755.31
452.75	1752.37
453.123	1743.56
453.497	1777.91
453.871	1770.45
454.244	1843.67
454.618	1823.1
454.992	1854.74
455.365	1889.31
455.739	1939.71
456.112	1928.64
456.486	1944.68
456.859	1955.08
457.232	2012.93
457.606	2000.5
457.979	2030.78
458.352	2078.69
458.725	2075.07
459.099	2086.15
459.472	2094.51
459.845	2176.99
460.218	2170.44
460.591	2182.87
460.964	2192.58
461.337	2271.23
461.71	2283.88
462.083	2312.81
462.456	2343.77
462.829	2317.78
463.201	2382.64
463.574	2384.22
463.947	2413.59
464.32	2450.43
464.692	2466.25
465.065	2521.61
465.438	2548.51
465.81	2562.07
466.183	2587.38
466.555	2633.02
466.928	2662.63
467.3	2668.28
467.672	2673.47
468.045	2738.33
468.417	2746.92
468.789	2782.17
469.161	2806.58
469.534	2847.03
469.906	2891.55
470.278	2898.55
470.65	2968.83
471.022	2993.01
471.394	3050.19
471.766	3092.22
472.138	3123.63
472.51	3197.75
472.882	3248.15
473.253	3240.24
473.625	3325.21
473.997	3352.78
474.369	3394.13
474.74	3436.39
475.112	3503.96
475.484	3563.85
475.855	3595.71
476.227	3662.6
476.598	3729.72
476.97	3742.6
477.341	3831.41
477.713	3911.18
478.084	3935.36
478.455	4038.18
478.827	4082.93
479.198	4190.05
479.569	4251.96
479.94	4368.8
480.311	4458.29
480.682	4503.71
481.053	4612.41
481.424	4724.95
481.795	4754.78
482.166	4844.94
482.537	4945.73
482.908	5008.33
483.279	5113.41
483.65	5211.94
484.021	5332.16
484.391	5386.17
484.762	5507.3
485.133	5543.46
485.503	5666.62
485.874	5799.04
486.244	5956.33
486.615	6073.39
486.985	6156.32
487.356	6307.96
487.726	6359.71
488.097	6608.96
488.467	6669.08
488.837	6774.16
489.207	6871.78
489.578	7123.98
489.948	7264.77
490.318	7369.17
490.688	7448.26
491.058	7650.07
491.428	7848.48
491.798	7901.36
492.168	8144.29
492.538	8190.39
492.908	8437.62
493.278	8554.22
493.648	8717.38
494.017	8801.9
494.387	9107.43
494.757	9189.01
495.126	9316.24
495.496	9488.21
495.866	9733.4
496.235	9921.42
496.605	10065.37
496.974	10189.66
497.344	10429.43
497.713	10482.31
498.082	10766.6
498.452	10894.95
498.821	11151.67
499.19	11299.91
499.559	11445.9
499.928	11711.66
500.298	11801.14
500.667	11976.06
501.036	12276.61
501.405	12481.13
501.774	12555.25
502.143	12766.32
502.512	13017.61
502.88	13250.15
503.249	13395
503.618	13625.28
503.987	13724.26
504.356	14020.07
504.724	14179.16
505.093	14386.39
505.462	14624.35
505.83	14740.73
506.199	15096.88
506.567	15262.97
506.936	15375.97
507.304	15696.41
507.672	15871.77
508.041	15942.28
508.409	16174.14
508.777	16495.94
509.145	16757.17
509.514	16806.66
509.882	17055.24
510.25	17204.39
510.618	17379.98
510.986	17652.29
511.354	17869.46
511.722	18037.36
512.09	18259.96
512.458	18288.88
512.826	18617.69
513.193	18767.06
513.561	18846.16
513.929	19159.6
514.297	19395.75
514.664	19638
515.032	19718.68
515.4	19993.47
515.767	20113.47
516.135	20323.18
516.502	20286.12
516.869	20726.79
517.237	20965.88
517.604	21004.97
517.972	21189.37
518.339	21409.93
518.706	21472.75
519.073	21706.65
519.44	21817.15
519.808	22089.24
520.175	22237.48
520.542	22678.82
520.909	22687.86
521.276	22843.79
521.643	23189.55
522.009	23321.07
522.376	23516.77
522.743	23818.68
523.11	24044.21
523.477	24152.01
523.843	24417.08
524.21	24667.25
524.577	24920.35
524.943	25010.51
525.31	25220.23
525.676	25487.56
526.043	25705.86
526.409	25967.55
526.776	26189.24
527.142	26418.16
527.508	26467.65
527.874	26736.57
528.241	26829.45
528.607	27023.34
528.973	27386.27
529.339	27402.99
529.705	27686.6
530.071	27882.3
530.437	28014.73
530.803	28249.3
531.169	28377.66
531.535	28513.93
531.901	28609.06
532.267	28792.79
532.632	28998.21
532.998	29171.31
533.364	29314.36
533.73	29493.11
534.095	29682.26
534.461	29643.84
534.826	29871.63
535.192	30156.14
535.557	30374.22
535.923	30206.31
536.288	30445.4
536.653	30564.49
537.019	30551.39
537.384	30736.01
537.749	30918.38
538.114	30991.15
538.479	30992.5
538.845	31102.11
539.21	31194.76
539.575	31251.93
539.94	31437.46
540.305	31656.44
540.67	31625.71
541.034	31769.21
541.399	31851.46
541.764	31972.14
542.129	31937.11
542.494	32114.06
542.858	32137.33
543.223	32215.52
543.587	32426.82
543.952	32501.17
544.316	32528.96
544.681	32548.85
545.045	32787.26
545.41	32945.67
545.774	32865.22
546.138	32963.75
546.503	32886.24
546.867	33222.95
547.231	33387.47
547.595	33441.48
547.959	33563.51
548.324	33517.18
548.688	33571.19
549.052	33697.74
549.416	33660
549.779	33861.13
550.143	33809.15
550.507	34146.55
550.871	34205.98
551.235	34155.58
551.599	34471.96
551.962	34553.31
552.326	34557.61
552.689	34716.02
553.053	34579.53
553.417	34689.81
553.78	35149.46
554.143	35087.76
554.507	35348.1
554.87	35419.05
555.234	35675.77
555.597	35540.18
555.96	35673.51
556.323	35752.83
556.686	35832.38
557.05	36035.31
557.413	36198.02
557.776	36236.21
558.139	36548.06
558.502	36561.62
558.865	36690.21
559.228	36785.8
559.59	36991.67
559.953	36980.6
560.316	37409.51
560.679	37446.8
561.041	37753.23
561.404	37803.17
561.767	38098.08
562.129	37880.46
562.492	38366.32
562.854	38342.37
563.217	38355.25
563.579	38524.74
563.941	38766.99
564.304	38881.56
564.666	39170.37
565.028	39216.92
565.39	39367.65
565.753	39658.49
566.115	39618.27
566.477	39780.52
566.839	40038.14
567.201	40337.12
567.563	40291.24
567.925	40472.48
568.287	40505.7
568.648	40735.75
569.01	41085.8
569.372	41320.59
569.734	41232.91
570.095	41399.91
570.457	41704.31
570.819	41848.26
571.18	41799.45
571.542	42224.75
571.903	42161.93
572.265	42422.26
572.626	42552.43
572.987	42615.25
573.349	42910.38
573.71	43079.64
574.071	43264.5
574.432	43586.98
574.794	43712.4
575.155	43719.4
575.516	43634.21
575.877	43997.59
576.238	44087.08
576.599	44129.79
576.96	44334.75
577.32	44432.38
577.681	44638.47
578.042	44887.05
578.403	44845.02
578.763	44951.91
579.124	45113.94
579.485	45375.85
579.845	45442.97
580.206	45577.21
580.566	45672.57
580.927	45712.8
581.287	46085.67
581.648	45940.36
582.008	46367.92
582.368	46465.32
582.728	46478.88
583.089	46701.92
583.449	46661.24
583.809	46905.98
584.169	47055.81
584.529	47016.94
584.889	47489.92
585.249	47286.99
585.609	47362.7
585.969	47803.59
586.329	47710.93
586.688	47957.48
587.048	48124.03
587.408	48105.27
587.768	48335.33
588.127	48402.89
588.487	48647.18
588.846	48880.17
589.206	48641.53
589.565	48853.73
589.925	49443.54
590.284	49298.69
590.643	49379.82
591.003	49533.71
591.362	49791.56
591.721	49814.38
592.08	49963.53
592.44	50166.46
592.799	50223.41
593.158	50421.15
593.517	50451.2
593.876	50556.06
594.235	50600.8
594.593	50819.1
594.952	51047.34
595.311	50979.32
595.67	51123.73
596.029	51370.05
596.387	51577.05
596.746	51628.35
597.104	51637.61
597.463	51763.71
597.822	51967.77
598.18	51948.56
598.538	52075.11
598.897	52368.67
599.255	52172.51
599.613	52648.43
599.972	52494.09
600.33	52681.88
600.688	52743.57
601.046	52831.93
601.404	53182.43
601.762	53146.72
602.12	53374.74
602.478	53468.07
602.836	53547.62
603.194	53296.1
603.552	53549.88
603.91	53586.03
604.268	53814.05
604.625	53825.35
604.983	54015.85
605.341	53928.17
605.698	54150.54
606.056	54256.3
606.413	54296.98
606.771	54479.12
607.128	54531.32
607.485	54557.53
607.843	54662.39
608.2	54824.87
608.557	54897.41
608.914	54865.32
609.272	55064.19
609.629	55217.63
609.986	55265.54
610.343	55214.92
610.7	55506.44
611.057	55548.92
611.414	55448.58
611.771	55644.74
612.127	55758.18
612.484	55843.38
612.841	55871.17
613.198	55862.36
613.554	55928.35
613.911	56120.66
614.267	56103.93
614.624	56218.73
614.98	56240.65
615.337	56439.07
615.693	56400.2
616.05	56498.27
616.406	56645.39
616.762	56531.04
617.118	56639.29
617.475	56582.34
617.831	56711.15
618.187	56844.93
618.543	56827.53
618.899	57031.37
619.255	56978.94
619.611	56999.28
619.967	57155.21
620.323	57162.21
620.678	57115.89
621.034	57117.92
621.39	57238.82
621.746	57200.4
622.101	57429.78
622.457	57184.36
622.812	57418.48
623.168	57447.4
623.523	57393.62
623.879	57525.82
624.234	57404.92
624.589	57562.2
624.945	57638.36
625.3	57564.46
625.655	57658.92
626.01	57652.37
626.365	57651.24
626.72	57635.42
627.075	57601.07
627.43	57629.77
627.785	57618.47
628.14	57646.72
628.495	57635.19
628.85	57698.24
629.205	57682.88
629.559	57749.54
629.914	57625.25
630.269	57669.32
630.623	57567.17
630.978	57523.11
631.332	57644.23
631.687	57597.91
632.041	57641.97
632.396	57645.14
632.75	57589.09
633.104	57577.34
633.459	57485.14
633.813	57566.04
634.167	57553.39
634.521	57539.83
634.875	57495.31
635.229	57481.75
635.583	57324.47
635.937	57323.79
636.291	57373.51
636.645	57401.75
636.999	57241.53
637.352	57347.29
637.706	57183.45
638.06	57231.59
638.413	57238.59
638.767	57142.1
639.121	57175.77
639.474	57130.35
639.828	57105.04
640.181	57135.77
640.534	57182.1
640.888	57011.03
641.241	56931.94
641.594	57026.4
641.947	57091.93
642.301	56960.86
642.654	57046.51
643.007	56878.38
643.36	56979.17
643.713	56802.9
644.066	56978.26
644.419	56798.15
644.771	56557.26
645.124	56258.05
645.477	56257.15
645.83	56145.52
646.182	56186.87
646.535	56034.56
646.888	56159.75
647.24	56055.8
647.593	56192.07
647.945	56163.82
648.298	55999.3
648.65	55895.58
649.002	55822.81
649.355	55780.1
649.707	55710.72
650.059	55777.16
650.411	56095.57
650.763	56203.59
651.115	56560.65
651.467	56492.17
651.819	56425.28
652.171	56369.01
652.523	56337.83
652.875	56321.56
653.227	56252.63
653.578	56418.5
653.93	56292.18
654.282	56255.57
654.633	56207.21
654.985	56235.46
655.337	56279.07
655.688	56244.04
656.039	56207.43
656.391	56071.39
656.742	56152.97
657.094	56032.52
657.445	56078.62
657.796	56105.74
658.147	56002.69
658.498	56093.77
658.849	56110.04
659.2	56005.18
659.551	55997.95
659.902	56066.42
660.253	55923.37
660.604	56046.76
660.955	55910.27
661.306	56041.79
661.656	55905.07
662.007	55964.05
662.358	55999.76
662.708	55971.73
663.059	55929.93
663.409	55745.3
663.76	55837.27
664.11	55926.54
664.461	55840.21
664.811	55813.77
665.161	55895.13
665.511	55775.13
665.862	55879.76
666.212	55922.47
666.562	55908.46
666.912	55849.25
667.262	55755.92
667.612	55828.46
667.962	55844.96
668.312	55736.94
668.662	55857.84
669.011	55830.04
669.361	55729.48
669.711	55804.73
670.06	55700.33
670.41	55559.54
670.76	55609.26
671.109	55750.05
671.459	55598.86
671.808	55605.64
672.157	55722.02
672.507	55545.31
672.856	55520.22
673.205	55546.21
673.554	55700.78
673.904	55595.7
674.253	55845.41
674.602	55597.06
674.951	55282.94
675.3	55099.67
675.649	55648.13
675.998	55517.74
676.346	55595.93
676.695	55567.9
677.044	55384.18
677.393	55455.59
677.741	55522.71
678.09	55423.73
678.438	55358.87
678.787	55487.45
679.135	55379.89
679.484	55233.9
679.832	55387.12
680.181	55301.02
680.529	55343.28
680.877	55237.52
681.225	55085.66
681.573	55392.09
681.922	55115.03
682.27	55106.67
682.618	55113.23
682.966	55096.5
683.314	55096.96
683.661	55091.31
684.009	54902.16
684.357	54899.22
684.705	54835.49
685.053	54934.02
685.4	54744.42
685.748	54642.96
686.095	54685.21
686.443	54580.36
686.79	54552.34
687.138	54674.59
687.485	54622.84
687.832	54548.5
688.18	54517.08
688.527	54395.96
688.874	54384.88
689.221	54381.04
689.568	54288.39
689.915	54197.32
690.262	54235.96
690.609	54076.42
690.956	54093.82
691.303	54049.98
691.65	53885.69
691.997	53879.13
692.344	53792.13
692.69	53704.68
693.037	53821.73
693.383	53528.18
693.73	53623.77
694.077	53520.5
694.423	53485.02
694.769	53352.59
695.116	53330.67
695.462	53166.84
695.808	53083.22
696.155	53261.07
696.501	52923
696.847	53010.23
697.193	52869.22
697.539	52837.13
697.885	52548.77
698.231	52520.75
698.577	52670.8
698.923	52514.2
699.269	52220.65
699.614	52184.04
699.96	52151.27
700.306	52160.76
700.651	51988.34
700.997	51921.9
701.342	51846.87
701.688	51793.31
702.033	51639.65
702.379	51654.33
702.724	51518.29
703.069	51556.71
703.415	51096.16
703.76	51156.72
704.105	51180.45
704.45	51138.42
704.795	51008.93
705.14	50869.27
705.485	50907.23
705.83	50647.81
706.175	50766.67
706.52	50677.41
706.865	50394.71
707.209	50294.37
707.554	50330.07
707.899	50309.51
708.243	50041.27
708.588	50078.56
708.932	49873.82
709.277	49932.57
709.621	49759.92
709.966	49594.73
710.31	49670.88
710.654	49339.59
710.998	49462.3
711.342	49450.55
711.687	49261.85
712.031	49265.02
712.375	49030.67
712.719	49052.59
713.063	48983.9
713.407	48959.26
713.75	48968.75
714.094	48808.08
714.438	48604.47
714.782	48623.45
715.125	48507.52
715.469	48679.72
715.812	48259.62
716.156	48267.08
716.499	48198.61
716.843	48313.63
717.186	48012.4
717.53	48263.01
717.873	48187.76
718.216	47957.26
718.559	47941.89
718.902	47569.7
719.246	47795.9
719.589	47576.02
719.932	47443.82
720.275	47528.34
720.617	47559.53
720.96	47246.77
721.303	47241.12
721.646	47339.87
721.989	47052.87
722.331	47382.36
722.674	47112.53
723.016	47099.65
723.359	46983.27
723.701	46958.41
724.044	46927
724.386	46801.35
724.729	47004.74
725.071	46829.83
725.413	46790.51
725.755	46680.45
726.097	46588.48
726.439	46498.54
726.782	46261.93
727.124	46588.03
727.465	46544.19
727.807	46282.72
728.149	46356.62
728.491	46151.65
728.833	46162.73
729.175	46247.02
729.516	46135.83
729.858	45971.55
730.199	46241.59
730.541	46183.52
730.882	45967.7
731.224	45894.49
731.565	45882.73
731.906	45960.25
732.248	45894.26
732.589	45734.49
732.93	45754.83
733.271	45678.22
733.612	45597.54
733.953	45684.32
734.294	45602.52
734.635	45677.99
734.976	45689.74
735.317	45529.3
735.658	45370.21
735.999	45363.2
736.339	45414.27
736.68	45468.51
737.021	45340.38
737.361	45223.32
737.702	45522.52
738.042	45273.71
738.383	45386.25
738.723	45441.62
739.063	45222.19
739.404	45421.05
739.744	45352.35
740.084	45266.71
740.424	45415.18
740.764	45265.8
741.104	45353.48
741.444	45022.64
741.784	44961.85
742.124	45173.15
742.464	45138.8
742.804	45073.26
743.143	45068.29
743.483	44992.59
743.823	44895.87
744.162	44989.88
744.502	45037.78
744.841	45021.97
745.181	45294.05
745.52	44855.19
745.86	44995.3
746.199	44958.46
746.538	45012.25
746.877	45058.8
747.216	45069.87
747.556	44895.42
747.895	44911.46
748.234	44944.68
748.573	44942.19
748.911	44804.12
749.25	44928.86
749.589	44780.39
749.928	44870.33
750.267	44858.81
750.605	44843.67
750.944	44826.26
751.283	44753.95
751.621	44850.22
751.96	44713.05
752.298	44771.8
752.636	44948.07
752.975	44675.99
753.313	44708.08
753.651	44952.82
753.989	44669.88
754.327	44649.55
754.666	44336.33
755.004	44616.1
755.342	44731.13
755.679	44548.98
756.017	44421.3
756.355	44624.24
756.693	44466.73
757.031	44626.72
757.368	44230.57
757.706	44350.12
758.044	44152.16
758.381	44235.55
758.719	44106.96
759.056	44234.19
759.394	43983.8
759.731	43801.66
760.068	43919.17
760.405	43783.35
760.743	43715.11
761.08	43770.93
761.417	43601.89
761.754	43554.43
762.091	43402.35
762.428	43316.93
762.765	43214.1
763.102	43229.92
763.438	43019.53
763.775	42949.25
764.112	42959.87
764.449	42851.18
764.785	42798.52
765.122	42504.29
765.458	42471.3
765.795	42295.48
766.131	42285.09
766.467	42291.64
766.804	42015.27
767.14	41833.35
767.476	41932.1
767.812	41695.5
768.148	41813.01
768.485	41528.5
768.821	41323.08
769.157	41202.41
769.492	41325.34
769.828	41101.17
770.164	40773.26
770.5	40786.15
770.836	40712.7
771.171	40591.12
771.507	40414.18
771.842	40127.18
772.178	40176.44
772.513	40098.48
772.849	39923.34
773.184	39832.27
773.519	39837.7
773.855	39571.26
774.19	39371.27
774.525	39328.1
774.86	39322.68
775.195	39235.45
775.53	39031.39
775.865	38805.41
776.2	38654.9
776.535	38457.84
776.87	38335.14
777.205	38221.47
777.539	37993.9
777.874	38131.07
778.209	37748.48
778.543	37783.96
778.878	37648.37
779.212	37531.99
779.547	37253.58
779.881	37186.24
780.215	37136.75
780.55	37106.24
780.884	36820.83
781.218	36669.42
781.552	36812.69
781.886	36473.94
782.22	36439.37
782.554	36125.93
782.888	35761.19
783.222	35855.65
783.556	35639.16
783.889	35512.39
784.223	35269.45
784.557	35296.8
784.89	35381.09
785.224	35073.75
785.557	34950.37
785.891	34840.99
786.224	34796.02
786.558	34698.4
786.891	34558.96
787.224	34190.16
787.557	34183.38
787.891	34178.64
788.224	34057.28
788.557	33893.9
788.89	33796.95
789.223	33843.5
789.556	33540.01
789.888	33476.96
790.221	33476.28
790.554	33337.3
790.887	33225.89
791.219	32972.11
791.552	32940.25
791.884	32721.27
792.217	32803.98
792.549	32580.03
792.882	32352.92
793.214	32304.33
793.546	32391.79
793.879	32205.58
794.211	31984.79
794.543	32088.07
794.875	31891.46
795.207	31850.79
795.539	31691.47
795.871	31711.58
796.203	31550.23
796.535	31310.91
796.867	31413.51
797.198	31145.49
797.53	31090.58
797.862	30748.44
798.193	30910.7
798.525	30767.43
798.856	30837.48
799.188	30475.91
799.519	30342.8
799.85	30339.64
800.182	30295.35
800.513	30286.53
800.844	29819.65
801.175	30121.34
801.506	30119.08
801.837	29877.73
802.168	29876.38
802.499	29758.64
802.83	29626.21
803.161	29447.91
803.491	29381.02
803.822	29504.86
804.153	29273.23
804.483	29055.83
804.814	28845.22
805.145	29029.17
805.475	28979
805.805	28872.56
806.136	28974.25
806.466	28812.9
806.796	28663.53
807.126	28377.43
807.457	28495.39
807.787	28476.86
808.117	28325.46
808.447	28175.18
808.777	28335.85
809.107	28047.5
809.436	27909.42
809.766	27995.07
810.096	27925.92
810.426	27798.24
810.755	27854.51
811.085	27792.14
811.414	27737
811.744	27470.34
812.073	27515.08
812.403	27475.08
812.732	27348.98
813.061	27405.71
813.39	27158.03
813.719	27106.05
814.049	27245.71
814.378	27232.6
814.707	26830.35
815.036	26948.09
815.365	26814.76
815.693	26686.18
816.022	26678.27
816.351	26656.12
816.68	26456.35
817.008	26534.09
817.337	26231.73
817.665	26376.81
817.994	26354.21
818.322	26282.8
818.651	26210.71
818.979	26160.31
819.307	26177.94
819.636	26129.36
819.964	25949.02
820.292	26039.19
820.62	25975.69
820.948	25956.25
821.276	26071.28
821.604	25943.37
821.932	26157.15
822.259	25994.22
822.587	25955.35
822.915	25835.8
823.243	25996.25
823.57	25864.28
823.898	25978.85
824.225	25851.62
824.553	25834
824.88	25746.31
825.207	25957.38
825.535	25848.46
825.862	25988.79
826.189	25809.14
826.516	26024.27
826.843	25948.34
827.17	25978.4
827.497	26068.57
827.824	25844.84
828.151	26004.39
828.478	25825.86
828.805	26014.56
829.131	25938.17
829.458	25995.57
829.785	25730.27
830.111	25767.56
830.438	25919.19
830.764	25988.79
831.09	25950.38
831.417	25745.86
831.743	25998.96
832.069	25794
832.395	25723.72
832.722	25834.9
833.048	25638.97
833.374	25923.49
833.7	25726.88
834.026	25773.66
834.351	25606.43
834.677	25705.64
835.003	25655.92
835.329	25737.05
835.654	25627
835.98	25420.22
836.306	25687.79
836.631	25374.57
836.956	25596.71
837.282	25589.71
837.607	25470.62
837.932	25332.77
838.258	25370.96
838.583	25286.44
838.908	25220
839.233	25325.08
839.558	25255.93
839.883	25148.36
840.208	24985.2
840.533	25149.72
840.858	25124.41
841.182	25071.53
841.507	24993.11
841.832	24874.47
842.156	24963.74
842.481	24879.44
842.805	24781.37
843.13	24645.1
843.454	24659.34
843.778	24493.69
844.103	24594.93
844.427	24536.4
844.751	24426.8
845.075	24578.44
845.399	24469.96
845.723	24212.12
846.047	24304.32
846.371	24109.97
846.695	24023.65
847.019	23939.58
847.343	23747.72
847.666	23807.38
847.99	23552.93
848.313	23599.03
848.637	23466.83
848.96	23350.9
849.284	23422.53
849.607	23083.56
849.931	23119.94
850.254	23129.89
850.577	22950
850.9	22659.16
851.223	22645.83
851.546	22691.93
851.869	22453.29
852.192	22611.71
852.515	22537.36
852.838	22331.26
853.161	22194.09
853.483	22084.26
853.806	22071.38
854.129	22003.59
854.451	22138.05
854.774	21885.85
855.096	21773.76
855.419	21678.17
855.741	21527.44
856.063	21501.91
856.385	21458.29
856.708	21536.71
857.03	21434.11
857.352	21455.13
857.674	21307.34
857.996	21265.3
858.318	21105.53
858.64	21091.52
858.961	20943.05
859.283	20975.14
859.605	20941.02
859.926	20903.96
860.248	20713.68
860.57	20606.34
860.891	20719.1
861.212	20528.15
861.534	20582.16
861.855	20430.52
862.176	20461.71
862.498	20421.03
862.819	20386.91
863.14	20404.76
863.461	20303.97
863.782	20223.07
864.103	20218.78
864.424	20120.7
864.745	20223.52
865.065	20103.75
865.386	19997.54
865.707	20023.3
866.027	20099.01
866.348	19933.36
866.668	19903.76
866.989	19800.48
867.309	19775.17
867.63	19791.44
867.95	19943.08
868.27	19653.59
868.59	19786.92
868.91	19709.19
869.23	19671.9
869.55	19483.2
869.87	19611.56
870.19	19443.2
870.51	19572.92
870.83	19500.83
871.15	19315.52
871.469	19373.83
871.789	19524.11
872.109	19332.7
872.428	19260.38
872.748	19379.93
873.067	19283.43
873.386	19260.16
873.706	19261.29
874.025	19188.97
874.344	19048.64
874.663	19088.18
874.982	19101.74
875.301	19094.74
875.62	18969.09
875.939	18948.98
876.258	18950.34
876.577	18853.84
876.896	18920.28
877.214	18748.98
877.533	18847.74
877.852	18823.56
878.17	18770
878.489	18760.96
878.807	18784.92
879.125	18751.7
879.444	18672.15
879.762	18466.51
880.08	18635.99
880.398	18480.29
880.716	18458.14
881.034	18520.29
881.352	18457.92
881.67	18420.41
881.988	18455.21
882.306	18409.11
882.624	18356
882.941	18222.44
883.259	18151.71
883.577	18154.65
883.894	18100.64
884.212	18010.7
884.529	18003.47
884.846	18001.43
885.164	17927.54
885.481	17904.71
885.798	17866.52
886.115	17730.93
886.432	17895.9
886.75	17721.89
887.067	17765.96
887.383	17570.48
887.7	17696.13
888.017	17573.87
888.334	17560.09
888.651	17505.85
888.967	17462.24
889.284	17391.28
889.6	17371.62
889.917	17200.55
890.233	17254.11
890.55	17142.02
890.866	17238.29
891.182	17093.43
891.498	17063.38
891.815	16928.24
892.131	16895.02
892.447	16885.3
892.763	16852.76
893.079	16774.35
893.395	16731.64
893.71	16657.29
894.026	16666.55
894.342	16537.07
894.657	16473.79
894.973	16467.46
895.289	16370.74
895.604	16286.68
895.92	16267.24
896.235	16267.92
896.55	16246.9
896.865	16147.02
897.181	16133.69
897.496	16162.39
897.811	16039.23
898.126	15896.4
898.441	15902.96
898.756	15900.25
899.071	15735.28
899.386	15784.09
899.7	15653.47
900.015	15535.06
900.33	15422.07
900.644	15453.03
900.959	15443.99
901.273	15321.05
901.588	15314.95
901.902	15375.74
902.216	15194.28
902.531	15247.61
902.845	15120.15
903.159	15009.65
903.473	14997.67
903.787	14880.61
904.101	14754.97
904.415	14909.09
904.729	14840.61
905.042	14733.27
905.356	14695.76
905.67	14661.63
905.984	14601.52
906.297	14517.68
906.611	14467.97
906.924	14367.63
907.237	14375.77
907.551	14333.06
907.864	14243.11
908.177	14098.49
908.491	14145.94
908.804	14013.29
909.117	13986.4
909.43	13902.11
909.743	13841.77
910.056	13953.86
910.368	13806.74
910.681	13750.25
910.994	13719.29
911.307	13617.82
911.619	13525.39
911.932	13543.25
912.244	13411.27
912.557	13392.74
912.869	13299.86
913.181	13297.83
913.494	13246.98
913.806	13171.5
914.118	13207.89
914.43	13096.03
914.742	13025.97
915.054	12942.36
915.366	12913.66
915.678	12858.29
915.99	12786.66
916.302	12728.13
916.613	12723.15
916.925	12713.44
917.236	12635.7
917.548	12494.01
917.859	12502.82
918.171	12436.38
918.482	12351.64
918.794	12316.39
919.105	12272.77
919.416	12193.9
919.727	12193.9
920.038	12090.18
920.349	12114.36
920.66	12100.12
920.971	11950.07
921.282	11890.86
921.593	11909.84
921.903	11837.75
922.214	11802.05
922.525	11662.17
922.835	11595.5
923.146	11643.86
923.456	11599.34
923.767	11482.28
924.077	11520.02
924.387	11455.16
924.697	11286.58
925.008	11404.54
925.318	11303.3
925.628	11177.43
925.938	11281.16
926.248	11050.2
926.558	11034.84
926.867	11052.92
927.177	10963.88
927.487	10928.85
927.796	10825.58
928.106	10894.95
928.416	10754.62
928.725	10830.32
929.034	10659.93
929.344	10723.43
929.653	10584.23
929.962	10553.95
930.271	10503.33
930.581	10438.92
930.89	10472.59
931.199	10385.36
931.508	10285.48
931.817	10301.07
932.125	10299.04
932.434	10176.78
932.743	10138.14
933.051	10089.33
933.36	10066.5
933.669	10021.08
933.977	9962.77
934.286	9833.74
934.594	9896.34
934.902	9820.18
935.21	9783.57
935.519	9784.02
935.827	9734.08
936.135	9676.68
936.443	9629.9
936.751	9567.53
937.059	9566.85
937.367	9510.13
937.674	9486.4
937.982	9396.01
938.29	9367.31
938.597	9429.68
938.905	9258.61
939.213	9303.13
939.52	9218.16
939.827	9222.46
940.135	9085.96
940.442	9091.39
940.749	9055.23
941.056	9132.97
941.363	8949.02
941.67	8950.6
941.977	8881.67
942.284	8828.12
942.591	8882.8
942.898	8817.72
943.205	8811.62
943.511	8698.4
943.818	8701.79
944.125	8646.65
944.431	8593.55
944.738	8542.25
945.044	8533.21
945.35	8412.76
945.657	8422.93
945.963	8412.53
946.269	8351.97
946.575	8332.08
946.881	8341.8
947.187	8304.74
947.493	8279.2
947.799	8213.22
948.105	8149.49
948.41	8097.29
948.716	8117.85
949.022	8079.21
949.327	8017.97
949.633	7934.58
949.938	7932.32
950.244	7924.86
950.549	7860.46
950.854	7829.05
951.16	7832.21
951.465	7777.97
951.77	7724.64
952.075	7688.94
952.38	7711.08
952.685	7624.76
952.99	7569.39
953.294	7533.01
953.599	7462.73
953.904	7400.36
954.209	7395.16
954.513	7395.38
954.818	7380.92
955.122	7397.19
955.426	7295.27
955.731	7275.16
956.035	7201.49
956.339	7158.1
956.643	7141.15
956.948	7130.31
957.252	7070.2
957.556	7113.36
957.86	6993.36
958.163	6961.95
958.467	7029.07
958.771	6934.15
959.075	6874.95
959.378	6915.17
959.682	6913.59
959.985	6820.71
960.289	6755.4
960.592	6754.72
960.896	6685.12
961.199	6709.53
961.502	6695.06
961.805	6649.19
962.108	6620.26
962.411	6587.5
962.714	6521.51
963.017	6488.74
963.32	6484.22
963.623	6472.92
963.926	6416.43
964.228	6353.6
964.531	6412.59
964.833	6347.28
965.136	6288.07
965.438	6233.61
965.741	6233.83
966.043	6179.37
966.345	6206.72
966.648	6197
966.95	6148.41
967.252	6065.7
967.554	6079.49
967.856	6084.23
968.158	6002.2
968.46	6045.36
968.761	5956.33
969.063	5905.48
969.365	5925.59
969.666	5939.83
969.968	5824.8
970.269	5846.05
970.571	5804.69
970.872	5784.35
971.174	5787.74
971.475	5757.69
971.776	5725.15
972.077	5681.76
972.378	5633.85
972.679	5606.05
972.98	5615.09
973.281	5618.71
973.582	5573.96
973.883	5584.13
974.183	5496
974.484	5500.07
974.785	5431.14
975.085	5444.7
975.386	5421.43
975.686	5397.47
975.986	5344.14
976.287	5333.52
976.587	5304.59
976.887	5316.12
977.187	5310.69
977.487	5274.31
977.787	5237.48
978.087	5154.31
978.387	5142.11
978.687	5122.9
978.987	5133.52
979.286	5107.08
979.586	5061.89
979.885	5065.95
980.185	5044.94
980.484	4988.67
980.784	4986.86
981.083	4961.55
981.382	4948.44
981.682	4926.75
981.981	4913.42
982.28	4874.32
982.579	4811.5
982.878	4778.05
983.177	4793.87
983.475	4770.59
983.774	4762.23
984.073	4681.56
984.372	4649.02
984.67	4672.52
984.969	4636.59
985.267	4669.58
985.566	4625.51
985.864	4628
986.162	4608.34
986.461	4576.93
986.759	4566.53
987.057	4488.12
987.355	4447.89
987.653	4433.2
987.951	4461
988.249	4404.5
988.547	4390.72
988.844	4385.97
989.142	4376.48
989.44	4359.98
989.737	4290.16
990.035	4285.86
990.332	4277.95
990.63	4292.19
990.927	4225.07
991.224	4228.01
991.521	4190.05
991.819	4168.8
992.116	4167.22
992.413	4145.07
992.71	4112.31
993.006	4091.06
993.303	4094.91
993.6	4017.17
993.897	3995.25
994.193	4046.55
994.49	3999.99
994.787	3962.93
995.083	3967
995.379	3934.46
995.676	3881.13
995.972	3902.37
996.268	3846.33
996.565	3856.49
996.861	3850.62
997.157	3766.1
997.453	3781.92
997.749	3772.88
998.044	3738.76
998.34	3708.25
998.636	3699.21
998.932	3698.76
999.227	3632.09
999.523	3670.74
999.818	3624.41
1000.114	3599.33
1000.409	3559.33
1000.704	3594.58
1001	3533.57
1001.295	3526.11
1001.59	3531.31
1001.885	3472.1
1002.18	3454.47
1002.475	3433.23
1002.77	3434.58
1003.065	3430.29
1003.359	3386.9
1003.654	3372.44
1003.949	3386.22
1004.243	3322.5
1004.538	3277.53
1004.832	3308.94
1005.127	3273.69
1005.421	3278.43
1005.715	3230.52
1006.009	3215.83
1006.304	3206.57
1006.598	3221.48
1006.892	3150.98
1007.186	3159.79
1007.48	3136.97
1007.773	3103.52
1008.067	3112.33
1008.361	3082.05
1008.655	3052.9
1008.948	3068.94
1009.242	3032.34
1009.535	2980.59
1009.829	2971.55
1010.122	2926.35
1010.415	2967.93
1010.708	2913.24
1011.001	2892.23
1011.295	2845.67
1011.588	2850.65
1011.881	2850.19
1012.173	2839.57
1012.466	2850.19
1012.759	2791.44
1013.052	2781.04
1013.344	2736.98
1013.637	2774.49
1013.93	2729.07
1014.222	2705.11
1014.514	2674.38
1014.807	2710.31
1015.099	2644.1
1015.391	2671.22
1015.683	2614.27
1015.976	2609.75
1016.268	2553.03
1016.56	2577.43
1016.851	2534.72
1017.143	2553.7
1017.435	2529.98
1017.727	2496.98
1018.018	2482.52
1018.31	2475.51
1018.602	2469.86
1018.893	2447.04
1019.185	2397.78
1019.476	2430.54
1019.767	2397.55
1020.058	2357.78
1020.35	2351.68
1020.641	2328.4
1020.932	2324.78
1021.223	2294.95
1021.514	2310.55
1021.804	2280.72
1022.095	2266.93
1022.386	2212.47
1022.677	2202.75
1022.967	2186.93
1023.258	2206.59
1023.548	2168.4
1023.839	2132.92
1024.129	2168.86
1024.419	2138.57
1024.709	2090.67
1025	2070.55
1025.29	2082.08
1025.58	2054.28
1025.87	2023.55
1026.16	2061.74
1026.449	2021.06
1026.739	2026.03
1027.029	1986.04
1027.319	1969.31
1027.608	1984
1027.898	1959.6
1028.187	1922.99
1028.477	1943.55
1028.766	1927.28
1029.055	1864.68
1029.344	1874.4
1029.634	1877.56
1029.923	1875.3
1030.212	1847.96
1030.501	1836.21
1030.79	1801.63
1031.078	1805.48
1031.367	1796.89
1031.656	1748.3
1031.945	1766.15
1032.233	1765.02
1032.522	1749.66
1032.81	1733.16
1033.099	1729.54
1033.387	1738.13
1033.675	1697
1033.963	1675.08
1034.251	1639.6
1034.54	1625.14
1034.828	1598.47
1035.116	1612.03
1035.403	1587.85
1035.691	1612.26
1035.979	1595.54
1036.267	1593.05
1036.554	1580.85
1036.842	1573.62
1037.129	1565.26
1037.417	1558.48
1037.704	1518.7
1037.992	1525.48
1038.279	1499.27
1038.566	1477.35
1038.853	1477.35
1039.14	1477.35
