Data from 14-0852_FLMS001491_008.txt Node
Date: Thu Apr 12 17:07:16 BST 2018
User: hsy
Spectrometer: FLMS00149
Trigger mode: 0
Integration Time (sec): 1.000000E-2
Scans to average: 10
Electric dark correction enabled: true
Nonlinearity correction enabled: false
Boxcar width: 0
XAxis mode: Wavelengths
Number of Pixels in Spectrum: 2048
>>>>>Begin Spectral Data<<<<<
341.393	-10.32
341.776	-10.32
342.16	-10.32
342.543	-44.9
342.927	-82.19
343.31	-78.8
343.693	-75.86
344.077	-72.24
344.46	-88.74
344.843	-51.45
345.226	-36.09
345.61	-28.18
345.993	-11.45
346.376	13.4
346.759	26.74
347.142	43.69
347.525	38.26
347.908	50.01
348.291	86.17
348.674	72.39
349.057	112.16
349.44	114.64
349.823	138.82
350.206	172.04
350.588	236
350.971	247.3
351.354	281.65
351.737	261.08
352.119	294.3
352.502	298.59
352.884	329.33
353.267	323.9
353.65	327.07
354.032	353.28
354.414	351.7
354.797	340.85
355.179	351.25
355.562	356.9
355.944	359.16
356.326	359.84
356.709	384.02
357.091	374.3
357.473	381.98
357.855	367.74
358.238	405.26
358.62	380.17
359.002	378.37
359.384	375.88
359.766	363.45
360.148	377.01
360.53	404.81
360.912	394.18
361.294	396.67
361.676	381.08
362.057	359.16
362.439	381.76
362.821	395.09
363.203	388.76
363.584	376.11
363.966	374.3
364.348	389.66
364.729	375.43
365.111	374.52
365.493	365.71
365.874	352.83
366.256	392.6
366.637	374.75
367.019	378.59
367.4	372.94
367.781	384.02
368.163	370.91
368.544	374.07
368.925	381.76
369.306	390.79
369.688	374.3
370.069	379.72
370.45	375.2
370.831	374.98
371.212	378.59
371.593	373.85
371.974	355.77
372.355	383.11
372.736	396.67
373.117	404.58
373.498	368.42
373.879	375.43
374.26	380.4
374.641	404.81
375.021	399.38
375.402	378.14
375.783	387.41
376.163	393.73
376.544	410.68
376.925	406.39
377.305	400.29
377.686	404.35
378.066	382.43
378.447	402.77
378.827	398.7
379.208	398.25
379.588	399.16
379.968	416.1
380.349	399.16
380.729	398.03
381.109	427.63
381.489	426.05
381.87	419.49
382.25	427.86
382.63	427.63
383.01	412.72
383.39	449.55
383.77	428.31
384.15	418.59
384.53	438.48
384.91	443.67
385.29	437.35
385.67	443.45
386.049	463.56
386.429	447.29
386.809	458.36
387.189	429.89
387.568	464.92
387.948	445.03
388.328	460.62
388.707	475.76
389.087	466.05
389.466	460.62
389.846	490.91
390.225	499.04
390.605	470.11
390.984	476.89
391.363	473.96
391.743	478.48
392.122	478.7
392.501	511.92
392.881	485.48
393.26	490.23
393.639	497.68
394.018	493.39
394.397	515.09
394.776	511.47
395.155	522.77
395.534	532.49
395.913	520.06
396.292	532.03
396.671	525.48
397.05	523.22
397.429	525.25
397.808	548.98
398.186	527.06
398.565	518.7
398.944	520.06
399.323	538.14
399.701	535.2
400.08	556.89
400.458	545.37
400.837	556.67
401.215	570.9
401.594	576.78
401.972	570
402.351	565.93
402.729	575.65
403.107	573.61
403.486	567.06
403.864	556.89
404.242	583.33
404.62	595.76
404.999	608.42
405.377	606.83
405.755	580.17
406.133	591.92
406.511	614.74
406.889	618.36
407.267	599.15
407.645	629.21
408.023	639.6
408.401	644.57
408.779	638.02
409.156	650.45
409.534	626.72
409.912	670.79
410.29	648.19
410.667	671.92
411.045	696.1
411.422	694.52
411.8	687.96
412.178	703.78
412.555	698.81
412.933	701.52
413.31	696.78
413.687	727.06
414.065	717.79
414.442	747.17
414.819	739.49
415.197	759.37
415.574	764.57
415.951	753.27
416.328	751.01
416.705	761.63
417.082	797.79
417.46	787.62
417.837	781.97
418.214	795.08
418.591	792.59
418.967	820.61
419.344	789.88
419.721	822.2
420.098	825.36
420.475	827.39
420.852	828.07
421.228	831.91
421.605	850.67
421.982	818.58
422.358	845.92
422.735	848.41
423.111	854.29
423.488	870.78
423.864	867.39
424.241	899.48
424.617	895.41
424.994	902.65
425.37	905.36
425.746	903.78
426.123	917.33
426.499	920.95
426.875	928.18
427.251	935.19
427.627	942.87
428.003	974.06
428.379	973.15
428.756	981.06
429.132	991.91
429.507	990.33
429.883	995.3
430.259	1010.89
430.635	1032.13
431.011	1034.39
431.387	1017.22
431.763	1071.91
432.138	1078.69
432.514	1048.4
432.89	1073.94
433.265	1124.33
433.641	1109.42
434.016	1105.58
434.392	1155.75
434.767	1152.13
435.143	1122.53
435.518	1172.92
435.894	1180.6
436.269	1204.56
436.644	1192.58
437.02	1186.93
437.395	1200.04
437.77	1230.55
438.145	1233.03
438.52	1234.61
438.895	1264.22
439.271	1240.26
439.646	1275.29
440.021	1270.77
440.395	1299.25
440.77	1303.77
441.145	1302.64
441.52	1333.14
441.895	1331.79
442.27	1345.8
442.645	1314.84
443.019	1374.5
443.394	1355.52
443.769	1363.42
444.143	1345.35
444.518	1362.29
444.892	1360.94
445.267	1348.51
445.641	1388.28
446.016	1398.68
446.39	1412.69
446.764	1431.9
447.139	1409.3
447.513	1447.49
447.887	1429.86
448.262	1454.04
448.636	1453.14
449.01	1470.09
449.384	1467.6
449.758	1505.34
450.132	1486.81
450.506	1506.47
450.88	1536.75
451.254	1521.84
451.628	1532.23
452.002	1563.87
452.376	1553.02
452.75	1614.72
453.123	1588.73
453.497	1631.44
453.871	1654.72
454.244	1628.5
454.618	1691.1
454.992	1680.48
455.365	1680.93
455.739	1734.94
456.112	1750.99
456.486	1791.44
456.859	1776.75
457.232	1804.09
457.606	1801.38
457.979	1851.77
458.352	1852.9
458.725	1893.58
459.099	1896.52
459.472	1923.64
459.845	1967.7
460.218	1992.11
460.591	1991.66
460.964	1998.66
461.337	2043.18
461.71	2070.98
462.083	2072.33
462.456	2092.9
462.829	2109.62
463.201	2133.57
463.574	2151.2
463.947	2194.59
464.32	2219
464.692	2244.98
465.065	2265.77
465.438	2268.49
465.81	2307.58
466.183	2295.83
466.555	2341.93
466.928	2369.05
467.3	2390.29
467.672	2403.17
468.045	2451.31
468.417	2469.61
468.789	2476.84
469.161	2529.27
469.534	2558.87
469.906	2628.7
470.278	2628.93
470.65	2628.93
471.022	2689.72
471.394	2735.37
471.766	2784.86
472.138	2760
472.51	2878.41
472.882	2894.01
473.253	2944.17
473.625	2959.54
473.997	2990.27
474.369	3048.58
474.74	3075.24
475.112	3122.02
475.484	3146.43
475.855	3209.93
476.227	3268.01
476.598	3379.42
476.97	3363.82
477.341	3386.2
477.713	3491.96
478.084	3507.55
478.455	3653.76
478.827	3625.51
479.198	3793.64
479.569	3779.86
479.94	3876.35
480.311	3971.04
480.682	4028.89
481.053	4091.71
481.424	4216.91
481.795	4239.06
482.166	4314.76
482.537	4365.38
482.908	4447.19
483.279	4558.59
483.65	4655.77
484.021	4794.75
484.391	4856.67
484.762	4926.04
485.133	5018.7
485.503	5118.58
485.874	5199.26
486.244	5264.34
486.615	5434.28
486.985	5563.77
487.356	5661.62
487.726	5714.95
488.097	5889.41
488.467	5948.84
488.837	6164.65
489.207	6205.56
489.578	6404.65
489.948	6531.65
490.318	6565.32
490.688	6660.69
491.058	6889.38
491.428	7065.65
491.798	7137.51
492.168	7332.53
492.538	7509.03
492.908	7592.41
493.278	7858.85
493.648	7947.88
494.017	8125.96
494.387	8252.06
494.757	8445.95
495.126	8558.04
495.496	8742.21
495.866	8942.89
496.235	9144.24
496.605	9184.01
496.974	9444.57
497.344	9642.75
497.713	9853.82
498.082	10009.07
498.452	10206.13
498.821	10386.24
499.19	10527.25
499.559	10788.71
499.928	10964.08
500.298	11188.48
500.667	11361.35
501.036	11537.85
501.405	11795.92
501.774	11908.68
502.143	12176.02
502.512	12383.25
502.88	12650.36
503.249	12761.99
503.618	13046.06
503.987	13138.71
504.356	13409.66
504.724	13780.5
505.093	13994.5
505.462	14222.3
505.83	14370.99
506.199	14624.09
506.567	14955.61
506.936	15115.38
507.304	15352.89
507.672	15543.39
508.041	15715.36
508.409	15991.74
508.777	16327.55
509.145	16537.49
509.514	16644.83
509.882	16975.22
510.25	17226.51
510.618	17449.1
510.986	17567.29
511.354	17791.69
511.722	18267.16
512.09	18489.53
512.458	18403.88
512.826	18809.29
513.193	18928.84
513.561	19266.68
513.929	19369.05
514.297	19734.92
514.664	19880.68
515.032	20059.43
515.4	20400.89
515.767	20579.42
516.135	20674.33
516.502	20732.63
516.869	21197.03
517.237	21361.54
517.604	21384.59
517.972	21856.45
518.339	22033.84
518.706	22213.27
519.073	22332.36
519.44	22613.26
519.808	22954.27
520.175	23062.52
520.542	23292.11
520.909	23613.91
521.276	23599.68
521.643	24043.51
522.009	24166.21
522.376	24408.92
522.743	24535.02
523.11	24967.55
523.477	25208
523.843	25315.34
524.21	25715.1
524.577	25961.2
524.943	26172.94
525.31	26404.8
525.676	26626.72
526.043	26911.23
526.409	26979.7
526.776	27307.38
527.142	27476.18
527.508	27635.73
527.874	28007.92
528.241	28182.38
528.607	28314.58
528.973	28657.4
529.339	28607.23
529.705	29183.94
530.071	29326.53
530.437	29561.78
530.803	29770.14
531.169	29924.03
531.535	30019.39
531.901	30228.43
532.267	30344.36
532.632	30646.04
532.998	30807.85
533.364	30954.51
533.73	31307.72
534.095	31353.82
534.461	31443.99
534.826	31690.76
535.192	31792.91
535.557	32045.33
535.923	32154.03
536.288	32322.84
536.653	32562.15
537.019	32454.13
537.384	32657.07
537.749	32720.11
538.114	32782.94
538.479	33047.11
538.845	33152.42
539.21	33147.9
539.575	33430.6
539.94	33432.64
540.305	33650.03
540.67	33783.59
541.034	33921.66
541.399	34043.7
541.764	34176.12
542.129	34080.76
542.494	34227.19
542.858	34565.04
543.223	34389.22
543.587	34711.93
543.952	34757.8
544.316	34843.45
544.681	34847.52
545.045	35162.76
545.41	35348.29
545.774	35448.18
546.138	35383.55
546.503	35598.91
546.867	35627.61
547.231	35820.15
547.595	36129.29
547.959	36096.97
548.324	36158.89
548.688	36275.95
549.052	36370.87
549.416	36345.1
549.779	36593.91
550.143	36612.22
550.507	36817.86
550.871	36963.62
551.235	36958.19
551.599	37290.84
551.962	37355.02
552.326	37472.76
552.689	37690.15
553.053	37541.46
553.417	37767.89
553.78	38007.88
554.143	38089.46
554.507	38359.29
554.87	38389.8
555.234	38666.85
555.597	38516.12
555.96	38816.68
556.323	38934.64
556.686	39037.24
557.05	39238.13
557.413	39338.02
557.776	39448.07
558.139	39631.8
558.502	39750.21
558.865	39836.54
559.228	40154.95
559.59	40215.96
559.953	40285.79
560.316	40813.46
560.679	40839.22
561.041	41157.41
561.404	41232.66
561.767	41681.46
562.129	41363.05
562.492	41754.9
562.854	41937.27
563.217	41904.51
563.579	42087.33
563.941	42380.88
564.304	42578.39
564.666	42941.99
565.028	42909.22
565.39	43066.51
565.753	43288.2
566.115	43356.9
566.477	43747.85
566.839	43741.29
567.201	44189.64
567.563	44156.2
567.925	44477.32
568.287	44419.92
568.648	44630.08
569.01	44918.21
569.372	45209.73
569.734	45121.6
570.095	45433.23
570.457	45680.68
570.819	45820.11
571.18	45769.49
571.542	46157.95
571.903	46231.62
572.265	46375.57
572.626	46627.77
572.987	46602.46
573.349	47004.71
573.71	47110.92
574.071	47188.89
574.432	47513.85
574.794	47715.88
575.155	47789.1
575.516	47774.63
575.877	48017.34
576.238	48243.77
576.599	48316.54
576.96	48576.42
577.32	48714.27
577.681	48798.34
578.042	48988.16
578.403	49007.82
578.763	49008.05
579.124	49122.62
579.485	49593.57
579.845	49700.01
580.206	49669.05
580.566	49750.17
580.927	49790.85
581.287	50075.82
581.648	50191.52
582.008	50424.51
582.368	50410.95
582.728	50636.03
583.089	50660.21
583.449	50792.63
583.809	50885.74
584.169	51067.43
584.529	51125.28
584.889	51511.26
585.249	51269.46
585.609	51318.72
585.969	51711.03
586.329	51563.01
586.688	51947.86
587.048	51926.39
587.408	52044.58
587.768	52096.55
588.127	52218.13
588.487	52377.9
588.846	52628.97
589.206	52487.05
589.565	52669.42
589.925	52902.86
590.284	52881.39
590.643	52941.5
591.003	53176.98
591.362	53467.59
591.721	53616.74
592.08	53555.5
592.44	53846.11
592.799	53747.13
593.158	53888.15
593.517	54044.53
593.876	54196.39
594.235	54127.46
594.593	54367.23
594.952	54479.99
595.311	54427.11
595.67	54708.91
596.029	54832.98
596.387	54966.31
596.746	55235.45
597.104	55123.37
597.463	55111.16
597.822	55403.13
598.18	55433.64
598.538	55471.83
598.897	55707.53
599.255	55642.22
599.613	56040.41
599.972	55928.09
600.33	56123.79
600.688	56122.44
601.046	56310.68
601.404	56489.21
601.762	56473.84
602.12	56684.68
602.478	56706.15
602.836	56762.87
603.194	56695.76
603.552	56948.86
603.91	56866.6
604.268	57036.09
604.625	57073.15
604.983	57320.15
605.341	57177.32
605.698	57404.89
606.056	57602.62
606.413	57502.06
606.771	57750.42
607.128	57750.42
607.485	57725.78
607.843	57827.02
608.2	58026.57
608.557	58167.58
608.914	58129.16
609.272	58301.36
609.629	58415.26
609.986	58536.38
610.343	58445.31
610.7	58714.91
611.057	58658.87
611.414	58743.61
611.771	58892.08
612.127	58890.5
612.484	58973.21
612.841	59123.04
613.198	59041.68
613.554	59052.3
613.911	59290.04
614.267	59272.18
614.624	59348.57
614.98	59481.22
615.337	59618.16
615.693	59586.3
616.05	59671.95
616.406	59749.91
616.762	59752.62
617.118	59752.85
617.475	59790.81
617.831	59956.23
618.187	59954.65
618.543	60005.05
618.899	60184.02
619.255	60109.45
619.611	60165.04
619.967	60313.96
620.323	60387.41
620.678	60291.59
621.034	60312.61
621.39	60301.54
621.746	60395.32
622.101	60601.64
622.457	60431.02
622.812	60596.67
623.168	60556.67
623.523	60566.84
623.879	60707.85
624.234	60515.54
624.589	60645.48
624.945	60753.05
625.3	60736.1
625.655	60816.55
626.01	60784.46
626.365	60813.16
626.72	60771.58
627.075	60759.6
627.43	60761.18
627.785	60810.22
628.14	60772.94
628.495	60851.58
628.85	60924.34
629.205	60815.42
629.559	60944.46
629.914	60876.21
630.269	60809.32
630.623	60785.82
630.978	60683.67
631.332	60806.61
631.687	60839.83
632.041	60765.7
632.396	60830.34
632.75	60772.48
633.104	60772.03
633.459	60681.41
633.813	60665.14
634.167	60673.73
634.521	60633.5
634.875	60725.03
635.229	60645.93
635.583	60589.21
635.937	60534.07
636.291	60570.46
636.645	60544.92
636.999	60517.12
637.352	60534.98
637.706	60401.19
638.06	60570.68
638.413	60459.27
638.767	60299.28
639.121	60425.37
639.474	60304.02
639.828	60281.88
640.181	60264.25
640.534	60327.3
640.888	60188.54
641.241	60181.09
641.594	60149.45
641.947	60200.97
642.301	60085.5
642.654	60168.88
643.007	60087.53
643.36	60094.99
643.713	60063.12
644.066	60145.16
644.419	59981.09
644.771	59742.23
645.124	59495.46
645.477	59478.96
645.83	59368.45
646.182	59361.67
646.535	59299.75
646.888	59405.97
647.24	59274.44
647.593	59413.65
647.945	59303.82
648.298	59209.81
648.65	59100.89
649.002	58960.1
649.355	58943.61
649.707	58854.12
650.059	58961.68
650.411	59279.19
650.763	59424.27
651.115	59688.67
651.467	59602.35
651.819	59601.22
652.171	59495.23
652.523	59389.02
652.875	59438.96
653.227	59322.13
653.578	59528.67
653.93	59401.22
654.282	59349.02
654.633	59277.83
654.985	59256.59
655.337	59351.05
655.688	59227.67
656.039	59401.67
656.391	59088.46
656.742	59175.46
657.094	59117.39
657.445	59194.67
657.796	59187.67
658.147	59104.96
658.498	59151.96
658.849	59162.36
659.2	59045.98
659.551	59071.06
659.902	59170.72
660.253	59096.14
660.604	59086.2
660.955	59001.23
661.306	59067.67
661.656	58971.63
662.007	58954
662.358	58956.03
662.708	58970.5
663.059	58943.15
663.409	58808.24
663.76	58918.52
664.11	58921.23
664.461	58980.67
664.811	59018.41
665.161	58897.73
665.511	58837.17
665.862	58925.53
666.212	58952.19
666.562	58881.46
666.912	58874.45
667.262	58776.6
667.612	58855.92
667.962	58820.44
668.312	58758.75
668.662	58939.31
669.011	58875.13
669.361	58779.09
669.711	58874.45
670.06	58773.89
670.41	58708.13
670.76	58701.58
671.109	58849.37
671.459	58660.9
671.808	58730.28
672.157	58759.2
672.507	58636.95
672.856	58667.23
673.205	58693.22
673.554	58786.77
673.904	58675.14
674.253	58834.91
674.602	58686.66
674.951	58317.63
675.3	58212.78
675.649	58677.4
675.998	58653.9
676.346	58671.07
676.695	58754.46
677.044	58519.44
677.393	58552.2
677.741	58666.78
678.09	58545.65
678.438	58536.84
678.787	58557.4
679.135	58567.12
679.484	58406.67
679.832	58540.45
680.181	58475.14
680.529	58479.44
680.877	58397.41
681.225	58416.16
681.573	58540.9
681.922	58383.62
682.27	58357.86
682.618	58339.55
682.966	58327.12
683.314	58378.2
683.661	58338.2
684.009	58163.74
684.357	58148.6
684.705	58107.02
685.053	58177.75
685.4	58039.45
685.748	57998.77
686.095	58007.36
686.443	57907.02
686.79	57895.05
687.138	57910.19
687.485	57916.74
687.832	57851.66
688.18	57829.74
688.527	57726.46
688.874	57720.13
689.221	57723.52
689.568	57579.12
689.915	57578.44
690.262	57629.29
690.609	57545.9
690.956	57468.62
691.303	57427.49
691.65	57354.95
691.997	57324.44
692.344	57202.63
692.69	57110.21
693.037	57198.11
693.383	57002.41
693.73	57099.36
694.077	56904.11
694.423	56969.87
694.769	56831.34
695.116	56876.77
695.462	56747.73
695.808	56612.14
696.155	56738.69
696.501	56480.62
696.847	56519.04
697.193	56345.03
697.539	56445.14
697.885	56296.9
698.231	56177.12
698.577	56160.18
698.923	56165.83
699.269	56010.8
699.614	55899.84
699.96	55873.4
700.306	55840.86
700.651	55772.62
700.997	55657.14
701.342	55586.18
701.688	55607.2
702.033	55459.63
702.379	55491.72
702.724	55399.74
703.069	55427.77
703.415	55019.41
703.76	55105.97
704.105	55108.45
704.45	55026.19
704.795	54932.19
705.14	54808.57
705.485	54813.54
705.83	54630.5
706.175	54773.32
706.52	54722.02
706.865	54533.55
707.209	54528.58
707.554	54462.59
707.899	54479.32
708.243	54310.06
708.588	54305.08
708.932	54140.12
709.277	54144.41
709.621	54093.79
709.966	53869.16
710.31	53947.8
710.654	53713.91
710.998	53760.24
711.342	53805.89
711.687	53687.25
712.031	53523.86
712.375	53362.74
712.719	53467.14
713.063	53391.21
713.407	53517.31
713.75	53312.34
714.094	53256.07
714.438	53167.94
714.782	53126.81
715.125	52973.37
715.469	53167.26
715.812	52843.88
716.156	52864.22
716.499	52809.08
716.843	52812.69
717.186	52614.73
717.53	52874.16
717.873	52774.05
718.216	52727.27
718.559	52521.4
718.902	52345.59
719.246	52418.81
719.589	52208.64
719.932	52131.13
720.275	52260.62
720.617	52166.38
720.96	52085.25
721.303	52066.95
721.646	52098.81
721.989	51910.8
722.331	51937.69
722.674	51980.17
723.016	51918.71
723.359	51676.68
723.701	51766.39
724.044	51685.49
724.386	51454.31
724.729	51644.14
725.071	51532.05
725.413	51479.39
725.755	51362.56
726.097	51271.49
726.439	51186.3
726.782	51149.01
727.124	51357.14
727.465	51230.36
727.807	51135.22
728.149	51136.81
728.491	50938.84
728.833	51013.42
729.175	50933.42
729.516	50820.66
729.858	50882.57
730.199	50890.03
730.541	50875.12
730.882	50609.81
731.224	50582.47
731.565	50503.83
731.906	50531.85
732.248	50595.8
732.589	50333.66
732.93	50420.89
733.271	50384.51
733.612	50320.1
733.953	50398.29
734.294	50188.58
734.635	50151.52
734.976	50276.26
735.317	50126.21
735.658	50150.62
735.999	49993.11
736.339	49994.24
736.68	50071.3
737.021	49967.12
737.361	49917.4
737.702	49958.31
738.042	49884.86
738.383	49932.32
738.723	49901.13
739.063	49676.05
739.404	49852.77
739.744	49685.09
740.084	49667.01
740.424	49656.17
740.764	49486.23
741.104	49591.31
741.444	49373.01
741.784	49397.19
742.124	49493.23
742.464	49352.22
742.804	49304.31
743.143	49189.51
743.483	49248.49
743.823	48977.09
744.162	49069.97
744.502	49050.08
744.841	48880.37
745.181	49206.23
745.52	48863.64
745.86	48898.9
746.199	48839.92
746.538	48824.78
746.877	48931.44
747.216	48783.65
747.556	48622.75
747.895	48657.55
748.234	48545.01
748.573	48465.69
748.911	48415.07
749.25	48421.17
749.589	48171.23
749.928	48351.12
750.267	48262.76
750.605	48188.86
750.944	48189.54
751.283	47956.55
751.621	47948.64
751.96	47679.04
752.298	47798.36
752.636	47834.29
752.975	47746.61
753.313	47500.52
753.651	47652.6
753.989	47265.49
754.327	47453.96
754.666	47035.67
755.004	47297.13
755.342	47187.76
755.679	47098.27
756.017	46885.62
756.355	47052.84
756.693	46808.56
757.031	46818.27
757.368	46626.19
757.706	46638.39
758.044	46501.22
758.381	46505.51
758.719	46400.21
759.056	46314.79
759.394	46151.63
759.731	45948.02
760.068	45968.81
760.405	45884.51
760.743	45554.81
761.08	45682.71
761.417	45424.41
761.754	45449.95
762.091	45283.63
762.428	45024.65
762.765	44975.39
763.102	45020.36
763.438	44806.12
763.775	44429.18
764.112	44560.03
764.449	44611.55
764.785	44396.42
765.122	44123.2
765.458	43955.98
765.795	43990.55
766.131	43894.28
766.467	43874.17
766.804	43472.6
767.14	43446.16
767.476	43310.12
767.812	43154.87
768.148	43142.67
768.485	42956.91
768.821	42585.39
769.157	42675.33
769.492	42529.8
769.828	42376.81
770.164	42123.03
770.5	42028.34
770.836	41999.42
771.171	41902.25
771.507	41639.2
771.842	41512.2
772.178	41548.36
772.513	41222.94
772.849	41172.77
773.184	41329.83
773.519	40958.09
773.855	40797.87
774.19	40834.03
774.525	40528.72
774.86	40376.64
775.195	40314.72
775.53	40161.73
775.865	39877.89
776.2	39754.28
776.535	39503.44
776.87	39430.22
777.205	39333.27
777.539	39099.38
777.874	39191.36
778.209	38790.69
778.543	38873.17
778.878	38501.88
779.212	38607.19
779.547	38372.62
779.881	38277.71
780.215	37959.07
780.55	38175.79
780.884	37827.1
781.218	37578.74
781.552	37738.51
781.886	37517.95
782.22	37329.48
782.554	37168.58
782.888	36791.19
783.222	36871.87
783.556	36555.72
783.889	36526.57
784.223	36283.41
784.557	36305.1
784.89	36425.1
785.224	36095.39
785.557	35814.72
785.891	35833.7
786.224	35736.08
786.558	35780.6
786.891	35535.86
787.224	35251.35
787.557	35074.63
787.891	35025.59
788.224	34855.43
788.557	34942.88
788.89	34736.33
789.223	34679.61
789.556	34597.13
789.888	34476.68
790.221	34349.68
790.554	34122.56
790.887	34050.02
791.219	33782.23
791.552	33811.84
791.884	33803.93
792.217	33615.01
792.549	33429.93
792.882	33274.9
793.214	33154
793.546	33153.78
793.879	32970.96
794.211	32733.45
794.543	32837.63
794.875	32658.42
795.207	32654.81
795.539	32554.02
795.871	32589.5
796.203	32314.93
796.535	32194.25
796.867	32149.06
797.198	31855.96
797.53	31950.64
797.862	31658.67
798.193	31718.33
798.525	31509.3
798.856	31578.45
799.188	31206.03
799.519	31138.46
799.85	31015.53
800.182	30978.24
800.513	31089.2
800.844	30587.06
801.175	30676.33
801.506	30877.9
801.837	30567.85
802.168	30490.57
802.499	30454.64
802.83	30304.36
803.161	30118.15
803.491	30277.47
803.822	30304.13
804.153	29901.66
804.483	29787.76
804.814	29575.11
805.145	29767.65
805.475	29558.62
805.805	29548.22
806.136	29615.56
806.466	29349.36
806.796	29265.29
807.126	29090.38
807.457	29113.2
807.787	29151.17
808.117	29024.17
808.447	28915.69
808.777	28896.03
809.107	28619.43
809.436	28702.37
809.766	28585.08
810.096	28573.1
810.426	28575.82
810.755	28564.07
811.085	28316.61
811.414	28330.85
811.744	28210.4
812.073	28168.6
812.403	28092.89
812.732	27953.46
813.061	28067.58
813.39	27884.99
813.719	27621.27
814.049	27799.34
814.378	27761.83
814.707	27583.07
815.036	27580.81
815.365	27419.01
815.693	27221.73
816.022	27247.72
816.351	27053.82
816.68	26880.49
817.008	27067.16
817.337	26887.05
817.665	26833.94
817.994	26767.28
818.322	26906.03
818.651	26742.19
818.979	26721.18
819.307	26752.36
819.636	26624.91
819.964	26532.25
820.292	26548.98
820.62	26422.65
820.948	26469.66
821.276	26674.62
821.604	26534.97
821.932	26609.09
822.259	26508.3
822.587	26401.64
822.915	26416.1
823.243	26479.6
823.57	26388.3
823.898	26539.71
824.225	26375.87
824.553	26307.85
824.88	26387.85
825.207	26574.74
825.535	26292.94
825.862	26516.66
826.189	26403.67
826.516	26653.61
826.843	26474.85
827.17	26548.75
827.497	26529.77
827.824	26519.15
828.151	26599.15
828.478	26396.89
828.805	26551.24
829.131	26541.75
829.458	26466.95
829.785	26128.42
830.111	26445.25
830.438	26506.49
830.764	26383.11
831.09	26530.9
831.417	26226.27
831.743	26422.65
832.069	26299.27
832.395	26336.78
832.722	26378.81
833.048	26269.89
833.374	26326.61
833.7	26172.26
834.026	26224.47
834.351	26189.89
834.677	26292.49
835.003	26188.99
835.329	26116.9
835.654	26140.17
835.98	25909.22
836.306	26132.04
836.631	25979.27
836.956	26295.42
837.282	26058.59
837.607	25943.34
837.932	25940.18
838.258	25764.82
838.583	25819.73
838.908	25707.42
839.233	25763.01
839.558	25749.9
839.883	25670.13
840.208	25450.93
840.533	25596.69
840.858	25524.15
841.182	25620.64
841.507	25552.85
841.832	25298.61
842.156	25417.71
842.481	25330.03
842.805	25282.8
843.13	25144.49
843.454	25177.71
843.778	25131.84
844.103	25088.68
844.427	24990.15
844.751	25059.75
845.075	24995.35
845.399	24757.16
845.723	24691.85
846.047	24685.75
846.371	24651.4
846.695	24426.1
847.019	24351.52
847.343	24211.41
847.666	24217.96
847.99	24155.59
848.313	24069.04
848.637	23917.86
848.96	23875.38
849.284	23878.09
849.607	23607.81
849.931	23643.52
850.254	23357.65
850.577	23385.9
850.9	23296.86
851.223	23137.09
851.546	23071.78
851.869	23047.15
852.192	23112.23
852.515	22793.14
852.838	22745.91
853.161	22735.97
853.483	22577.78
853.806	22581.4
854.129	22487.61
854.451	22399.48
854.774	22324.46
855.096	22116.1
855.419	22138.47
855.741	22092.37
856.063	22147.06
856.385	21897.8
856.708	21904.35
857.03	21862.77
857.352	21789.78
857.674	21750.69
857.996	21544.59
858.318	21499.84
858.64	21547.3
858.961	21430.47
859.283	21344.37
859.605	21438.6
859.926	21340.98
860.248	21217.14
860.57	21067.09
860.891	21118.84
861.212	20940.54
861.534	21060.31
861.855	20969.91
862.176	20906.87
862.498	21070.7
862.819	20860.09
863.14	20747.55
863.461	20740.32
863.782	20771.73
864.103	20763.59
864.424	20586.42
864.745	20751.39
865.065	20646.08
865.386	20359.31
865.707	20493.32
866.027	20559.53
866.348	20432.3
866.668	20354.79
866.989	20403.38
867.309	20274.79
867.63	20263.72
867.95	20301.46
868.27	20212.19
868.59	20214
868.91	20184.4
869.23	20162.7
869.55	20086.55
869.87	20178.3
870.19	20000.9
870.51	19955.93
870.83	19988.25
871.15	19872.09
871.469	19876.16
871.789	19839.32
872.109	19942.82
872.428	19793.9
872.748	19809.95
873.067	19710.74
873.386	19768.14
873.706	19721.59
874.025	19586.45
874.344	19500.12
874.663	19614.02
874.982	19512.33
875.301	19516.39
875.62	19481.82
875.939	19370.18
876.258	19470.75
876.577	19296.06
876.896	19360.01
877.214	19283.86
877.533	19306
877.852	19411.54
878.17	19298.32
878.489	19265.55
878.807	19223.52
879.125	19219
879.444	19125.22
879.762	19046.58
880.08	19089.29
880.398	18904.66
880.716	18966.8
881.034	18963.87
881.352	18945.34
881.67	18826.92
881.988	18848.16
882.306	18774.49
882.624	18701.5
882.941	18687.49
883.259	18621.73
883.577	18582.86
883.894	18532.46
884.212	18387.84
884.529	18462.18
884.846	18351
885.164	18257.44
885.481	18266.71
885.798	18171.12
886.115	18158.69
886.432	18239.14
886.75	18205.24
887.067	18251.12
887.383	18118.24
887.7	18018.58
888.017	17890.67
888.334	17877.34
888.651	17782.65
888.967	17736.78
889.284	17753.05
889.6	17772.71
889.917	17634.41
890.233	17637.8
890.55	17654.3
890.866	17581.76
891.182	17438.71
891.498	17477.8
891.815	17345.6
892.131	17226.28
892.447	17278.71
892.763	17265.38
893.079	17149
893.395	17115.33
893.71	17022.45
894.026	16973.64
894.342	17029.68
894.657	16876.24
894.973	16864.26
895.289	16904.26
895.604	16876.69
895.92	16650.48
896.235	16591.05
896.55	16677.37
896.865	16489.13
897.181	16471.28
897.496	16445.06
897.811	16438.51
898.126	16307.44
898.441	16272.64
898.756	16291.62
899.071	16082.13
899.386	16139.31
899.7	16036.26
900.015	15890.95
900.33	15833.33
900.644	15820.22
900.959	15721.92
901.273	15658.42
901.588	15701.8
901.902	15630.17
902.216	15531.87
902.531	15490.06
902.845	15514.92
903.159	15370.29
903.473	15362.6
903.787	15188.15
904.101	15203.06
904.415	15255.94
904.729	15113.57
905.042	14973.69
905.356	14994.03
905.67	14905.67
905.984	14877.87
906.297	14849.62
906.611	14770.98
906.924	14767.37
907.237	14717.65
907.551	14661.61
907.864	14577.09
908.177	14460.93
908.491	14402.18
908.804	14434.27
909.117	14291.45
909.43	14174.16
909.743	14159.02
910.056	14158.79
910.368	14069.08
910.681	14100.26
910.994	14012.58
911.307	13849.42
911.619	13787.05
911.932	13833.83
912.244	13654.85
912.557	13644.68
912.869	13525.82
913.181	13596.55
913.494	13578.7
913.806	13399.04
914.118	13387.97
914.43	13360.85
914.742	13287.63
915.054	13177.8
915.366	13163.34
915.678	13125.83
915.99	13107.75
916.302	13082.66
916.613	12938.71
916.925	12961.99
917.236	12925.38
917.548	12854.65
917.859	12830.92
918.171	12692.39
918.482	12652.62
918.794	12617.59
919.105	12637.03
919.416	12520.19
919.727	12393.87
920.038	12428.44
920.349	12271.16
920.66	12220.31
920.971	12212.18
921.282	12213.31
921.593	12070.26
921.903	12021.22
922.214	12022.58
922.525	12000.43
922.835	11957.5
923.146	11862.81
923.456	11840.44
923.767	11739.87
924.077	11758.63
924.387	11711.18
924.697	11669.14
925.008	11552.31
925.318	11506.89
925.628	11572.87
925.938	11416.27
926.248	11350.51
926.558	11301.24
926.867	11244.52
927.177	11299.89
927.487	11118.65
927.796	11145.99
928.106	11079.33
928.416	11004.75
928.725	11041.14
929.034	10910.29
929.344	10943.96
929.653	10916.17
929.962	10820.13
930.271	10828.94
930.581	10749.17
930.89	10684.08
931.199	10639.56
931.508	10655.61
931.817	10495.16
932.125	10571.77
932.434	10446.12
932.743	10358.44
933.051	10302.4
933.36	10335.39
933.669	10179.92
933.977	10264.43
934.286	10191.67
934.594	10042.52
934.902	10109.41
935.21	10038
935.519	10043.87
935.827	10023.54
936.135	9901.28
936.443	9880.94
936.751	9801.85
937.059	9765.24
937.367	9689.76
937.674	9711.68
937.982	9646.6
938.29	9569.76
938.597	9567.5
938.905	9468.97
939.213	9388.3
939.52	9450.22
939.827	9411.57
940.135	9337
940.442	9340.62
940.749	9258.36
941.056	9278.7
941.363	9167.51
941.67	9165.25
941.977	9078.48
942.284	8983.56
942.591	8999.83
942.898	8958.93
943.205	8977.91
943.511	8957.58
943.818	8905.37
944.125	8837.13
944.431	8751.48
944.738	8744.25
945.044	8692.27
945.35	8633.74
945.657	8578.6
945.963	8605.04
946.269	8567.08
946.575	8548.32
946.881	8479.4
947.187	8430.58
947.493	8416.8
947.799	8345.39
948.105	8330.93
948.41	8227.42
948.716	8244.6
949.022	8215.67
949.327	8231.49
949.633	8090.25
949.938	8073.98
950.244	8067.66
950.549	8013.42
950.854	8004.38
951.16	7964.38
951.465	7940.2
951.77	7907.66
952.075	7871.05
952.38	7857.49
952.685	7793.09
952.99	7629.25
953.294	7707.66
953.599	7691.39
953.904	7585.63
954.209	7542.7
954.513	7577.27
954.818	7520.32
955.122	7513.32
955.426	7549.93
955.731	7445.07
956.035	7377.73
956.339	7354.45
956.643	7325.98
956.948	7306.09
957.252	7292.76
957.556	7226.32
957.86	7171.86
958.163	7186.1
958.467	7183.38
958.771	7122.14
959.075	7116.95
959.378	7089.15
959.682	7035.14
959.985	6994.24
960.289	6957.85
960.592	6915.59
960.896	6902.26
961.199	6892.54
961.502	6847.8
961.805	6815.48
962.108	6721.25
962.411	6721.7
962.714	6709.27
963.017	6651.2
963.32	6638.09
963.623	6591.08
963.926	6603.29
964.228	6581.14
964.531	6550.63
964.833	6550.63
965.136	6490.07
965.438	6427.25
965.741	6382.05
966.043	6414.37
966.345	6335.27
966.648	6351.09
966.95	6329.85
967.252	6278.78
967.554	6304.09
967.856	6192.9
968.158	6165.11
968.46	6183.64
968.761	6096.41
969.063	6104.99
969.365	6048.95
969.666	6017.31
969.968	6017.77
970.269	6008.05
970.571	6013.25
970.872	5921.95
971.174	5914.49
971.475	5837.21
971.776	5850.76
972.077	5835.17
972.378	5813.03
972.679	5777.09
972.98	5726.02
973.281	5676.31
973.582	5732.12
973.883	5697.32
974.183	5624.56
974.484	5616.42
974.785	5565.12
975.085	5608.51
975.386	5570.55
975.686	5528.29
975.986	5454.62
976.287	5470.44
976.587	5403.09
976.887	5361.29
977.187	5426.14
977.487	5366.94
977.787	5346.6
978.087	5346.82
978.387	5306.15
978.687	5262.76
978.987	5292.59
979.286	5218.69
979.586	5212.59
979.885	5158.81
980.185	5130.78
980.484	5139.37
980.784	5088.75
981.083	5109.31
981.382	5036.77
981.682	5084.68
981.981	4996.1
982.28	4993.84
982.579	4980.28
982.878	4936.44
983.177	4927.17
983.475	4904.8
983.774	4837.23
984.073	4839.94
984.372	4770.57
984.67	4782.32
984.969	4779.61
985.267	4737.12
985.566	4729.66
985.864	4689.66
986.162	4718.36
986.461	4651.02
986.759	4631.36
987.057	4558.82
987.355	4618.48
987.653	4585.26
987.951	4510.01
988.249	4514.53
988.547	4529.22
988.844	4472.95
989.142	4454.42
989.44	4428.65
989.737	4441.99
990.035	4400.63
990.332	4386.85
990.63	4399.28
990.927	4352.27
991.224	4295.1
991.521	4307.3
991.819	4283.12
992.116	4256.68
992.413	4199.06
992.71	4206.06
993.006	4180.53
993.303	4223.91
993.6	4184.59
993.897	4144.37
994.193	4122.22
994.49	4108.21
994.787	4063.92
995.083	4002.45
995.379	4017.37
995.676	4013.75
995.972	3979.63
996.268	3942.57
996.565	3931.04
996.861	3930.81
997.157	3943.47
997.453	3844.72
997.749	3865.05
998.044	3853.98
998.34	3831.61
998.636	3797.71
998.932	3749.12
999.227	3771.72
999.523	3713.42
999.818	3684.72
1000.114	3706.19
1000.409	3689.24
1000.704	3652.63
1001	3639.07
1001.295	3615.57
1001.59	3598.85
1001.885	3578.06
1002.18	3528.34
1002.475	3507.77
1002.77	3525.4
1003.065	3489.02
1003.359	3448.79
1003.654	3447.44
1003.949	3418.06
1004.243	3408.79
1004.538	3371.51
1004.832	3376.48
1005.127	3383.71
1005.421	3303.26
1005.715	3298.06
1006.009	3315.24
1006.304	3295.35
1006.598	3247.67
1006.892	3207.67
1007.186	3209.25
1007.48	3152.08
1007.773	3164.96
1008.067	3175.35
1008.361	3160.89
1008.655	3094.45
1008.948	3112.31
1009.242	3132.19
1009.535	3063.72
1009.829	3033.21
1010.122	3030.95
1010.415	2982.37
1010.708	2995.7
1011.001	2968.81
1011.295	2962.03
1011.588	2939.2
1011.881	2858.53
1012.173	2879.09
1012.466	2880.45
1012.759	2879.09
1013.052	2873.67
1013.344	2820.56
1013.637	2818.53
1013.93	2797.74
1014.222	2781.92
1014.514	2755.48
1014.807	2739.43
1015.099	2714.8
1015.391	2693.79
1015.683	2707.34
1015.976	2671.41
1016.268	2684.97
1016.56	2614.01
1016.851	2616.27
1017.143	2597.29
1017.435	2614.69
1017.727	2582.83
1018.018	2567.46
1018.31	2541.25
1018.602	2537.41
1018.893	2489.72
1019.185	2475.49
1019.476	2465.77
1019.767	2417.63
1020.058	2467.12
1020.35	2408.37
1020.641	2400.46
1020.932	2364.75
1021.223	2360.46
1021.514	2312.33
1021.804	2282.5
1022.095	2323.85
1022.386	2298.54
1022.677	2261.71
1022.967	2254.02
1023.258	2236.17
1023.548	2216.74
1023.839	2189.84
1024.129	2195.49
1024.419	2191.88
1024.709	2140.58
1025	2137.87
1025.29	2151.2
1025.58	2114.37
1025.87	2096.74
1026.16	2087.7
1026.449	2070.52
1026.739	2080.69
1027.029	2047.7
1027.319	2051.54
1027.608	2025.55
1027.898	1996.18
1028.187	1999.34
1028.477	1974.48
1028.766	1947.14
1029.055	1951.43
1029.344	1951.21
1029.634	1947.36
1029.923	1911.43
1030.212	1881.38
1030.501	1849.29
1030.79	1853.81
1031.078	1830.3
1031.367	1824.2
1031.656	1820.81
1031.945	1824.43
1032.233	1797.31
1032.522	1782.17
1032.81	1734.94
1033.099	1760.93
1033.387	1743.3
1033.675	1723.19
1033.963	1704.66
1034.251	1705.56
1034.54	1694.94
1034.828	1687.03
1035.116	1644.77
1035.403	1669.41
1035.691	1622.17
1035.979	1614.04
1036.267	1585.57
1036.554	1596.41
1036.842	1586.7
1037.129	1572.91
1037.417	1548.73
1037.704	1544.44
1037.992	1517.54
1038.279	1545.57
1038.566	1527.26
1038.853	1527.26
1039.14	1527.26
