Data from 14-0848_FLMS001491_007.txt Node
Date: Thu Apr 19 16:08:23 BST 2018
User: hsy
Spectrometer: FLMS00149
Trigger mode: 0
Integration Time (sec): 1.000000E-2
Scans to average: 10
Electric dark correction enabled: true
Nonlinearity correction enabled: false
Boxcar width: 0
XAxis mode: Wavelengths
Number of Pixels in Spectrum: 2048
>>>>>Begin Spectral Data<<<<<
341.393	-11.2
341.776	-11.2
342.16	-11.2
342.543	-63.85
342.927	-80.35
343.31	-62.95
343.693	-66.34
344.077	-62.72
344.46	-68.83
344.843	-64.31
345.226	-22.73
345.61	-37.87
345.993	-21.6
346.376	-16.17
346.759	-4.42
347.142	16.6
347.525	39.87
347.908	66.31
348.291	76.26
348.674	94.11
349.057	134.78
349.44	114.22
349.823	125.29
350.206	150.83
350.588	218.4
350.971	229.92
351.354	238.96
351.737	264.5
352.119	284.61
352.502	295.68
352.884	282.58
353.267	318.96
353.65	328.45
354.032	320.32
354.414	350.6
354.797	360.99
355.179	354.44
355.562	358.28
355.944	378.85
356.326	379.98
356.709	400.99
357.091	368.45
357.473	384.5
357.855	384.72
358.238	382.91
358.62	360.54
359.002	380.43
359.384	393.53
359.766	382.91
360.148	399.64
360.53	392.4
360.912	371.84
361.294	383.82
361.676	376.59
362.057	374.1
362.439	366.87
362.821	373.87
363.203	368
363.584	366.87
363.966	362.12
364.348	379.52
364.729	377.72
365.111	369.58
365.493	358.06
365.874	347.21
366.256	360.32
366.637	360.77
367.019	358.51
367.4	375.91
367.781	368.22
368.163	390.37
368.544	370.03
368.925	379.07
369.306	370.48
369.688	386.53
370.069	381.11
370.45	373.42
370.831	375.91
371.212	373.87
371.593	383.59
371.974	356.25
372.355	370.26
372.736	384.95
373.117	389.24
373.498	381.33
373.879	383.14
374.26	388.11
374.641	381.33
375.021	384.72
375.402	384.72
375.783	381.33
376.163	400.31
376.544	372.29
376.925	383.82
377.305	393.31
377.686	391.95
378.066	403.03
378.447	404.83
378.827	404.83
379.208	420.65
379.588	406.87
379.968	401.22
380.349	408.45
380.729	414.55
381.109	422.23
381.489	403.25
381.87	428.79
382.25	419.97
382.63	416.59
383.01	425.85
383.39	424.27
383.77	435.57
384.15	450.71
384.53	430.6
384.91	432.86
385.29	453.19
385.67	445.06
386.049	430.6
386.429	438.28
386.809	476.24
387.189	447.32
387.568	443.48
387.948	444.15
388.328	457.49
388.707	452.52
389.087	465.17
389.466	475.34
389.846	471.72
390.225	479.86
390.605	484.15
390.984	478.96
391.363	475.34
391.743	489.35
392.122	478.73
392.501	490.03
392.881	494.55
393.26	505.85
393.639	499.29
394.018	499.07
394.397	497.71
394.776	512.18
395.155	510.37
395.534	523.02
395.913	524.6
396.292	499.52
396.671	501.55
397.05	507.66
397.429	551.27
397.808	541.78
398.186	563.93
398.565	545.4
398.944	548.56
399.323	565.96
399.701	547.88
400.08	568.9
400.458	559.86
400.837	578.39
401.215	570.71
401.594	564.15
401.972	581.55
402.351	592.17
402.729	594.43
403.107	586.98
403.486	574.55
403.864	593.53
404.242	621.78
404.62	604.83
404.999	579.29
405.377	624.04
405.755	616.35
406.133	640.08
406.511	628.1
406.889	632.85
407.267	631.49
407.645	652.51
408.023	651.16
408.401	681.21
408.779	671.49
409.156	693.19
409.534	679.86
409.912	680.53
410.29	698.39
410.667	716.69
411.045	719.63
411.422	725.5
411.8	726.86
412.178	718.27
412.555	705.62
412.933	772.96
413.31	784.94
413.687	763.47
414.065	758.27
414.442	779.97
414.819	786.97
415.197	798.5
415.574	810.02
415.951	824.03
416.328	810.7
416.705	793.3
417.082	827.65
417.46	827.65
417.837	838.95
418.214	842.56
418.591	853.64
418.967	871.71
419.344	854.09
419.721	836.24
420.098	873.97
420.475	887.31
420.852	898.15
421.228	911.71
421.605	898.38
421.982	879.62
422.358	908.78
422.735	903.13
423.111	918.94
423.488	935.67
423.864	981.09
424.241	947.42
424.617	969.11
424.994	984.03
425.37	985.38
425.746	969.79
426.123	988.1
426.499	998.04
426.875	1004.14
427.251	1028.09
427.627	1061.09
428.003	1033.52
428.379	1057.25
428.756	1089.11
429.132	1071.71
429.507	1079.17
429.883	1073.74
430.259	1105.61
430.635	1137.02
431.011	1140.63
431.387	1156.23
431.763	1162.78
432.138	1159.62
432.514	1184.25
432.89	1210.01
433.265	1221.99
433.641	1216.79
434.016	1232.38
434.392	1271.03
434.767	1270.12
435.143	1276.45
435.518	1264.02
435.894	1290.69
436.269	1289.56
436.644	1307.86
437.02	1334.75
437.395	1361.19
437.77	1348.99
438.145	1361.42
438.52	1411.59
438.895	1403.9
439.271	1379.95
439.646	1404.81
440.021	1409.78
440.395	1442.32
440.77	1410.23
441.145	1432.15
441.52	1435.54
441.895	1458.59
442.27	1471.02
442.645	1493.62
443.019	1495.65
443.394	1494.52
443.769	1508.53
444.143	1494.52
444.518	1523.22
444.892	1490.68
445.267	1534.3
445.641	1538.36
446.016	1530
446.39	1563
446.764	1567.29
447.139	1580.85
447.513	1591.02
447.887	1595.54
448.262	1597.8
448.636	1642.99
449.01	1645.25
449.384	1647.74
449.758	1677.79
450.132	1674.63
450.506	1669.66
450.88	1726.83
451.254	1700.39
451.628	1720.28
452.002	1752.82
452.376	1763.89
452.75	1781.07
453.123	1772.93
453.497	1811.12
453.871	1809.99
454.244	1889.31
454.618	1899.48
454.992	1905.59
455.365	1903.1
455.739	1932.25
456.112	1946.04
456.486	1986.26
456.859	2020.84
457.232	2047.95
457.606	2074.39
457.979	2074.62
458.352	2117.11
458.725	2116.43
459.099	2167.95
459.472	2194.39
459.845	2208.85
460.218	2203.66
460.591	2245.69
460.964	2224
461.337	2291.34
461.71	2367.72
462.083	2379.7
462.456	2391.22
462.829	2388.96
463.201	2406.14
463.574	2409.3
463.947	2482.97
464.32	2466.7
464.692	2524.78
465.065	2539.69
465.438	2635.28
465.81	2621.05
466.183	2608.84
466.555	2698.33
466.928	2705.11
467.3	2688.16
467.672	2741.72
468.045	2827.82
468.417	2805.9
468.789	2835.96
469.161	2881.15
469.534	2935.16
469.906	2950.53
470.278	2987.82
470.65	3035.5
471.022	3088.38
471.394	3127.47
471.766	3153.46
472.138	3198.21
472.51	3257.87
472.882	3294.7
473.253	3340.8
473.625	3372.67
473.997	3408.37
474.369	3417.41
474.74	3532.44
475.112	3571.53
475.484	3633.68
475.855	3660.57
476.227	3744.86
476.598	3785.08
476.97	3887.68
477.341	3953.44
477.713	4023.5
478.084	4008.81
478.455	4131.52
478.827	4201.57
479.198	4267.56
479.569	4310.49
479.94	4440.21
480.311	4532.86
480.682	4635.23
481.053	4713.87
481.424	4839.97
481.795	4871.38
482.166	4943.02
482.537	5032.51
482.908	5166.29
483.279	5244.25
483.65	5365.61
484.021	5484.47
484.391	5578.03
484.762	5620.74
485.133	5705.94
485.503	5782.77
485.874	5976.66
486.244	6068.64
486.615	6202.87
486.985	6357.9
487.356	6404.22
487.726	6542.3
488.097	6728.06
488.467	6761.5
488.837	6977.32
489.207	7069.07
489.578	7224.99
489.948	7370.98
490.318	7495.04
490.688	7594.48
491.058	7798.09
491.428	7982.04
491.798	8101.13
492.168	8253.89
492.538	8446.66
492.908	8622.92
493.278	8753.77
493.648	8856.36
494.017	9071.72
494.387	9245.73
494.757	9362.79
495.126	9572.95
495.496	9711.71
495.866	9898.14
496.235	10123.67
496.605	10291.58
496.974	10409.54
497.344	10635.07
497.713	10824.9
498.082	10972.92
498.452	11160.71
498.821	11383.53
499.19	11542.39
499.559	11712.56
499.928	11927.02
500.298	12080.01
500.667	12241.58
501.036	12433.9
501.405	12642.03
501.774	12824.85
502.143	13088.57
502.512	13216.25
502.88	13505.05
503.249	13622.34
503.618	13886.74
503.987	14084.02
504.356	14244.02
504.724	14410.12
505.093	14597.91
505.462	14827.05
505.83	14987.28
506.199	15281.73
506.567	15567.15
506.936	15589.75
507.304	15926.01
507.672	16090.07
508.041	16305.43
508.409	16518.31
508.777	16811.63
509.145	16995.13
509.514	17061.57
509.882	17416.36
510.25	17449.36
510.618	17692.52
510.986	17904.26
511.354	18128.44
511.722	18383.57
512.09	18605.26
512.458	18645.71
512.826	18880.96
513.193	19051.35
513.561	19324.34
513.929	19305.35
514.297	19652.01
514.664	19871.44
515.032	20058.33
515.4	20242.5
515.767	20419.9
516.135	20620.8
516.502	20623.51
516.869	20998.19
517.237	21152.99
517.604	21214.91
517.972	21450.38
518.339	21712.52
518.706	21924.95
519.073	21953.65
519.44	22137.6
519.808	22401.32
520.175	22544.14
520.542	22868.88
520.909	23072.71
521.276	23104.58
521.643	23452.36
522.009	23567.39
522.376	23887.38
522.743	23959.92
523.11	24361.49
523.477	24511.32
523.843	24749.96
524.21	25059.1
524.577	25242.37
524.943	25412.09
525.31	25510.61
525.676	25806.2
526.043	26032.18
526.409	26211.84
526.776	26519.63
527.142	26676.69
527.508	26800.98
527.874	26996
528.241	27255.65
528.607	27285.26
528.973	27615.42
529.339	27648.64
529.705	28117.33
530.071	28273.03
530.437	28523.64
530.803	28663.75
531.169	28777.65
531.535	28856.06
531.901	28982.39
532.267	29203.17
532.632	29470.28
532.998	29474.13
533.364	29664.86
533.73	29744.18
534.095	30129.02
534.461	30088.12
534.826	30348.45
535.192	30378.06
535.557	30716.35
535.923	30666.86
536.288	30839.06
536.653	31029.11
537.019	30898.04
537.384	31093.29
537.749	31241.31
538.114	31289.67
538.479	31357.01
538.845	31621.87
539.21	31616.22
539.575	31834.97
539.94	31784.57
540.305	31989.99
540.67	31953.16
541.034	32253.71
541.399	32245.8
541.764	32400.6
542.129	32541.62
542.494	32695.51
542.858	32786.13
543.223	32742.74
543.587	33059.57
543.952	32801.72
544.316	32942.51
544.681	32986.35
545.045	33232.45
545.41	33399.22
545.774	33338.21
546.138	33411.42
546.503	33493.68
546.867	33646.67
547.231	33872.88
547.595	33955.59
547.959	34046.21
548.324	33904.29
548.688	34138.18
549.052	34159.2
549.416	34274.9
549.779	34172.31
550.143	34374.34
550.507	34658.17
550.871	34706.53
551.235	34687.55
551.599	35007.31
551.962	35099.06
552.326	35179.29
552.689	35270.13
553.053	35158.5
553.417	35343.12
553.78	35656.34
554.143	35690.01
554.507	35828.31
554.87	35985.37
555.234	36114.4
555.597	36010
555.96	36201.63
556.323	36341.06
556.686	36313.27
557.05	36647.72
557.413	36708.29
557.776	36904.67
558.139	37120.03
558.502	37055.4
558.865	37154.38
559.228	37568.83
559.59	37559.11
559.953	37565.44
560.316	37948.03
560.679	37959.1
561.041	38164.29
561.404	38355.02
561.767	38609.93
562.129	38538.29
562.492	38914.1
562.854	38898.51
563.217	39014.21
563.579	39208.56
563.941	39349.35
564.304	39561.32
564.666	39933.06
565.028	39889.22
565.39	39898.03
565.753	40247.4
566.115	40247.63
566.477	40618.24
566.839	40609.43
567.201	40966.25
567.563	40828.63
567.925	41265.68
568.287	41155.63
568.648	41272.69
569.01	41678.1
569.372	41945.89
569.734	41798.77
570.095	42176.39
570.457	42384.52
570.819	42425.88
571.18	42441.92
571.542	42954.22
571.903	42841.68
572.265	43094.78
572.626	43247.78
572.987	43259.3
573.349	43562.34
573.71	43742
574.071	43840.75
574.432	44225.15
574.794	44245.26
575.155	44351.02
575.516	44445.71
575.877	44683.67
576.238	44815.19
576.599	44879.6
576.96	44973.15
577.32	45134.05
577.681	45244.11
578.042	45599.58
578.403	45408.4
578.763	45569.75
579.124	45667.82
579.485	46074.14
579.845	46294.93
580.206	46281.59
580.566	46356.17
580.927	46273.68
581.287	46663.05
581.648	46650.4
582.008	46910.28
582.368	46918.87
582.728	47135.81
583.089	47036.6
583.449	47216.94
583.809	47281.57
584.169	47606.98
584.529	47640.88
584.889	47945.28
585.249	47871.61
585.609	47853.53
585.969	48104.14
586.329	48169.23
586.688	48591.59
587.048	48466.17
587.408	48516.79
587.768	48698.25
588.127	48930.79
588.487	49009.43
588.846	49276.09
589.206	49224.12
589.565	49226.38
589.925	49671.79
590.284	49614.16
590.643	49768.73
591.003	49897.77
591.362	50168.5
591.721	50248.5
592.08	50338.21
592.44	50471.54
592.799	50552.67
593.158	50698.65
593.517	50794.92
593.876	51095.03
594.235	51024.52
594.593	51003.5
594.952	51170.73
595.311	51363.72
595.67	51519.65
596.029	51747.44
596.387	51877.15
596.746	51987.66
597.104	51880.77
597.463	52004.61
597.822	52270.14
598.18	52277.59
598.538	52396.91
598.897	52615.21
599.255	52409.34
599.613	52974.3
599.972	52882.55
600.33	52984.24
600.688	52918.93
601.046	53131.58
601.404	53358.92
601.762	53327.51
602.12	53511.91
602.478	53611.57
602.836	53778.35
603.194	53588.97
603.552	53794.39
603.91	53752.36
604.268	53952.58
604.625	54070.77
604.983	54245.9
605.341	54075.97
605.698	54364.32
606.056	54544.2
606.413	54433.92
606.771	54713.46
607.128	54753.24
607.485	54650.64
607.843	54798.43
608.2	54962.72
608.557	55113.9
608.914	55062.15
609.272	55240.68
609.629	55407
609.986	55542.82
610.343	55499.66
610.7	55664.85
611.057	55699.65
611.414	55619.2
611.771	55787.78
612.127	55967.21
612.484	55977.16
612.841	56144.16
613.198	56023.94
613.554	56108.68
613.911	56308.67
614.267	56330.82
614.624	56329.69
614.98	56473.87
615.337	56637.03
615.693	56589.35
616.05	56678.16
616.406	56797.7
616.762	56760.41
617.118	56860.52
617.475	56825.95
617.831	57046.96
618.187	57135.77
618.543	57117.47
618.899	57303
619.255	57215.54
619.611	57224.36
619.967	57401.53
620.323	57473.84
620.678	57344.81
621.034	57380.96
621.39	57355.43
621.746	57522.65
622.101	57684.91
622.457	57486.5
622.812	57656.66
623.168	57683.78
623.523	57619.15
623.879	57716.1
624.234	57644.91
624.589	57788.18
624.945	57705.02
625.3	57738.02
625.655	57768.98
626.01	57762.65
626.365	57807.84
626.72	57816.66
627.075	57787.28
627.43	57907.05
627.785	57856.66
628.14	57869.99
628.495	57866.37
628.85	57915.19
629.205	57870.22
629.559	57989.31
629.914	57843.78
630.269	57817.34
630.623	57798.58
630.978	57706.38
631.332	57928.75
631.687	57893.04
632.041	57842.19
632.396	57828.18
632.75	57738.02
633.104	57875.19
633.459	57707.28
633.813	57696.43
634.167	57697.34
634.521	57684.68
634.875	57745.25
635.229	57650.79
635.583	57566.27
635.937	57652.37
636.291	57557.91
636.645	57598.81
636.999	57441.07
637.352	57510.45
637.706	57363.11
638.06	57556.1
638.413	57405.6
638.767	57361.3
639.121	57423.9
639.474	57316.11
639.828	57320.4
640.181	57253.51
640.534	57360.4
640.888	57195.88
641.241	57115.66
641.594	57196.79
641.947	57220.97
642.301	57153.4
642.654	57171.48
643.007	57097.81
643.36	57191.36
643.713	57138.26
644.066	57155.88
644.419	56939.17
644.771	56745.5
645.124	56427.99
645.477	56430.48
645.83	56280.43
646.182	56335.79
646.535	56261.67
646.888	56309.8
647.24	56295.12
647.593	56313.87
647.945	56188.9
648.298	56195.68
648.65	56066.65
649.002	55934.9
649.355	55954.33
649.707	55917.05
650.059	55928.8
650.411	56203.82
650.763	56312.06
651.115	56641.32
651.467	56626.18
651.819	56564.71
652.171	56492.62
652.523	56394.55
652.875	56480.2
653.227	56354.1
653.578	56568.55
653.93	56415.79
654.282	56380.76
654.633	56243.59
654.985	56345.74
655.337	56370.37
655.688	56334.21
656.039	56354.32
656.391	56132.86
656.742	56203.82
657.094	56222.35
657.445	56241.78
657.796	56239.3
658.147	56225.97
658.498	56153.65
658.849	56298.51
659.2	56256.92
659.551	56163.14
659.902	56185.29
660.253	56074.33
660.604	56246.76
660.955	56046.76
661.306	56241.78
661.656	56008.34
662.007	56115.69
662.358	56087.66
662.708	56038.4
663.059	56019.42
663.409	55878.18
663.76	56053.77
664.11	56035.91
664.461	56103.71
664.811	56088.12
665.161	55981
665.511	55950.04
665.862	56025.29
666.212	56056.93
666.562	56085.86
666.912	55940.1
667.262	55930.83
667.612	55914.33
667.962	55990.49
668.312	55864.84
668.662	56140.32
669.011	55980.32
669.361	55925.63
669.711	55891.74
670.06	55861.23
670.41	55856.03
670.76	55910.04
671.109	55949.59
671.459	55885.18
671.808	55828.46
672.157	55929.02
672.507	55784.39
672.856	55782.36
673.205	55785.3
673.554	55840.44
673.904	55719.76
674.253	55983.49
674.602	55775.13
674.951	55398.87
675.3	55247.69
675.649	55743.94
675.998	55781.23
676.346	55758.63
676.695	55792.3
677.044	55646.32
677.393	55720.22
677.741	55754.79
678.09	55607.68
678.438	55562.71
678.787	55633.21
679.135	55611.52
679.484	55501.24
679.832	55604.29
680.181	55554.8
680.529	55510.05
680.877	55418.3
681.225	55378.98
681.573	55565.42
681.922	55425.31
682.27	55304.18
682.618	55243.39
682.966	55270.06
683.314	55285.88
683.661	55229.38
684.009	55211.53
684.357	55176.5
684.705	55056.5
685.053	55116.84
685.4	54953.23
685.748	54921.37
686.095	54897.86
686.443	54758.43
686.79	54766.34
687.138	54816.74
687.485	54772.44
687.832	54661.49
688.18	54642.5
688.527	54646.12
688.874	54503.07
689.221	54536.29
689.568	54422.4
689.915	54401.61
690.262	54441.38
690.609	54302.63
690.956	54237.99
691.303	54262.63
691.65	54132.23
691.997	54066.02
692.344	53897.21
692.69	53894.5
693.037	53876.65
693.383	53669.65
693.73	53802.3
694.077	53599.14
694.423	53557.11
694.769	53527.05
695.116	53421.97
695.462	53294.52
695.808	53266.72
696.155	53355.76
696.501	52999.61
696.847	53212.71
697.193	52864.25
697.539	52990.12
697.885	52766.17
698.231	52750.8
698.577	52596.68
698.923	52680.07
699.269	52449.79
699.614	52347.42
699.96	52227.65
700.306	52279.4
700.651	52071.5
700.997	52059.52
701.342	51945.4
701.688	51874.44
702.033	51740.21
702.379	51770.49
702.724	51624.5
703.069	51631.74
703.415	51361.01
703.76	51349.48
704.105	51250.5
704.45	51250.05
704.795	51074.24
705.14	51091.18
705.485	50952.43
705.83	50794.7
706.175	50814.36
706.52	50663.4
706.865	50596.28
707.209	50534.59
707.554	50562.84
707.899	50499.11
708.243	50223.64
708.588	50142.51
708.932	50036.3
709.277	50117.65
709.621	50011.67
709.966	49794.5
710.31	49804.89
710.654	49513.83
710.998	49512.02
711.342	49633.82
711.687	49465.24
712.031	49467.5
712.375	49200.61
712.719	49237.9
713.063	49188.64
713.407	49316.54
713.75	49066.61
714.094	48957.23
714.438	48886.5
714.782	48810.11
715.125	48658.03
715.469	48753.62
715.812	48505.94
716.156	48445.38
716.499	48399.73
716.843	48425.72
717.186	48283.35
717.53	48431.37
717.873	48349.56
718.216	48273.86
718.559	48108.21
718.902	47858.5
719.246	47915.9
719.589	47890.14
719.932	47763.14
720.275	47660.77
720.617	47714.1
720.96	47545.29
721.303	47522.01
721.646	47612.41
721.989	47360.89
722.331	47455.35
722.674	47430.72
723.016	47381
723.359	47221
723.701	47270.04
724.044	47128.35
724.386	46892.2
724.729	47049.94
725.071	47055.13
725.413	46928.36
725.755	46975.59
726.097	46933.1
726.439	46650.85
726.782	46547.58
727.124	46795.93
727.465	46647.91
727.807	46487.24
728.149	46480.91
728.491	46510.97
728.833	46518.2
729.175	46487.01
729.516	46263.74
729.858	46259.45
730.199	46437.75
730.541	46349.84
730.882	46190.3
731.224	46191.65
731.565	46030.98
731.906	46103.52
732.248	46186
732.589	46107.81
732.93	45801.83
733.271	45898.33
733.612	45953.24
733.953	46015.16
734.294	45840.25
734.635	45726.58
734.976	45986.01
735.317	45815.62
735.658	45749.86
735.999	45630.09
736.339	45628.05
736.68	45733.81
737.021	45600.71
737.361	45506.47
737.702	45866.92
738.042	45661.95
738.383	45634.61
738.723	45751.44
739.063	45461.73
739.404	45703.3
739.744	45540.82
740.084	45423.99
740.424	45430.99
740.764	45496.98
741.104	45641.84
741.444	45422.63
741.784	45196.88
742.124	45422.86
742.464	45382.18
742.804	45294.05
743.143	45116.88
743.483	45240.72
743.823	45225.58
744.162	45185.58
744.502	45408.62
744.841	45303.77
745.181	45310.77
745.52	45095.64
745.86	45181.51
746.199	45157.56
746.538	45047.05
746.877	45266.71
747.216	45134.28
747.556	45061.74
747.895	45131.34
748.234	44928.64
748.573	45029.42
748.911	45035.52
749.25	45003.21
749.589	44899.94
749.928	44983.55
750.267	44970.22
750.605	44961.18
750.944	44986.49
751.283	44820.39
751.621	44981.52
751.96	44804.12
752.298	44842.31
752.636	44901.97
752.975	44774.29
753.313	44682.99
753.651	44948.52
753.989	44612.49
754.327	44748.98
754.666	44368.88
755.004	44582.2
755.342	44614.29
755.679	44654.74
756.017	44314.19
756.355	44598.7
756.693	44405.26
757.031	44515.31
757.368	44292.72
757.706	44305.37
758.044	44268.99
758.381	44188.99
758.719	44232.83
759.056	44183.34
759.394	44000.07
759.731	43904.71
760.068	43852.51
760.405	43877.36
760.743	43779.96
761.08	43731.83
761.417	43611.61
761.754	43726.86
762.091	43453.65
762.428	43413.65
762.765	43285.74
763.102	43370.48
763.438	43201.67
763.775	42957.84
764.112	43066.09
764.449	43023.6
764.785	42885.75
765.122	42627.68
765.458	42474.46
765.795	42399.21
766.131	42535.25
766.467	42389.27
766.804	42178.42
767.14	42133.23
767.476	42053.68
767.812	41897.98
768.148	42039.67
768.485	41769.4
768.821	41618.89
769.157	41292.35
769.492	41397.2
769.828	41344.55
770.164	40954.95
770.5	40907.05
770.836	40824.79
771.171	40746.82
771.507	40614.4
771.842	40261.64
772.178	40371.24
772.513	40292.37
772.849	40176.22
773.184	40025.04
773.519	40051.7
773.855	39688.32
774.19	39669.79
774.525	39522.45
774.86	39466.41
775.195	39389.12
775.53	39169.69
775.865	38944.61
776.2	38776.25
776.535	38490.16
776.87	38610.38
777.205	38362.93
777.539	38207.23
777.874	38372.65
778.209	37986.44
778.543	38050.4
778.878	37562.73
779.212	37751.87
779.547	37384.43
779.881	37438.89
780.215	37118.67
780.55	37172.91
780.884	36940.37
781.218	36826.48
781.552	36895.4
781.886	36785.12
782.22	36410.44
782.554	36381.52
782.888	36037.34
783.222	36018.81
783.556	35830.57
783.889	35759.38
784.223	35490.47
784.557	35554.64
784.89	35611.37
785.224	35261.54
785.557	35149.01
785.891	35103.36
786.224	35017.03
786.558	34963.7
786.891	34661.11
787.224	34424.5
787.557	34325.52
787.891	34370.27
788.224	34181.8
788.557	34076.27
788.89	34112.2
789.223	34097.96
789.556	33901.35
789.888	33646.22
790.221	33581.81
790.554	33423.63
790.887	33411.65
791.219	33158.55
791.552	33112.9
791.884	33009.17
792.217	32939.57
792.549	32929.18
792.882	32677.43
793.214	32461.17
793.546	32479.7
793.879	32233.38
794.211	32065.02
794.543	32214.85
794.875	32017.79
795.207	32023.44
795.539	31770.11
795.871	31777.12
796.203	31743.9
796.535	31361.76
796.867	31386.39
797.198	31233.18
797.53	31070.92
797.862	30914.09
798.193	31053.29
798.525	30750.7
798.856	31014.65
799.188	30604.27
799.519	30519.3
799.85	30308.23
800.182	30360.88
800.513	30396.81
800.844	29967.9
801.175	30226.42
801.506	30207.89
801.837	29853.33
802.168	29804.51
802.499	29826.21
802.83	29605.2
803.161	29554.8
803.491	29614.01
803.822	29666.89
804.153	29322.49
804.483	29145.55
804.814	29019.22
805.145	29081.37
805.475	29199.33
805.805	28842.96
806.136	28888.6
806.466	28844.31
806.796	28732
807.126	28528.61
807.457	28422.63
807.787	28554.38
808.117	28487.03
808.447	28380.6
808.777	28283.2
809.107	28126.59
809.436	28049.76
809.766	28109.42
810.096	28124.56
810.426	27895.64
810.755	27908.74
811.085	27789.88
811.414	27787.84
811.744	27499.71
812.073	27597.57
812.403	27475.76
812.732	27366.61
813.061	27574.52
813.39	27245.71
813.719	27241.64
814.049	27297.69
814.378	27188.76
814.707	27109.89
815.036	27079.16
815.365	26898.37
815.693	26852.73
816.022	26775.44
816.351	26699.28
816.68	26574.77
817.008	26642.79
817.337	26529.8
817.665	26393.53
817.994	26515.56
818.322	26409.12
818.651	26270.37
818.979	26225.85
819.307	26373.87
819.636	26139.3
819.964	26075.57
820.292	26210.03
820.62	26129.58
820.948	26142.46
821.276	26210.71
821.604	26116.93
821.932	26118.51
822.259	26042.58
822.587	26018.17
822.915	25984.95
823.243	26101.56
823.57	25892.07
823.898	25953.77
824.225	25958.06
824.553	26033.31
824.88	25945.63
825.207	26025.4
825.535	25898.17
825.862	26060.2
826.189	25967.78
826.516	26142.24
826.843	26217.71
827.17	26112.18
827.497	26082.35
827.824	26077.83
828.151	26091.16
828.478	25962.58
828.805	26149.47
829.131	26171.16
829.458	26029.7
829.785	25798.97
830.111	26021.34
830.438	25982.47
830.764	25977.72
831.09	25963.26
831.417	25847.78
831.743	26150.6
832.069	25884.62
832.395	25989.47
832.722	25952.86
833.048	25907.89
833.374	25913.77
833.7	25729.59
834.026	25953.54
834.351	25772.75
834.677	25855.46
835.003	25735.24
835.329	25850.04
835.654	25860.66
835.98	25684.62
836.306	25845.75
836.631	25620.44
836.956	25741.12
837.282	25625.87
837.607	25544.96
837.932	25603.72
838.258	25516.94
838.583	25456.15
838.908	25377.74
839.233	25448.92
839.558	25390.84
839.883	25302.26
840.208	25149.95
840.533	25132.77
840.858	25234.24
841.182	25240.11
841.507	25128.48
841.832	25014.81
842.156	25075.15
842.481	25052.1
842.805	24910.86
843.13	24762.39
843.454	24842.16
843.778	24724.19
844.103	24674.25
844.427	24623.41
844.751	24686.46
845.075	24624.08
845.399	24657.98
845.723	24433.13
846.047	24460.92
846.371	24293.92
846.695	24205.34
847.019	24067.26
847.343	23866.82
847.666	23954.72
847.99	23767.84
848.313	23686.48
848.637	23516.99
848.96	23622.75
849.284	23500.05
849.607	23343.67
849.931	23320.62
850.254	23152.94
850.577	23078.14
850.9	22947.74
851.223	22915.65
851.546	22728.54
851.869	22805.15
852.192	22712.27
852.515	22471.6
852.838	22323.35
853.161	22405.84
853.483	22326.97
853.806	22259.85
854.129	22149.12
854.451	22178.5
854.774	21866.87
855.096	21918.84
855.419	21910.03
855.741	21813.08
856.063	21760.88
856.385	21501.23
856.708	21543.26
857.03	21412.19
857.352	21501.45
857.674	21373.77
857.996	21360.44
858.318	21138.53
858.64	21196.15
858.961	21244.51
859.283	21055.82
859.605	20920.9
859.926	21027.79
860.248	20982.6
860.57	20743.96
860.891	20890.17
861.212	20700.57
861.534	20690.85
861.855	20618.54
862.176	20653.79
862.498	20592.1
862.819	20629.16
863.14	20493.35
863.461	20445.44
863.782	20428.49
864.103	20445.89
864.424	20242.05
864.745	20268.94
865.065	20130.42
865.386	20160.92
865.707	20196.63
866.027	20110.53
866.348	20173.58
866.668	20019.91
866.989	20043.64
867.309	19927.26
867.63	19839.35
867.95	19826.24
868.27	19739.24
868.59	19964.55
868.91	19841.84
869.23	19765.68
869.55	19687.04
869.87	19752.12
870.19	19672.8
870.51	19580.83
870.83	19579.7
871.15	19551.68
871.469	19435.52
871.789	19564.78
872.109	19479.81
872.428	19426.71
872.748	19577.89
873.067	19387.61
873.386	19421.06
873.706	19311.23
874.025	19159.37
874.344	19196.88
874.663	19226.03
874.982	19104.23
875.301	19230.33
875.62	19060.39
875.939	19101.74
876.258	19166.37
876.577	19017
876.896	18909.21
877.214	18900.17
877.533	18951.92
877.852	18927.28
878.17	18844.8
878.489	18928.64
878.807	18840.73
879.125	18772.03
879.444	18653.39
879.762	18632.83
880.08	18664.01
880.398	18592.38
880.716	18607.07
881.034	18532.04
881.352	18518.93
881.67	18454.98
881.988	18514.87
882.306	18358.94
882.624	18334.76
882.941	18228.55
883.259	18169.34
883.577	18225.61
883.894	18085.05
884.212	18144.71
884.529	18080.53
884.846	18085.5
885.164	18088.89
885.481	18007.53
885.798	18023.81
886.115	17847.31
886.432	17869.46
886.75	17704.04
887.067	17794.43
887.383	17674.21
887.7	17675.57
888.017	17727.09
888.334	17687.54
888.651	17587.21
888.967	17593.76
889.284	17510.15
889.6	17352.86
889.917	17271.28
890.233	17301.56
890.55	17245.07
890.866	17311.96
891.182	17182.25
891.498	17158.97
891.815	17179.76
892.131	16984.29
892.447	17061.12
892.763	16928.69
893.079	16917.85
893.395	16888.02
893.71	16687.34
894.026	16714.24
894.342	16738.64
894.657	16578.19
894.973	16538.87
895.289	16577.52
895.604	16468.59
895.92	16336.84
896.235	16321.7
896.55	16290.52
896.865	16347.47
897.181	16283.29
897.496	16197.41
897.811	16144.31
898.126	16048.94
898.441	15966.01
898.756	15916.74
899.071	15907.93
899.386	15895.05
899.7	15734.15
900.015	15710.42
900.33	15563.98
900.644	15635.85
900.959	15546.58
901.273	15490.09
901.588	15367.6
901.902	15396.3
902.216	15251.9
902.531	15255.97
902.845	15173.94
903.159	15117.44
903.473	15121.06
903.787	15011.46
904.101	14942.53
904.415	14980.95
904.729	14862.31
905.042	14796.32
905.356	14765.81
905.67	14672.48
905.984	14712.03
906.297	14621.18
906.611	14482.88
906.924	14503.22
907.237	14472.71
907.551	14472.71
907.864	14421.64
908.177	14358.82
908.491	14178.03
908.804	14084.02
909.117	14077.02
909.43	14004.7
909.743	14010.58
910.056	13914.99
910.368	13789.34
910.681	13766.74
910.994	13780.98
911.307	13677.03
911.619	13560.42
911.932	13657.82
912.244	13538.27
912.557	13577.59
912.869	13427.77
913.181	13394.55
913.494	13239.3
913.806	13187.55
914.118	13141.22
914.43	13188.68
914.742	13058.51
915.054	13062.81
915.366	13011.73
915.678	12933.54
915.99	12865.52
916.302	12704.17
916.613	12700.56
916.925	12612.42
917.236	12701.46
917.548	12603.38
917.859	12539.66
918.171	12461.92
918.482	12465.08
918.794	12384.63
919.105	12328.81
919.416	12230.74
919.727	12300.34
920.038	12126.79
920.349	12023.06
920.66	12062.38
920.971	12029.39
921.282	12068.93
921.593	11954.81
921.903	11816.96
922.214	11850.41
922.525	11684.99
922.835	11744.2
923.146	11626.23
923.456	11674.59
923.767	11545.11
924.077	11519.34
924.387	11449.74
924.697	11420.82
925.008	11349.4
925.318	11346.24
925.628	11245
925.938	11199.58
926.248	11141.73
926.558	11089.3
926.867	11100.82
927.177	11007.95
927.487	11000.26
927.796	10941.96
928.106	10915.74
928.416	10867.61
928.725	10807.5
929.034	10781.06
929.344	10763.21
929.653	10737.44
929.962	10637.11
930.271	10612.25
930.581	10518.47
930.89	10448.86
931.199	10404.57
931.508	10398.92
931.817	10415.19
932.125	10347.4
932.434	10313.05
932.743	10181.3
933.051	10170
933.36	10136.1
933.669	10047.07
933.977	9981.31
934.286	9968.65
934.594	9914.64
934.902	9824.47
935.21	9805.72
935.519	9774.98
935.827	9784.25
936.135	9696.12
936.443	9634.2
936.751	9579.28
937.059	9601.65
937.367	9471.71
937.674	9520.07
937.982	9522.79
938.29	9468.1
938.597	9448.66
938.905	9304.04
939.213	9269.01
939.52	9252.51
939.827	9260.19
940.135	9222.68
940.442	9090.93
940.749	9123.7
941.056	9153.08
941.363	9021.33
941.67	8965.74
941.977	8956.47
942.284	8879.41
942.591	8866.31
942.898	8819.98
943.205	8825.4
943.511	8786.99
943.818	8743.37
944.125	8660.89
944.431	8591.51
944.738	8520.78
945.044	8550.83
945.35	8523.26
945.657	8415.7
945.963	8468.8
946.269	8375.47
946.575	8361.91
946.881	8356.72
947.187	8349.03
947.493	8209.15
947.799	8203.72
948.105	8115.14
948.41	8161.47
948.716	8106.1
949.022	8035.59
949.327	8075.82
949.633	7961.92
949.938	8038.98
950.244	7971.19
950.549	7899.78
950.854	7861.14
951.16	7843.28
951.465	7753.34
951.77	7773.23
952.075	7707.01
952.38	7617.75
952.685	7634.93
952.99	7632.44
953.294	7547.47
953.599	7558.32
953.904	7539.56
954.209	7423.18
954.513	7497.08
954.818	7409.4
955.122	7358.32
955.426	7375.72
955.731	7317.42
956.035	7268.83
956.339	7248.27
956.643	7263.41
956.948	7176.63
957.252	7110.19
957.556	7121.49
957.86	7094.15
958.163	7063.42
958.467	7065.9
958.771	7016.19
959.075	7000.59
959.378	6916.08
959.682	6907.94
959.985	6877.43
960.289	6843.08
960.592	6768.96
960.896	6754.72
961.199	6744.1
961.502	6676.08
961.805	6707.04
962.108	6622.98
962.411	6575.97
962.714	6583.43
963.017	6574.39
963.32	6524.9
963.623	6549.98
963.926	6546.59
964.228	6411.23
964.531	6387.05
964.833	6439.48
965.136	6329.88
965.438	6275.87
965.741	6278.35
966.043	6235.19
966.345	6251.91
966.648	6239.26
966.95	6247.84
967.252	6120.39
967.554	6116.77
967.856	6116.55
968.158	6036.78
968.46	6096.89
968.761	6003.56
969.063	6046.27
969.365	5955.42
969.666	5988.87
969.968	5911.81
970.269	5888.76
970.571	5794.52
970.872	5809.89
971.174	5777.35
971.475	5794.75
971.776	5726.95
972.077	5724.69
972.378	5658.48
972.679	5660.29
972.98	5632.04
973.281	5594.75
973.582	5623
973.883	5527.64
974.183	5524.93
974.484	5492.16
974.785	5468.88
975.085	5485.6
975.386	5444.48
975.686	5422.33
975.986	5376.68
976.287	5392.73
976.587	5284.71
976.887	5269.79
977.187	5318.83
977.487	5253.52
977.787	5264.82
978.087	5171.71
978.387	5211.04
978.687	5150.47
978.987	5160.42
979.286	5139.17
979.586	5076.12
979.885	5086.97
980.185	5020.76
980.484	5005.62
980.784	5037.93
981.083	4975.56
981.382	4965.84
981.682	4931.95
981.981	4957.03
982.28	4918.39
982.579	4907.54
982.878	4858.05
983.177	4845.85
983.475	4808.33
983.774	4758.62
984.073	4736.25
984.372	4720.88
984.67	4735.12
984.969	4728.56
985.267	4724.49
985.566	4677.94
985.864	4609.24
986.162	4619.41
986.461	4583.71
986.759	4532.86
987.057	4503.94
987.355	4481.11
987.653	4533.76
987.951	4468.23
988.249	4434.11
988.547	4414.45
988.844	4371.96
989.142	4398.18
989.44	4363.83
989.737	4341.45
990.035	4341
990.332	4291.06
990.63	4280.44
990.927	4254.22
991.224	4236.37
991.521	4239.08
991.819	4161.35
992.116	4205.86
992.413	4182.14
992.71	4116.37
993.006	4161.12
993.303	4136.49
993.6	4072.53
993.897	4071.4
994.193	4050.61
994.49	4034.34
994.787	3981.92
995.083	3997.28
995.379	3933.1
995.676	3939.2
995.972	3901.92
996.268	3910.28
996.565	3846.1
996.861	3854.91
997.157	3839.09
997.453	3792.99
997.749	3788.47
998.044	3748.02
998.34	3767.01
998.636	3723.16
998.932	3719.32
999.227	3652.66
999.523	3651.08
999.818	3641.13
1000.114	3624.41
1000.409	3603.85
1000.704	3615.37
1001	3568.59
1001.295	3570.17
1001.59	3560.68
1001.885	3493.34
1002.18	3501.25
1002.475	3449.05
1002.77	3451.08
1003.065	3423.29
1003.359	3422.38
1003.654	3443.4
1003.949	3389.16
1004.243	3373.57
1004.538	3326.79
1004.832	3308.71
1005.127	3279.33
1005.421	3237.3
1005.715	3254.7
1006.009	3298.32
1006.304	3220.81
1006.598	3183.97
1006.892	3194.82
1007.186	3144.87
1007.48	3136.06
1007.773	3160.92
1008.067	3134.48
1008.361	3097.19
1008.655	3086.8
1008.948	3080.24
1009.242	3007.25
1009.535	3037.08
1009.829	2998.89
1010.122	2963.64
1010.415	2938.1
1010.708	2922.06
1011.001	2944.65
1011.295	2903.98
1011.588	2902.85
1011.881	2865.11
1012.173	2802.06
1012.466	2861.04
1012.759	2826.47
1013.052	2799.8
1013.344	2765.68
1013.637	2797.31
1013.93	2731.78
1014.222	2716.86
1014.514	2698.33
1014.807	2657.66
1015.099	2648.62
1015.391	2656.3
1015.683	2625.57
1015.976	2598
1016.268	2587.6
1016.56	2566.59
1016.851	2540.15
1017.143	2534.72
1017.435	2507.6
1017.727	2502.41
1018.018	2495.17
1018.31	2475.06
1018.602	2475.74
1018.893	2433.26
1019.185	2421.05
1019.476	2427.61
1019.767	2391.9
1020.058	2421.96
1020.35	2392.13
1020.641	2328.63
1020.932	2332.69
1021.223	2323.2
1021.514	2298.34
1021.804	2283.88
1022.095	2271.68
1022.386	2242.3
1022.677	2198.91
1022.967	2228.97
1023.258	2209.76
1023.548	2184.45
1023.839	2185.13
1024.129	2164.79
1024.419	2139.03
1024.709	2108.52
1025	2080.04
1025.29	2080.5
1025.58	2063.55
1025.87	2039.59
1026.16	2049.99
1026.449	2042.53
1026.739	2040.95
1027.029	2000.95
1027.319	1979.48
1027.608	1970.44
1027.898	1929.09
1028.187	1948.97
1028.477	1918.24
1028.766	1914.17
1029.055	1890.22
1029.344	1847.51
1029.634	1867.62
1029.923	1895.19
1030.212	1849.54
1030.501	1840.28
1030.79	1807.73
1031.078	1794.18
1031.367	1796.44
1031.656	1796.89
1031.945	1784.23
1032.233	1738.13
1032.522	1778.36
1032.81	1753.05
1033.099	1731.58
1033.387	1741.3
1033.675	1704.69
1033.963	1683.22
1034.251	1679.6
1034.54	1662.65
1034.828	1647.29
1035.116	1656.55
1035.403	1634.86
1035.691	1612.03
1035.979	1608.19
1036.267	1635.31
1036.554	1582.2
1036.842	1579.94
1037.129	1550.11
1037.417	1532.94
1037.704	1515.54
1037.992	1536.33
1038.279	1497.91
1038.566	1481.19
1038.853	1481.19
1039.14	1481.19
