Data from 14-0852_FLMS001491_009.txt Node
Date: Thu Apr 12 17:07:18 BST 2018
User: hsy
Spectrometer: FLMS00149
Trigger mode: 0
Integration Time (sec): 1.000000E-2
Scans to average: 10
Electric dark correction enabled: true
Nonlinearity correction enabled: false
Boxcar width: 0
XAxis mode: Wavelengths
Number of Pixels in Spectrum: 2048
>>>>>Begin Spectral Data<<<<<
341.393	-2.42
341.776	-2.42
342.16	-2.42
342.543	-86.93
342.927	-73.15
343.31	-56.2
343.693	-68.63
344.077	-75.41
344.46	-55.3
344.843	-44.67
345.226	-54.17
345.61	-21.17
345.993	-11
346.376	-32.24
346.759	21.76
347.142	7.98
347.525	49.56
347.908	74.87
348.291	66.51
348.674	85.04
349.057	113.06
349.44	120.75
349.823	142.44
350.206	191.93
350.588	225.15
350.971	251.59
351.354	267.86
351.737	291.81
352.119	297.46
352.502	324.36
352.884	302.66
353.267	315.77
353.65	325.71
354.032	328.2
354.414	353.51
354.797	360.29
355.179	354.64
355.562	363.68
355.944	378.59
356.326	370.23
356.709	369.33
357.091	377.01
357.473	386.05
357.855	371.36
358.238	393.96
358.62	386.5
359.002	368.2
359.384	389.21
359.766	370.46
360.148	381.98
360.53	408.2
360.912	379.95
361.294	391.25
361.676	393.73
362.057	403.9
362.439	359.38
362.821	395.09
363.203	384.69
363.584	356.22
363.966	385.15
364.348	385.15
364.729	383.34
365.111	359.38
365.493	387.41
365.874	378.14
366.256	389.66
366.637	370.68
367.019	379.04
367.4	371.36
367.781	379.72
368.163	361.19
368.544	381.53
368.925	379.04
369.306	390.34
369.688	375.2
370.069	379.5
370.45	383.56
370.831	395.54
371.212	381.76
371.593	389.21
371.974	371.36
372.355	366.84
372.736	393.51
373.117	386.73
373.498	406.16
373.879	383.56
374.26	377.91
374.641	390.34
375.021	383.56
375.402	388.08
375.783	391.92
376.163	407.97
376.544	404.58
376.925	420.85
377.305	408.65
377.686	405.03
378.066	407.52
378.447	380.4
378.827	398.93
379.208	417.91
379.588	423.34
379.968	408.2
380.349	419.95
380.729	417.91
381.109	428.53
381.489	415.2
381.87	435.54
382.25	430.57
382.63	437.12
383.01	426.05
383.39	438.7
383.77	421.3
384.15	429.89
384.53	448.19
384.91	457.01
385.29	453.62
385.67	458.36
386.049	444.58
386.429	456.1
386.809	471.92
387.189	468.31
387.568	472.15
387.948	469.89
388.328	473.73
388.707	474.63
389.087	477.12
389.466	487.97
389.846	475.09
390.225	482.09
390.605	474.63
390.984	490.45
391.363	473.5
391.743	476.22
392.122	519.15
392.501	486.39
392.881	506.5
393.26	512.37
393.639	521.19
394.018	498.59
394.397	498.59
394.776	538.36
395.155	513.28
395.534	511.24
395.913	518.02
396.292	514.86
396.671	548.08
397.05	523.45
397.429	541.3
397.808	537.91
398.186	558.02
398.565	550.34
398.944	542.43
399.323	544.01
399.701	548.53
400.08	551.47
400.458	532.94
400.837	573.16
401.215	576.55
401.594	565.71
401.972	577.46
402.351	573.16
402.729	580.85
403.107	580.62
403.486	574.52
403.864	563.45
404.242	611.35
404.62	598.02
404.999	594.41
405.377	608.64
405.755	620.17
406.133	636.44
406.511	638.7
406.889	643.9
407.267	627.62
407.645	639.38
408.023	624.01
408.401	663.78
408.779	663.56
409.156	653.61
409.534	678.47
409.912	662.65
410.29	687.06
410.667	717.34
411.045	700.62
411.422	700.84
411.8	712.59
412.178	723.67
412.555	727.96
412.933	732.93
413.31	754.4
413.687	753.72
414.065	760.95
414.442	734.74
414.819	756.21
415.197	759.37
415.574	795.98
415.951	753.95
416.328	762.76
416.705	776.77
417.082	800.95
417.46	773.84
417.837	811.35
418.214	807.51
418.591	816.09
418.967	789.43
419.344	853.16
419.721	847.96
420.098	839.82
420.475	847.28
420.852	851.35
421.228	837.79
421.605	844.57
421.982	846.38
422.358	887.05
422.735	863.78
423.111	877.34
423.488	912.59
423.864	908.07
424.241	899.71
424.617	897.67
424.994	904
425.37	931.8
425.746	935.64
426.123	920.27
426.499	908.52
426.875	944.23
427.251	959.14
427.627	976.09
428.003	977.67
428.379	1017.9
428.756	991.01
429.132	985.36
429.507	1007.05
429.883	1002.76
430.259	1051.57
430.635	1029.87
431.011	1064.45
431.387	1057.22
431.763	1070.32
432.138	1095.86
432.514	1082.98
432.89	1105.35
433.265	1136.99
433.641	1118.46
434.016	1127.95
434.392	1178.12
434.767	1192.81
435.143	1184.9
435.518	1206.59
435.894	1196.42
436.269	1234.16
436.644	1222.86
437.02	1223.77
437.395	1235.52
437.77	1249.53
438.145	1281.62
438.52	1263.31
438.895	1291.34
439.271	1263.77
439.646	1302.18
440.021	1310.77
440.395	1334.72
440.77	1301.51
441.145	1309.87
441.52	1315.06
441.895	1330.21
442.27	1370.2
442.645	1341.73
443.019	1378.11
443.394	1357.1
443.769	1377.89
444.143	1364.33
444.518	1393.25
444.892	1375.18
445.267	1399.36
445.641	1401.39
446.016	1414.04
446.39	1439.35
446.764	1455.85
447.139	1446.81
447.513	1446.36
447.887	1461.95
448.262	1470.99
448.636	1470.99
449.01	1498.34
449.384	1508.96
449.758	1493.36
450.132	1534.95
450.506	1546.7
450.88	1567.26
451.254	1555.51
451.628	1574.49
452.002	1607.03
452.376	1618.56
452.75	1595.73
453.123	1616.53
453.497	1637.54
453.871	1629.63
454.244	1708.27
454.618	1710.76
454.992	1754.6
455.365	1729.29
455.739	1791.21
456.112	1782.17
456.486	1788.5
456.859	1836.86
457.232	1871.21
457.606	1880.02
457.979	1879.8
458.352	1946.91
458.725	1947.14
459.099	1964.76
459.472	1954.37
459.845	2003.63
460.218	2040.02
460.591	2058.32
460.964	2046.34
461.337	2112.78
461.71	2137.19
462.083	2119.56
462.456	2123.63
462.829	2171.99
463.201	2186.23
463.574	2187.58
463.947	2261.93
464.32	2280.01
464.692	2319.33
465.065	2287.69
465.438	2316.17
465.81	2377.86
466.183	2412.44
466.555	2410.85
466.928	2497.63
467.3	2452.66
467.672	2466.9
468.045	2521.81
468.417	2534.69
468.789	2568.36
469.161	2566.33
469.534	2623.96
469.906	2672.54
470.278	2740.56
470.65	2741.92
471.022	2760.45
471.394	2856.49
471.766	2862.37
472.138	2863.95
472.51	2953.67
472.882	2982.59
473.253	3001.8
473.625	3067.33
473.997	3119.08
474.369	3129.25
474.74	3177.39
475.112	3244.96
475.484	3265.75
475.855	3343.49
476.227	3384.84
476.598	3438.62
476.97	3493.76
477.341	3515.01
477.713	3623.93
478.084	3641.56
478.455	3764.04
478.827	3765.62
479.198	3909.57
479.569	3921.32
479.94	4031.6
480.311	4078.38
480.682	4171.03
481.053	4266.4
481.424	4320.18
481.795	4377.36
482.166	4492.38
482.537	4538.48
482.908	4665.71
483.279	4693.73
483.65	4850.79
484.021	4952.71
484.391	5024.57
484.762	5097.34
485.133	5175.98
485.503	5263.44
485.874	5405.8
486.244	5481.28
486.615	5600.6
486.985	5709.3
487.356	5819.8
487.726	5920.14
488.097	6107.03
488.467	6192.9
488.837	6292.33
489.207	6443.74
489.578	6635.15
489.948	6714.47
490.318	6883.28
490.688	6959.21
491.058	7139.54
491.428	7339.54
491.798	7351.97
492.168	7630.83
492.538	7790.37
492.908	7888.68
493.278	8128.44
493.648	8180.19
494.017	8313.98
494.387	8505.61
494.757	8680.75
495.126	8847.75
495.496	9025.6
495.866	9205.48
496.235	9383.55
496.605	9621.96
496.974	9720.94
497.344	9921.84
497.713	10103.76
498.082	10314.6
498.452	10482.51
498.821	10667.13
499.19	10854.02
499.559	11054.7
499.928	11280.45
500.298	11459.43
500.667	11748.91
501.036	11888.57
501.405	12093.09
501.774	12292.63
502.143	12527.88
502.512	12704.82
502.88	12928.54
503.249	13114.98
503.618	13343.45
503.987	13560.17
504.356	13793.61
504.724	13996.54
505.093	14193.14
505.462	14402.18
505.83	14620.93
506.199	14909.96
506.567	15221.82
506.936	15310.85
507.304	15698.19
507.672	15812.76
508.041	16102.92
508.409	16405.51
508.777	16563.48
509.145	16833.07
509.514	17020.41
509.882	17294.31
510.25	17461.76
510.618	17779.49
510.986	17767.97
511.354	18117.79
511.722	18389.87
512.09	18710.99
512.458	18755.74
512.826	19061.49
513.193	19331.09
513.561	19473
513.929	19653.34
514.297	20012.88
514.664	20164.51
515.032	20385.07
515.4	20570.15
515.767	20788.22
516.135	21074.32
516.502	21100.31
516.869	21479.05
517.237	21617.13
517.604	21665.94
517.972	22076.1
518.339	22276.32
518.706	22343.44
519.073	22585.47
519.44	22786.82
519.808	23129.41
520.175	23234.26
520.542	23557.42
520.909	23743.4
521.276	23973.9
521.643	24163.73
522.009	24451.86
522.376	24752.87
522.743	24875.12
523.11	25192.4
523.477	25405.73
523.843	25499.29
524.21	25950.8
524.577	26080.06
524.943	26390.34
525.31	26528.86
525.676	26847.27
526.043	27210.43
526.409	27296.08
526.776	27609.06
527.142	27662.39
527.508	27894.93
527.874	28276.16
528.241	28553.9
528.607	28595.25
528.973	29064.62
529.339	28961.57
529.705	29360.65
530.071	29597.94
530.437	29825.28
530.803	30038.83
531.169	30160.63
531.535	30318.82
531.901	30469.55
532.267	30699.15
532.632	30783.22
532.998	31069.54
533.364	31223.88
533.73	31357.44
534.095	31656.64
534.461	31571.67
534.826	31884.88
535.192	32080.81
535.557	32179.79
535.923	32290.97
536.288	32581.81
536.653	32801.92
537.019	32667.23
537.384	32954.01
537.749	32918.98
538.114	33105.87
538.479	33288.01
538.845	33423.37
539.21	33254.56
539.575	33608
539.94	33685.74
540.305	33904.72
540.67	33892.96
541.034	34074.65
541.399	34267.42
541.764	34292.05
542.129	34445.49
542.494	34453.4
542.858	34852.71
543.223	34603.45
543.587	34847.52
543.952	34969.55
544.316	35116.44
544.681	35146.27
545.045	35310.78
545.41	35417.9
545.774	35414.05
546.138	35486.6
546.503	35638.23
546.867	35755.74
547.231	36059.46
547.595	36004.32
547.959	36182.62
548.324	36237.76
548.688	36322.73
549.052	36464.65
549.416	36499
549.779	36542.61
550.143	36653.57
550.507	36980.79
550.871	37055.37
551.235	36963.17
551.599	37305.98
551.962	37296.27
552.326	37639.53
552.689	37703.71
553.053	37516.15
553.417	37852.86
553.78	38222.79
554.143	38211.27
554.507	38479.06
554.87	38555.67
555.234	38916.11
555.597	38738.26
555.96	38936.45
556.323	39029.1
556.686	39059.83
557.05	39374.63
557.413	39453.72
557.776	39495.98
558.139	39777.78
558.502	39863.66
558.865	40008.96
559.228	40242.4
559.59	40350.2
559.953	40492.79
560.316	40987.92
560.679	40930.29
561.041	41252.32
561.404	41425.2
561.767	41583.16
562.129	41610.5
562.492	41965.52
562.854	41791.06
563.217	42073.54
563.579	42201.9
563.941	42392.63
564.304	42543.36
564.666	42959.39
565.028	42967.08
565.39	43050.24
565.753	43527.74
566.115	43610
566.477	43698.58
566.839	43897.45
567.201	44274.84
567.563	44154.39
567.925	44466.25
568.287	44592.8
568.648	44787.14
569.01	44929.06
569.372	45304.64
569.734	45333.12
570.095	45552.77
570.457	45899.43
570.819	45852.65
571.18	45853.78
571.542	46173.55
571.903	46256.26
572.265	46470.71
572.626	46784.15
572.987	46715
573.349	47076.8
573.71	47100.75
574.071	47185.72
574.432	47518.37
574.794	47805.14
575.155	47989.54
575.516	47941.41
575.877	48106.83
576.238	48198.13
576.599	48404
576.96	48485.8
577.32	48528.74
577.681	48594.73
578.042	48955.85
578.403	49162.85
578.763	49159
579.124	49130.3
579.485	49562.16
579.845	49632.89
580.206	49561.93
580.566	49743.62
580.927	49878.31
581.287	50124.63
581.648	50105.42
582.008	50443.04
582.368	50485.3
582.728	50540.21
583.089	50732.75
583.449	50835.12
583.809	50864.72
584.169	51153.98
584.529	51036.47
584.889	51447.31
585.249	51296.8
585.609	51337.25
585.969	51664.93
586.329	51553.29
586.688	51791.25
587.048	51899.5
587.408	51999.61
587.768	52059.27
588.127	52203.22
588.487	52424
588.846	52694.05
589.206	52460.39
589.565	52596.65
589.925	52986.25
590.284	53000.03
590.643	53086.36
591.003	53210.65
591.362	53459.23
591.721	53629.62
592.08	53625.1
592.44	53863.06
592.799	53844.3
593.158	53917.07
593.517	53989.16
593.876	54240
594.235	54220.57
594.593	54326.78
594.952	54492.42
595.311	54565.87
595.67	54678.63
596.029	54896.48
596.387	55092.63
596.746	55176.92
597.104	55030.71
597.463	55174.89
597.822	55433.19
598.18	55373.3
598.538	55510.48
598.897	55780.3
599.255	55657.59
599.613	56044.92
599.972	55930.58
600.33	56073.62
600.688	56136.67
601.046	56297.12
601.404	56562.43
601.762	56528.3
602.12	56696.88
602.478	56748.63
602.836	56854.62
603.194	56757.22
603.552	56891.68
603.91	56866.15
604.268	57051.23
604.625	57122.64
604.983	57232.24
605.341	57192.01
605.698	57450.09
606.056	57620.48
606.413	57555.17
606.771	57783.18
607.128	57807.14
607.485	57738.21
607.843	57904.08
608.2	57988.15
608.557	58195.38
608.914	58151.54
609.272	58296.84
609.629	58462.71
609.986	58435.14
610.343	58532.99
610.7	58671.75
611.057	58680.56
611.414	58707.68
611.771	58803.04
612.127	58941.8
612.484	58921.23
612.841	59046.43
613.198	58979.76
613.554	59093.66
613.911	59295.01
614.267	59325.52
614.624	59320.77
614.98	59408
615.337	59653.42
615.693	59606.19
616.05	59710.59
616.406	59801.44
616.762	59707.88
617.118	59753.3
617.475	59767.09
617.831	60007.53
618.187	59923.01
618.543	59969.12
618.899	60160.52
619.255	60136.34
619.611	60118.72
619.967	60241.88
620.323	60359.61
620.678	60276.45
621.034	60285.72
621.39	60236.23
621.746	60324.13
622.101	60661.75
622.457	60439.61
622.812	60597.12
623.168	60634.41
623.523	60649.78
623.879	60773.16
624.234	60582.88
624.589	60713.28
624.945	60711.69
625.3	60754.86
625.655	60810.45
626.01	60760.51
626.365	60811.35
626.72	60740.17
627.075	60755.31
627.43	60788.3
627.785	60761.64
628.14	60802.77
628.495	60796.89
628.85	60839.37
629.205	60816.32
629.559	60858.58
629.914	60810.45
630.269	60784.69
630.623	60731.81
630.978	60661.98
631.332	60842.09
631.687	60763.67
632.041	60797.34
632.396	60774.52
632.75	60743.56
633.104	60777.68
633.459	60650.91
633.813	60656.33
634.167	60711.02
634.521	60703.56
634.875	60692.26
635.229	60611.13
635.583	60520.51
635.937	60597.12
636.291	60531.59
636.645	60532.49
636.999	60439.39
637.352	60510.57
637.706	60375.66
638.06	60482.77
638.413	60454.98
638.767	60346.51
639.121	60373.85
639.474	60294.53
639.828	60257.92
640.181	60274.19
640.534	60285.94
640.888	60155.33
641.241	60066.29
641.594	60131.6
641.947	60212.72
642.301	60079.85
642.654	60122.33
643.007	60017.25
643.36	60067.87
643.713	60030.58
644.066	60128.43
644.419	60022
644.771	59710.82
645.124	59507.66
645.477	59457.26
645.83	59348.79
646.182	59308.57
646.535	59306.53
646.888	59310.38
647.24	59304.5
647.593	59440.99
647.945	59330.04
648.298	59201.9
648.65	59011.17
649.002	58987.67
649.355	58944.51
649.707	58887.79
650.059	58904.96
650.411	59286.2
650.763	59284.39
651.115	59674.89
651.467	59577.94
651.819	59544.49
652.171	59393.31
652.523	59422.69
652.875	59423.59
653.227	59330.94
653.578	59507.88
653.93	59342.24
654.282	59287.55
654.633	59236.71
654.985	59309.02
655.337	59309.7
655.688	59260.43
656.039	59357.83
656.391	59094.79
656.742	59172.3
657.094	59109.93
657.445	59212.75
657.796	59179.76
658.147	59100.66
658.498	59147.44
658.849	59210.27
659.2	59127.1
659.551	59042.59
659.902	59248
660.253	59044.85
660.604	59126.2
660.955	59063.15
661.306	59187.67
661.656	59020.67
662.007	59044.62
662.358	59065.86
662.708	59015.47
663.059	58998.97
663.409	58865.87
663.76	58969.14
664.11	58974.34
664.461	58988.12
664.811	58991.97
665.161	58930.27
665.511	58887.11
665.862	58946.32
666.212	58915.58
666.562	58964.4
666.912	58858.18
667.262	58829.03
667.612	58833.33
667.962	58825.42
668.312	58767.56
668.662	58849.37
669.011	58874.23
669.361	58802.14
669.711	58804.17
670.06	58757.4
670.41	58702.26
670.76	58708.81
671.109	58736.61
671.459	58734.8
671.808	58663.84
672.157	58758.3
672.507	58527.8
672.856	58544.52
673.205	58629.49
673.554	58632.43
673.904	58680.11
674.253	58737.28
674.602	58635.14
674.951	58301.36
675.3	58197.64
675.649	58574.35
675.998	58619.32
676.346	58577.06
676.695	58656.38
677.044	58496.61
677.393	58540.23
677.741	58662.48
678.09	58539.77
678.438	58467.91
678.787	58483.73
679.135	58565.99
679.484	58293.68
679.832	58480.57
680.181	58424.98
680.529	58430.85
680.877	58273.11
681.225	58251.19
681.573	58522.6
681.922	58350.17
682.27	58280.8
682.618	58282.61
682.966	58217.07
683.314	58215.04
683.661	58228.14
684.009	58096.62
684.357	58069.96
684.705	57985.89
685.053	58064.53
685.4	58020.24
685.748	57885.1
686.095	57906.57
686.443	57767.59
686.79	57800.36
687.138	57841.71
687.485	57811.66
687.832	57718.55
688.18	57748.16
688.527	57599.23
688.874	57615.73
689.221	57615.5
689.568	57539.35
689.915	57485.56
690.262	57502.51
690.609	57393.82
690.956	57357.66
691.303	57412.8
691.65	57312.91
691.997	57190.66
692.344	57110.21
692.69	57077.21
693.037	57097.55
693.383	56851.68
693.73	56993.37
694.077	56863.89
694.423	56840.16
694.769	56789.54
695.116	56692.37
695.462	56675.87
695.808	56550.22
696.155	56549.77
696.501	56459.6
696.847	56447.4
697.193	56317.23
697.539	56378.93
697.885	56166.96
698.231	56133.96
698.577	56101.87
698.923	56215.54
699.269	55903.91
699.614	55893.29
699.96	55750.47
700.306	55860.3
700.651	55690.58
700.997	55587.54
701.342	55580.53
701.688	55469.12
702.033	55415.56
702.379	55456.92
702.724	55339.18
703.069	55383.93
703.415	55084.27
703.76	55058.96
704.105	55089.7
704.45	54996.59
704.795	54911.62
705.14	54810.83
705.485	54880.44
705.83	54606.09
706.175	54755.47
706.52	54592.53
706.865	54537.17
707.209	54448.81
707.554	54536.72
707.899	54383.27
708.243	54307.8
708.588	54277.06
708.932	54085.2
709.277	54157.06
709.621	53981.48
709.966	53838.2
710.31	53919.56
710.654	53710.97
710.998	53788.49
711.342	53782.39
711.687	53615.61
712.031	53500.81
712.375	53403.64
712.719	53319.57
713.063	53398.21
713.407	53422.17
713.75	53262.85
714.094	53285.22
714.438	53164.77
714.782	53124.1
715.125	52948.73
715.469	53113.25
715.812	52801.62
716.156	52834.84
716.499	52830.32
716.843	52878.23
717.186	52658.35
717.53	52809.08
717.873	52741.28
718.216	52592.13
718.559	52457.67
718.902	52260.84
719.246	52295.87
719.589	52311.01
719.932	52088.42
720.275	52216.32
720.617	52165.25
720.96	52000.29
721.303	52058.36
721.646	52059.94
721.989	51802.1
722.331	52031.92
722.674	51872.15
723.016	51804.58
723.359	51717.13
723.701	51739.5
724.044	51657.7
724.386	51429.23
724.729	51678.71
725.071	51502.67
725.413	51479.62
725.755	51371.83
726.097	51317.59
726.439	51219.29
726.782	51116.01
727.124	51323.01
727.465	51054.55
727.807	51064.26
728.149	51064.04
728.491	50975.23
728.833	51040.54
729.175	50862.24
729.516	50903.59
729.858	50832.63
730.199	50849.36
730.541	50751.73
730.882	50615.24
731.224	50763.48
731.565	50411.17
731.906	50521.91
732.248	50601.23
732.589	50386.32
732.93	50246.43
733.271	50320.78
733.612	50217.96
733.953	50446.43
734.294	50282.36
734.635	50063.16
734.976	50345.41
735.317	50176.83
735.658	50116.04
735.999	50038.98
736.339	49958.08
736.68	50003.73
737.021	49841.47
737.361	49823.17
737.702	49932.32
738.042	49813.22
738.383	49772.55
738.723	49763.96
739.063	49667.47
739.404	49759.67
739.744	49680.8
740.084	49514.47
740.424	49652.1
740.764	49539.11
741.104	49613.68
741.444	49535.94
741.784	49297.08
742.124	49362.84
742.464	49383.18
742.804	49250.3
743.143	49261.83
743.483	49247.82
743.823	48832.46
744.162	49025.67
744.502	49011.89
744.841	48873.36
745.181	49015.5
745.52	48777.09
745.86	48886.69
746.199	48824.1
746.538	48790.2
746.877	48919.01
747.216	48746.13
747.556	48609.87
747.895	48622.29
748.234	48626.59
748.573	48474.73
748.911	48332.59
749.25	48312.92
749.589	48089.88
749.928	48206.03
750.267	48229.31
750.605	48217.56
750.944	47966.27
751.283	47955.87
751.621	48147.96
751.96	47778.48
752.298	47806.72
752.636	47873.16
752.975	47630.46
753.313	47559.5
753.651	47732.6
753.989	47241.54
754.327	47336.68
754.666	47217.81
755.004	47133.97
755.342	47113.86
755.679	47053.75
756.017	46928.78
756.355	47037.7
756.693	46859.63
757.031	46960.19
757.368	46631.39
757.706	46685.62
758.044	46580.99
758.381	46566.53
758.719	46400.43
759.056	46402.69
759.394	46253.77
759.731	45915.47
760.068	46003.61
760.405	45975.81
760.743	45563.84
761.08	45781.24
761.417	45492.21
761.754	45463.06
762.091	45480.68
762.428	45219.9
762.765	44949.62
763.102	45044.99
763.438	44903.52
763.775	44569.29
764.112	44567.94
764.449	44610.88
764.785	44389.64
765.122	44212.47
765.458	44137.89
765.795	44142.64
766.131	43883.44
766.467	43874.17
766.804	43573.39
767.14	43374.52
767.476	43327.07
767.812	43291.81
768.148	43315.32
768.485	42962.78
768.821	42659.97
769.157	42624.26
769.492	42518.95
769.828	42447.32
770.164	42121.22
770.5	41979.31
770.836	41935.47
771.171	41917.61
771.507	41717.84
771.842	41423.61
772.178	41427.23
772.513	41306.56
772.849	41043.51
773.184	41199.44
773.519	41002.16
773.855	40859.11
774.19	40648.49
774.525	40461.15
774.86	40402.62
775.195	40235.17
775.53	40162.4
775.865	39809.42
776.2	39620.95
776.535	39433.38
776.87	39441.52
777.205	39215.31
777.539	39216.89
777.874	39117.91
778.209	38734.87
778.543	38774.64
778.878	38433.41
779.212	38590.24
779.547	38365.84
779.881	38214.89
780.215	38015.57
780.55	37991.61
780.884	37745.97
781.218	37669.81
781.552	37773.77
781.886	37385.08
782.22	37110.28
782.554	37260.11
782.888	36835.94
783.222	36722.72
783.556	36537.19
783.889	36520.01
784.223	36147.59
784.557	36262.62
784.89	36213.58
785.224	36079.8
785.557	35959.13
785.891	35793.48
786.224	35739.24
786.558	35697.89
786.891	35544.9
787.224	35272.82
787.557	35041.86
787.891	35017.23
788.224	34801.87
788.557	34808.42
788.89	34719.84
789.223	34599.39
789.556	34436.45
789.888	34267.19
790.221	34278.27
790.554	34023.13
790.887	34164.14
791.219	33851.16
791.552	33782.69
791.884	33534.56
792.217	33469.25
792.549	33559.64
792.882	33004.85
793.214	33073.1
793.546	33015.25
793.879	32892.99
794.211	32697.74
794.543	32763.73
794.875	32637.4
795.207	32519.44
795.539	32401.25
795.871	32443.06
796.203	32142.28
796.535	32081.71
796.867	31974.15
797.198	31767.37
797.53	31695.51
797.862	31704.1
798.193	31689.86
798.525	31397.44
798.856	31566.47
799.188	31039.48
799.519	30982.08
799.85	30903.21
800.182	30818.92
800.513	30922.65
800.844	30490.57
801.175	30777.11
801.506	30688.53
801.837	30412.38
802.168	30400.18
802.499	30325.15
802.83	30010.35
803.161	30037.02
803.491	30094.65
803.822	30139.17
804.153	29691.95
804.483	29623.7
804.814	29544.15
805.145	29594.32
805.475	29588.45
805.805	29431.61
806.136	29423.03
806.466	29228.91
806.796	29317.04
807.126	28997.73
807.457	29014.22
807.787	28879.76
808.117	28863.72
808.447	28728.35
808.777	28781.91
809.107	28485.42
809.436	28491.75
809.766	28554.57
810.096	28489.72
810.426	28284.98
810.755	28329.95
811.085	28240.46
811.414	28213.57
811.744	28078.2
812.073	28040.46
812.403	28090.41
812.732	27860.36
813.061	27955.72
813.39	27737.42
813.719	27682.96
814.049	27821.26
814.378	27668.72
814.707	27451.78
815.036	27458.78
815.365	27346.24
815.693	27314.61
816.022	27152.35
816.351	27171.56
816.68	26980.15
817.008	27137.66
817.337	26857.22
817.665	26909.19
817.994	26854.73
818.322	26928.18
818.651	26698.35
818.979	26558.24
819.307	26654.29
819.636	26521.86
819.964	26425.36
820.292	26605.47
820.62	26400.51
820.948	26485.25
821.276	26589.2
821.604	26482.31
821.932	26605.92
822.259	26508.07
822.587	26404.8
822.915	26292.26
823.243	26264.01
823.57	26269.66
823.898	26399.15
824.225	26285.03
824.553	26353.73
824.88	26354.41
825.207	26458.81
825.535	26313.28
825.862	26479.37
826.189	26272.6
826.516	26508.98
826.843	26492.93
827.17	26540.62
827.497	26398.25
827.824	26524.57
828.151	26458.13
828.478	26320.06
828.805	26488.64
829.131	26462.88
829.458	26468.98
829.785	26313.95
830.111	26374.29
830.438	26534.74
830.764	26349.43
831.09	26497
831.417	26265.14
831.743	26396.44
832.069	26200.29
832.395	26241.64
832.722	26327.06
833.048	26140.4
833.374	26292.49
833.7	26220.17
834.026	26261.75
834.351	26206.16
834.677	26219.72
835.003	26222.88
835.329	26286.84
835.654	26261.3
835.98	26050.91
836.306	26237.57
836.631	26007.52
836.956	26215.43
837.282	26075.09
837.607	25891.37
837.932	25932.04
838.258	25980.86
838.583	25831.71
838.908	25741.09
839.233	25722.78
839.558	25667.87
839.883	25685.72
840.208	25541.55
840.533	25576.35
840.858	25565.05
841.182	25482.34
841.507	25448.67
841.832	25445.96
842.156	25444.15
842.481	25382
842.805	25238.96
843.13	25132.97
843.454	25291.83
843.778	25090.94
844.103	25012.97
844.427	24983.37
844.751	24871.96
845.075	24933.43
845.399	24859.98
845.723	24615.69
846.047	24736.14
846.371	24549.26
846.695	24414.34
847.019	24370.96
847.343	24264.52
847.666	24133.67
847.99	23993.34
848.313	23950.4
848.637	23852.55
848.96	23815.04
849.284	23753.12
849.607	23556.97
849.931	23548.15
850.254	23389.29
850.577	23324.66
850.9	23224.32
851.223	23169.18
851.546	23031.33
851.869	22945.91
852.192	23076.75
852.515	22817.78
852.838	22656.88
853.161	22671.56
853.483	22528.29
853.806	22555.86
854.129	22440.38
854.451	22463.89
854.774	22185.02
855.096	22206.94
855.419	22100.51
855.741	22007.85
856.063	21869.33
856.385	21841.3
856.708	21831.14
857.03	21711.14
857.352	21690.12
857.674	21695.09
857.996	21552.5
858.318	21380.98
858.64	21484.93
858.961	21443.8
859.283	21276.8
859.605	21220.3
859.926	21218.04
860.248	21183.24
860.57	21068.44
860.891	21010.14
861.212	21001.1
861.534	20879.52
861.855	20859.18
862.176	20760.2
862.498	20880.2
862.819	20837.26
863.14	20688.11
863.461	20644.95
863.782	20556.14
864.103	20626.65
864.424	20556.37
864.745	20628
865.065	20460.78
865.386	20435.47
865.707	20402.02
866.027	20409.03
866.348	20296.94
866.668	20332.64
866.989	20375.13
867.309	20146.21
867.63	20171.97
867.95	20215.36
868.27	19987.57
868.59	20196.38
868.91	20081.12
869.23	20059.88
869.55	19970.62
869.87	19948.92
870.19	19872.99
870.51	19938.53
870.83	19917.06
871.15	19737.63
871.469	19747.57
871.789	19783.28
872.109	19846.55
872.428	19726.56
872.748	19739.89
873.067	19655.15
873.386	19629.38
873.706	19565.21
874.025	19523.85
874.344	19545.32
874.663	19573.79
874.982	19440.46
875.301	19428.94
875.62	19416.74
875.939	19305.1
876.258	19363.86
876.577	19270.07
876.896	19262.84
877.214	19124.99
877.533	19216.97
877.852	19190.98
878.17	19250.64
878.489	19200.92
878.807	19128.38
879.125	19115.73
879.444	19076.18
879.762	19012.23
880.08	19092.45
880.398	18859.01
880.716	18977.65
881.034	18863.76
881.352	18821.04
881.67	18771.78
881.988	18820.82
882.306	18779.24
882.624	18694.27
882.941	18649.98
883.259	18619.47
883.577	18574.95
883.894	18560.94
884.212	18466.03
884.529	18397.78
884.846	18305.35
885.164	18269.65
885.481	18219.7
885.798	18292.02
886.115	18153.72
886.432	18173.83
886.75	18112.81
887.067	18177.22
887.383	18061.06
887.7	17983.78
888.017	17848.41
888.334	17855.65
888.651	17823.33
888.967	17827.17
889.284	17769.55
889.6	17747.4
889.917	17641.87
890.233	17627.63
890.55	17627.4
890.866	17547.41
891.182	17391.25
891.498	17395.55
891.815	17338.82
892.131	17209.56
892.447	17185.83
892.763	17156.68
893.079	17102.45
893.395	17051.83
893.71	17057.7
894.026	16981.55
894.342	16958.72
894.657	16828.1
894.973	16839.4
895.289	16886.86
895.604	16711.72
895.92	16689.58
896.235	16539.75
896.55	16488.9
896.865	16521.44
897.181	16445.06
897.496	16313.77
897.811	16366.42
898.126	16334.78
898.441	16262.02
898.756	16304.73
899.071	16115.13
899.386	16069.93
899.7	15975.02
900.015	15909.03
900.33	15751.97
900.644	15782.48
900.959	15778.19
901.273	15712.88
901.588	15655.93
901.902	15635.37
902.216	15538.42
902.531	15419.33
902.845	15469.95
903.159	15304.75
903.473	15297.97
903.787	15223.85
904.101	15119.67
904.415	15168.94
904.729	15097.3
905.042	14999.68
905.356	14976.4
905.67	14940.69
905.984	14846.01
906.297	14942.28
906.611	14779.79
906.924	14787.7
907.237	14675.39
907.551	14673.36
907.864	14559.69
908.177	14557.88
908.491	14438.79
908.804	14365.12
909.117	14330.32
909.43	14200.83
909.743	14243.09
910.056	14178
910.368	14085.12
910.681	14053.03
910.994	14057.55
911.307	13958.57
911.619	13771.69
911.932	13813.94
912.244	13711.12
912.557	13697.34
912.869	13615.76
913.181	13622.76
913.494	13536.21
913.806	13489.66
914.118	13437.91
914.43	13392.71
914.742	13285.6
915.054	13204.47
915.366	13118.6
915.678	13077.24
915.99	13093.96
916.302	12968.77
916.613	12979.84
916.925	12973.51
917.236	12902.1
917.548	12770.36
917.859	12799.73
918.171	12678.83
918.482	12669.12
918.794	12601.1
919.105	12586.41
919.416	12420.99
919.727	12525.84
920.038	12441.78
920.349	12268.22
920.66	12311.84
920.971	12298.28
921.282	12242.01
921.593	12113.65
921.903	12058.06
922.214	12080.2
922.525	11922.69
922.835	11892.64
923.146	11864.17
923.456	11820.32
923.767	11710.5
924.077	11786.88
924.387	11700.55
924.697	11582.59
925.008	11590.95
925.318	11535.81
925.628	11505.3
925.938	11464.18
926.248	11317.97
926.558	11272.09
926.867	11291.3
927.177	11223.05
927.487	11183.05
927.796	11062.83
928.106	11078.42
928.416	10992.32
928.725	10985.54
929.034	10884.08
929.344	10891.54
929.653	10875.94
929.962	10850.63
930.271	10698.55
930.581	10792.33
930.89	10654.48
931.199	10545.1
931.508	10565.89
931.817	10594.14
932.125	10491.09
932.434	10402.28
932.743	10341.95
933.051	10321.38
933.36	10287.94
933.669	10260.59
933.977	10184.89
934.286	10128.84
934.594	10082.07
934.902	10132.91
935.21	9947.61
935.519	9932.69
935.827	9958
936.135	9882.97
936.443	9795.97
936.751	9781.28
937.059	9784.9
937.367	9677.78
937.674	9674.17
937.982	9672.13
938.29	9550.33
938.597	9568.18
938.905	9399.6
939.213	9358.69
939.52	9368.19
939.827	9439.37
940.135	9356.89
940.442	9308.53
940.749	9253.84
941.056	9238.47
941.363	9081.19
941.67	9097.01
941.977	9096.55
942.284	8980.63
942.591	9018.82
942.898	9013.39
943.205	8926.39
943.511	8824.47
943.818	8897.24
944.125	8768.65
944.431	8731.82
944.738	8760.07
945.044	8717.81
945.35	8660.18
945.657	8610.24
945.963	8671.71
946.269	8564.37
946.575	8502.22
946.881	8409.12
947.187	8450.24
947.493	8329.8
947.799	8413.18
948.105	8366.18
948.41	8193.53
948.716	8224.26
949.022	8221.78
949.327	8169.57
949.633	8037.6
949.938	8076.92
950.244	8106.75
950.549	8021.78
950.854	7949.47
951.16	7935.46
951.465	7865.63
951.77	7901.78
952.075	7836.7
952.38	7832.18
952.685	7793.09
952.99	7730.71
953.294	7710.83
953.599	7626.31
953.904	7629.25
954.209	7602.58
954.513	7561.68
954.818	7511.06
955.122	7565.52
955.426	7530.95
955.731	7392.87
956.035	7408.01
956.339	7367.79
956.643	7350.84
956.948	7215.47
957.252	7235.36
957.556	7250.73
957.86	7176.15
958.163	7200.79
958.467	7160.11
958.771	7150.62
959.075	7131.41
959.378	7004.63
959.682	7057.51
959.985	6914.24
960.289	6957.4
960.592	6900.68
960.896	6848.25
961.199	6895.03
961.502	6822.04
961.805	6752.21
962.108	6726.9
962.411	6663.4
962.714	6643.51
963.017	6627.92
963.32	6625.66
963.623	6630.63
963.926	6551.08
964.228	6452.33
964.531	6568.71
964.833	6527.36
965.136	6426.57
965.438	6425.66
965.741	6372.33
966.043	6339.56
966.345	6265.44
966.648	6356.51
966.95	6292.79
967.252	6235.16
967.554	6213.92
967.856	6224.31
968.158	6172.79
968.46	6124.2
968.761	6096.41
969.063	6088.72
969.365	6092.57
969.666	5991.55
969.968	5991.78
970.269	5959.24
970.571	5961.72
970.872	5869.29
971.174	5877.66
971.475	5859.35
971.776	5813.03
972.077	5783.42
972.378	5813.48
972.679	5788.39
972.98	5721.5
973.281	5712.69
973.582	5692.58
973.883	5653.03
974.183	5587.27
974.484	5616.19
974.785	5559.47
975.085	5547.5
975.386	5565.35
975.686	5502.98
975.986	5460.94
976.287	5436.99
976.587	5439.93
976.887	5396.31
977.187	5449.19
977.487	5356.09
977.787	5329.65
978.087	5243.32
978.387	5248.29
978.687	5247.84
978.987	5198.13
979.286	5209.43
979.586	5177.56
979.885	5164.45
980.185	5144.12
980.484	5079.71
980.784	5105.93
981.083	5050.56
981.382	5069.09
981.682	5026.61
981.981	5019.15
982.28	5006.72
982.579	4914.29
982.878	4942.99
983.177	4914.74
983.475	4882.88
983.774	4867.97
984.073	4848.3
984.372	4784.13
984.67	4761.98
984.969	4769.21
985.267	4732.83
985.566	4726.95
985.864	4648.31
986.162	4649.89
986.461	4614.19
986.759	4611.47
987.057	4581.19
987.355	4525.6
987.653	4530.35
987.951	4511.59
988.249	4536.45
988.547	4542.78
988.844	4510.01
989.142	4497.58
989.44	4402.67
989.737	4423.46
990.035	4428.43
990.332	4394.31
990.63	4362.22
990.927	4302.33
991.224	4293.74
991.521	4293.97
991.819	4223.24
992.116	4269.34
992.413	4210.13
992.71	4223.24
993.006	4183.01
993.303	4175.78
993.6	4184.59
993.897	4114.54
994.193	4107.99
994.49	4075.22
994.787	4020.08
995.083	3999.51
995.379	4001.32
995.676	3986.18
995.972	3990.25
996.268	3979.18
996.565	3883.13
996.861	3910.48
997.157	3908.22
997.453	3854.21
997.749	3878.84
998.044	3838.84
998.34	3841.55
998.636	3810.82
998.932	3751.84
999.227	3757.03
999.523	3732.63
999.818	3692.85
1000.114	3684.04
1000.409	3643.82
1000.704	3638.17
1001	3631.84
1001.295	3565.85
1001.59	3591.16
1001.885	3599.98
1002.18	3550.94
1002.475	3563.37
1002.77	3525.18
1003.065	3521.56
1003.359	3454.44
1003.654	3489.92
1003.949	3446.99
1004.243	3405.4
1004.538	3402.47
1004.832	3352.07
1005.127	3350.94
1005.421	3335.58
1005.715	3311.85
1006.009	3293.32
1006.304	3246.09
1006.598	3224.39
1006.892	3189.14
1007.186	3213.77
1007.48	3181
1007.773	3151.63
1008.067	3117.5
1008.361	3113.66
1008.655	3084.51
1008.948	3067.56
1009.242	3080.67
1009.535	3076.37
1009.829	3047.9
1010.122	3065.07
1010.415	2976.94
1010.708	2992.99
1011.001	2944.63
1011.295	2912.76
1011.588	2890.84
1011.881	2900.11
1012.173	2912.31
1012.466	2899.88
1012.759	2828.24
1013.052	2845.65
1013.344	2849.26
1013.637	2807.68
1013.93	2764.52
1014.222	2749.15
1014.514	2752.77
1014.807	2758.64
1015.099	2725.87
1015.391	2711.86
1015.683	2662.83
1015.976	2671.41
1016.268	2649.49
1016.56	2605.65
1016.851	2615.37
1017.143	2555.94
1017.435	2549.61
1017.727	2539.44
1018.018	2555.26
1018.31	2506.67
1018.602	2529.95
1018.893	2487.46
1019.185	2455.83
1019.476	2461.93
1019.767	2432.32
1020.058	2442.49
1020.35	2379.22
1020.641	2371.53
1020.932	2360.69
1021.223	2373.12
1021.514	2304.19
1021.804	2312.78
1022.095	2262.38
1022.386	2287.92
1022.677	2241.14
1022.967	2268.94
1023.258	2219.9
1023.548	2227.13
1023.839	2177.41
1024.129	2175.61
1024.419	2150.07
1024.709	2163.86
1025	2161.6
1025.29	2100.58
1025.58	2104.42
1025.87	2047.93
1026.16	2069.85
1026.449	2042.95
1026.739	2059.9
1027.029	2070.07
1027.319	2054.93
1027.608	1997.76
1027.898	1978.55
1028.187	1976.29
1028.477	1959.57
1028.766	1964.54
1029.055	1933.13
1029.344	1937.19
1029.634	1900.59
1029.923	1888.61
1030.212	1875.28
1030.501	1863.75
1030.79	1852.68
1031.078	1843.86
1031.367	1823.53
1031.656	1833.69
1031.945	1795.28
1032.233	1786.69
1032.522	1776.97
1032.81	1752.11
1033.099	1736.97
1033.387	1726.58
1033.675	1736.07
1033.963	1727.03
1034.251	1706.24
1034.54	1677.54
1034.828	1675.05
1035.116	1671.21
1035.403	1649.29
1035.691	1608.62
1035.979	1609.52
1036.267	1618.56
1036.554	1622.85
1036.842	1584.66
1037.129	1548.05
1037.417	1581.95
1037.704	1551.89
1037.992	1546.02
1038.279	1511.44
1038.566	1525
1038.853	1525
1039.14	1525
