Data from 14-1119_FLMS001491_007.txt Node
Date: Thu Apr 19 16:09:52 BST 2018
User: hsy
Spectrometer: FLMS00149
Trigger mode: 0
Integration Time (sec): 1.000000E-2
Scans to average: 10
Electric dark correction enabled: true
Nonlinearity correction enabled: false
Boxcar width: 0
XAxis mode: Wavelengths
Number of Pixels in Spectrum: 2048
>>>>>Begin Spectral Data<<<<<
341.393	-13.09
341.776	-13.09
342.16	-13.09
342.543	-58.06
342.927	-69.36
343.31	-64.62
343.693	-61.45
344.077	-68.46
344.46	-63.26
344.843	-48.12
345.226	-30.95
345.61	-33.88
345.993	-32.53
346.376	4.08
346.759	-1.34
347.142	29.62
347.525	44.31
347.908	52.44
348.291	61.26
348.674	99.22
349.057	113.68
349.44	138.32
349.823	167.24
350.206	175.6
350.588	234.58
350.971	244.98
351.354	250.85
351.737	280.46
352.119	279.78
352.502	298.54
352.884	320.23
353.267	322.72
353.65	319.78
354.032	325.2
354.414	317.29
354.797	357.97
355.179	342.83
355.562	383.73
355.944	346.9
356.326	355.94
356.709	384.41
357.091	374.24
357.473	382.83
357.855	376.05
358.238	387.8
358.62	403.85
359.002	380.34
359.384	390.74
359.766	372.89
360.148	390.06
360.53	370.85
360.912	368.82
361.294	356.84
361.676	386.22
362.057	376.73
362.439	371.76
362.821	354.13
363.203	364.75
363.584	378.08
363.966	377.63
364.348	379.21
364.729	377.18
365.111	401.36
365.493	367.91
365.874	366.56
366.256	371.08
366.637	361.81
367.019	367.01
367.4	387.35
367.781	356.16
368.163	381.47
368.544	344.86
368.925	329.72
369.306	376.73
369.688	373.79
370.069	361.36
370.45	343.51
370.831	363.62
371.212	371.3
371.593	365.2
371.974	355.49
372.355	371.3
372.736	402.49
373.117	361.36
373.498	371.98
373.879	350.97
374.26	377.41
374.641	367.24
375.021	378.31
375.402	383.05
375.783	400.23
376.163	403.62
376.544	388.03
376.925	379.44
377.305	400.46
377.686	405.88
378.066	398.42
378.447	387.12
378.827	405.43
379.208	397.29
379.588	397.07
379.968	379.89
380.349	400.68
380.729	393.45
381.109	390.96
381.489	396.16
381.87	408.14
382.25	413.34
382.63	388.7
383.01	410.4
383.39	407.69
383.77	446.56
384.15	427.8
384.53	421.92
384.91	423.73
385.29	440.91
385.67	438.19
386.049	438.42
386.429	449.95
386.809	465.54
387.189	455.37
387.568	447.01
387.948	426.44
388.328	468.25
388.707	476.39
389.087	456.27
389.466	468.25
389.846	468.93
390.225	476.39
390.605	481.81
390.984	474.13
391.363	489.27
391.743	480.45
392.122	469.38
392.501	494.01
392.881	501.7
393.26	508.48
393.639	500.57
394.018	505.99
394.397	522.03
394.776	475.71
395.155	506.67
395.534	524.75
395.913	511.64
396.292	510.74
396.671	517.06
397.05	530.4
397.429	526.33
397.808	525.88
398.186	530.17
398.565	529.27
398.944	542.6
399.323	540.11
399.701	564.07
400.08	557.97
400.458	576.27
400.837	576.72
401.215	596.38
401.594	560.45
401.972	580.79
402.351	595.25
402.729	608.59
403.107	594.57
403.486	611.07
403.864	626.66
404.242	619.21
404.62	629.38
404.999	631.64
405.377	620.56
405.755	645.42
406.133	624.18
406.511	650.84
406.889	663.95
407.267	643.39
407.645	664.63
408.023	696.27
408.401	689.49
408.779	690.84
409.156	694.46
409.534	705.31
409.912	723.84
410.29	764.51
410.667	723.16
411.045	752.08
411.422	769.71
411.8	762.25
412.178	773.55
412.555	810.39
412.933	801.35
413.31	821.46
413.687	813.33
414.065	836.15
414.442	828.47
414.819	861.23
415.197	888.8
415.574	860.56
415.951	875.47
416.328	889.93
416.705	902.36
417.082	905.53
417.46	928.58
417.837	934
418.214	953.44
418.591	936.26
418.967	972.64
419.344	963.15
419.721	969.03
420.098	985.75
420.475	984.4
420.852	980.1
421.228	1033.21
421.605	1000.44
421.982	1023.26
422.358	1054.68
422.735	1036.82
423.111	1046.54
423.488	1092.87
423.864	1075.92
424.241	1103.71
424.617	1122.24
424.994	1101.45
425.37	1109.59
425.746	1124.96
426.123	1137.84
426.499	1129.7
426.875	1187.55
427.251	1182.36
427.627	1176.03
428.003	1223.48
428.379	1226.42
428.756	1223.71
429.132	1231.62
429.507	1262.58
429.883	1282.69
430.259	1301.22
430.635	1316.59
431.011	1316.14
431.387	1324.27
431.763	1360.88
432.138	1359.98
432.514	1371.73
432.89	1399.53
433.265	1411.5
433.641	1465.96
434.016	1432.52
434.392	1470.71
434.767	1487.88
435.143	1495.12
435.518	1521.78
435.894	1516.81
436.269	1566.98
436.644	1561.55
437.02	1572.4
437.395	1594.77
437.77	1623.7
438.145	1617.15
438.52	1620.08
438.895	1670.93
439.271	1677.48
439.646	1689.24
440.021	1729.91
440.395	1722.68
440.77	1698.27
441.145	1758.16
441.52	1759.29
441.895	1751.83
442.27	1789.57
442.645	1776.92
443.019	1763.13
443.394	1777.59
443.769	1838.84
444.143	1800.42
444.518	1818.95
444.892	1842
445.267	1844.71
445.641	1844.94
446.016	1895.56
446.39	1883.58
446.764	1896.69
447.139	1912.73
447.513	1948.44
447.887	1927.42
448.262	1933.52
448.636	1957.25
449.01	1996.12
449.384	1969.23
449.758	2001.09
450.132	2018.94
450.506	2045.61
450.88	2043.58
451.254	2034.99
451.628	2098.49
452.002	2103.69
452.376	2131.94
452.75	2148.66
453.123	2161.99
453.497	2203.12
453.871	2177.13
454.244	2248.09
454.618	2279.5
454.992	2310.91
455.365	2309.78
455.739	2345.26
456.112	2355.88
456.486	2403.34
456.859	2399.5
457.232	2432.72
457.606	2462.55
457.979	2490.12
458.352	2503
458.725	2559.72
459.099	2557.01
459.472	2631.81
459.845	2675.42
460.218	2684.92
460.591	2702.32
460.964	2739.15
461.337	2777.57
461.71	2795.87
462.083	2854.4
462.456	2924.23
462.829	2914.51
463.201	2878.36
463.574	2951.8
463.947	2980.73
464.32	3023.66
464.692	3081.74
465.065	3081.29
465.438	3108.41
465.81	3131.46
466.183	3209.87
466.555	3250.1
466.928	3340.72
467.3	3275.18
467.672	3328.51
468.045	3377.78
468.417	3338.01
468.789	3453.71
469.161	3438.79
469.534	3523.31
469.906	3563.08
470.278	3634.04
470.65	3634.72
471.022	3671.33
471.394	3783.64
471.766	3801.72
472.138	3822.29
472.51	3909.52
472.882	3989.51
473.253	3978.67
473.625	4052.79
473.997	4107.7
474.369	4156.74
474.74	4217.3
475.112	4291.2
475.484	4323.52
475.855	4418.88
476.227	4431.76
476.598	4577.29
476.97	4643.73
477.341	4730.96
477.713	4777.97
478.084	4874.24
478.455	4939.32
478.827	5026.77
479.198	5119.88
479.569	5203.72
479.94	5276.71
480.311	5285.07
480.682	5469.7
481.053	5533.88
481.424	5649.81
481.795	5709.92
482.166	5821.33
482.537	5848.22
482.908	6105.39
483.279	6114.43
483.65	6238.27
484.021	6341.77
484.391	6440.75
484.762	6494.31
485.133	6644.36
485.503	6739.5
485.874	6893.17
486.244	7000.73
486.615	7133.61
486.985	7187.62
487.356	7292.93
487.726	7466.71
488.097	7619.47
488.467	7697.89
488.837	7857.43
489.207	7978.79
489.578	8155.51
489.948	8193.25
490.318	8434.37
490.688	8422.62
491.058	8711.42
491.428	8843.62
491.798	8864.64
492.168	9123.62
492.538	9195.03
492.908	9342.14
493.278	9552.31
493.648	9586.88
494.017	9766.09
494.387	9925.18
494.757	10014.89
495.126	10138.05
495.496	10225.28
495.866	10396.35
496.235	10488.78
496.605	10721.31
496.974	10796.57
497.344	10990.69
497.713	11084.47
498.082	11221.19
498.452	11310.68
498.821	11437.23
499.19	11533.27
499.559	11680.16
499.928	11838.57
500.298	12022.07
500.667	12137.55
501.036	12222.97
501.405	12380.25
501.774	12481.72
502.143	12630.87
502.512	12767.36
502.88	12935.04
503.249	12926.45
503.618	13169.16
503.987	13265.43
504.356	13414.58
504.724	13568.92
505.093	13610.05
505.462	13804.4
505.83	13870.84
506.199	14076.48
506.567	14290.49
506.936	14377.94
507.304	14519.86
507.672	14665.39
508.041	14714.88
508.409	14912.62
508.777	15120.75
509.145	15200.97
509.514	15262.44
509.882	15398.93
510.25	15530.91
510.618	15746.94
510.986	15761.18
511.354	15913.49
511.722	16141.74
512.09	16312.58
512.458	16258.34
512.826	16475.97
513.193	16556.41
513.561	16762.96
513.929	16840.93
514.297	17035.72
514.664	17118.66
515.032	17165.89
515.4	17467.35
515.767	17551.19
516.135	17623.96
516.502	17530.17
516.869	17996.83
517.237	18074.57
517.604	17984.85
517.972	18364.28
518.339	18453.54
518.706	18541.22
519.073	18630.94
519.44	18774.21
519.808	19069.34
520.175	19008.1
520.542	19380.07
520.909	19345.04
521.276	19518.6
521.643	19681.3
522.009	19821.87
522.376	20021.63
522.743	20001.97
523.11	20357.22
523.477	20608.51
523.843	20655.97
524.21	20955.85
524.577	20990.87
524.943	21210.98
525.31	21221.83
525.676	21460.92
526.043	21701.82
526.409	21763.51
526.776	22147
527.142	22231.97
527.508	22303.16
527.874	22517.84
528.241	22659.76
528.607	22741.11
528.973	23022.01
529.339	23036.7
529.705	23216.13
530.071	23424.26
530.437	23564.37
530.803	23750.8
531.169	23967.75
531.535	23906.28
531.901	24044.35
532.267	24249.77
532.632	24389.2
532.998	24471.91
533.364	24664.68
533.73	24810.89
534.095	24873.26
534.461	24989.64
534.826	25174.72
535.192	25252.01
535.557	25400.7
535.923	25408.61
536.288	25517.54
536.653	25662.39
537.019	25634.59
537.384	25777.19
537.749	25844.08
538.114	26071.87
538.479	25998.43
538.845	26217.86
539.21	26146.67
539.575	26231.64
539.94	26290.4
540.305	26415.82
540.67	26645.64
541.034	26748.46
541.399	26785.07
541.764	26763.38
542.129	26846.09
542.494	26938.29
542.858	27120.88
543.223	27018.74
543.587	27170.83
543.952	27244.04
544.316	27287.88
544.681	27283.14
545.045	27444.94
545.41	27608.33
545.774	27442.68
546.138	27580.76
546.503	27615.11
546.867	27712.51
547.231	27868.21
547.595	28010.35
547.959	28107.75
548.324	28128.09
548.688	28028.88
549.052	28187.3
549.416	28179.84
549.779	28280.4
550.143	28347.97
550.507	28417.57
550.871	28470.45
551.235	28465.48
551.599	28839.93
551.962	28825.92
552.326	28986.37
552.689	28987.27
553.053	28716.55
553.417	28973.49
553.78	29345.91
554.143	29386.81
554.507	29403.76
554.87	29439.92
555.234	29757.2
555.597	29520.14
555.96	29674.26
556.323	29803.3
556.686	29870.19
557.05	30107.92
557.413	30157.41
557.776	30168.26
558.139	30420.91
558.502	30431.53
558.865	30582.26
559.228	30689.6
559.59	30699.32
559.953	30763.5
560.316	31191.96
560.679	31059.31
561.041	31293.88
561.404	31448.23
561.767	31731.16
562.129	31574.1
562.492	31833.98
562.854	31819.97
563.217	31909.68
563.579	32131.15
563.941	32283.46
564.304	32434.64
564.666	32762.09
565.028	32669.89
565.39	32742.66
565.753	33064.46
566.115	33033.72
566.477	33261.06
566.839	33384.22
567.201	33704.89
567.563	33537.21
567.925	33826.24
568.287	33872.57
568.648	34035.28
569.01	34315.04
569.372	34654.7
569.734	34507.13
570.095	34773.56
570.457	34992.09
570.819	34982.6
571.18	35018.75
571.542	35348.69
571.903	35368.12
572.265	35479.31
572.626	35660.77
572.987	35871.84
573.349	36012.17
573.71	36105.05
574.071	36343.69
574.432	36449.45
574.794	36842.89
575.155	36863.9
575.516	36820.51
575.877	37174.86
576.238	37100.28
576.599	37347.51
576.96	37478.35
577.32	37562.87
577.681	37817.55
578.042	37915.85
578.403	38123.76
578.763	38176.86
579.124	38375.05
579.485	38598.1
579.845	38801.03
580.206	38780.24
580.566	38921.48
580.927	39076.05
581.287	39296.83
581.648	39349.26
582.008	39652.08
582.368	39773.88
582.728	39951.51
583.089	40051.62
583.449	40118.06
583.809	40350.14
584.169	40716.91
584.529	40543.35
584.889	41063.34
585.249	40939.5
585.609	40927.98
585.969	41488.87
586.329	41292.26
586.688	41792.59
587.048	41863.09
587.408	41962.75
587.768	42163.65
588.127	42429.18
588.487	42444.1
588.846	42995.49
589.206	42780.13
589.565	43047.92
589.925	43503.95
590.284	43647.68
590.643	43821.23
591.003	43917.28
591.362	44358.62
591.721	44315.46
592.08	44513.87
592.44	44879.96
592.799	45049.9
593.158	45048.32
593.517	45204.48
593.876	45519.27
594.235	45710.45
594.593	45852.14
594.952	46086.71
595.311	46301.17
595.67	46513.37
596.029	46873.36
596.387	47103.18
596.746	47319.9
597.104	47244.87
597.463	47417.75
597.822	47809.15
598.18	47788.14
598.538	47853.45
598.897	48348.57
599.255	48107.45
599.613	48839.41
599.972	48672.41
600.33	48744.04
600.688	48890.25
601.046	49182.45
601.404	49499.96
601.762	49592.38
602.12	49791.47
602.478	49811.81
602.836	50065.59
603.194	50013.39
603.552	50203.67
603.91	50248.64
604.268	50599.81
604.625	50483.21
604.983	50877.09
605.341	50721.17
605.698	51107.37
606.056	51234.6
606.413	51104.89
606.771	51453.58
607.128	51475.27
607.485	51551.2
607.843	51731.99
608.2	51945.77
608.557	52162.26
608.914	52108.93
609.272	52390.05
609.629	52568.12
609.986	52649.03
610.343	52714.33
610.7	53016.25
611.057	52957.94
611.414	52976.47
611.771	53193.42
612.127	53353.64
612.484	53385.28
612.841	53444.03
613.198	53410.59
613.554	53490.36
613.911	53753.85
614.267	53801.76
614.624	53822.55
614.98	53881.99
615.337	54185.71
615.693	54123.56
616.05	54226.16
616.406	54312.48
616.762	54368.53
617.118	54457.57
617.475	54440.84
617.831	54608.07
618.187	54719.03
618.543	54789.08
618.899	54967.61
619.255	54936.65
619.611	54949.3
619.967	55117.66
620.323	55234.72
620.678	55124.89
621.034	55079.47
621.39	55173.7
621.746	55179.13
622.101	55503.19
622.457	55246.25
622.812	55488.72
623.168	55501.83
623.523	55441.49
623.879	55632.9
624.234	55524.43
624.589	55652.11
624.945	55594.71
625.3	55741.6
625.655	55734.82
626.01	55810.07
626.365	55812.78
626.72	55784.31
627.075	55747.7
627.43	55774.82
627.785	55837.87
628.14	55813.24
628.495	55830.86
628.85	55898.21
629.205	55870.86
629.559	56029.5
629.914	55895.49
630.269	55821.37
630.623	55728.04
630.978	55702.73
631.332	55934.59
631.687	55878.09
632.041	55885.78
632.396	55876.74
632.75	55839.45
633.104	55937.53
633.459	55755.61
633.813	55726.46
634.167	55720.13
634.521	55727.81
634.875	55754.71
635.229	55782.73
635.583	55628.38
635.937	55629.06
636.291	55629.06
636.645	55620.7
636.999	55479.69
637.352	55626.57
637.706	55472.23
638.06	55562.39
638.413	55432
638.767	55386.13
639.121	55499.12
639.474	55364.66
639.828	55308.62
640.181	55273.82
640.534	55365.79
640.888	55283.98
641.241	55165.34
641.594	55216.42
641.947	55275.62
642.301	55107.72
642.654	55225.68
643.007	55125.34
643.36	55213.25
643.713	55078.57
644.066	55180.26
644.419	55061.84
644.771	54722.19
645.124	54538.24
645.477	54484.01
645.83	54381.18
646.182	54312.71
646.535	54270.23
646.888	54235.2
647.24	54222.09
647.593	54365.59
647.945	54312.71
648.298	54159.95
648.65	54083.11
649.002	53973.96
649.355	53991.81
649.707	53894.19
650.059	53874.76
650.411	54208.76
650.763	54420.73
651.115	54745.24
651.467	54573.49
651.819	54652.14
652.171	54618.47
652.523	54432.48
652.875	54495.3
653.227	54359.71
653.578	54542.31
653.93	54451.69
654.282	54364.46
654.633	54378.02
654.985	54371.01
655.337	54393.84
655.688	54309.09
656.039	54420.28
656.391	54188.19
656.742	54246.27
657.094	54239.27
657.445	54312.94
657.796	54280.62
658.147	54157.91
658.498	54225.71
658.849	54234.29
659.2	54191.81
659.551	54079.72
659.902	54272.03
660.253	54107.29
660.604	54180.96
660.955	54013.96
661.306	54200.4
661.656	54054.19
662.007	54058.25
662.358	54019.38
662.708	54079.5
663.059	54076.56
663.409	53910.46
663.76	54058.48
664.11	54045.82
664.461	54028.65
664.811	53982.32
665.161	54045.37
665.511	53919.27
665.862	53969.89
666.212	54002.44
666.562	54023.45
666.912	53993.4
667.262	53823.46
667.612	53813.29
667.962	53937.35
668.312	53871.82
668.662	54031.36
669.011	53946.39
669.361	53837.69
669.711	53905.72
670.06	53794.76
670.41	53764.7
670.76	53734.65
671.109	53851.03
671.459	53857.58
671.808	53718.6
672.157	53888.77
672.507	53682.67
672.856	53776.45
673.205	53747.98
673.554	53805.61
673.904	53625.5
674.253	53919.5
674.602	53761.54
674.951	53359.74
675.3	53266.18
675.649	53759.73
675.998	53735.78
676.346	53653.29
676.695	53767.41
677.044	53594.99
677.393	53600.19
677.741	53810.12
678.09	53580.53
678.438	53493.75
678.787	53575.55
679.135	53613.07
679.484	53386.18
679.832	53558.38
680.181	53437.48
680.529	53527.87
680.877	53294.43
681.225	53298.27
681.573	53550.02
681.922	53350.48
682.27	53203.13
682.618	53268.44
682.966	53163.81
683.314	53158.62
683.661	53216.02
684.009	53035
684.357	52985.51
684.705	52883.14
685.053	53014.67
685.4	52888.12
685.748	52786.2
686.095	52781
686.443	52688.12
686.79	52654.22
687.138	52688.12
687.485	52672.3
687.832	52586.65
688.18	52631.4
688.527	52455.81
688.874	52411.52
689.221	52423.27
689.568	52204.52
689.915	52202.48
690.262	52299.88
690.609	52156.16
690.956	52108.47
691.303	52089.27
691.65	51886.79
691.997	51909.38
692.344	51803.85
692.69	51705.1
693.037	51794.36
693.383	51457.19
693.73	51547.36
694.077	51376.74
694.423	51451.54
694.769	51213.13
695.116	51249.06
695.462	51058.11
695.808	50927.94
696.155	51113.02
696.501	50814.05
696.847	50988.5
697.193	50638
697.539	50659.93
697.885	50536.31
698.231	50478.46
698.577	50412.93
698.923	50424.68
699.269	50156.66
699.614	49965.71
699.96	49882.09
700.306	49932.49
700.651	49790.8
700.997	49707.86
701.342	49594.87
701.688	49472.39
702.033	49365.5
702.379	49377.7
702.724	49196.91
703.069	49310.81
703.415	48937.26
703.76	48933.64
704.105	48976.13
704.45	48769.13
704.795	48676.93
705.14	48537.27
705.485	48504.05
705.83	48276.48
706.175	48434.9
706.52	48225.86
706.865	48198.75
707.209	48034.46
707.554	47982.93
707.899	47905.87
708.243	47725.54
708.588	47723.51
708.932	47510.86
709.277	47638.08
709.621	47356.06
709.966	47191.09
710.31	47181.6
710.654	46954.49
710.998	46972.79
711.342	47064.54
711.687	47011.66
712.031	46867.26
712.375	46639.01
712.719	46657.54
713.063	46599.92
713.407	46828.84
713.75	46513.59
714.094	46382.52
714.438	46158.12
714.782	46262.53
715.125	46185.01
715.469	46310.43
715.812	45985.25
716.156	45924.46
716.499	45746.83
716.843	45882.65
717.186	45604.01
717.53	45690.56
717.873	45707.51
718.216	45634.52
718.559	45510
718.902	45177.36
719.246	45180.3
719.589	45199.28
719.932	45063.24
720.275	45028.89
720.617	45003.58
720.96	44973.97
721.303	45054.2
721.646	45117.25
721.989	44782.34
722.331	44849
722.674	44812.62
723.016	44649.01
723.359	44570.14
723.701	44627.54
724.044	44512.97
724.386	44364.72
724.729	44426.19
725.071	44412.86
725.413	44468.9
725.755	44390.71
726.097	44061.23
726.439	43909.14
726.782	44007.22
727.124	44171.96
727.465	43993.43
727.807	43723.38
728.149	43880.22
728.491	43807.22
728.833	43973.77
729.175	43772.42
729.516	43583.27
729.858	43593.22
730.199	43730.62
730.541	43698.07
730.882	43620.79
731.224	43335.37
731.565	43400.23
731.906	43449.72
732.248	43574.91
732.589	43286.56
732.93	43212.89
733.271	43292.44
733.612	43284.98
733.953	43360.23
734.294	43072.33
734.635	43048.15
734.976	43178.99
735.317	42972.67
735.658	43080.01
735.999	42905.78
736.339	42929.73
736.68	42962.05
737.021	42921.37
737.361	42838.44
737.702	43220.12
738.042	42841.6
738.383	43002.05
738.723	42950.75
739.063	42642.28
739.404	42893.8
739.744	42803.18
740.084	42715.28
740.424	42831.66
740.764	42709.63
741.104	42746.46
741.444	42651.32
741.784	42562.74
742.124	42828.04
742.464	42630.08
742.804	42573.36
743.143	42438.22
743.483	42627.59
743.823	42440.71
744.162	42350.31
744.502	42650.19
744.841	42441.61
745.181	42602.51
745.52	42380.37
745.86	42556.41
746.199	42489.52
746.538	42215.63
746.877	42582.4
747.216	42448.16
747.556	42367.26
747.895	42382.63
748.234	42368.39
748.573	42151.45
748.911	42179.92
749.25	42324.55
749.589	42112.81
749.928	42243.65
750.267	42246.13
750.605	42043.65
750.944	42136.31
751.283	42094.27
751.621	42162.97
751.96	42061.06
752.298	42138.34
752.636	42099.02
752.975	41997.33
753.313	41873.94
753.651	42101.28
753.989	41653.61
754.327	41974.5
754.666	41564.57
755.004	41940.61
755.342	41844.56
755.679	41789.65
756.017	41581.29
756.355	41840.27
756.693	41599.6
757.031	41829.42
757.368	41491.58
757.706	41533.39
758.044	41330.68
758.381	41317.8
758.719	41317.12
759.056	41361.86
759.394	41214.75
759.731	40922.78
760.068	40925.04
760.405	40922.1
760.743	40720.07
761.08	40824.03
761.417	40656.57
761.754	40493.41
762.091	40527.31
762.428	40414.54
762.765	40258.84
763.102	40327.77
763.438	40268.56
763.775	40152.63
764.112	40140.88
764.449	40025.4
764.785	39960.55
765.122	39670.38
765.458	39683.94
765.795	39658.18
766.131	39646.88
766.467	39500.67
766.804	39160.34
767.14	39157.85
767.476	38974.36
767.812	38930.06
768.148	38992.44
768.485	38830.63
768.821	38511.54
769.157	38549.51
769.492	38531.43
769.828	38408.5
770.164	38164.21
770.5	37972.35
770.836	38027.71
771.171	37877.66
771.507	37658.23
771.842	37588.4
772.178	37550.89
772.513	37388.64
772.849	37124.46
773.184	37182.54
773.519	37160.39
773.855	36827.52
774.19	36876.33
774.525	36551.14
774.86	36648.99
775.195	36496.23
775.53	36335.1
775.865	36199.97
776.2	35956.36
776.535	35746.64
776.87	35670.26
777.205	35470.04
777.539	35442.25
777.874	35438.4
778.209	35193.67
778.543	35178.98
778.878	34940.34
779.212	34940.34
779.547	34587.35
779.881	34814.92
780.215	34431.65
780.55	34491.54
780.884	34306.23
781.218	34176.97
781.552	34120.7
781.886	33943.75
782.22	33674.83
782.554	33705.57
782.888	33494.05
783.222	33349.19
783.556	33270.55
783.889	33101.29
784.223	32865.36
784.557	32913.27
784.89	33039.6
785.224	32637.57
785.557	32478.26
785.891	32386.51
786.224	32357.81
786.558	32419.5
786.891	32155.33
787.224	32029.91
787.557	31858.61
787.891	31751.27
788.224	31723.02
788.557	31697.26
788.89	31534.55
789.223	31490.49
789.556	31251.4
789.888	31134.56
790.221	31063.83
790.554	30931.18
790.887	30817.73
791.219	30758.75
791.552	30741.35
791.884	30505.43
792.217	30399.67
792.549	30383.62
792.882	30217.07
793.214	30133.69
793.546	30086.23
793.879	29939.79
794.211	29692.34
794.543	29847.36
794.875	29669.52
795.207	29611.21
795.539	29542.06
795.871	29535.73
796.203	29386.81
796.535	29109.76
796.867	29201.05
797.198	28938.69
797.53	28964
797.862	28598.13
798.193	28757
798.525	28511.13
798.856	28648.53
799.188	28256.67
799.519	28161.08
799.85	28147.97
800.182	27992.72
800.513	27978.49
800.844	27804.71
801.175	28011.03
801.506	27888.55
801.837	27715.9
802.168	27654.2
802.499	27748.89
802.83	27489.91
803.161	27377.15
803.491	27315.91
803.822	27401.78
804.153	27108.91
804.483	26919.98
804.814	26833.66
805.145	26913.43
805.475	26961.34
805.805	26746.2
806.136	26820.1
806.466	26686.54
806.796	26558.41
807.126	26434.12
807.457	26443.84
807.787	26367.46
808.117	26202.71
808.447	26191.87
808.777	26230.96
809.107	25987.58
809.436	25911.65
809.766	25966.56
810.096	25919.11
810.426	25766.34
810.755	25811.09
811.085	25590.53
811.414	25769.28
811.744	25483.86
812.073	25598.66
812.403	25389.18
812.732	25174.95
813.061	25405.9
813.39	25174.49
813.719	25068.96
814.049	25284.32
814.378	25227.15
814.707	24941.05
815.036	24986.48
815.365	24812.7
815.693	24760.94
816.022	24643.21
816.351	24593.94
816.68	24630.1
817.008	24573.15
817.337	24356.89
817.665	24449.99
817.994	24400.95
818.322	24391.46
818.651	24190.56
818.979	24159.15
819.307	24295.19
819.636	24093.17
819.964	24059.04
820.292	24036.44
820.62	24174.07
820.948	24112.83
821.276	24136.1
821.604	24122.32
821.932	24198.93
822.259	24077.8
822.587	24067.86
822.915	23897.69
823.243	24032.83
823.57	23921.42
823.898	24080.28
824.225	23941.76
824.553	23953.73
824.88	23950.12
825.207	24030.79
825.535	23988.54
825.862	23987.86
826.189	23983.79
826.516	24149.21
826.843	24096.1
827.17	24097.01
827.497	24062.21
827.824	24168.64
828.151	24033.51
828.478	24083.9
828.805	24025.15
829.131	24091.58
829.458	24047.97
829.785	23962.32
830.111	24056.78
830.438	24087.52
830.764	24032.6
831.09	23961.19
831.417	23907.18
831.743	24044.13
832.069	23936.79
832.395	24009.1
832.722	23822.44
833.048	23916.67
833.374	23946.28
833.7	23932.49
834.026	23977.69
834.351	23828.09
834.677	23834.42
835.003	23847.52
835.329	23679.39
835.654	23812.04
835.98	23619.73
836.306	23827.64
836.631	23683.01
836.956	23843.23
837.282	23701.76
837.607	23658.15
837.932	23672.16
838.258	23610.69
838.583	23586.51
838.908	23393.3
839.233	23544.48
839.558	23437.59
839.883	23417.7
840.208	23279.4
840.533	23371.83
840.858	23255.9
841.182	23404.37
841.507	23360.76
841.832	23177.94
842.156	23200.99
842.481	23094.77
842.805	23041.67
843.13	22993.53
843.454	22826.31
843.778	22887.55
844.103	22912.41
844.427	22764.61
844.751	22720.09
845.075	22725.74
845.399	22677.84
845.723	22578.86
846.047	22605.75
846.371	22389.93
846.695	22414.34
847.019	22226.55
847.343	22029.72
847.666	22099.32
847.99	21913.79
848.313	21893.68
848.637	21858.87
848.96	21837.63
849.284	21721.25
849.607	21474.7
849.931	21505.89
850.254	21327.14
850.577	21224.09
850.9	21120.14
851.223	21075.62
851.546	21150.64
851.869	20981.61
852.192	21041.49
852.515	20903.19
852.838	20670.66
853.161	20688.74
853.483	20514.5
853.806	20507.72
854.129	20498.68
854.451	20375.3
854.774	20229.31
855.096	20256.43
855.419	20185.47
855.741	20097.34
856.063	19989.09
856.385	19956.1
856.708	19805.82
857.03	19893.5
857.352	19813.05
857.674	19867.51
857.996	19657.35
858.318	19630.23
858.64	19593.62
858.961	19533.96
859.283	19408.32
859.605	19399.28
859.926	19354.31
860.248	19213.07
860.57	19158.61
860.891	19213.07
861.212	19114.09
861.534	19040.64
861.855	19052.85
862.176	19067.76
862.498	19006.29
862.819	19054.65
863.14	18909.8
863.461	18933.3
863.782	18854.89
864.103	18787.77
864.424	18811.72
864.745	18756.13
865.065	18748.45
865.386	18589.81
865.707	18706.64
866.027	18565.18
866.348	18566.53
866.668	18587.77
866.989	18493.99
867.309	18405.63
867.63	18338.51
867.95	18444.27
868.27	18304.84
868.59	18391.17
868.91	18321.34
869.23	18208.8
869.55	18171.97
869.87	18265.97
870.19	18133.32
870.51	18161.34
870.83	18094.23
871.15	18016.49
871.469	18082.02
871.789	18049.26
872.109	18066.66
872.428	18006.55
872.748	17940.79
873.067	17972.87
873.386	17931.75
873.706	17876.83
874.025	17744.18
874.344	17743.5
874.663	17760
874.982	17706.89
875.301	17721.36
875.62	17625.31
875.939	17558.2
876.258	17625.31
876.577	17569.04
876.896	17484.75
877.214	17563.62
877.533	17524.98
877.852	17461.02
878.17	17491.08
878.489	17498.76
878.807	17535.37
879.125	17315.49
879.444	17334.93
879.762	17226.91
880.08	17222.16
880.398	17123.18
880.716	17232.56
881.034	17158.66
881.352	17158.43
881.67	17198.66
881.988	17108.72
882.306	17056.51
882.624	16989.62
882.941	16912.79
883.259	16927.93
883.577	16832.57
883.894	16884.99
884.212	16798.22
884.529	16775.62
884.846	16668.5
885.164	16632.8
885.481	16494.27
885.798	16599.8
886.115	16555.51
886.432	16544.66
886.75	16444.33
887.067	16391.9
887.383	16343.09
887.7	16358
888.017	16374.72
888.334	16269.19
888.651	16266.93
888.967	16179.48
889.284	16092.7
889.6	16084.56
889.917	16005.02
890.233	15952.14
890.55	15924.12
890.866	15838.69
891.182	15921.18
891.498	15818.58
891.815	15730
892.131	15677.12
892.447	15737.45
892.763	15556.44
893.079	15616.55
893.395	15552.15
893.71	15480.51
894.026	15505.82
894.342	15528.87
894.657	15294.75
894.973	15326.39
895.289	15314.41
895.604	15228.09
895.92	15137.02
896.235	15176.56
896.55	15078.49
896.865	15032.61
897.181	14959.39
897.496	14957.59
897.811	14850.02
898.126	14779.74
898.441	14788.78
898.756	14706.52
899.071	14706.75
899.386	14725.05
899.7	14596.92
900.015	14478.5
900.33	14490.25
900.644	14339.75
900.959	14349.24
901.273	14243.26
901.588	14322.58
901.902	14183.37
902.216	14165.07
902.531	14143.82
902.845	14049.14
903.159	13975.01
903.473	13955.13
903.787	13924.39
904.101	13745.64
904.415	13853.66
904.729	13776.15
905.042	13659.32
905.356	13643.5
905.67	13622.25
905.984	13535.48
906.297	13528.02
906.611	13455.48
906.924	13353.56
907.237	13393.11
907.551	13288.03
907.864	13227.01
908.177	13233.56
908.491	13193.57
908.804	13085.55
909.117	13110.86
909.43	12953.35
909.743	12871.77
910.056	12906.79
910.368	12850.75
910.681	12812.11
910.994	12778.89
911.307	12665.44
911.619	12592.45
911.932	12647.59
912.244	12467.26
912.557	12565.56
912.869	12328.96
913.181	12409.63
913.494	12328.05
913.806	12260.93
914.118	12222.07
914.43	12105.91
914.742	12187.94
915.054	12054.61
915.366	11989.98
915.678	11878.35
915.99	11943.65
916.302	11793.6
916.613	11825.01
916.925	11750.67
917.236	11773.49
917.548	11602.65
917.859	11604
918.171	11545.25
918.482	11528.07
918.794	11477.23
919.105	11492.59
919.416	11333.5
919.727	11279.94
920.038	11367.85
920.349	11175.31
920.66	11192.04
920.971	11156.1
921.282	11111.59
921.593	11058.71
921.903	10970.57
922.214	10993.17
922.525	10928.77
922.835	10896.45
923.146	10729.22
923.456	10770.58
923.767	10694.2
924.077	10629.34
924.387	10670.69
924.697	10570.58
925.008	10549.57
925.318	10477.25
925.628	10479.29
925.938	10425.05
926.248	10331.95
926.558	10268.67
926.867	10228.22
927.177	10251.27
927.487	10162.01
927.796	10116.36
928.106	10111.61
928.416	10031.61
928.725	10008.34
929.034	9926.31
929.344	9982.12
929.653	9891.96
929.962	9802.92
930.271	9819.19
930.581	9765.18
930.89	9721.11
931.199	9543.49
931.508	9649.03
931.817	9597.95
932.125	9617.16
932.434	9468.92
932.743	9397.28
933.051	9304.63
933.36	9336.49
933.669	9271.18
933.977	9320
934.286	9260.11
934.594	9230.05
934.902	9240.68
935.21	9145.54
935.519	9061.24
935.827	9103.28
936.135	8942.15
936.443	8892.89
936.751	8907.58
937.059	8992.77
937.367	8838.65
937.674	8848.82
937.982	8749.84
938.29	8680.24
938.597	8760.01
938.905	8605.21
939.213	8597.3
939.52	8527.93
939.827	8604.99
940.135	8503.97
940.442	8404.54
940.749	8456.06
941.056	8384.2
941.363	8320.47
941.67	8300.81
941.977	8252
942.284	8221.27
942.591	8188.95
942.898	8171.78
943.205	8140.37
943.511	8099.46
943.818	8066.47
944.125	8025.79
944.431	8010.42
944.738	7912.12
945.044	7919.81
945.35	7924.78
945.657	7783.54
945.963	7798.23
946.269	7762.52
946.575	7748.06
946.881	7736.31
947.187	7698.57
947.493	7640.94
947.799	7527.27
948.105	7536.77
948.41	7546.03
948.716	7449.76
949.022	7491.79
949.327	7465.13
949.633	7314.17
949.938	7343.32
950.244	7360.05
950.549	7272.82
950.854	7258.13
951.16	7271.01
951.465	7206.15
951.77	7163.67
952.075	7099.04
952.38	7091.81
952.685	7085.25
952.99	7040.06
953.294	7001.86
953.599	6960.96
953.904	6955.31
954.209	6855.2
954.513	6893.84
954.818	6853.39
955.122	6859.27
955.426	6775.88
955.731	6798.03
956.035	6724.13
956.339	6675.77
956.643	6648.43
956.948	6582.89
957.252	6550.35
957.556	6610.91
957.86	6547.86
958.163	6565.72
958.467	6519.84
958.771	6487.08
959.075	6461.99
959.378	6379.51
959.682	6402.56
959.985	6347.64
960.289	6263.58
960.592	6264.26
960.896	6305.84
961.199	6266.97
961.502	6308.1
961.805	6144.71
962.108	6167.76
962.411	6091.61
962.714	6087.31
963.017	6035.56
963.32	6039.4
963.623	6058.61
963.926	6005.73
964.228	5972.06
964.531	5969.57
964.833	5971.16
965.136	5938.84
965.438	5847.09
965.741	5832.63
966.043	5784.27
966.345	5723.93
966.648	5755.12
966.95	5748.56
967.252	5698.17
967.554	5690.71
967.856	5674.89
968.158	5633.09
968.46	5587.66
968.761	5565.97
969.063	5567.1
969.365	5555.35
969.666	5519.87
969.968	5479.64
970.269	5406.43
970.571	5385.86
970.872	5400.32
971.174	5400.78
971.475	5377.05
971.776	5374.34
972.077	5332.53
972.378	5250.95
972.679	5260.21
972.98	5254.57
973.281	5183.61
973.582	5174.34
973.883	5148.13
974.183	5084.17
974.484	5105.19
974.785	5116.49
975.085	5087.11
975.386	5089.37
975.686	5008.02
975.986	5050.73
976.287	4979.09
976.587	4966.66
976.887	4941.81
977.187	4985.65
977.487	4954.46
977.787	4830.17
978.087	4834.24
978.387	4865.42
978.687	4844.86
978.987	4796.95
979.286	4748.36
979.586	4760.11
979.885	4705.65
980.185	4710.17
980.484	4610.51
980.784	4649.16
981.083	4621.59
981.382	4636.5
981.682	4592.89
981.981	4544.3
982.28	4506.34
982.579	4525.54
982.878	4504.53
983.177	4493.91
983.475	4479.67
983.774	4499.78
984.073	4416.85
984.372	4394.25
984.67	4372.1
984.969	4388.37
985.267	4375.94
985.566	4328.94
985.864	4267.25
986.162	4285.55
986.461	4261.82
986.759	4215.95
987.057	4169.17
987.355	4150.64
987.653	4147.48
987.951	4132.33
988.249	4130.08
988.547	4154.26
988.844	4085.1
989.142	4093.24
989.44	4059.79
989.737	4043.75
990.035	4001.26
990.332	3981.83
990.63	3974.15
990.927	3987.48
991.224	3943.41
991.521	3956.75
991.819	3926.69
992.116	3874.71
992.413	3846.92
992.71	3827.48
993.006	3799.69
993.303	3819.12
993.6	3797.88
993.897	3771.89
994.193	3751.33
994.49	3730.09
994.787	3736.87
995.083	3714.04
995.379	3710.65
995.676	3698.45
995.972	3656.19
996.268	3625.68
996.565	3618.45
996.861	3607.15
997.157	3569.41
997.453	3526.25
997.749	3539.58
998.044	3500.94
998.34	3525.35
998.636	3455.52
998.932	3468.62
999.227	3391.56
999.523	3429.3
999.818	3427.72
1000.114	3366.71
1000.409	3380.26
1000.704	3318.12
1001	3318.12
1001.295	3293.94
1001.59	3253.71
1001.885	3267.95
1002.18	3225.01
1002.475	3226.37
1002.77	3216.43
1003.065	3179.82
1003.359	3191.34
1003.654	3169.2
1003.949	3129.65
1004.243	3135.75
1004.538	3076.09
1004.832	3093.04
1005.127	3047.39
1005.421	3038.13
1005.715	3003.1
1006.009	3023.44
1006.304	3006.94
1006.598	2986.83
1006.892	2949.54
1007.186	2896.21
1007.48	2909.77
1007.773	2918.13
1008.067	2905.7
1008.361	2877.45
1008.655	2871.35
1008.948	2829.77
1009.242	2838.13
1009.535	2788.87
1009.829	2771.01
1010.122	2765.59
1010.415	2759.49
1010.708	2747.74
1011.001	2725.14
1011.295	2693.5
1011.588	2649.89
1011.881	2655.54
1012.173	2671.36
1012.466	2628.87
1012.759	2609.44
1013.052	2608.53
1013.344	2603.79
1013.637	2563.79
1013.93	2552.26
1014.222	2552.26
1014.514	2506.84
1014.807	2488.54
1015.099	2478.14
1015.391	2474.3
1015.683	2421.87
1015.976	2475.88
1016.268	2412.38
1016.56	2410.35
1016.851	2365.83
1017.143	2395.43
1017.435	2366.05
1017.727	2335.55
1018.018	2339.39
1018.31	2325.6
1018.602	2288.99
1018.893	2292.38
1019.185	2283.57
1019.476	2239.73
1019.767	2234.98
1020.058	2232.5
1020.35	2173.52
1020.641	2179.17
1020.932	2182.33
1021.223	2166.96
1021.514	2165.61
1021.804	2129
1022.095	2112.05
1022.386	2107.3
1022.677	2082.9
1022.967	2070.47
1023.258	2054.65
1023.548	2043.35
1023.839	2021.43
1024.129	2005.61
1024.419	1998.38
1024.709	1957.48
1025	1975.78
1025.29	1960.41
1025.58	1963.58
1025.87	1925.16
1026.16	1922
1026.449	1891.26
1026.739	1873.41
1027.029	1886.07
1027.319	1855.11
1027.608	1874.77
1027.898	1831.15
1028.187	1814.88
1028.477	1786.18
1028.766	1810.36
1029.055	1779.18
1029.344	1769.69
1029.634	1768.56
1029.923	1778.05
1030.212	1750.93
1030.501	1739.63
1030.79	1679.07
1031.078	1709.35
1031.367	1674.32
1031.656	1677.48
1031.945	1653.3
1032.233	1638.16
1032.522	1653.08
1032.81	1646.3
1033.099	1603.59
1033.387	1611.27
1033.675	1601.1
1033.963	1616.47
1034.251	1549.8
1034.54	1514.32
1034.828	1528.34
1035.116	1536.47
1035.403	1512.52
1035.691	1513.19
1035.979	1521.33
1036.267	1496.92
1036.554	1477.04
1036.842	1475
1037.129	1457.83
1037.417	1459.64
1037.704	1435.91
1037.992	1443.14
1038.279	1443.37
1038.566	1416.7
1038.853	1416.7
1039.14	1416.7
