Data from 14-1119_FLMS001491_006.txt Node
Date: Thu Apr 19 16:09:50 BST 2018
User: hsy
Spectrometer: FLMS00149
Trigger mode: 0
Integration Time (sec): 1.000000E-2
Scans to average: 10
Electric dark correction enabled: true
Nonlinearity correction enabled: false
Boxcar width: 0
XAxis mode: Wavelengths
Number of Pixels in Spectrum: 2048
>>>>>Begin Spectral Data<<<<<
341.393	-4.22
341.776	-4.22
342.16	-4.22
342.543	-69.76
342.927	-58.46
343.31	-76.76
343.693	-78.8
344.077	-73.6
344.46	-63.43
344.843	-50.1
345.226	-48.97
345.61	-30.44
345.993	-21.85
346.376	-8.29
346.759	18.83
347.142	25.83
347.525	51.82
347.908	53.4
348.291	80.29
348.674	101.99
349.057	120.07
349.44	116
349.823	132.95
350.206	173.85
350.588	207.97
350.971	243
351.354	261.08
351.737	270.8
352.119	286.84
352.502	293.4
352.884	312.38
353.267	311.93
353.65	317.8
354.032	318.48
354.414	331.81
354.797	342.43
355.179	360.51
355.562	348.08
355.944	367.74
356.326	378.82
356.709	370.68
357.091	374.98
357.473	377.91
357.855	390.79
358.238	376.56
358.62	381.76
359.002	354.41
359.384	377.01
359.766	368.65
360.148	386.73
360.53	382.21
360.912	373.85
361.294	370.46
361.676	376.56
362.057	376.78
362.439	370.68
362.821	368.2
363.203	383.79
363.584	384.02
363.966	356.9
364.348	356.45
364.729	378.82
365.111	363.68
365.493	369.55
365.874	377.24
366.256	357.58
366.637	350.34
367.019	351.25
367.4	350.8
367.781	352.38
368.163	367.29
368.544	342.66
368.925	367.52
369.306	348.99
369.688	348.31
370.069	372.94
370.45	345.37
370.831	378.37
371.212	347.63
371.593	366.61
371.974	381.08
372.355	352.83
372.736	380.17
373.117	350.8
373.498	370.46
373.879	361.87
374.26	371.59
374.641	338.59
375.021	352.6
375.402	393.28
375.783	365.94
376.163	395.54
376.544	366.61
376.925	364.13
377.305	396.9
377.686	357.12
378.066	377.01
378.447	405.71
378.827	397.57
379.208	386.05
379.588	397.12
379.968	403.45
380.349	391.25
380.729	414.52
381.109	393.96
381.489	392.6
381.87	409.33
382.25	411.81
382.63	421.98
383.01	399.61
383.39	397.35
383.77	409.33
384.15	409.55
384.53	415.65
384.91	420.17
385.29	409.78
385.67	462.66
386.049	429.66
386.429	416.33
386.809	434.86
387.189	456.56
387.568	446.84
387.948	446.39
388.328	464.92
388.707	462.43
389.087	454.3
389.466	472.15
389.846	463.11
390.225	456.1
390.605	466.95
390.984	477.57
391.363	487.29
391.743	493.39
392.122	483.45
392.501	474.86
392.881	499.94
393.26	483.9
393.639	487.29
394.018	513.73
394.397	521.86
394.776	502.2
395.155	518.02
395.534	531.58
395.913	506.27
396.292	528.87
396.671	527.51
397.05	524.8
397.429	524.35
397.808	530.45
398.186	534.29
398.565	529.55
398.944	549.66
399.323	543.11
399.701	541.3
400.08	578.13
400.458	567.97
400.837	562.32
401.215	589.89
401.594	584.69
401.972	582.2
402.351	579.94
402.729	583.33
403.107	612.71
403.486	588.98
403.864	604.8
404.242	603.67
404.62	612.71
404.999	627.17
405.377	642.99
405.755	617.23
406.133	641.41
406.511	655.65
406.889	663.56
407.267	673.5
407.645	687.06
408.023	696.78
408.401	666.49
408.779	697.23
409.156	680.28
409.534	708.07
409.912	728.41
410.29	729.77
410.667	759.6
411.045	764.12
411.422	725.48
411.8	760.5
412.178	763.89
412.555	783.1
412.933	805.47
413.31	819.48
413.687	819.71
414.065	828.75
414.442	837.56
414.819	869.88
415.197	866.94
415.574	873.04
415.951	904
416.328	900.84
416.705	918.46
417.082	898.13
417.46	909.88
417.837	922.76
418.214	934.96
418.591	961.4
418.967	962.98
419.344	984.68
419.721	961.85
420.098	962.53
420.475	1001.63
420.852	1009.76
421.228	989.42
421.605	1018.57
421.982	1043.43
422.358	1038.69
422.735	1071
423.111	1020.38
423.488	1068.97
423.864	1059.48
424.241	1067.16
424.617	1087.73
424.994	1132.7
425.37	1109.87
425.746	1141.06
426.123	1162.53
426.499	1160.72
426.875	1174.5
427.251	1181.28
427.627	1196.65
428.003	1213.37
428.379	1217.89
428.756	1225.35
429.132	1263.99
429.507	1278.68
429.883	1270.55
430.259	1279.58
430.635	1312.8
431.011	1297.44
431.387	1348.96
431.763	1378.79
432.138	1354.16
432.514	1410.2
432.89	1382.63
433.265	1447.49
433.641	1432.8
434.016	1438
434.392	1470.09
434.767	1482.07
435.143	1491.33
435.518	1521.84
435.894	1523.19
436.269	1567.71
436.644	1582.63
437.02	1588.28
437.395	1586.7
437.77	1618.56
438.145	1627.37
438.52	1613.59
438.895	1666.47
439.271	1663.3
439.646	1720.7
440.021	1699.23
440.395	1710.31
440.77	1711.21
441.145	1711.21
441.52	1757.76
441.895	1747.14
442.27	1772.68
442.645	1764.77
443.019	1779.23
443.394	1764.32
443.769	1841.83
444.143	1782.85
444.518	1804.09
444.892	1835.95
445.267	1853.81
445.641	1854.26
446.016	1858.1
446.39	1855.39
446.764	1903.3
447.139	1884.54
447.513	1924.54
447.887	1933.81
448.262	1928.16
448.636	1947.36
449.01	1954.6
449.384	1996.4
449.758	1996.18
450.132	2010.41
450.506	2055.84
450.88	2066.91
451.254	2018.32
451.628	2097.19
452.002	2113.01
452.376	2103.74
452.75	2139
453.123	2139.45
453.497	2221.71
453.871	2171.99
454.244	2229.39
454.618	2230.07
454.992	2285.21
455.365	2315.49
455.739	2350.97
456.112	2381.02
456.486	2428.93
456.859	2398.65
457.232	2473.45
457.606	2488.82
457.979	2518.2
458.352	2544.18
458.725	2569.49
459.099	2597.06
459.472	2605.65
459.845	2688.81
460.218	2699.43
460.591	2727
460.964	2732.2
461.337	2793.22
461.71	2849.94
462.083	2882.48
462.456	2871.18
462.829	2890.84
463.201	2975.36
463.574	2938.3
463.947	2946.43
464.32	3028.01
464.692	3057.84
465.065	3094.23
465.438	3119.54
465.81	3187.78
466.183	3168.8
466.555	3243.38
466.928	3289.48
467.3	3282.7
467.672	3335.8
468.045	3388.68
468.417	3400.21
468.789	3378.96
469.161	3488.57
469.534	3537.15
469.906	3605.63
470.278	3614.89
470.65	3617.6
471.022	3675.91
471.394	3723.81
471.766	3782.12
472.138	3834.32
472.51	3871.16
472.882	3957.48
473.253	3960.87
473.625	4051.94
473.997	4111.15
474.369	4155.22
474.74	4171.94
475.112	4233.41
475.484	4361.76
475.855	4418.03
476.227	4446.51
476.598	4503.23
476.97	4618.25
477.341	4731.92
477.713	4751.36
478.084	4806.72
478.455	4961.75
478.827	4948.42
479.198	5090.56
479.569	5117.45
479.94	5188.86
480.311	5325.58
480.682	5422.53
481.053	5565.8
481.424	5636.31
481.795	5715.4
482.166	5799.47
482.537	5883.08
482.908	5967.37
483.279	6111.1
483.65	6203.07
484.021	6340.69
484.391	6414.82
484.762	6471.99
485.133	6580.46
485.503	6681.48
485.874	6863.84
486.244	6910.85
486.615	7118.98
486.985	7209.15
487.356	7340.67
487.726	7381.57
488.097	7601
488.467	7603.26
488.837	7898.39
489.207	7966.64
489.578	8118.28
489.948	8278.5
490.318	8367.08
490.688	8418.15
491.058	8626.28
491.428	8725.26
491.798	8784.7
492.168	9073.96
492.538	9151.24
492.908	9354.63
493.278	9443.89
493.648	9480.73
494.017	9666.94
494.387	9836.87
494.757	9932.69
495.126	10120.26
495.496	10188.5
495.866	10405.45
496.235	10499.46
496.605	10579
496.974	10639.34
497.344	10887.24
497.713	11034.36
498.082	11052.21
498.452	11250.17
498.821	11414.91
499.19	11527
499.559	11655.36
499.928	11722.93
500.298	11931.96
500.667	12047.21
501.036	12034.33
501.405	12303.93
501.774	12375.11
502.143	12536.46
502.512	12666.86
502.88	12819.85
503.249	12867.3
503.618	13055.77
503.987	13161.53
504.356	13254.64
504.724	13401.98
505.093	13553.16
505.462	13634.74
505.83	13744.79
506.199	13907.95
506.567	14122.41
506.936	14131.9
507.304	14377.09
507.672	14424.1
508.041	14525.79
508.409	14716.75
508.777	14834.71
509.145	14983.86
509.514	15103.63
509.882	15225.88
510.25	15350.85
510.618	15498.19
510.986	15663.16
511.354	15782.03
511.722	15926.88
512.09	16138.18
512.458	16015.69
512.826	16283.71
513.193	16361.22
513.561	16426.53
513.929	16598.5
514.297	16738.84
514.664	16917.37
515.032	16981.32
515.4	17170.47
515.767	17301.31
516.135	17453.17
516.502	17346.06
516.869	17661.98
517.237	17731.13
517.604	17703.33
517.972	18132.93
518.339	18133.15
518.706	18277.33
519.073	18394.62
519.44	18488.4
519.808	18664.89
520.175	18736.08
520.542	19084.54
520.909	19104.65
521.276	19157.98
521.643	19463.29
522.009	19556.62
522.376	19641.59
522.743	19757.07
523.11	20070.73
523.477	20238.41
523.843	20406.31
524.21	20630.26
524.577	20773.31
524.943	20821.44
525.31	21039.74
525.676	21258.27
526.043	21453.74
526.409	21532.16
526.776	21799.05
527.142	21858.25
527.508	22003.79
527.874	22262.54
528.241	22244.01
528.607	22377.11
528.973	22696.65
529.339	22619.14
529.705	22965.12
530.071	23171.66
530.437	23192.91
530.803	23364.2
531.169	23634.25
531.535	23540.69
531.901	23687.58
532.267	23792.67
532.632	23989.5
532.998	24037.4
533.364	24336.38
533.73	24285.76
534.095	24594.45
534.461	24521.91
534.826	24654.34
535.192	24612.08
535.557	24965.29
535.923	25048
536.288	25107.21
536.653	25255.68
537.019	25269.46
537.384	25317.15
537.749	25469.91
538.114	25449.57
538.479	25537.93
538.845	25788.55
539.21	25679.85
539.575	25798.26
539.94	25883.68
540.305	26031.02
540.67	26067.86
541.034	26310.57
541.399	26262.2
541.764	26386.72
542.129	26355.99
542.494	26522.31
542.858	26638.01
543.223	26452.48
543.587	26693.83
543.952	26832.13
544.316	26769.54
544.681	26694.51
545.045	26975.86
545.41	26994.16
545.774	26996.2
546.138	27036.65
546.503	27186.25
546.867	27288.17
547.231	27544.66
547.595	27425.56
547.959	27516.18
548.324	27525
548.688	27556.86
549.052	27745.78
549.416	27705.56
549.779	27757.98
550.143	27854.71
550.507	28000.69
550.871	28021.25
551.235	27910.75
551.599	28278.65
551.962	28430.96
552.326	28493.33
552.689	28499.66
553.053	28347.57
553.417	28484.52
553.78	28774.91
554.143	28736.49
554.507	28814
554.87	28894
555.234	29237.95
555.597	28991.4
555.96	29191.17
556.323	29305.51
556.686	29306.87
557.05	29567.88
557.413	29497.6
557.776	29635.22
558.139	29919.06
558.502	29814.2
558.865	29867.76
559.228	30153.18
559.59	30362.89
559.953	30240.18
560.316	30601.53
560.679	30495.31
561.041	30647.85
561.404	30857.56
561.767	31025.47
562.129	31061.4
562.492	31191.79
562.854	31201.06
563.217	31442.41
563.579	31454.61
563.941	31612.8
564.304	31795.84
564.666	32098.89
565.028	31886.69
565.39	32048.72
565.753	32297.07
566.115	32457.3
566.477	32462.49
566.839	32579.1
567.201	32924.18
567.563	32874.46
567.925	33080.56
568.287	33165.98
568.648	33326.88
569.01	33529.81
569.372	33825.62
569.734	33871.04
570.095	33909.01
570.457	34174.09
570.819	34296.12
571.18	34310.81
571.542	34548.77
571.903	34685.94
572.265	34758.7
572.626	34864.24
572.987	34979.26
573.349	35190.56
573.71	35434.17
574.071	35468.52
574.432	35703.09
574.794	36002.06
575.155	36040.48
575.516	36127.48
575.877	36236.41
576.238	36323.86
576.599	36470.75
576.96	36751.87
577.32	36853.34
577.681	36940.79
578.042	37236.38
578.403	37207.91
578.763	37411.52
579.124	37592.98
579.485	37826.65
579.845	37958.39
580.206	37881.33
580.566	38146.64
580.927	38207.2
581.287	38472.28
581.648	38330.59
582.008	38841.99
582.368	38819.61
582.728	39088.76
583.089	39130.34
583.449	39234.52
583.809	39441.75
584.169	39694.17
584.529	39634.28
584.889	40284.66
585.249	40030.2
585.609	40060.26
585.969	40630.64
586.329	40526.46
586.688	40912.89
587.048	40984.08
587.408	41187.46
587.768	41319.89
588.127	41442.37
588.487	41441.47
588.846	42171.17
589.206	41892.3
589.565	42126.19
589.925	42634.88
590.284	42764.14
590.643	42847.31
591.003	43110.12
591.362	43654.29
591.721	43749.2
592.08	43747.17
592.44	44252.47
592.799	44211.56
593.158	44367.27
593.517	44543.98
593.876	44914.14
594.235	45057.64
594.593	45255.83
594.952	45598.65
595.311	45654.01
595.67	45891.75
596.029	46053.32
596.387	46457.83
596.746	46808.33
597.104	46650.14
597.463	46943.7
597.822	47311.59
598.18	47273.63
598.538	47460.97
598.897	47801.75
599.255	47845.14
599.613	48304.34
599.972	48228.41
600.33	48340.04
600.688	48479.02
601.046	48775.51
601.404	49125.33
601.762	49096.63
602.12	49381.82
602.478	49317.87
602.836	49533.23
603.194	49519.22
603.552	49736.39
603.91	49828.14
604.268	50115.82
604.625	50120.11
604.983	50524.39
605.341	50280.1
605.698	50649.13
606.056	51088.44
606.413	50847.55
606.771	51221.32
607.128	51255.67
607.485	51247.31
607.843	51466.06
608.2	51560.97
608.557	51826.96
608.914	51824.24
609.272	52078.7
609.629	52175.87
609.986	52354.85
610.343	52451.35
610.7	52696.76
611.057	52639.82
611.414	52614.96
611.771	52920.26
612.127	52972.46
612.484	53037.09
612.841	53202.74
613.198	53162.51
613.554	53207.71
613.911	53421.26
614.267	53541.26
614.624	53646.8
614.98	53650.86
615.337	53923.62
615.693	53920.46
616.05	54005.43
616.406	54167.69
616.762	54172.21
617.118	54237.74
617.475	54239.32
617.831	54435.02
618.187	54498.52
618.543	54610.61
618.899	54731.29
619.255	54758.18
619.611	54762.92
619.967	54949.36
620.323	55012.64
620.678	54833.66
621.034	54923.37
621.39	54936.93
621.746	55030.94
622.101	55349.35
622.457	55138.96
622.812	55320.42
623.168	55348.9
623.523	55370.37
623.879	55529.46
624.234	55314.55
624.589	55499.4
624.945	55521.55
625.3	55482
625.655	55516.35
626.01	55592.06
626.365	55620.76
626.72	55533.98
627.075	55549.8
627.43	55715.89
627.785	55656.91
628.14	55710.47
628.495	55644.71
628.85	55700.75
629.205	55660.08
629.559	55756.34
629.914	55615.78
630.269	55608.33
630.623	55546.63
630.978	55587.99
631.332	55732.16
631.687	55727.87
632.041	55668.44
632.396	55672.73
632.75	55629.79
633.104	55706.63
633.459	55565.16
633.813	55606.52
634.167	55563.13
634.521	55538.72
634.875	55601.77
635.229	55624.37
635.583	55442.45
635.937	55450.36
636.291	55470.25
636.645	55489.46
636.999	55312.97
637.352	55502.57
637.706	55302.8
638.06	55403.36
638.413	55370.59
638.767	55262.35
639.121	55363.36
639.474	55229.13
639.828	55218.73
640.181	55204.49
640.534	55200.65
640.888	55156.59
641.241	55076.36
641.594	55122.24
641.947	55079.75
642.301	55010.15
642.654	55058.06
643.007	55006.53
643.36	55038.85
643.713	54999.98
644.066	55078.17
644.419	54922.69
644.771	54656.94
645.124	54263.05
645.477	54288.59
645.83	54146.67
646.182	54056.73
646.535	54054.69
646.888	54107.57
647.24	54082.94
647.593	54193
647.945	54089.04
648.298	53987.58
648.65	53853.57
649.002	53756.85
649.355	53824.64
649.707	53717.75
650.059	53669.62
650.411	54075.71
650.763	54256.05
651.115	54570.39
651.467	54477.28
651.819	54479.09
652.171	54383.05
652.523	54312.09
652.875	54430.73
653.227	54214.46
653.578	54487.45
653.93	54218.76
654.282	54159.1
654.633	54200.23
654.985	54265.54
655.337	54264.63
655.688	54156.61
656.039	54319.32
656.391	53986.67
656.742	54143.05
657.094	54041.14
657.445	54070.51
657.796	54188.25
658.147	54032.1
658.498	54138.99
658.849	54073.45
659.2	54035.26
659.551	53962.95
659.902	54086.33
660.253	53902.38
660.604	54027.8
660.955	53886.79
661.306	53979.44
661.656	53873.68
662.007	53904.19
662.358	53877.52
662.708	53870.29
663.059	53836.4
663.409	53787.13
663.76	53929.73
664.11	53931.08
664.461	53924.75
664.811	53952.1
665.161	53885.66
665.511	53850.63
665.862	53830.75
666.212	53922.72
666.562	53942.83
666.912	53851.08
667.262	53766.79
667.612	53856.28
667.962	53783.29
668.312	53718.43
668.662	53899.22
669.011	53826
669.361	53725.44
669.711	53806.11
670.06	53702.16
670.41	53666
670.76	53596.63
671.109	53763.4
671.459	53707.58
671.808	53672.33
672.157	53718.43
672.507	53454.94
672.856	53510.98
673.205	53625.1
673.554	53667.36
673.904	53622.84
674.253	53778.32
674.602	53491.32
674.951	53183.98
675.3	53086.58
675.649	53616.51
675.998	53546.01
676.346	53570.41
676.695	53528.61
677.044	53388.05
677.393	53500.81
677.741	53563.18
678.09	53466.24
678.438	53264.21
678.787	53459.91
679.135	53509.85
679.484	53290.42
679.832	53421.94
680.181	53278.44
680.529	53288.84
680.877	53152.57
681.225	53164.55
681.573	53391.66
681.922	53275.73
682.27	53145.79
682.618	53132.91
682.966	53099.24
683.314	53056.53
683.661	52998.68
684.009	52957.32
684.357	52880.94
684.705	52725.01
685.053	52942.18
685.4	52743.54
685.748	52747.38
686.095	52649.99
686.443	52541.51
686.79	52529.31
687.138	52671
687.485	52628.07
687.832	52402.08
688.18	52474.17
688.527	52344.23
688.874	52387.17
689.221	52340.84
689.568	52228.75
689.915	52127.06
690.262	52272.59
690.609	52216.1
690.956	51964.35
691.303	51965.94
691.65	51847.07
691.997	51783.57
692.344	51615.89
692.69	51629
693.037	51565.95
693.383	51322.56
693.73	51478.94
694.077	51238.72
694.423	51299.51
694.769	51157.14
695.116	51162.12
695.462	51061.78
695.808	50898.17
696.155	51020.88
696.501	50709.47
696.847	50820.2
697.193	50522.13
697.539	50678.06
697.885	50394.45
698.231	50302.25
698.577	50288.69
698.923	50276.26
699.269	50051.18
699.614	49796.05
699.96	49740.68
700.306	49760.57
700.651	49734.81
700.997	49486.45
701.342	49455.27
701.688	49430.41
702.033	49305.67
702.379	49287.59
702.724	49149.51
703.069	49200.36
703.415	48748.85
703.76	48737.77
704.105	48722.41
704.45	48662.75
704.795	48487.84
705.14	48283.09
705.485	48226.83
705.83	48046.26
706.175	48275.41
706.52	48005.14
706.865	47948.19
707.209	47887.4
707.554	47767.18
707.899	47776.22
708.243	47581.19
708.588	47531.93
708.932	47405.38
709.277	47485.83
709.621	47159.28
709.966	46988.89
710.31	46915
710.654	46747.99
710.998	46856.01
711.342	46973.98
711.687	46666.87
712.031	46496.48
712.375	46399.53
712.719	46325.86
713.063	46336.48
713.407	46374.22
713.75	46291.51
714.094	46245.63
714.438	46110.72
714.782	46038.63
715.125	45658.08
715.469	46002.93
715.812	45687.46
716.156	45582.6
716.499	45605.2
716.843	45614.92
717.186	45399.55
717.53	45522.49
717.873	45555.26
718.216	45368.6
718.559	45287.24
718.902	45010.41
719.246	45163.18
719.589	44943.52
719.932	44812.23
720.275	44823.3
720.617	45040.92
720.96	44882.28
721.303	44928.83
721.646	44881.38
721.989	44579.92
722.331	44757.31
722.674	44550.54
723.016	44561.61
723.359	44469.18
723.701	44516.19
724.044	44434.83
724.386	44122.3
724.729	44334.95
725.071	44285.23
725.413	44205.69
725.755	44197.33
726.097	44018.8
726.439	43949.65
726.782	43873.27
727.124	43953.27
727.465	43853.83
727.807	43782.65
728.149	43833.49
728.491	43581.98
728.833	43690.67
729.175	43730.22
729.516	43628.08
729.858	43576.78
730.199	43687.28
730.541	43521.19
730.882	43525.71
731.224	43474.41
731.565	43314.19
731.906	43421.75
732.248	43309.89
732.589	43119.16
732.93	43203.45
733.271	43249.55
733.612	43163.23
733.953	43363.9
734.294	43019.73
734.635	42907.19
734.976	43176.11
735.317	42963.46
735.658	43101.54
735.999	42768.21
736.339	42894.76
736.68	42918.26
737.021	42927.08
737.361	42730.02
737.702	43007.98
738.042	42776.35
738.383	42847.98
738.723	42764.37
739.063	42654.54
739.404	42926.63
739.744	42631.04
740.084	42471.27
740.424	42578.16
740.764	42511.95
741.104	42651.15
741.444	42475.11
741.784	42404.38
742.124	42645.73
742.464	42478.95
742.804	42475.79
743.143	42359.41
743.483	42501.1
743.823	42341.78
744.162	42191.5
744.502	42494.77
744.841	42233.08
745.181	42510.59
745.52	42378.62
745.86	42351.27
746.199	42350.37
746.538	42272.86
746.877	42457.03
747.216	42340.43
747.556	42320.77
747.895	42320.09
748.234	42378.17
748.573	42238.28
748.911	42189.02
749.25	42169.58
749.589	42002.81
749.928	42297.26
750.267	42257.26
750.605	42028.8
750.944	42159.19
751.283	41997.61
751.621	42197.83
751.96	41995.58
752.298	42075.8
752.636	42065.18
752.975	41916.48
753.313	41921.23
753.651	42167.1
753.989	41804.4
754.327	41972.53
754.666	41668.35
755.004	41870.83
755.342	41836.48
755.679	41914.9
756.017	41773.89
756.355	41892.53
756.693	41764.4
757.031	41756.03
757.368	41380.68
757.706	41434.24
758.044	41337.74
758.381	41532.54
758.719	41269.95
759.056	41375.03
759.394	41188.82
759.731	40979.56
760.068	41031.31
760.405	41121.48
760.743	40900.92
761.08	40979.33
761.417	40734.14
761.754	40712.67
762.091	40690.53
762.428	40425.45
762.765	40290.76
763.102	40521.49
763.438	40322.63
763.775	40152.01
764.112	40216.19
764.449	40140.48
764.785	40076.3
765.122	39824.56
765.458	39724.22
765.795	39714.96
766.131	39561.97
766.467	39465.7
766.804	39250.56
767.14	39138.48
767.476	39110.91
767.812	38952.04
768.148	39047.41
768.485	38959.27
768.821	38622.11
769.157	38675.66
769.492	38539.4
769.828	38395.67
770.164	38099.86
770.5	38026.42
770.836	38025.29
771.171	37842.01
771.507	37753.2
771.842	37606.99
772.178	37561.12
772.513	37356.38
772.849	37234.57
773.184	37166.1
773.519	37191.64
773.855	36941.25
774.19	36981.25
774.525	36783.51
774.86	36716.62
775.195	36633.23
775.53	36369.28
775.865	36186.24
776.2	36010.2
776.535	35774.5
776.87	35761.16
777.205	35680.71
777.539	35582.64
777.874	35591.68
778.209	35207.28
778.543	35278.24
778.878	35029.21
779.212	35018.36
779.547	34849.32
779.881	34865.82
780.215	34468.09
780.55	34577.92
780.884	34250.02
781.218	34112.39
781.552	34230.36
781.886	33902.68
782.22	33765.28
782.554	33662.69
782.888	33516.03
783.222	33394.9
783.556	33378.63
783.889	33101.8
784.223	32904.52
784.557	32839.21
784.89	32935.7
785.224	32754.69
785.557	32671.75
785.891	32479.67
786.224	32487.35
786.558	32360.12
786.891	32068.61
787.224	32020.02
787.557	31745.22
787.891	31885.79
788.224	31742.06
788.557	31631.1
788.89	31571.44
789.223	31432.01
789.556	31351.34
789.888	31274.95
790.221	31152.7
790.554	31049.2
790.887	30926.26
791.219	30752.26
791.552	30734.4
791.884	30562.43
792.217	30496.9
792.549	30347.75
792.882	30154.76
793.214	30181.2
793.546	30034.08
793.879	29958.6
794.211	29568.11
794.543	29767.65
794.875	29726.29
795.207	29692.85
795.539	29466.64
795.871	29467.32
796.203	29168.12
796.535	29127.21
796.867	29085.18
797.198	28931.51
797.53	28892.64
797.862	28608.13
798.193	28874.34
798.525	28549.15
798.856	28703.04
799.188	28201.59
799.519	28174.92
799.85	28089.73
800.182	28161.82
800.513	28111.42
800.844	27785.33
801.175	28024.42
801.506	27981.26
801.837	27733.58
802.168	27665.56
802.499	27585.11
802.83	27534.04
803.161	27367.26
803.491	27327.04
803.822	27395.73
804.153	27221.05
804.483	27088.17
804.814	26897.22
805.145	27015.41
805.475	26958.46
805.805	26797.33
806.136	26928.4
806.466	26815.18
806.796	26670.33
807.126	26542.42
807.457	26462.88
807.787	26540.39
808.117	26398.47
808.447	26277.57
808.777	26364.35
809.107	26179.72
809.436	26031.7
809.766	26038.26
810.096	26050.46
810.426	25878.49
810.755	25908.77
811.085	25786.74
811.414	25830.8
811.744	25664.48
812.073	25642.11
812.403	25451.83
812.732	25316.69
813.061	25493.41
813.39	25279.86
813.719	25241.67
814.049	25287.77
814.378	25290.48
814.707	25010.03
815.036	25138.39
815.365	24953.99
815.693	24810.94
816.022	24864.05
816.351	24800.1
816.68	24616.15
817.008	24751.06
817.337	24478.3
817.665	24471.97
817.994	24492.53
818.322	24610.95
818.651	24430.61
818.979	24340.67
819.307	24339.54
819.636	24231.75
819.964	24050.06
820.292	24283.95
820.62	24117.85
820.948	24270.39
821.276	24212.54
821.604	24135.03
821.932	24284.63
822.259	24191.07
822.587	24056.84
822.915	24041.92
823.243	24136.16
823.57	23977.75
823.898	24193.56
824.225	24192.2
824.553	23987.01
824.88	24185.42
825.207	24199.43
825.535	24059.1
825.862	24210.06
826.189	24031.3
826.516	24094.35
826.843	24172.77
827.17	24268.13
827.497	24170.51
827.824	24120.34
828.151	24193.33
828.478	24126.22
828.805	24321.92
829.131	24179.77
829.458	24084.86
829.785	23994.24
830.111	24000.12
830.438	24185.65
830.764	24064.3
831.09	24276.49
831.417	23944.53
831.743	24111.08
832.069	23982.94
832.395	24042.6
832.722	24020.68
833.048	24007.12
833.374	24047.57
833.7	23898.43
834.026	24001.7
834.351	23944.98
834.677	24025.2
835.003	23902.04
835.329	23828.6
835.654	23833.79
835.98	23734.36
836.306	23733.46
836.631	23723.74
836.956	23786.79
837.282	23812.33
837.607	23559.9
837.932	23636.29
838.258	23599.45
838.583	23601.71
838.908	23467.02
839.233	23622.05
839.558	23440.58
839.883	23372.79
840.208	23320.59
840.533	23380.02
840.858	23344.09
841.182	23267.48
841.507	23402.62
841.832	23207.14
842.156	23203.98
842.481	23189.97
842.805	23059.35
843.13	23019.35
843.454	22932.35
843.778	22908.39
844.103	22898.68
844.427	22812.58
844.751	22807.15
845.075	22791.11
845.399	22816.87
845.723	22585.24
846.047	22598.8
846.371	22467.5
846.695	22304.12
847.019	22267.96
847.343	22153.39
847.666	22204.46
847.99	21954.75
848.313	21881.53
848.637	21934.64
848.96	21908.42
849.284	21795.66
849.607	21597.24
849.931	21648.09
850.254	21421.88
850.577	21306.4
850.9	21196.58
851.223	21169.91
851.546	21071.83
851.869	20974.66
852.192	21166.75
852.515	20775.57
852.838	20720.2
853.161	20668
853.483	20574.22
853.806	20624.39
854.129	20538.06
854.451	20413.32
854.774	20308.24
855.096	20362.25
855.419	20223.72
855.741	20158.86
856.063	20128.35
856.385	20066.21
856.708	19923.61
857.03	19833.9
857.352	19804.07
857.674	19785.31
857.996	19692.43
858.318	19581.02
858.64	19649.05
858.961	19571.76
859.283	19526.56
859.605	19387.58
859.926	19555.49
860.248	19366.34
860.57	19236.17
860.891	19252.67
861.212	19195.95
861.534	19067.82
861.855	19108.27
862.176	19177.65
862.498	19042.28
862.819	19109.17
863.14	19051.77
863.461	18895.39
863.782	18977.65
864.103	18912.12
864.424	18784.89
864.745	18811.1
865.065	18615.85
865.386	18660.37
865.707	18701.5
866.027	18682.29
866.348	18593.03
866.668	18476.42
866.989	18573.37
867.309	18511.22
867.63	18493.37
867.95	18493.82
868.27	18312.13
868.59	18427.61
868.91	18378.34
869.23	18344.9
869.55	18244.11
869.87	18326.59
870.19	18270.32
870.51	18247.5
870.83	18086.6
871.15	18075.3
871.469	18041.63
871.789	18144.68
872.109	17967.51
872.428	17947.62
872.748	18099.93
873.067	17896.32
873.386	17896.78
873.706	17939.71
874.025	17888.64
874.344	17778.81
874.663	17784.91
874.982	17831.69
875.301	17841.41
875.62	17691.36
875.939	17552.6
876.258	17662.88
876.577	17534.75
876.896	17588.31
877.214	17585.37
877.533	17501.53
877.852	17532.04
878.17	17574.75
878.489	17425.6
878.807	17354.64
879.125	17332.04
879.444	17342.67
879.762	17255.89
880.08	17322.1
880.398	17137.7
880.716	17318.49
881.034	17169.56
881.352	17228.77
881.67	17148.09
881.988	17112.16
882.306	17131.82
882.624	17156.91
882.941	16812.28
883.259	16971.15
883.577	16907.2
883.894	16899.29
884.212	16812.74
884.529	16733.19
884.846	16735.45
885.164	16622.46
885.481	16600.54
885.798	16626.98
886.115	16535
886.432	16669.01
886.75	16645.06
887.067	16539.07
887.383	16349.02
887.7	16502.69
888.017	16319.19
888.334	16308.34
888.651	16263.82
888.967	16306.31
889.284	16212.07
889.6	16121.23
889.917	15999.2
890.233	16098.63
890.55	16035.36
890.866	15934.11
891.182	15935.92
891.498	15801.01
891.815	15771.41
892.131	15758.98
892.447	15786.77
892.763	15674.91
893.079	15600.56
893.395	15577.06
893.71	15580.45
894.026	15476.95
894.342	15501.81
894.657	15351.31
894.973	15368.25
895.289	15268.6
895.604	15289.61
895.92	15150.86
896.235	15101.37
896.55	15182.04
896.865	15089.39
897.181	14968.94
897.496	15104.08
897.811	14884.88
898.126	14854.6
898.441	14782.96
898.756	14764.65
899.071	14637.88
899.386	14703.86
899.7	14576.41
900.015	14498.67
900.33	14429.75
900.644	14352.01
900.959	14360.82
901.273	14249.19
901.588	14177.55
901.902	14200.38
902.216	14245.8
902.531	14162.86
902.845	14096.2
903.159	14051.45
903.473	13991.34
903.787	13848.52
904.101	13853.04
904.415	13836.54
904.729	13754.74
905.042	13712.03
905.356	13585.25
905.67	13673.61
905.984	13658.92
906.297	13486.5
906.611	13415.76
906.924	13399.72
907.237	13442.88
907.551	13316.33
907.864	13345.93
908.177	13288.31
908.491	13258.71
908.804	13025.49
909.117	13050.12
909.43	12952.95
909.743	12905.49
910.056	12904.82
910.368	12860.3
910.681	12800.41
910.994	12752.96
911.307	12650.59
911.619	12613.52
911.932	12531.04
912.244	12477.26
912.557	12491.04
912.869	12437.71
913.181	12322.46
913.494	12353.64
913.806	12229.35
914.118	12158.85
914.43	12192.07
914.742	12120.66
915.054	11973.32
915.366	11926.99
915.678	11905.97
915.99	11917.27
916.302	11896.71
916.613	11812.64
916.925	11773.77
917.236	11689.48
917.548	11656.71
917.859	11623.95
918.171	11580.56
918.482	11505.76
918.794	11474.8
919.105	11483.61
919.416	11356.38
919.727	11399.09
920.038	11238.19
920.349	11228.48
920.66	11183.28
920.971	11182.38
921.282	11122.49
921.593	11030.29
921.903	11038.88
922.214	10978.31
922.525	10835.72
922.835	10809.05
923.146	10811.31
923.456	10692.22
923.767	10708.94
924.077	10680.47
924.387	10665.33
924.697	10594.14
925.008	10605.67
925.318	10458.78
925.628	10496.74
925.938	10431.89
926.248	10288.16
926.558	10336.07
926.867	10253.13
927.177	10187.6
927.487	10184.21
927.796	10071.67
928.106	10082.07
928.416	10083.87
928.725	10002.52
929.034	9984.21
929.344	9941.05
929.653	9934.27
929.962	9824.9
930.271	9785.58
930.581	9809.98
930.89	9723.66
931.199	9711
931.508	9699.93
931.817	9642.75
932.125	9528.18
932.434	9645.92
932.743	9390.56
933.051	9442.08
933.36	9329.09
933.669	9341.29
933.977	9297
934.286	9279.15
934.594	9259.94
934.902	9173.16
935.21	9121.41
935.519	9162.99
935.827	9105.37
936.135	9017.91
936.443	8934.75
936.751	8929.1
937.059	8872.83
937.367	8840.29
937.674	8855.21
937.982	8816.34
938.29	8740.18
938.597	8744.02
938.905	8635.78
939.213	8592.84
939.52	8605.27
939.827	8573.4
940.135	8576.79
940.442	8506.74
940.749	8464.25
941.056	8476.68
941.363	8339.96
941.67	8349.91
941.977	8278.95
942.284	8309
942.591	8215.67
942.898	8174.09
943.205	8155.11
943.511	8117.6
943.818	8120.76
944.125	8070.59
944.431	8028.79
944.738	8013.19
945.044	8004.83
945.35	7933.2
945.657	7863.82
945.963	7844.16
946.269	7798.51
946.575	7826.98
946.881	7711.96
947.187	7761.45
947.493	7657.72
947.799	7668.12
948.105	7584.28
948.41	7519.19
948.716	7521.68
949.022	7427.22
949.327	7442.81
949.633	7339.76
949.938	7391.97
950.244	7383.15
950.549	7279.65
950.854	7275.59
951.16	7237.85
951.465	7182.03
951.77	7220.22
952.075	7120.34
952.38	7156.94
952.685	7134.8
952.99	7020.23
953.294	7032.65
953.599	7029.49
953.904	7019.32
954.209	6921.02
954.513	6952.88
954.818	6883.28
955.122	6879.44
955.426	6806.9
955.731	6779.1
956.035	6756.28
956.339	6750.63
956.643	6722.38
956.948	6645.55
957.252	6624.76
957.556	6625.43
957.86	6604.19
958.163	6592.21
958.467	6551.31
958.771	6539.33
959.075	6467.7
959.378	6455.72
959.682	6449.17
959.985	6381.15
960.289	6355.84
960.592	6270.87
960.896	6297.98
961.199	6276.06
961.502	6248.27
961.805	6227.93
962.108	6146.58
962.411	6123.3
962.714	6125.56
963.017	6060.93
963.32	6052.34
963.623	6015.05
963.926	6018.44
964.228	5958.78
964.531	5973.25
964.833	5960.82
965.136	5909.29
965.438	5867.94
965.741	5820.48
966.043	5811.44
966.345	5767.15
966.648	5790.2
966.95	5747.94
967.252	5677.66
967.554	5718.56
967.856	5672.24
968.158	5596.08
968.46	5637.21
968.761	5535.74
969.063	5541.17
969.365	5576.42
969.666	5542.07
969.968	5464.11
970.269	5453.03
970.571	5407.61
970.872	5431.57
971.174	5411.91
971.475	5366.26
971.776	5371.23
972.077	5317.22
972.378	5280.38
972.679	5316.54
972.98	5220.95
973.281	5215.07
973.582	5188.18
973.883	5177.11
974.183	5155.19
974.484	5125.36
974.785	5110.44
975.085	5096.66
975.386	5106.6
975.686	5006.49
975.986	5046.27
976.287	4979.6
976.587	4971.24
976.887	4922.2
977.187	4938.25
977.487	4942.99
977.787	4883.33
978.087	4829.77
978.387	4834.75
978.687	4892.15
978.987	4793.84
979.286	4750
979.586	4756.78
979.885	4734.86
980.185	4739.61
980.484	4698.48
980.784	4637.69
981.083	4647.86
981.382	4625.49
981.682	4609.21
981.981	4624.58
982.28	4566.96
982.579	4501.65
982.878	4497.81
983.177	4466.17
983.475	4470.01
983.774	4454.19
984.073	4408.99
984.372	4392.95
984.67	4380.29
984.969	4347.53
985.267	4382.33
985.566	4282.44
985.864	4294.19
986.162	4293.74
986.461	4290.58
986.759	4209
987.057	4183.24
987.355	4208.55
987.653	4201.77
987.951	4131.94
988.249	4143.92
988.547	4149.11
988.844	4070.47
989.142	4091.04
989.44	4082.68
989.737	4066.18
990.035	4035.9
990.332	4014.43
990.63	4019.85
990.927	3981.43
991.224	3986.41
991.521	3918.84
991.819	3935.33
992.116	3894.66
992.413	3873.64
992.71	3865.51
993.006	3785.51
993.303	3820.08
993.6	3829.57
993.897	3775.34
994.193	3761.55
994.49	3727.43
994.787	3715.91
995.083	3699.86
995.379	3635
995.676	3699.63
995.972	3659.41
996.268	3650.6
996.565	3624.16
996.861	3593.87
997.157	3566.08
997.453	3543.03
997.749	3534.21
998.044	3494.67
998.34	3502.58
998.636	3497.15
998.932	3456.93
999.227	3418.74
999.523	3424.16
999.818	3433.65
1000.114	3363.6
1000.409	3329.7
1000.704	3331.51
1001	3349.36
1001.295	3288.12
1001.59	3298.06
1001.885	3269.59
1002.18	3239.08
1002.475	3229.36
1002.77	3189.14
1003.065	3186.2
1003.359	3217.84
1003.654	3149.59
1003.949	3111.85
1004.243	3092.64
1004.538	3099.42
1004.832	3111.4
1005.127	3105.75
1005.421	3047.22
1005.715	3035.47
1006.009	3051.29
1006.304	3027.79
1006.598	2971.97
1006.892	2957.96
1007.186	2950.28
1007.48	2917.06
1007.773	2968.35
1008.067	2906.89
1008.361	2873.22
1008.655	2856.94
1008.948	2848.58
1009.242	2863.95
1009.535	2806.55
1009.829	2826.66
1010.122	2781.01
1010.415	2777.85
1010.708	2745.08
1011.001	2724.29
1011.295	2695.37
1011.588	2703.05
1011.881	2690.17
1012.173	2677.74
1012.466	2632.77
1012.759	2631.19
1013.052	2624.63
1013.344	2575.82
1013.637	2587.57
1013.93	2558.65
1014.222	2567.91
1014.514	2493.79
1014.807	2487.01
1015.099	2515.71
1015.391	2483.4
1015.683	2477.29
1015.976	2470.51
1016.268	2437.97
1016.56	2433.9
1016.851	2404.08
1017.143	2402.72
1017.435	2370.18
1017.727	2378.77
1018.018	2341.03
1018.31	2322.72
1018.602	2303.51
1018.893	2301.03
1019.185	2264.87
1019.476	2263.51
1019.767	2239.79
1020.058	2207.92
1020.35	2207.24
1020.641	2212.89
1020.932	2179.45
1021.223	2152.33
1021.514	2164.99
1021.804	2123.18
1022.095	2104.42
1022.386	2083.86
1022.677	2072.33
1022.967	2059.45
1023.258	2056.74
1023.548	2015.61
1023.839	2013.8
1024.129	2044.54
1024.419	2051.99
1024.709	1974.03
1025	1957.99
1025.29	1971.09
1025.58	1950.08
1025.87	1921.83
1026.16	1887.03
1026.449	1872.79
1026.739	1905.56
1027.029	1845.45
1027.319	1886.8
1027.608	1856.29
1027.898	1851.1
1028.187	1835.5
1028.477	1811.32
1028.766	1774.04
1029.055	1795.73
1029.344	1790.76
1029.634	1770.65
1029.923	1749.18
1030.212	1734.04
1030.501	1748.5
1030.79	1703.08
1031.078	1670.31
1031.367	1708.95
1031.656	1720.93
1031.945	1671.21
1032.233	1687.48
1032.522	1627.37
1032.81	1628.28
1033.099	1631.89
1033.387	1605.68
1033.675	1617.88
1033.963	1579.46
1034.251	1588.28
1034.54	1558.9
1034.828	1534.95
1035.116	1529.97
1035.403	1531.1
1035.691	1523.65
1035.979	1509.64
1036.267	1495.85
1036.554	1525.45
1036.842	1467.38
1037.129	1446.59
1037.417	1453.37
1037.704	1459.02
1037.992	1460.37
1038.279	1402.29
1038.566	1385.8
1038.853	1385.8
1039.14	1385.8
