Data from 14-1119_FLMS001491_009.txt Node
Date: Thu Apr 19 16:09:58 BST 2018
User: hsy
Spectrometer: FLMS00149
Trigger mode: 0
Integration Time (sec): 1.000000E-2
Scans to average: 10
Electric dark correction enabled: true
Nonlinearity correction enabled: false
Boxcar width: 0
XAxis mode: Wavelengths
Number of Pixels in Spectrum: 2048
>>>>>Begin Spectral Data<<<<<
341.393	-2.66
341.776	-2.66
342.16	-2.66
342.543	-67.51
342.927	-66.38
343.31	-89.43
343.693	-49.66
344.077	-44.01
344.46	-54.41
344.843	-53.05
345.226	-50.34
345.61	-29.55
345.993	-32.03
346.376	3.22
346.759	8.87
347.142	24.01
347.525	35.08
347.908	61.52
348.291	84.12
348.674	93.84
349.057	91.81
349.44	127.74
349.823	149.43
350.206	177.9
350.588	243.67
350.971	246.15
351.354	250.45
351.737	264.68
352.119	298.13
352.502	290.44
352.884	298.13
353.267	327.96
353.65	328.18
354.032	345.36
354.414	348.3
354.797	343.78
355.179	344.45
355.562	355.3
355.944	358.69
356.326	373.61
356.709	369.76
357.091	371.57
357.473	377.45
357.855	382.19
358.238	379.26
358.62	406.15
359.002	386.71
359.384	392.81
359.766	367.73
360.148	412.02
360.53	397.79
360.912	365.02
361.294	362.53
361.676	364.79
362.057	393.49
362.439	391.23
362.821	380.61
363.203	379.93
363.584	395.53
363.966	386.71
364.348	364.79
364.729	357.34
365.111	367.5
365.493	358.24
365.874	353.27
366.256	364.11
366.637	365.24
367.019	365.02
367.4	375.64
367.781	380.61
368.163	374.28
368.544	358.47
368.925	353.49
369.306	358.01
369.688	379.03
370.069	352.59
370.45	369.76
370.831	369.54
371.212	381.97
371.593	372.48
371.974	368.18
372.355	363.21
372.736	379.03
373.117	365.92
373.498	401.63
373.879	367.73
374.26	368.86
374.641	369.09
375.021	390.78
375.402	391.46
375.783	378.58
376.163	398.69
376.544	422.42
376.925	388.75
377.305	416.32
377.686	413.15
378.066	412.93
378.447	428.97
378.827	418.58
379.208	399.59
379.588	396.43
379.968	397.79
380.349	405.02
380.729	406.6
381.109	413.38
381.489	405.02
381.87	430.78
382.25	406.83
382.63	429.2
383.01	429.42
383.39	433.49
383.77	428.52
384.15	448.86
384.53	459.03
384.91	446.82
385.29	450.89
385.67	459.71
386.049	448.63
386.429	431.91
386.809	441.17
387.189	477.78
387.568	453.15
387.948	458.8
388.328	480.5
388.707	446.15
389.087	477.56
389.466	473.94
389.846	480.04
390.225	481.17
390.605	479.37
390.984	486.15
391.363	480.04
391.743	506.71
392.122	482.08
392.501	499.93
392.881	499.25
393.26	501.51
393.639	525.47
394.018	513.72
394.397	542.87
394.776	530.21
395.155	539.25
395.534	533.6
395.913	522.98
396.292	533.38
396.671	529.76
397.05	542.64
397.429	554.39
397.808	558.46
398.186	537.9
398.565	549.65
398.944	556.43
399.323	561.62
399.701	566.6
400.08	576.99
400.458	581.28
400.837	578.57
401.215	568.4
401.594	592.13
401.972	599.59
402.351	604.79
402.729	596.88
403.107	612.24
403.486	630.32
403.864	618.57
404.242	611.57
404.62	630.1
404.999	649.76
405.377	651.56
405.755	672.81
406.133	663.32
406.511	680.94
406.889	654.73
407.267	664.67
407.645	696.76
408.023	720.72
408.401	690.89
408.779	695.41
409.156	736.99
409.534	722.75
409.912	775.18
410.29	750.09
410.667	775.4
411.045	775.86
411.422	781.05
411.8	789.41
412.178	800.49
412.555	807.04
412.933	839.58
413.31	821.28
413.687	855.4
414.065	847.72
414.442	867.38
414.819	866.02
415.197	896.76
415.574	897.21
415.951	914.38
416.328	930.2
416.705	929.75
417.082	923.42
417.46	966.81
417.837	977.88
418.214	971.56
418.591	979.01
418.967	985.57
419.344	1006.36
419.721	990.09
420.098	1019.24
420.475	1021.72
420.852	1025.34
421.228	1042.29
421.605	1046.36
421.982	1053.59
422.358	1062.63
422.735	1092.01
423.111	1066.47
423.488	1093.59
423.864	1114.15
424.241	1127.26
424.617	1105.56
424.994	1106.02
425.37	1143.53
425.746	1153.02
426.123	1160.93
426.499	1179.91
426.875	1164.77
427.251	1213.58
427.627	1219.46
428.003	1206.58
428.379	1242.74
428.756	1268.72
429.132	1268.72
429.507	1296.29
429.883	1312.79
430.259	1318.67
430.635	1346.91
431.011	1340.13
431.387	1383.75
431.763	1404.09
432.138	1386.69
432.514	1413.58
432.89	1404.99
433.265	1441.83
433.641	1467.14
434.016	1472.11
434.392	1507.14
434.767	1532.9
435.143	1484.76
435.518	1511.66
435.894	1552.78
436.269	1552.33
436.644	1581.71
437.02	1586.91
437.395	1624.65
437.77	1651.31
438.145	1648.6
438.52	1638.21
438.895	1696.28
439.271	1675.27
439.646	1727.92
440.021	1738.09
440.395	1760.46
440.77	1718.43
441.145	1743.29
441.52	1800.24
441.895	1767.47
442.27	1813.12
442.645	1783.74
443.019	1812.66
443.394	1833.23
443.769	1857.63
444.143	1830.06
444.518	1900.8
444.892	1840.46
445.267	1883.62
445.641	1863.06
446.016	1899.22
446.39	1930.63
446.764	1940.8
447.139	1919.78
447.513	1915.94
447.887	1969.5
448.262	1970.4
448.636	2018.76
449.01	2004.98
449.384	1983.96
449.758	2039.32
450.132	2072.54
450.506	2054.47
450.88	2091.53
451.254	2101.7
451.628	2121.81
452.002	2147.12
452.376	2159.32
452.75	2209.49
453.123	2168.14
453.497	2228.92
453.871	2252.88
454.244	2269.83
454.618	2293.78
454.992	2344.85
455.365	2328.36
455.739	2384.85
456.112	2407.45
456.486	2433.89
456.859	2473.89
457.232	2513.66
457.606	2518.41
457.979	2543.04
458.352	2588.24
458.725	2644.51
459.099	2623.49
459.472	2682.25
459.845	2726.76
460.218	2718.18
460.591	2802.47
460.964	2780.55
461.337	2840.89
461.71	2903.03
462.083	2898.51
462.456	2955.46
462.829	2907.78
463.201	2996.81
463.574	2970.6
463.947	3060.99
464.32	3077.72
464.692	3124.27
465.065	3119.97
465.438	3160.2
465.81	3210.37
466.183	3233.42
466.555	3283.59
466.928	3336.47
467.3	3302.57
467.672	3356.35
468.045	3467.54
468.417	3452.85
468.789	3456.69
469.161	3532.62
469.534	3561.32
469.906	3611.49
470.278	3681.32
470.65	3669.34
471.022	3811.26
471.394	3792.27
471.766	3850.12
472.138	3914.08
472.51	3969.67
472.882	4034.75
473.253	4044.47
473.625	4090.57
473.997	4200.85
474.369	4166.27
474.74	4253.96
475.112	4345.25
475.484	4408.98
475.855	4457.34
476.227	4521.52
476.598	4636.54
476.97	4716.77
477.341	4825.24
477.713	4833.38
478.084	4854.84
478.455	4993.37
478.827	4982.98
479.198	5208.96
479.569	5218.68
479.94	5346.81
480.311	5432.46
480.682	5503.41
481.053	5639.46
481.424	5723.97
481.795	5793.58
482.166	5945.44
482.537	6033.12
482.908	6093.68
483.279	6196.73
483.65	6301.81
484.021	6426.1
484.391	6525.53
484.762	6648.24
485.133	6702.25
485.503	6808.92
485.874	7035.13
486.244	7073.54
486.615	7238.74
486.985	7352.63
487.356	7505.17
487.726	7608.22
488.097	7741.32
488.467	7894.31
488.837	8026.06
489.207	8066.06
489.578	8233.96
489.948	8418.37
490.318	8568.42
490.688	8591.02
491.058	8839.6
491.428	8911.91
491.798	9077.11
492.168	9278.68
492.538	9402.52
492.908	9484.33
493.278	9681.16
493.648	9777.88
494.017	9892.68
494.387	10186.68
494.757	10180.58
495.126	10297.86
495.496	10463.06
495.866	10617.86
496.235	10782.6
496.605	10814.24
496.974	11058.52
497.344	11139.42
497.713	11354.11
498.082	11405.41
498.452	11531.73
498.821	11780.99
499.19	11764.72
499.559	11928.33
499.928	12093.98
500.298	12147.76
500.667	12368.32
501.036	12472.04
501.405	12684.24
501.774	12732.15
502.143	12903.45
502.512	13038.13
502.88	13160.84
503.249	13304.79
503.618	13445.35
503.987	13440.83
504.356	13683.09
504.724	13815.29
505.093	13958.11
505.462	14018.9
505.83	14144.09
506.199	14279.68
506.567	14545.66
506.936	14499.34
507.304	14722.83
507.672	14912.88
508.041	15049.83
508.409	15165.08
508.777	15373.89
509.145	15475.58
509.514	15542.7
509.882	15705.41
510.25	15702.47
510.618	15898.4
510.986	16032.4
511.354	16204.38
511.722	16419.96
512.09	16599.17
512.458	16573.63
512.826	16657.02
513.193	16891.59
513.561	17022.43
513.929	17036.67
514.297	17273.5
514.664	17380.62
515.032	17454.06
515.4	17707.39
515.767	17763.43
516.135	17962.07
516.502	17819.93
516.869	18261.27
517.237	18312.34
517.604	18328.84
517.972	18582.84
518.339	18717.3
518.706	18759.34
519.073	18938.09
519.44	19027.58
519.808	19287.68
520.175	19330.62
520.542	19650.16
520.909	19663.49
521.276	19723.38
521.643	19944.84
522.009	20035.24
522.376	20415.79
522.743	20435.45
523.11	20642.45
523.477	20828.89
523.843	20990.24
524.21	21202.21
524.577	21382.55
524.943	21474.52
525.31	21575.08
525.676	21887.39
526.043	22049.42
526.409	22187.5
526.776	22390.2
527.142	22418.9
527.508	22622.96
527.874	22793.58
528.241	23003.97
528.607	23090.3
528.973	23347.47
529.339	23316.51
529.705	23667.23
530.071	23676.95
530.437	23918.52
530.803	24111.29
531.169	24203.49
531.535	24195.58
531.901	24406.42
532.267	24534.78
532.632	24675.11
532.998	24794.21
533.364	24979.74
533.73	25066.52
534.095	25194.87
534.461	25385.15
534.826	25509.22
535.192	25512.83
535.557	25777.68
535.923	25934.97
536.288	25845.93
536.653	26062.2
537.019	26033.04
537.384	26097.22
537.749	26245.02
538.114	26317.1
538.479	26332.02
538.845	26510.77
539.21	26554.39
539.575	26611.79
539.94	26751.44
540.305	26944.43
540.67	26912.8
541.034	27000.48
541.399	27115.05
541.764	27095.84
542.129	27137.2
542.494	27242.28
542.858	27370.41
543.223	27387.58
543.587	27567.47
543.952	27583.06
544.316	27702.83
544.681	27738.31
545.045	27921.13
545.41	27897.63
545.774	27909.15
546.138	28042.03
546.503	28024.4
546.867	28037.29
547.231	28405.64
547.595	28375.36
547.959	28462.81
548.324	28509.14
548.688	28556.59
549.052	28557.05
549.416	28696.48
549.779	28695.35
550.143	28831.61
550.507	29074.32
550.871	29047.2
551.235	29005.4
551.599	29429.57
551.962	29420.07
552.326	29391.6
552.689	29502.11
553.053	29338.95
553.417	29558.15
553.78	29799.95
554.143	29779.39
554.507	29895.99
554.87	29942.55
555.234	30151.35
555.597	29985.93
555.96	30345.7
556.323	30347.73
556.686	30364
557.05	30675.18
557.413	30556.77
557.776	30590.44
558.139	30926.02
558.502	30911.33
558.865	30942.75
559.228	31204.89
559.59	31200.59
559.953	31314.49
560.316	31627.47
560.679	31655.5
561.041	31754.02
561.404	32041.02
561.767	32208.02
562.129	32142.71
562.492	32473.55
562.854	32425.64
563.217	32371.63
563.579	32576.38
563.941	32725.52
564.304	32751.06
564.666	33095.91
565.028	33073.54
565.39	33168.68
565.753	33334.32
566.115	33480.31
566.477	33721.43
566.839	33739.96
567.201	34145.6
567.563	34005.49
567.925	34207.74
568.287	34371.58
568.648	34477.12
569.01	34727.96
569.372	34982.64
569.734	34925.92
570.095	35228.06
570.457	35410.65
570.819	35464.21
571.18	35519.8
571.542	35779.23
571.903	35815.39
572.265	35995.72
572.626	36166.11
572.987	36337.18
573.349	36521.58
573.71	36653.78
574.071	36786.43
574.432	37031.4
574.794	37445.17
575.155	37495.12
575.516	37460.09
575.877	37633.42
576.238	37773.98
576.599	37855.56
576.96	38147.75
577.32	38237.7
577.681	38470.01
578.042	38623.9
578.403	38728.98
578.763	38680.62
579.124	38871.58
579.485	39347.95
579.845	39336.88
580.206	39385.24
580.566	39610.31
580.927	39710.42
581.287	40159.23
581.648	40086.23
582.008	40230.41
582.368	40427.47
582.728	40600.57
583.089	40859.1
583.449	40904.97
583.809	41173.89
584.169	41349.93
584.529	41378.4
584.889	41845.28
585.249	41776.59
585.609	41843.7
585.969	42311.49
586.329	42241.21
586.688	42560.75
587.048	42726.16
587.408	42971.36
587.768	43068.3
588.127	43332.02
588.487	43600.49
588.846	43982.85
589.206	43945.34
589.565	43928.84
589.925	44484.99
590.284	44578.55
590.643	44779.44
591.003	45003.62
591.362	45409.71
591.721	45462.14
592.08	45591.17
592.44	46066.42
592.799	46092.63
593.158	46261.44
593.517	46508.44
593.876	46742.1
594.235	46797.92
594.593	47155.2
594.952	47328.3
595.311	47457.57
595.67	47734.39
596.029	47955.18
596.387	48226.13
596.746	48394.04
597.104	48489.18
597.463	48667.48
597.822	48932.1
598.18	48977.3
598.538	49148.14
598.897	49570.96
599.255	49444.63
599.613	49986.31
599.972	49957.16
600.33	50158.74
600.688	50147.44
601.046	50485.06
601.404	50760.3
601.762	50728.21
602.12	51052.73
602.478	51217.69
602.836	51286.39
603.194	51219.27
603.552	51461.53
603.91	51537.23
604.268	51769.32
604.625	51812.25
604.983	52009.31
605.341	52000.27
605.698	52244.78
606.056	52576.75
606.413	52489.75
606.771	52733.81
607.128	52789.18
607.485	52887.03
607.843	52934.48
608.2	53221.26
608.557	53242.27
608.914	53325.21
609.272	53564.3
609.629	53675.93
609.986	53759.09
610.343	53853.56
610.7	54063.72
611.057	54152.08
611.414	54147.56
611.771	54312.75
612.127	54475.01
612.484	54563.14
612.841	54727.43
613.198	54676.58
613.554	54781.89
613.911	54923.13
614.267	55021.89
614.624	54989.8
614.98	55177.36
615.337	55376.68
615.693	55331.93
616.05	55433.63
616.406	55561.99
616.762	55530.12
617.118	55624.36
617.475	55644.02
617.831	55749.1
618.187	55893.28
618.543	55954.74
618.899	56100.5
619.255	56032.71
619.611	56051.01
619.967	56233.83
620.323	56368.97
620.678	56199.93
621.034	56296.43
621.39	56338.91
621.746	56427.95
622.101	56651.22
622.457	56409.42
622.812	56644.67
623.168	56643.99
623.523	56658
623.879	56776.87
624.234	56654.39
624.589	56796.53
624.945	56800.82
625.3	56790.2
625.655	56880.14
626.01	56857.32
626.365	56935.73
626.72	56876.98
627.075	56902.74
627.43	56984.77
627.785	56940.48
628.14	56988.84
628.495	56990.42
628.85	57007.15
629.205	56954.27
629.559	57086.24
629.914	57037.2
630.269	57086.01
630.623	56854.38
630.978	56845.57
631.332	57074.71
631.687	57065.45
632.041	56987.03
632.396	57050.99
632.75	56920.59
633.104	56993.13
633.459	56899.35
633.813	56902.97
634.167	56874.49
634.521	56895.28
634.875	56923.08
635.229	56814.16
635.583	56678.57
635.937	56743.2
636.291	56660.49
636.645	56700.26
636.999	56613.94
637.352	56725.8
637.706	56536.2
638.06	56621.62
638.413	56604.22
638.767	56582.07
639.121	56572.58
639.474	56431.57
639.828	56474.96
640.181	56423.66
640.534	56521.73
640.888	56398.8
641.241	56267.28
641.594	56343.89
641.947	56410.1
642.301	56372.36
642.654	56291.23
643.007	56281.74
643.36	56321.97
643.713	56324.45
644.066	56404
644.419	56161.29
644.771	55919.49
645.124	55641.31
645.477	55559.27
645.83	55431.82
646.182	55460.75
646.535	55383.23
646.888	55467.3
647.24	55408.77
647.593	55519.05
647.945	55442.44
648.298	55324.93
648.65	55228.21
649.002	55118.16
649.355	55129.68
649.707	55041.32
650.059	55120.64
650.411	55440.63
650.763	55534.42
651.115	55890.79
651.467	55860.06
651.819	55823.45
652.171	55736.22
652.523	55646.05
652.875	55684.69
653.227	55608.99
653.578	55806.5
653.93	55742.09
654.282	55617.35
654.633	55544.58
654.985	55637.46
655.337	55584.36
655.688	55543
656.039	55625.94
656.391	55469.56
656.742	55425.27
657.094	55457.13
657.445	55488.09
657.796	55466.39
658.147	55430.46
658.498	55457.58
658.849	55441.31
659.2	55336
659.551	55220.98
659.902	55441.31
660.253	55310.47
660.604	55384.36
660.955	55276.57
661.306	55369.45
661.656	55295.33
662.007	55257.13
662.358	55239.96
662.708	55273.41
663.059	55257.81
663.409	55173.97
663.76	55254.42
664.11	55222.56
664.461	55318.15
664.811	55252.61
665.161	55270.92
665.511	55195.44
665.862	55279.05
666.212	55266.63
666.562	55278.38
666.912	55187.76
667.262	55089.46
667.612	55233.86
667.962	55173.07
668.312	55097.14
668.662	55228.66
669.011	55138.72
669.361	55109.57
669.711	55221.66
670.06	55029.34
670.41	55048.78
670.76	54989.57
671.109	55114.99
671.459	55049.46
671.808	55045.84
672.157	55094.2
672.507	54895.34
672.856	54991.6
673.205	55012.62
673.554	54992.73
673.904	54928.1
674.253	55202.45
674.602	54917.03
674.951	54589.36
675.3	54456.25
675.649	54945.73
675.998	55029.57
676.346	54872.51
676.695	55006.52
677.044	54806.98
677.393	54825.06
677.741	54910.25
678.09	54795.23
678.438	54726.98
678.787	54874.77
679.135	54850.37
679.484	54686.75
679.832	54790.03
680.181	54701.9
680.529	54741.22
680.877	54625.74
681.225	54575.57
681.573	54722.01
681.922	54619.64
682.27	54568.79
682.618	54581.9
682.966	54457.83
683.314	54499.64
683.661	54513.43
684.009	54399.98
684.357	54265.97
684.705	54234.79
685.053	54290.15
685.4	54199.31
685.748	54101.68
686.095	54144.62
686.443	53981.69
686.79	53947.56
687.138	54033.89
687.485	53979.88
687.832	53907.57
688.18	53902.59
688.527	53796.83
688.874	53730.4
689.221	53823.5
689.568	53663.96
689.915	53595.48
690.262	53645.2
690.609	53543.51
690.956	53435.49
691.303	53400.46
691.65	53284.08
691.997	53251.99
692.344	53118.89
692.69	53158.43
693.037	53110.3
693.383	52934.48
693.73	53029.62
694.077	52886.58
694.423	52871.43
694.769	52662.17
695.116	52680.25
695.462	52548.96
695.808	52597.77
696.155	52548.73
696.501	52278.91
696.847	52391.45
697.193	52096.77
697.539	52169.76
697.885	51889.09
698.231	51948.75
698.577	51814.74
698.923	51879.6
699.269	51641.64
699.614	51553.05
699.96	51421.08
700.306	51455.43
700.651	51328.65
700.997	51259.27
701.342	51222.21
701.688	51046.4
702.033	50990.58
702.379	50922.56
702.724	50931.82
703.069	50923.24
703.415	50521.44
703.76	50524.38
704.105	50516.92
704.45	50433.31
704.795	50214.78
705.14	50093.88
705.485	50173.43
705.83	49884.17
706.175	49978.18
706.52	49820.22
706.865	49730.05
707.209	49535.03
707.554	49526.66
707.899	49462.26
708.243	49320.12
708.588	49292.77
708.932	49188.37
709.277	49191.76
709.621	48922.39
709.966	48795.16
710.31	48757.87
710.654	48654.14
710.998	48679.23
711.342	48624.09
711.687	48575.5
712.031	48403.3
712.375	48280.82
712.719	48348.62
713.063	48160.6
713.407	48261.16
713.75	48098.23
714.094	48041.51
714.438	47777.33
714.782	47839.93
715.125	47804.22
715.469	47886.03
715.812	47610.78
716.156	47452.14
716.499	47582.08
716.843	47450.11
717.186	47260.96
717.53	47369.66
717.873	47396.32
718.216	47317.46
718.559	47151.59
718.902	46825.94
719.246	46999.05
719.589	46755.21
719.932	46734.87
720.275	46719.28
720.617	46825.04
720.96	46582.56
721.303	46627.53
721.646	46591.15
721.989	46319.06
722.331	46309.57
722.674	46289.91
723.016	46248.11
723.359	46113.65
723.701	46197.71
724.044	46195.23
724.386	45854.44
724.729	46032.29
725.071	46020.54
725.413	45962.69
725.755	45971.28
726.097	45772.64
726.439	45653.55
726.782	45546.2
727.124	45900.77
727.465	45651.96
727.807	45571.74
728.149	45502.36
728.491	45390.95
728.833	45518.86
729.175	45442.7
729.516	45380.56
729.858	45156.16
730.199	45341.92
730.541	45279.32
730.882	45207.23
731.224	45125.2
731.565	45165.87
731.906	45102.37
732.248	45094.92
732.589	44908.93
732.93	44882.27
733.271	44955.26
733.612	44918.88
733.953	44966.11
734.294	44631.88
734.635	44754.81
734.976	44812.66
735.317	44680.24
735.658	44599.34
735.999	44648.15
736.339	44651.09
736.68	44622.61
737.021	44617.19
737.361	44362.05
737.702	44761.82
738.042	44585.1
738.383	44481.6
738.723	44663.51
739.063	44392.56
739.404	44447.25
739.744	44487.93
740.084	44343.52
740.424	44348.72
740.764	44398.89
741.104	44492.9
741.444	44310.08
741.784	44212
742.124	44388.49
742.464	44338.55
742.804	44285.9
743.143	44082.97
743.483	44260.14
743.823	44066.02
744.162	44098.11
744.502	44012.68
744.841	43958
745.181	44326.12
745.52	44048.62
745.86	44150.99
746.199	44083.19
746.538	44128.61
746.877	44089.29
747.216	44159.57
747.556	44070.99
747.895	44072.57
748.234	44088.39
748.573	43990.99
748.911	43871.67
749.25	43868.96
749.589	43791.9
749.928	43994.83
750.267	44074.15
750.605	43932.46
750.944	43947.6
751.283	43910.09
751.621	44026.7
751.96	43838.23
752.298	43808.62
752.636	43905.57
752.975	43810.66
753.313	43585.8
753.651	43873.48
753.989	43571.79
754.327	43676.87
754.666	43469.2
755.004	43669.64
755.342	43614.73
755.679	43667.83
756.017	43309.65
756.355	43520.49
756.693	43537.22
757.031	43500.61
757.368	43194.17
757.706	43274.4
758.044	43235.98
758.381	43191.92
758.719	43166.38
759.056	43211.8
759.394	42920.51
759.731	42791.47
760.068	42768.2
760.405	42828.76
760.743	42638.03
761.08	42770.91
761.417	42515.77
761.754	42494.08
762.091	42415.44
762.428	42211.6
762.765	42156.46
763.102	42250.02
763.438	41928.67
763.775	41883.02
764.112	41880.54
764.449	41722.58
764.785	41746.76
765.122	41540.43
765.458	41543.14
765.795	41322.81
766.131	41444.84
766.467	41230.84
766.804	41074.91
767.14	40877.85
767.476	40672.66
767.812	40753.34
768.148	40925.76
768.485	40457.75
768.821	40267.7
769.157	40152.9
769.492	40186.34
769.828	40053.24
770.164	39749.52
770.5	39682.18
770.836	39700.71
771.171	39530.32
771.507	39382.3
771.842	39310.66
772.178	39124.68
772.513	39155.41
772.849	39003.78
773.184	38933.27
773.519	38751.35
773.855	38541.87
774.19	38518.14
774.525	38265.04
774.86	38303.68
775.195	38153.4
775.53	37963.35
775.865	37700.08
776.2	37664.83
776.535	37369.47
776.87	37333.54
777.205	37199.76
777.539	37135.58
777.874	37301
778.209	36811.29
778.543	36858.75
778.878	36606.33
779.212	36570.39
779.547	36240.69
779.881	36286.56
780.215	36107.13
780.55	36126.79
780.884	35802.05
781.218	35708.95
781.552	35834.37
781.886	35450.42
782.22	35327.49
782.554	35203.2
782.888	34887.95
783.222	34897.44
783.556	34699.26
783.889	34650.44
784.223	34294.75
784.557	34341.75
784.89	34485.7
785.224	34160.97
785.557	33981.76
785.891	34007.07
786.224	33901.09
786.558	33932.27
786.891	33552.39
787.224	33317.82
787.557	33332.51
787.891	33238.96
788.224	33153.08
788.557	33004.84
788.89	32973.2
789.223	32881
789.556	32708.8
789.888	32535.92
790.221	32478.07
790.554	32232.2
790.887	32328.7
791.219	32097.97
791.552	32053.68
791.884	31943.62
792.217	31703.86
792.549	31611.43
792.882	31467.03
793.214	31373.69
793.546	31418.89
793.879	31269.97
794.211	31038.34
794.543	31142.06
794.875	30893.71
795.207	30803.09
795.539	30836.99
795.871	30884.67
796.203	30576.43
796.535	30427.28
796.867	30463.44
797.198	30163.11
797.53	30143.67
797.862	29877.91
798.193	30055.99
798.525	29834.75
798.856	29969.44
799.188	29476.8
799.519	29465.95
799.85	29293.98
800.182	29334.65
800.513	29496
800.844	28999.97
801.175	29237.71
801.506	29114.77
801.837	28925.17
802.168	28917.49
802.499	28891.27
802.83	28685.4
803.161	28556.14
803.491	28557.27
803.822	28607.44
804.153	28262.82
804.483	28129.26
804.814	28049.71
805.145	28191.63
805.475	28166.55
805.805	27991.41
806.136	28030.28
806.466	27808.36
806.796	27899.44
807.126	27688.59
807.457	27682.27
807.787	27519.11
808.117	27575.6
808.447	27380.81
808.777	27429.17
809.107	27216.74
809.436	27097.88
809.766	27198.21
810.096	27117.76
810.426	26979.46
810.755	26962.06
811.085	26928.39
811.414	26903.76
811.744	26740.6
812.073	26818.33
812.403	26579.92
812.732	26511.68
813.061	26511.45
813.39	26242.98
813.719	26152.82
814.049	26316.43
814.378	26322.08
814.707	26100.16
815.036	26102.65
815.365	25995.76
815.693	25857.46
816.022	25836.21
816.351	25816.33
816.68	25640.06
817.008	25824.46
817.337	25485.04
817.665	25485.49
817.994	25388.54
818.322	25669.44
818.651	25443.68
818.979	25366.62
819.307	25293.18
819.636	25339.73
819.964	25160.3
820.292	25286.17
820.62	25072.62
820.948	25233.29
821.276	25194.2
821.604	25211.6
821.932	25237.13
822.259	25047.53
822.587	25066.06
822.915	25080.98
823.243	25122.33
823.57	24915.56
823.898	25139.28
824.225	25140.19
824.553	24975.22
824.88	25031.26
825.207	25182.9
825.535	25007.76
825.862	25060.87
826.189	25072.62
826.516	25200.52
826.843	25143.8
827.17	25196.91
827.497	25117.36
827.824	25207.08
828.151	25228.09
828.478	25118.72
828.805	25281.43
829.131	25027.87
829.458	25009.79
829.785	24922.34
830.111	25040.08
830.438	25062.22
830.764	25111.71
831.09	25156.46
831.417	25037.36
831.743	25180.41
832.069	24969.8
832.395	24985.84
832.722	25073.3
833.048	24967.31
833.374	25029
833.7	24870.59
834.026	24972.28
834.351	24868.1
834.677	25017.25
835.003	24840.99
835.329	24920.08
835.654	24952.17
835.98	24816.35
836.306	24891.15
836.631	24736.13
836.956	24929.8
837.282	24762.34
837.607	24708.11
837.932	24711.27
838.258	24730.48
838.583	24712.63
838.908	24593.76
839.233	24623.14
839.558	24409.81
839.883	24531.84
840.208	24390.15
840.533	24360.77
840.858	24381.11
841.182	24360.55
841.507	24226.76
841.832	24154.22
842.156	24243.26
842.481	24190.15
842.805	24011.63
843.13	24076.49
843.454	24027.45
843.778	24052.76
844.103	23893.67
844.427	23918.07
844.751	23759.43
845.075	23796.72
845.399	23711.75
845.723	23522.6
846.047	23674.91
846.371	23467.24
846.695	23434.92
847.019	23219.33
847.343	23124.65
847.666	23105.66
847.99	22910.87
848.313	22844.43
848.637	22817.76
848.96	22803.52
849.284	22745
849.607	22469.52
849.931	22560.14
850.254	22389.52
850.577	22145.01
850.9	22146.37
851.223	22110.89
851.546	22056.43
851.869	21862.53
852.192	22010.55
852.515	21710.9
852.838	21619.38
853.161	21642.2
853.483	21515.42
853.806	21380.29
854.129	21438.14
854.451	21384.35
854.774	21229.1
855.096	21184.36
855.419	21063.01
855.741	20899.85
856.063	20807.87
856.385	20750.7
856.708	20763.58
857.03	20746.4
857.352	20728.78
857.674	20739.4
857.996	20688.1
858.318	20393.87
858.64	20477.26
858.961	20428.9
859.283	20408.11
859.605	20228.45
859.926	20319.07
860.248	20136.48
860.57	20127.21
860.891	20056.93
861.212	19892.19
861.534	19930.38
861.855	19843.83
862.176	19923.83
862.498	19915.01
862.819	19941.91
863.14	19826.88
863.461	19754.57
863.782	19682.93
864.103	19630.27
864.424	19679.77
864.745	19628.69
865.065	19490.17
865.386	19427.34
865.707	19547.11
866.027	19434.35
866.348	19391.86
866.668	19357.51
866.989	19346.44
867.309	19191.42
867.63	19217.18
867.95	19233.9
868.27	19141.93
868.59	19230.06
868.91	19235.93
869.23	19149.38
869.55	18968.15
869.87	19148.93
870.19	19008.14
870.51	19009.27
870.83	18976.28
871.15	18825.78
871.469	18812.9
871.789	18854.25
872.109	18857.87
872.428	18790.75
872.748	18826
873.067	18793.91
873.386	18773.12
873.706	18640.24
874.025	18586.01
874.344	18535.84
874.663	18578.33
874.982	18482.73
875.301	18571.55
875.62	18471.21
875.939	18348.73
876.258	18471.66
876.577	18335.62
876.896	18361.38
877.214	18398.44
877.533	18315.96
877.852	18339.01
878.17	18237.09
878.489	18337.43
878.807	18283.42
879.125	18230.99
879.444	18160.03
879.762	18127.26
880.08	18111.9
880.398	18099.47
880.716	17925.46
881.034	17900.6
881.352	17945.35
881.67	17860.38
881.988	17948.74
882.306	17751.45
882.624	17790.32
882.941	17739.48
883.259	17569.76
883.577	17622.64
883.894	17554.4
884.212	17543.1
884.529	17540.61
884.846	17483.66
885.164	17438.69
885.481	17382.88
885.798	17374.97
886.115	17262.65
886.432	17202.99
886.75	17196.67
887.067	17313.73
887.383	17133.62
887.7	17243.22
888.017	17070.12
888.334	17022.43
888.651	16981.76
888.967	16950.35
889.284	16867.41
889.6	16832.16
889.917	16758.94
890.233	16696.11
890.55	16675.78
890.866	16703.12
891.182	16551.94
891.498	16615.44
891.815	16404.82
892.131	16414.99
892.447	16423.58
892.763	16186.98
893.079	16289.12
893.395	16292.96
893.71	16169.8
894.026	16241.89
894.342	16151.27
894.657	16044.38
894.973	16001.44
895.289	15898.4
895.604	15876.93
895.92	15860.43
896.235	15815.69
896.55	15820.66
896.865	15728.68
897.181	15687.78
897.496	15728
897.811	15619.31
898.126	15460.89
898.441	15438.07
898.756	15318.98
899.071	15290.95
899.386	15359.43
899.7	15202.82
900.015	15138.87
900.33	14961.47
900.644	14982.71
900.959	15067.91
901.273	14929.16
901.588	14901.13
901.902	14782.94
902.216	14804.41
902.531	14719.9
902.845	14691.65
903.159	14593.12
903.473	14592.44
903.787	14481.71
904.101	14439.45
904.415	14473.8
904.729	14280.36
905.042	14279
905.356	14251.66
905.67	14164.43
905.984	14279
906.297	14151.55
906.611	14030.42
906.924	14053.7
907.237	13985.9
907.551	13909.75
907.864	13904.32
908.177	13853.48
908.491	13721.96
908.804	13712.01
909.117	13610.55
909.43	13516.54
909.743	13498.46
910.056	13553.82
910.368	13303.66
910.681	13375.3
910.994	13332.14
911.307	13299.37
911.619	13119.03
911.932	13128.75
912.244	13069.32
912.557	13036.32
912.869	12949.77
913.181	12877.68
913.494	12882.2
913.806	12735.77
914.118	12755.65
914.43	12730.12
914.742	12695.99
915.054	12566.51
915.366	12600.18
915.678	12481.31
915.99	12385.04
916.302	12281.09
916.613	12249.45
916.925	12327.64
917.236	12186.85
917.548	12120.19
917.859	12201.09
918.171	12143.69
918.482	11919.29
918.794	12001.1
919.105	11856.02
919.416	11835.68
919.727	11818.5
920.038	11756.13
920.349	11762.46
920.66	11651.95
920.971	11643.14
921.282	11571.96
921.593	11506.19
921.903	11387.55
922.214	11382.13
922.525	11356.14
922.835	11323.37
923.146	11252.64
923.456	11232.3
923.767	11222.81
924.077	11133.1
924.387	11141.91
924.697	11022.14
925.008	10972.2
925.318	10952.76
925.628	10884.52
925.938	10837.96
926.248	10742.37
926.558	10748.25
926.867	10739.21
927.177	10636.61
927.487	10625.99
927.796	10568.37
928.106	10517.97
928.416	10499.89
928.725	10465.09
929.034	10392.55
929.344	10438.65
929.653	10362.27
929.962	10225.1
930.271	10271.42
930.581	10192.1
930.89	10129.28
931.199	10038.66
931.508	10011.09
931.817	9966.35
932.125	10006.35
932.434	9986.46
932.743	9856.52
933.051	9812.91
933.36	9781.72
933.669	9688.16
933.977	9679.35
934.286	9663.31
934.594	9659.92
934.902	9525
935.21	9518
935.519	9505.57
935.827	9430.54
936.135	9359.58
936.443	9336.53
936.751	9317.1
937.059	9358.45
937.367	9214.96
937.674	9184
937.982	9181.28
938.29	9162.53
938.597	9169.31
938.905	8984.45
939.213	8968.63
939.52	8912.82
939.827	8989.2
940.135	8906.94
940.442	8821.75
940.749	8822.2
941.056	8856.77
941.363	8685.25
941.67	8717.79
941.977	8708.75
942.284	8619.26
942.591	8566.16
942.898	8560.96
943.205	8537.23
943.511	8478.03
943.818	8512.15
944.125	8328.88
944.431	8399.16
944.738	8364.13
945.044	8261.08
945.35	8282.55
945.657	8198.03
945.963	8157.58
946.269	8099.5
946.575	8108.09
946.881	8074.65
947.187	8038.49
947.493	8011.82
947.799	7986.74
948.105	7974.08
948.41	7817.7
948.716	7827.87
949.022	7851.6
949.327	7728.44
949.633	7672.17
949.938	7678.27
950.244	7685.73
950.549	7562.8
950.854	7553.76
951.16	7557.15
951.465	7520.99
951.77	7482.35
952.075	7411.84
952.38	7402.57
952.685	7419.97
952.99	7362.57
953.294	7337.72
953.599	7334.78
953.904	7226.99
954.209	7221.56
954.513	7266.98
954.818	7181.11
955.122	7178.85
955.426	7124.61
955.731	7015.01
956.035	6996.71
956.339	7053.2
956.643	6985.86
956.948	6966.43
957.252	6924.17
957.556	6904.96
957.86	6864.28
958.163	6825.87
958.467	6774.57
958.771	6781.57
959.075	6738.86
959.378	6647.11
959.682	6701.35
959.985	6707.9
960.289	6613.89
960.592	6589.71
960.896	6594.69
961.199	6507.91
961.502	6475.59
961.805	6439.89
962.108	6372.77
962.411	6430.4
962.714	6325.31
963.017	6327.12
963.32	6345.43
963.623	6319.44
963.926	6334.13
964.228	6248.48
964.531	6247.12
964.833	6224.75
965.136	6105.43
965.438	6101.59
965.741	6060.69
966.043	6080.8
966.345	6030.86
966.648	6024.98
966.95	5987.92
967.252	5936.62
967.554	5940.01
967.856	5923.74
968.158	5794.93
968.46	5856.85
968.761	5856.63
969.063	5798.77
969.365	5789.51
969.666	5756.29
969.968	5749.51
970.269	5648.72
970.571	5716.74
970.872	5644.43
971.174	5577.31
971.475	5611.66
971.776	5582.51
972.077	5528.05
972.378	5503.19
972.679	5512.91
972.98	5459.12
973.281	5445.34
973.582	5404.43
973.883	5398.11
974.183	5373.93
974.484	5370.76
974.785	5298.22
975.085	5331.44
975.386	5281.95
975.686	5229.07
975.986	5185.46
976.287	5200.37
976.587	5190.43
976.887	5130.54
977.187	5134.16
977.487	5141.39
977.787	5095.06
978.087	5074.95
978.387	4979.36
978.687	5009.19
978.987	5027.72
979.286	4960.38
979.586	4923.54
979.885	4941.4
980.185	4883.54
980.484	4832.92
980.784	4837.44
981.083	4785.69
981.382	4833.83
981.682	4813.49
981.981	4758.12
982.28	4707.73
982.579	4655.75
982.878	4707.96
983.177	4688.52
983.475	4658.69
983.774	4595.42
984.073	4532.59
984.372	4519.94
984.67	4609.65
984.969	4586.83
985.267	4538.69
985.566	4506.38
985.864	4508.41
986.162	4450.79
986.461	4382.31
986.759	4434.74
987.057	4381.64
987.355	4368.76
987.653	4330.11
987.951	4315.88
988.249	4292.82
988.547	4276.1
988.844	4268.42
989.142	4285.59
989.44	4232.26
989.737	4224.8
990.035	4154.75
990.332	4159.5
990.63	4158.59
990.927	4121.08
991.224	4126.73
991.521	4046.5
991.819	4093.73
992.116	4077.46
992.413	4045.83
992.71	3985.71
993.006	3980.29
993.303	3962.89
993.6	3985.94
993.897	3910.46
994.193	3907.98
994.49	3888.99
994.787	3876.56
995.083	3821.65
995.379	3811.93
995.676	3852.16
995.972	3800.18
996.268	3789.56
996.565	3723.57
996.861	3703.91
997.157	3707.3
997.453	3700.52
997.749	3686.51
998.044	3644.71
998.34	3611.03
998.636	3603.58
998.932	3620.53
999.227	3564.71
999.523	3533.52
999.818	3513.41
1000.114	3536.01
1000.409	3448.33
1000.704	3466.86
1001	3485.39
1001.295	3412.4
1001.59	3413.3
1001.885	3405.84
1002.18	3407.88
1002.475	3387.31
1002.77	3347.54
1003.065	3328.56
1003.359	3308.44
1003.654	3293.08
1003.949	3279.97
1004.243	3240.88
1004.538	3245.39
1004.832	3227.99
1005.127	3179.86
1005.421	3189.8
1005.715	3131.05
1006.009	3151.16
1006.304	3102.35
1006.598	3098.51
1006.892	3102.12
1007.186	3056.25
1007.48	3028.23
1007.773	2990.49
1008.067	3011.28
1008.361	2975.8
1008.655	2980.32
1008.948	2980.54
1009.242	2929.7
1009.535	2895.57
1009.829	2915.46
1010.122	2859.42
1010.415	2863.03
1010.708	2868.91
1011.001	2785.75
1011.295	2803.6
1011.588	2806.76
1011.881	2726.31
1012.173	2762.24
1012.466	2725.18
1012.759	2760.89
1013.052	2695.58
1013.344	2707.1
1013.637	2680.21
1013.93	2671.85
1014.222	2618.74
1014.514	2657.39
1014.807	2635.47
1015.099	2598.63
1015.391	2565.86
1015.683	2549.59
1015.976	2538.97
1016.268	2534.23
1016.56	2509.6
1016.851	2466.88
1017.143	2468.24
1017.435	2455.13
1017.727	2444.06
1018.018	2455.36
1018.31	2410.16
1018.602	2386.21
1018.893	2403.84
1019.185	2362.25
1019.476	2355.93
1019.767	2317.74
1020.058	2301.69
1020.35	2318.87
1020.641	2294.01
1020.932	2246.1
1021.223	2264.18
1021.514	2193.22
1021.804	2213.56
1022.095	2218.76
1022.386	2185.31
1022.677	2198.42
1022.967	2154.35
1023.258	2123.16
1023.548	2137.4
1023.839	2105.99
1024.129	2064.86
1024.419	2092.43
1024.709	2068.48
1025	2051.53
1025.29	2039.32
1025.58	2013.11
1025.87	1997.74
1026.16	1976.28
1026.449	1963.85
1026.739	1971.98
1027.029	1952.32
1027.319	1903.28
1027.608	1948.03
1027.898	1904.64
1028.187	1928.59
1028.477	1892.21
1028.766	1895.37
1029.055	1845.66
1029.344	1823.96
1029.634	1814.92
1029.923	1815.6
1030.212	1778.09
1030.501	1823.74
1030.79	1760.69
1031.078	1744.64
1031.367	1743.06
1031.656	1751.2
1031.945	1703.29
1032.233	1711.2
1032.522	1696.06
1032.81	1681.37
1033.099	1688.6
1033.387	1658.77
1033.675	1663.74
1033.963	1654.7
1034.251	1661.71
1034.54	1626.68
1034.828	1593.01
1035.116	1621.93
1035.403	1579.45
1035.691	1540.35
1035.979	1524.99
1036.267	1536.97
1036.554	1521.15
1036.842	1520.69
1037.129	1519.79
1037.417	1519.11
1037.704	1507.14
1037.992	1483.41
1038.279	1480.92
1038.566	1450.64
1038.853	1450.64
1039.14	1450.64
