Data from 14-1119_FLMS001491_001.txt Node
Date: Thu Apr 19 16:09:38 BST 2018
User: hsy
Spectrometer: FLMS00149
Trigger mode: 0
Integration Time (sec): 1.000000E-2
Scans to average: 10
Electric dark correction enabled: true
Nonlinearity correction enabled: false
Boxcar width: 0
XAxis mode: Wavelengths
Number of Pixels in Spectrum: 2048
>>>>>Begin Spectral Data<<<<<
341.393	-8.43
341.776	-8.43
342.16	-8.43
342.543	-67.19
342.927	-80.07
343.31	-78.71
343.693	-85.49
344.077	-73.52
344.46	-54.98
344.843	-52.05
345.226	-32.61
345.61	-50.69
345.993	-33.29
346.376	9.42
346.759	-5.72
347.142	17.1
347.525	57.33
347.908	67.95
348.291	83.32
348.674	102.07
349.057	129.87
349.44	141.39
349.823	127.84
350.206	174.61
350.588	220.71
350.971	251
351.354	262.97
351.737	275.18
352.119	290.54
352.502	289.19
352.884	313.59
353.267	326.02
353.65	320.82
354.032	317.66
354.414	323.99
354.797	348.62
355.179	359.24
355.562	353.82
355.944	355.4
356.326	364.44
356.709	370.09
357.091	350.88
357.473	361.73
357.855	395.4
358.238	367.15
358.62	359.47
359.002	405.34
359.384	376.42
359.766	380.48
360.148	378.68
360.53	383.65
360.912	373.48
361.294	377.09
361.676	380.48
362.057	366.7
362.439	373.93
362.821	372.35
363.203	377.77
363.584	363.54
363.966	351.33
364.348	352.69
364.729	358.79
365.111	351.33
365.493	342.75
365.874	357.66
366.256	360.82
366.637	346.36
367.019	361.73
367.4	375.29
367.781	364.67
368.163	358.79
368.544	379.81
368.925	350.88
369.306	353.82
369.688	360.15
370.069	341.84
370.45	372.12
370.831	338.68
371.212	363.08
371.593	355.63
371.974	359.47
372.355	385.46
372.736	370.54
373.117	355.63
373.498	380.71
373.879	359.02
374.26	376.87
374.641	358.56
375.021	380.71
375.402	382.97
375.783	382.97
376.163	394.04
376.544	389.07
376.925	382.52
377.305	388.62
377.686	392.01
378.066	373.7
378.447	407.83
378.827	384.55
379.208	404.89
379.588	383.42
379.968	392.69
380.349	399.24
380.729	375.51
381.109	394.72
381.489	418.9
381.87	405.34
382.25	412.57
382.63	398.79
383.01	410.54
383.39	432.23
383.77	406.7
384.15	415.51
384.53	429.3
384.91	422.52
385.29	419.58
385.67	418.68
386.049	450.54
386.429	448.28
386.809	444.21
387.189	451.89
387.568	440.82
387.948	429.07
388.328	440.37
388.707	458.67
389.087	440.14
389.466	471.78
389.846	447.38
390.225	467.04
390.605	472.23
390.984	473.59
391.363	454.61
391.743	465
392.122	450.99
392.501	479.24
392.881	503.42
393.26	497.77
393.639	490.99
394.018	497.09
394.397	498.67
394.776	480.37
395.155	495.74
395.534	513.59
395.913	500.26
396.292	529.63
396.671	524.66
397.05	520.59
397.429	501.16
397.808	502.97
398.186	523.08
398.565	540.93
398.944	514.94
399.323	531.21
399.701	525.57
400.08	547.94
400.458	558.78
400.837	533.25
401.215	556.07
401.594	551.78
401.972	555.17
402.351	583.19
402.729	562.85
403.107	577.54
403.486	581.83
403.864	584.55
404.242	561.5
404.62	581.38
404.999	610.99
405.377	601.72
405.755	621.16
406.133	596.3
406.511	613.7
406.889	636.97
407.267	642.17
407.645	649.63
408.023	679.91
408.401	679.01
408.779	692.57
409.156	702.06
409.534	707.93
409.912	690.08
410.29	705.45
410.667	739.57
411.045	754.71
411.422	748.84
411.8	746.8
412.178	744.99
412.555	768.72
412.933	775.73
413.31	793.58
413.687	811.43
414.065	796.97
414.442	829.74
414.819	860.02
415.197	846.69
415.574	862.28
415.951	895.27
416.328	878.32
416.705	877.19
417.082	908.15
417.46	908.61
417.837	923.52
418.214	937.31
418.591	922.84
418.967	951.54
419.344	947.93
419.721	959.23
420.098	994.93
420.475	990.64
420.852	1005.78
421.228	999.45
421.605	998.32
421.982	1030.41
422.358	1052.33
422.735	1054.14
423.111	1053.46
423.488	1021.6
423.864	1075.83
424.241	1071.77
424.617	1107.92
424.994	1107.92
425.37	1123.97
425.746	1128.71
426.123	1155.15
426.499	1158.77
426.875	1179.11
427.251	1177.98
427.627	1203.97
428.003	1193.57
428.379	1220.91
428.756	1225.66
429.132	1225.43
429.507	1250.29
429.883	1276.05
430.259	1287.58
430.635	1333.45
431.011	1316.96
431.387	1333.91
431.763	1378.65
432.138	1346.11
432.514	1372.55
432.89	1407.58
433.265	1430.63
433.641	1433.56
434.016	1433.34
434.392	1512.21
434.767	1495.71
435.143	1485.54
435.518	1474.24
435.894	1538.65
436.269	1538.19
436.644	1572.54
437.02	1577.52
437.395	1575.03
437.77	1554.46
438.145	1640.11
438.52	1617.06
438.895	1648.93
439.271	1655.03
439.646	1659.55
440.021	1697.74
440.395	1719.66
440.77	1698.87
441.145	1728.92
441.52	1755.14
441.895	1739.77
442.27	1755.59
442.645	1742.71
443.019	1772.09
443.394	1803.27
443.769	1782.26
444.143	1777.74
444.518	1811.86
444.892	1850.28
445.267	1812.54
445.641	1859.77
446.016	1856.38
446.39	1884.63
446.764	1883.95
447.139	1905.19
447.513	1879.88
447.887	1930.95
448.262	1951.74
448.636	1943.16
449.01	1979.31
449.384	1985.19
449.758	1973.21
450.132	2010.27
450.506	2015.47
450.88	2050.5
451.254	2017.05
451.628	2107.9
452.002	2095.69
452.376	2125.98
452.75	2133.43
453.123	2144.51
453.497	2171.4
453.871	2184.05
454.244	2248.46
454.618	2265.63
454.992	2257.05
455.365	2266.31
455.739	2353.31
456.112	2355.35
456.486	2352.18
456.859	2411.84
457.232	2419.98
457.606	2454.78
457.979	2476.25
458.352	2549.92
458.725	2579.52
459.099	2584.04
459.472	2608.45
459.845	2617.26
460.218	2670.37
460.591	2720.08
460.964	2716.24
461.337	2761.21
461.71	2829.23
462.083	2827.2
462.456	2850.7
462.829	2880.76
463.201	2925.05
463.574	2898.38
463.947	2970.92
464.32	3000.98
464.692	3003.47
465.065	3032.62
465.438	3036.01
465.81	3123.69
466.183	3160.98
466.555	3183.12
466.928	3234.87
467.3	3224.25
467.672	3269.9
468.045	3372.04
468.417	3343.8
468.789	3381.76
469.161	3404.36
469.534	3454.98
469.906	3524.81
470.278	3523.45
470.65	3591.02
471.022	3637.57
471.394	3744.92
471.766	3755.76
472.138	3781.52
472.51	3882.54
472.882	3900.84
473.253	3937.45
473.625	3988.07
473.997	4063.33
474.369	4091.8
474.74	4140.39
475.112	4224.23
475.484	4268.52
475.855	4355.3
476.227	4410.21
476.598	4494.27
476.97	4549.41
477.341	4626.25
477.713	4716.87
478.084	4755.96
478.455	4884.32
478.827	4889.52
479.198	5039.8
479.569	5053.13
479.94	5173.58
480.311	5279.79
480.682	5354.36
481.053	5510.07
481.424	5609.95
481.795	5616.05
482.166	5712.77
482.537	5835.26
482.908	5948.47
483.279	6047.45
483.65	6135.14
484.021	6256.94
484.391	6349.59
484.762	6388.46
485.133	6504.17
485.503	6586.65
485.874	6718.4
486.244	6837.49
486.615	6993.87
486.985	7117.71
487.356	7251.94
487.726	7310.92
488.097	7487.64
488.467	7481.99
488.837	7724.47
489.207	7864.58
489.578	8010.57
489.948	8107.51
490.318	8265.93
490.688	8338.24
491.058	8576.43
491.428	8634.28
491.798	8692.58
492.168	8936.64
492.538	9037.88
492.908	9190.65
493.278	9347.25
493.648	9357.88
494.017	9576.85
494.387	9684.65
494.757	9788.37
495.126	9951.76
495.496	10072.66
495.866	10202.6
496.235	10344.06
496.605	10475.36
496.974	10574.34
497.344	10762.36
497.713	10853.88
498.082	10945.18
498.452	11138.39
498.821	11302.01
499.19	11372.74
499.559	11547.42
499.928	11648.66
500.298	11802.33
500.667	11994.42
501.036	12024.25
501.405	12119.38
501.774	12239.83
502.143	12434.86
502.512	12535.64
502.88	12724.57
503.249	12818.12
503.618	12894.05
503.987	13020.6
504.356	13240.49
504.724	13282.52
505.093	13450.88
505.462	13574.71
505.83	13708.04
506.199	13868.49
506.567	14035.04
506.936	14042.05
507.304	14245.2
507.672	14431.41
508.041	14543.05
508.409	14630.05
508.777	14877.96
509.145	15013.55
509.514	14950.5
509.882	15102.58
510.25	15283.14
510.618	15405.4
510.986	15486.98
511.354	15754.77
511.722	15890.36
512.09	16143.01
512.458	16065.04
512.826	16242.21
513.193	16261.42
513.561	16381.87
513.929	16605.59
514.297	16822.76
514.664	17010.56
515.032	17098.01
515.4	17252.36
515.767	17294.16
516.135	17393.37
516.502	17370.32
516.869	17660.26
517.237	17761.95
517.604	17767.82
517.972	18103.63
518.339	18251.65
518.706	18225.89
519.073	18375.04
519.44	18515.15
519.808	18761.24
520.175	18796.72
520.542	19032.2
520.909	19245.53
521.276	19293.21
521.643	19553.99
522.009	19575.23
522.376	19727.55
522.743	19909.24
523.11	20116.46
523.477	20426.06
523.843	20486.62
524.21	20713.06
524.577	20847.97
524.943	21009.77
525.31	21063.33
525.676	21352.59
526.043	21447.73
526.409	21513.94
526.776	21878.68
527.142	21968.62
527.508	22163.64
527.874	22302.62
528.241	22415.39
528.607	22602.95
528.973	22864.86
529.339	22765.43
529.705	23112.54
530.071	23200.22
530.437	23367.68
530.803	23477.05
531.169	23665.75
531.535	23784.61
531.901	23826.65
532.267	23916.36
532.632	24180.54
532.998	24247.88
533.364	24353.87
533.73	24383.02
534.095	24723.57
534.461	24744.82
534.826	24795.89
535.192	25046.95
535.557	25166.73
535.923	25212.6
536.288	25255.76
536.653	25405.14
537.019	25262.32
537.384	25484.01
537.749	25546.38
538.114	25630.67
538.479	25692.36
538.845	25835.63
539.21	25853.94
539.575	25921.51
539.94	26082.41
540.305	26188.62
540.67	26178.45
541.034	26357.88
541.399	26302.74
541.764	26450.99
542.129	26497.31
542.494	26670.19
542.858	26785.67
543.223	26652.34
543.587	26891.88
543.952	26885.78
544.316	26985.21
544.681	27007.13
545.045	27143.85
545.41	27298.87
545.774	27321.24
546.138	27342.26
546.503	27405.99
546.867	27323.73
547.231	27656.83
547.595	27567.79
547.959	27728.69
548.324	27704.96
548.688	27839.2
549.052	27887.11
549.416	27851.4
549.779	28096.14
550.143	28094.56
550.507	28139.08
550.871	28201.67
551.235	28317.6
551.599	28414.55
551.962	28515.79
552.326	28615.67
552.689	28633.98
553.053	28556.69
553.417	28783.13
553.78	28912.84
554.143	28899.28
554.507	28921.88
554.87	29049.56
555.234	29306.96
555.597	29301.08
555.96	29421.3
556.323	29523.22
556.686	29643.44
557.05	29866.71
557.413	29793.72
557.776	29796.21
558.139	30100.61
558.502	30110.78
558.865	30075.52
559.228	30393.71
559.59	30421.73
559.953	30530.88
560.316	30819.01
560.679	30676.18
561.041	30869.17
561.404	31024.65
561.767	31365.66
562.129	31266.68
562.492	31407.24
562.854	31468.93
563.217	31595.26
563.579	31732.2
563.941	31876.15
564.304	32015.81
564.666	32341.68
565.028	32198.4
565.39	32491.28
565.753	32732.4
566.115	32693.31
566.477	32877.26
566.839	32926.75
567.201	33354.08
567.563	33314.53
567.925	33512.72
568.287	33632.72
568.648	33630.46
569.01	33874.29
569.372	34147.05
569.734	34194.28
570.095	34309.99
570.457	34474.96
570.819	34559.47
571.18	34547.04
571.542	34996.3
571.903	34969.18
572.265	35183.64
572.626	35276.29
572.987	35391.77
573.349	35658.43
573.71	35703.4
574.071	35982.94
574.432	36073.78
574.794	36446.65
575.155	36310.16
575.516	36440.1
575.877	36644.84
576.238	36802.58
576.599	37027.43
576.96	37210.02
577.32	37197.82
577.681	37386.07
578.042	37532.73
578.403	37534.31
578.763	37615.44
579.124	37769.78
579.485	38155.31
579.845	38144.46
580.206	38353.72
580.566	38214.52
580.927	38501.29
581.287	38774.96
581.648	38728.63
582.008	39007.49
582.368	39060.37
582.728	39247.26
583.089	39380.81
583.449	39370.65
583.809	39583.97
584.169	39814.48
584.529	39817.19
584.889	40377.17
585.249	40275.93
585.609	40031.87
585.969	40483.16
586.329	40498.3
586.688	40808.8
587.048	40921.79
587.408	41045.4
587.768	41198.39
588.127	41355.45
588.487	41403.81
588.846	41902.56
589.206	41787.08
589.565	41887.64
589.925	42441.07
590.284	42539.38
590.643	42713.83
591.003	42924.68
591.362	43372.35
591.721	43333.71
592.08	43474.04
592.44	43736.41
592.799	43891.88
593.158	44090.3
593.517	44137.75
593.876	44445.77
594.235	44518.76
594.593	44787.23
594.952	44927.56
595.311	45101.57
595.67	45206.2
596.029	45587.88
596.387	45836.24
596.746	46047.31
597.104	45995.78
597.463	46177.25
597.822	46560.51
598.18	46516.22
598.538	46821.52
598.897	47139.25
599.255	47094.96
599.613	47655.63
599.972	47548.06
600.33	47699.92
600.688	47761.61
601.046	47944.43
601.404	48425.1
601.762	48415.83
602.12	48578.77
602.478	48710.29
602.836	48968.36
603.194	48884.07
603.552	49129.71
603.91	49143.72
604.268	49370.83
604.625	49558.17
604.983	49795.68
605.341	49684.95
605.698	50093.98
606.056	50316.35
606.413	50214.65
606.771	50590.69
607.128	50521.99
607.485	50492.16
607.843	50731.7
608.2	50893.51
608.557	51145.25
608.914	51145.03
609.272	51329.65
609.629	51517.22
609.986	51787.49
610.343	51661.62
610.7	52050.09
611.057	51973.25
611.414	52032.23
611.771	52187.71
612.127	52338.21
612.484	52409.17
612.841	52582.95
613.198	52547.47
613.554	52473.13
613.911	52843.51
614.267	52933.9
614.624	52937.07
614.98	53044.18
615.337	53215.03
615.693	53217.29
616.05	53318.53
616.406	53558.52
616.762	53511.29
617.118	53607.79
617.475	53587.9
617.831	53745.86
618.187	53768.01
618.543	53991.5
618.899	54104.04
619.255	54058.85
619.611	54058.17
619.967	54288.67
620.323	54341.33
620.678	54237.6
621.034	54204.38
621.39	54365.51
621.746	54310.82
622.101	54630.13
622.457	54454.54
622.812	54607.53
623.168	54634.65
623.523	54654.54
623.879	54738.6
624.234	54599.4
624.589	54678.72
624.945	54743.57
625.3	54800.97
625.655	54906.28
626.01	54902.89
626.365	55016.11
626.72	54977.47
627.075	54895.21
627.43	54953.06
627.785	54887.98
628.14	54999.84
628.495	54996.22
628.85	55015.88
629.205	54991.93
629.559	55055.43
629.914	54916.23
630.269	55111.02
630.623	54976.11
630.978	54904.47
631.332	55035.77
631.687	55012.95
632.041	55017.92
632.396	55004.13
632.75	54988.54
633.104	54946.06
633.459	54819.73
633.813	54878.94
634.167	54786.51
634.521	54860.86
634.875	54884.14
635.229	54770.01
635.583	54636.46
635.937	54650.24
636.291	54695.89
636.645	54720.52
636.999	54554.43
637.352	54673.07
637.706	54544.03
638.06	54724.37
638.413	54481.66
638.767	54407.31
639.121	54498.84
639.474	54403.92
639.828	54447.99
640.181	54390.14
640.534	54531.6
640.888	54311.04
641.241	54240.09
641.594	54217.71
641.947	54324.15
642.301	54241.44
642.654	54285.51
643.007	54198.28
643.36	54248.45
643.713	54165.28
644.066	54215.68
644.419	54060.65
644.771	53807.1
645.124	53564.62
645.477	53485.08
645.83	53323.95
646.182	53260
646.535	53189.94
646.888	53345.19
647.24	53249.38
647.593	53393.55
647.945	53247.34
648.298	53160.57
648.65	53078.53
649.002	52927.58
649.355	52917.41
649.707	52863.4
650.059	52867.47
650.411	53421.58
650.763	53411.41
651.115	53763.94
651.467	53718.06
651.819	53661.8
652.171	53574.57
652.523	53513.1
652.875	53598.97
653.227	53415.47
653.578	53619.08
653.93	53464.96
654.282	53411.63
654.633	53417.06
654.985	53391.07
655.337	53496.38
655.688	53368.02
656.039	53442.14
656.391	53188.81
656.742	53281.24
657.094	53318.08
657.445	53356.94
657.796	53271.97
658.147	53222.94
658.498	53314.69
658.849	53395.14
659.2	53158.53
659.551	53127.35
659.902	53315.36
660.253	53208.47
660.604	53255.25
660.955	53107.91
661.306	53226.1
661.656	53109.95
662.007	53129.38
662.358	53177.97
662.708	53183.62
663.059	53131.64
663.409	52944.07
663.76	53149.94
664.11	53093.67
664.461	53123.73
664.811	53074.24
665.161	53081.7
665.511	53061.59
665.862	53098.19
666.212	53125.76
666.562	53098.65
666.912	53093.67
667.262	52973
667.612	52924.19
667.962	53018.65
668.312	52919.44
668.662	53125.09
669.011	53059.1
669.361	53038.99
669.711	53041.7
670.06	52957.63
670.41	52909.05
670.76	52811.42
671.109	52989.27
671.459	52862.72
671.808	52820.01
672.157	52858.2
672.507	52756.96
672.856	52793.57
673.205	52710.86
673.554	52779.78
673.904	52707.7
674.253	52933
674.602	52714.7
674.951	52405.56
675.3	52142.06
675.649	52770.75
675.998	52742.95
676.346	52776.39
676.695	52817.98
677.044	52552.67
677.393	52625.44
677.741	52765.1
678.09	52621.82
678.438	52563.97
678.787	52660.47
679.135	52607.36
679.484	52531.66
679.832	52548.38
680.181	52439.45
680.529	52449.17
680.877	52333.24
681.225	52300.93
681.573	52550.64
681.922	52286.92
682.27	52303.86
682.618	52295.05
682.966	52157.88
683.314	52209.4
683.661	52248.5
684.009	52056.41
684.357	51987.26
684.705	51925.12
685.053	51935.06
685.4	51836.53
685.748	51759.7
686.095	51781.39
686.443	51623.88
686.79	51699.13
687.138	51763.54
687.485	51670.66
687.832	51608.97
688.18	51630.66
688.527	51559.93
688.874	51362.65
689.221	51462.08
689.568	51225.7
689.915	51228.41
690.262	51244.68
690.609	51201.29
690.956	51004.01
691.303	51074.52
691.65	50806.28
691.997	50852.83
692.344	50724.02
692.69	50601.08
693.037	50679.73
693.383	50340.07
693.73	50492.39
694.077	50401.77
694.423	50263.69
694.769	50189.8
695.116	50125.62
695.462	50047.88
695.808	49856.02
696.155	50065.28
696.501	49717.72
696.847	49781.9
697.193	49529.47
697.539	49565.86
697.885	49339.87
698.231	49240.89
698.577	49282.25
698.923	49250.61
699.269	48937.63
699.614	48836.16
699.96	48846.1
700.306	48810.62
700.651	48495.15
700.997	48336.74
701.342	48409.96
701.688	48373.12
702.033	48307.13
702.379	48212.45
702.724	47953.7
703.069	48077.31
703.415	47641.16
703.76	47663.31
704.105	47734.27
704.45	47658.56
704.795	47405.24
705.14	47241.85
705.485	47175.86
705.83	46961.41
706.175	47199.59
706.52	46945.59
706.865	46823.33
707.209	46812.94
707.554	46689.1
707.899	46676.89
708.243	46424.47
708.588	46370.01
708.932	46313.74
709.277	46332.5
709.621	46072.84
709.966	45739.07
710.31	45947.87
710.654	45649.8
710.998	45709.69
711.342	45880.3
711.687	45503.14
712.031	45464.04
712.375	45250.04
712.719	45286.87
713.063	45136.6
713.407	45403.71
713.75	45188.8
714.094	45114.22
714.438	44917.62
714.782	44870.61
715.125	44520.79
715.469	44843.27
715.812	44661.81
716.156	44476.27
716.499	44462.49
716.843	44522.15
717.186	44364.41
717.53	44498.65
717.873	44426.56
718.216	44342.49
718.559	44297.75
718.902	43934.14
719.246	44056.62
719.589	43822.51
719.932	43770.98
720.275	43662.51
720.617	43737.54
720.96	43682.62
721.303	43731.43
721.646	43714.03
721.989	43449.63
722.331	43539.35
722.674	43367.6
723.016	43302.75
723.359	43077.44
723.701	43335.29
724.044	42962.87
724.386	42978.46
724.729	43109.76
725.071	43046.71
725.413	42968.74
725.755	42854.4
726.097	42789.31
726.439	42801.52
726.782	42613.95
727.124	42858.92
727.465	42742.08
727.807	42519.72
728.149	42635.87
728.491	42484.24
728.833	42544.8
729.175	42541.86
729.516	42118.14
729.858	42246.73
730.199	42483.33
730.541	42110.69
730.882	42168.54
731.224	42300.74
731.565	42079.95
731.906	42068.65
732.248	42113.4
732.589	41897.13
732.93	41842.9
733.271	41943.01
733.612	41930.58
733.953	42041.54
734.294	41921.76
734.635	41767.19
734.976	41883.12
735.317	41728.55
735.658	41686.52
735.999	41561.77
736.339	41553.19
736.68	41610.81
737.021	41565.16
737.361	41439.74
737.702	41809.9
738.042	41576.69
738.383	41600.87
738.723	41505.96
739.063	41480.65
739.404	41456.69
739.744	41463.25
740.084	41482.68
740.424	41469.57
740.764	41390.71
741.104	41497.37
741.444	41399.97
741.784	41224.38
742.124	41452.4
742.464	41193.87
742.804	41259.41
743.143	41142.8
743.483	41266.41
743.823	41185.06
744.162	41163.59
744.502	41210.15
744.841	41048.57
745.181	41358.39
745.52	41042.47
745.86	41033.88
746.199	41090.83
746.538	40931.73
746.877	41185.51
747.216	41179.41
747.556	41088.57
747.895	41028.91
748.234	41023.03
748.573	40956.59
748.911	40919.76
749.25	40922.47
749.589	40933.09
749.928	40943.71
750.267	40899.19
750.605	41029.13
750.944	41018.96
751.283	40866.65
751.621	40977.16
751.96	40828.69
752.298	40925.63
752.636	40946.42
752.975	40792.76
753.313	40694.45
753.651	40858.74
753.989	40683.83
754.327	40764.06
754.666	40453.78
755.004	40719.99
755.342	40644.74
755.679	40668.46
756.017	40368.81
756.355	40491.07
756.693	40609.48
757.031	40598.41
757.368	40428.47
757.706	40466.66
758.044	40226.22
758.381	40254.24
758.719	40154.13
759.056	40206.56
759.394	40140.57
759.731	39831.65
760.068	39868.49
760.405	39884.08
760.743	39700.58
761.08	39716.17
761.417	39570.19
761.754	39644.31
762.091	39456.29
762.428	39338.33
762.765	39250.2
763.102	39382.62
763.438	39212.23
763.775	39085.68
764.112	39008.62
764.449	38853.37
764.785	38972.46
765.122	38685.69
765.458	38676.88
765.795	38511.91
766.131	38600.5
766.467	38338.81
766.804	38316.21
767.14	38108.76
767.476	38104.46
767.812	37958.25
768.148	38013.17
768.485	37815.21
768.821	37629.22
769.157	37518.94
769.492	37543.12
769.828	37336.57
770.164	37064.04
770.5	36990.37
770.836	37051.84
771.171	36956.02
771.507	36689.59
771.842	36499.99
772.178	36536.82
772.513	36538.18
772.849	36098.87
773.184	36398.29
773.519	36060.9
773.855	35923.28
774.19	35827.46
774.525	35775.49
774.86	35681.7
775.195	35531.42
775.53	35522.16
775.865	35274.26
776.2	35023.87
776.535	34927.82
776.87	34790.65
777.205	34664.78
777.539	34619.13
777.874	34682.18
778.209	34255.53
778.543	34361.29
778.878	34043.78
779.212	34044.91
779.547	33877
779.881	33782.77
780.215	33674.52
780.55	33657.8
780.884	33290.13
781.218	33288.55
781.552	33288.77
781.886	33023.69
782.22	32890.36
782.554	32759.07
782.888	32601.56
783.222	32511.16
783.556	32343.26
783.889	32266.88
784.223	32007
784.557	32041.12
784.89	32123.6
785.224	31818.08
785.557	31650.17
785.891	31708.47
786.224	31559.33
786.558	31505.32
786.891	31307.58
787.224	31055.84
787.557	31044.99
787.891	30996.85
788.224	30740.14
788.557	30798.44
788.89	30681.61
789.223	30483.2
789.556	30462.18
789.888	30347.83
790.221	30172.47
790.554	30100.15
790.887	30089.76
791.219	29872.14
791.552	29875.75
791.884	29708.98
792.217	29686.15
792.549	29520.28
792.882	29303.79
793.214	29247.52
793.546	29185.15
793.879	29229.9
794.211	28878.04
794.543	29033.97
794.875	28829.45
795.207	28736.8
795.539	28757.59
795.871	28706.52
796.203	28563.25
796.535	28362.12
796.867	28375.45
797.198	28001.9
797.53	28113.54
797.862	27909.93
798.193	28054.56
798.525	27832.87
798.856	27928.23
799.188	27448.7
799.519	27488.92
799.85	27423.39
800.182	27396.72
800.513	27380.45
800.844	27098.88
801.175	27253.45
801.506	27221.81
801.837	26976.4
802.168	26877.19
802.499	26895.49
802.83	26737.31
803.161	26683.3
803.491	26557.2
803.822	26760.13
804.153	26433.58
804.483	26259.8
804.814	26165.8
805.145	26198.79
805.475	26187.26
805.805	26114.72
806.136	26116.3
806.466	26016.42
806.796	25985.01
807.126	25599.48
807.457	25754.51
807.787	25785.69
808.117	25586.38
808.447	25517.68
808.777	25632.02
809.107	25310.22
809.436	25277.46
809.766	25296.67
810.096	25270.45
810.426	25099.16
810.755	25182.54
811.085	24950.23
811.414	25096.22
811.744	24853.29
812.073	24931.48
812.403	24743.69
812.732	24726.06
813.061	24808.09
813.39	24605.38
813.719	24459.63
814.049	24596.57
814.378	24516.8
814.707	24351.38
815.036	24351.15
815.365	24169.01
815.693	24055.12
816.022	24067.32
816.351	24064.16
816.68	23891.73
817.008	23952.52
817.337	23755.46
817.665	23816.25
817.994	23832.52
818.322	23842.01
818.651	23666.2
818.979	23572.64
819.307	23673.88
819.636	23575.13
819.964	23526.99
820.292	23510.05
820.62	23522.7
820.948	23496.71
821.276	23561.12
821.604	23358.19
821.932	23633.21
822.259	23411.52
822.587	23484.06
822.915	23463.27
823.243	23427.79
823.57	23298.53
823.898	23464.17
824.225	23395.7
824.553	23372.65
824.88	23442.25
825.207	23479.54
825.535	23370.61
825.862	23415.13
826.189	23328.81
826.516	23600.44
826.843	23477.73
827.17	23467.56
827.497	23567.22
827.824	23507.79
828.151	23475.7
828.478	23388.47
828.805	23566.99
829.131	23562.02
829.458	23491.06
829.785	23249.04
830.111	23378.07
830.438	23530.84
830.764	23477.28
831.09	23387.56
831.417	23283.61
831.743	23328.81
832.069	23315.93
832.395	23304.63
832.722	23391.4
833.048	23282.71
833.374	23415.81
833.7	23265.76
834.026	23387.34
834.351	23296.72
834.677	23282.48
835.003	23216.04
835.329	23163.84
835.654	23208.81
835.98	23056.72
836.306	23216.27
836.631	22986.67
836.956	23226.44
837.282	23201.35
837.607	23052.66
837.932	23077.06
838.258	23009.27
838.583	23084.29
838.908	22944.86
839.233	23023.05
839.558	22838.65
839.883	22788.03
840.208	22722.5
840.533	22856.05
840.858	22749.84
841.182	22727.47
841.507	22629.84
841.832	22505.78
842.156	22642.72
842.481	22524.31
842.805	22480.92
843.13	22355.05
843.454	22389.17
843.778	22182.85
844.103	22179.23
844.427	22213.81
844.751	22298.78
845.075	22084.77
845.399	22129.74
845.723	22043.42
846.047	21988.05
846.371	21913.93
846.695	21754.84
847.019	21626.25
847.343	21572.92
847.666	21456.54
847.99	21319.59
848.313	21318.46
848.637	21257.22
848.96	21240.27
849.284	21217.9
849.607	20962.99
849.931	21010.22
850.254	20829.66
850.577	20721.87
850.9	20572.95
851.223	20609.33
851.546	20529.33
851.869	20425.61
852.192	20552.38
852.515	20234.2
852.838	20213.41
853.161	20213.41
853.483	20050.02
853.806	19990.82
854.129	19958.27
854.451	19901.78
854.774	19775.45
855.096	19802.8
855.419	19645.74
855.741	19679.64
856.063	19563.26
856.385	19426.31
856.708	19381.34
857.03	19450.04
857.352	19330.72
857.674	19276.26
857.996	19249.59
858.318	19073.78
858.64	19085.76
858.961	18942.03
859.283	18941.13
859.605	18867
859.926	18965.76
860.248	18826.78
860.57	18714.47
860.891	18721.25
861.212	18614.13
861.534	18671.75
861.855	18534.13
862.176	18550.18
862.498	18552.21
862.819	18560.57
863.14	18518.54
863.461	18384.98
863.782	18349.05
864.103	18323.97
864.424	18289.17
864.745	18328.49
865.065	18237.64
865.386	18112.9
865.707	18202.39
866.027	18195.16
866.348	18053.24
866.668	18097.31
866.989	18010.76
867.309	17897.54
867.63	17832.23
867.95	17995.16
868.27	17777.54
868.59	17900.93
868.91	17783.64
869.23	17802.85
869.55	17705.23
869.87	17804.66
870.19	17661.16
870.51	17637.21
870.83	17666.58
871.15	17606.25
871.469	17528.28
871.789	17574.61
872.109	17596.98
872.428	17498.9
872.748	17463.2
873.067	17513.82
873.386	17524.67
873.706	17449.41
874.025	17333.03
874.344	17255.97
874.663	17373.03
874.982	17226.6
875.301	17139.37
875.62	17196.09
875.939	17110.21
876.258	17276.09
876.577	17084.45
876.896	17026.83
877.214	17008.3
877.533	17101.4
877.852	17022.31
878.17	17088.75
878.489	17046.49
878.807	16988.41
879.125	16830.67
879.444	16896.43
879.762	16833.84
880.08	16927.62
880.398	16826.83
880.716	16793.16
881.034	16709.32
881.352	16694.63
881.67	16651.92
881.988	16658.47
882.306	16590.45
882.624	16611.92
882.941	16481.3
883.259	16455.09
883.577	16458.93
883.894	16404.92
884.212	16339.84
884.529	16342.1
884.846	16276.34
885.164	16201.76
885.481	16139.62
885.798	16216.23
886.115	16070.69
886.432	16177.36
886.75	16058.94
887.067	16022.11
887.383	15947.76
887.7	15991.6
888.017	15830.25
888.334	15963.8
888.651	15842.68
888.967	15778.05
889.284	15730.59
889.6	15667.31
889.917	15663.92
890.233	15707.09
890.55	15600.42
890.866	15587.54
891.182	15493.08
891.498	15430.48
891.815	15437.26
892.131	15366.76
892.447	15338.06
892.763	15217.38
893.079	15171.73
893.395	15155.24
893.71	15117.5
894.026	15047.67
894.342	14995.47
894.657	14985.52
894.973	14945.98
895.289	14928.35
895.604	14849.26
895.92	14754.34
896.235	14703.05
896.55	14719.77
896.865	14707.34
897.181	14636.61
897.496	14713.44
897.811	14512.77
898.126	14442.94
898.441	14478.87
898.756	14395.03
899.071	14187.13
899.386	14290.18
899.7	14202.95
900.015	14070.07
900.33	14134.25
900.644	14063.51
900.959	13999.11
901.273	13840.47
901.588	13936.51
901.902	13902.61
902.216	13788.95
902.531	13913.69
902.845	13813.13
903.159	13619.46
903.473	13634.37
903.787	13483.19
904.101	13399.13
904.415	13520.25
904.729	13387.15
905.042	13346.92
905.356	13252.69
905.67	13231.22
905.984	13230.54
906.297	13237.1
906.611	13070.09
906.924	13090.43
907.237	13005.01
907.551	13020.15
907.864	12981.96
908.177	12883.88
908.491	12864
908.804	12711.46
909.117	12709.88
909.43	12621.52
909.743	12593.27
910.056	12562.54
910.368	12496.55
910.681	12452.71
910.994	12504.46
911.307	12368.87
911.619	12279.38
911.932	12361.64
912.244	12209.1
912.557	12206.39
912.869	12076
913.181	12053.4
913.494	12010.46
913.806	11971.82
914.118	11889.33
914.43	11924.14
914.742	11839.84
915.054	11758.04
915.366	11736.12
915.678	11643.01
915.99	11619.28
916.302	11457.26
916.613	11509.23
916.925	11465.62
917.236	11467.2
917.548	11399.63
917.859	11365.96
918.171	11342.91
918.482	11233.98
918.794	11204.83
919.105	11115.57
919.416	11088.9
919.727	11092.75
920.038	11022.92
920.349	10948.79
920.66	10893.65
920.971	10875.35
921.282	10812.98
921.593	10785.86
921.903	10753.54
922.214	10699.54
922.525	10646.88
922.835	10649.37
923.146	10550.84
923.456	10474.91
923.767	10456.83
924.077	10419.32
924.387	10348.58
924.697	10279.89
925.008	10244.86
925.318	10168.7
925.628	10283.95
925.938	10203.28
926.248	10087.12
926.558	10006.67
926.867	10013.9
927.177	10015.71
927.487	9921.93
927.796	9883.06
928.106	9807.13
928.416	9809.39
928.725	9778.66
929.034	9710.18
929.344	9716.28
929.653	9744.31
929.962	9641.48
930.271	9582.5
930.581	9471.09
930.89	9485.1
931.199	9419.34
931.508	9396.29
931.817	9362.17
932.125	9306.58
932.434	9297.99
932.743	9187.71
933.051	9143.64
933.36	9148.62
933.669	9076.07
933.977	9092.8
934.286	8989.98
934.594	8964.21
934.902	8935.74
935.21	8912.92
935.519	8833.82
935.827	8870.2
936.135	8748.85
936.443	8710.43
936.751	8667.95
937.059	8661.62
937.367	8571
937.674	8668.85
937.982	8610.55
938.29	8495.53
938.597	8509.31
938.905	8387.96
939.213	8466.15
939.52	8325.81
939.827	8340.95
940.135	8316.09
940.442	8275.19
940.749	8260.96
941.056	8268.41
941.363	8187.74
941.67	8133.5
941.977	8118.13
942.284	8033.62
942.591	7994.07
942.898	7997.23
943.205	7917.24
943.511	7921.53
943.818	7900.06
944.125	7792.27
944.431	7793.4
944.738	7797.46
945.044	7715.66
945.35	7677.69
945.657	7639.05
945.963	7639.73
946.269	7586.85
946.575	7570.58
946.881	7499.62
947.187	7499.17
947.493	7435.89
947.799	7464.14
948.105	7389.11
948.41	7316.57
948.716	7354.31
949.022	7280.87
949.327	7336.69
949.633	7181.66
949.938	7195.22
950.244	7174.88
950.549	7117.71
950.854	7098.95
951.16	7036.13
951.465	7058.5
951.77	7021.67
952.075	7037.26
952.38	6947.09
952.685	6945.51
952.99	6938.28
953.294	6863.03
953.599	6864.16
953.904	6816.25
954.209	6732.18
954.513	6717.94
954.818	6737.83
955.122	6724.5
955.426	6685.18
955.731	6684.95
956.035	6572.86
956.339	6578.97
956.643	6527.67
956.948	6507.1
957.252	6515.01
957.556	6470.04
957.86	6390.95
958.163	6413.09
958.467	6372.42
958.771	6358.63
959.075	6329.25
959.378	6269.14
959.682	6285.19
959.985	6272.98
960.289	6221.46
960.592	6143.72
960.896	6147.11
961.199	6085.65
961.502	6116.38
961.805	6050.62
962.108	6016.95
962.411	6009.94
962.714	5995.25
963.017	5922.71
963.32	5947.57
963.623	5903.95
963.926	5857.85
964.228	5837.52
964.531	5776.27
964.833	5831.19
965.136	5788.93
965.438	5768.37
965.741	5696.05
966.043	5705.99
966.345	5633.23
966.648	5571.31
966.95	5663.96
967.252	5570.63
967.554	5526.56
967.856	5517.98
968.158	5496.28
968.46	5446.11
968.761	5439.11
969.063	5470.97
969.365	5389.62
969.666	5416.28
969.968	5330.64
970.269	5322.05
970.571	5343.52
970.872	5274.82
971.174	5234.59
971.475	5223.07
971.776	5250.41
972.077	5225.1
972.378	5134.48
972.679	5183.07
972.98	5137.2
973.281	5121.38
973.582	5120.47
973.883	5072.79
974.183	5016.97
974.484	5011.1
974.785	4979.69
975.085	4938.78
975.386	4949.86
975.686	4905.34
975.986	4851.1
976.287	4882.06
976.587	4839.12
976.887	4826.02
977.187	4821.27
977.487	4835.51
977.787	4720.71
978.087	4763.19
978.387	4747.6
978.687	4719.13
978.987	4669.41
979.286	4664.89
979.586	4626.25
979.885	4613.82
980.185	4587.83
980.484	4555.29
980.784	4580.83
981.083	4539.7
981.382	4551.9
981.682	4502.64
981.981	4481.17
982.28	4441.85
982.579	4462.41
982.878	4405.46
983.177	4379.48
983.475	4365.01
983.774	4374.05
984.073	4309.19
984.372	4259.03
984.67	4274.62
984.969	4260.16
985.267	4264.22
985.566	4222.64
985.864	4209.76
986.162	4184.68
986.461	4155.07
986.759	4156.66
987.057	4113.95
987.355	4092.25
987.653	4072.14
987.951	4027.85
988.249	4050.22
988.547	4044.12
988.844	4032.37
989.142	3992.82
989.44	3953.27
989.737	3929.54
990.035	3951.46
990.332	3894.52
990.63	3931.13
990.927	3913.5
991.224	3856.33
991.521	3814.07
991.819	3832.6
992.116	3812.48
992.413	3803.22
992.71	3732.94
993.006	3760.73
993.303	3756.67
993.6	3748.53
993.897	3683.67
994.193	3667.86
994.49	3674.41
994.787	3624.47
995.083	3576.56
995.379	3585.6
995.676	3567.07
995.972	3520.06
996.268	3577.69
996.565	3530.68
996.861	3483.45
997.157	3478.26
997.453	3483
997.749	3449.78
998.044	3467.18
998.34	3398.03
998.636	3388.54
998.932	3402.55
999.227	3373.4
999.523	3360.29
999.818	3343.8
1000.114	3294.76
1000.409	3290.69
1000.704	3254.99
1001	3256.11
1001.295	3186.06
1001.59	3201.88
1001.885	3221.54
1002.18	3168.43
1002.475	3181.09
1002.77	3170.47
1003.065	3114.88
1003.359	3119.17
1003.654	3120.07
1003.949	3073.75
1004.243	3083.24
1004.538	3100.41
1004.832	3029.68
1005.127	3006.86
1005.421	2981.32
1005.715	2970.25
1006.009	2929.57
1006.304	2901.32
1006.598	2892.73
1006.892	2876.46
1007.186	2855
1007.48	2853.64
1007.773	2860.42
1008.067	2808.44
1008.361	2803.02
1008.655	2772.96
1008.948	2770.25
1009.242	2783.81
1009.535	2753.76
1009.829	2722.8
1010.122	2690.48
1010.415	2710.14
1010.708	2676.02
1011.001	2689.12
1011.295	2648.45
1011.588	2645.06
1011.881	2597.83
1012.173	2568
1012.466	2577.71
1012.759	2598.51
1013.052	2576.13
1013.344	2558.05
1013.637	2532.29
1013.93	2543.59
1014.222	2494.78
1014.514	2483.71
1014.807	2440.77
1015.099	2430.6
1015.391	2436.02
1015.683	2428.34
1015.976	2364.16
1016.268	2385.63
1016.56	2368.23
1016.851	2310.38
1017.143	2341.56
1017.435	2335.01
1017.727	2307.21
1018.018	2315.35
1018.31	2321.9
1018.602	2267.21
1018.893	2224.73
1019.185	2252.53
1019.476	2215.24
1019.767	2203.26
1020.058	2194.22
1020.35	2183.15
1020.641	2149.25
1020.932	2133.66
1021.223	2131.85
1021.514	2104.96
1021.804	2099.76
1022.095	2068.58
1022.386	2073.32
1022.677	2055.47
1022.967	2043.94
1023.258	2005.98
1023.548	2004.85
1023.839	1980.44
1024.129	1992.87
1024.419	1998.75
1024.709	1955.81
1025	1928.01
1025.29	1931.63
1025.58	1918.97
1025.87	1881.24
1026.16	1877.39
1026.449	1885.76
1026.739	1855.02
1027.029	1868.81
1027.319	1831.52
1027.608	1852.99
1027.898	1798.98
1028.187	1803.5
1028.477	1782.26
1028.766	1760.56
1029.055	1749.26
1029.344	1728.7
1029.634	1732.99
1029.923	1708.59
1030.212	1699.32
1030.501	1689.6
1030.79	1678.98
1031.078	1660.9
1031.367	1634.69
1031.656	1659.55
1031.945	1633.78
1032.233	1653.22
1032.522	1610.51
1032.81	1603.05
1033.099	1576.61
1033.387	1572.09
1033.675	1548.59
1033.963	1546.56
1034.251	1514.92
1034.54	1528.7
1034.828	1520.79
1035.116	1522.38
1035.403	1483.05
1035.691	1497.29
1035.979	1478.08
1036.267	1452.77
1036.554	1455.94
1036.842	1470.4
1037.129	1422.72
1037.417	1412.1
1037.704	1438.08
1037.992	1418.88
1038.279	1381.36
1038.566	1390.85
1038.853	1390.85
1039.14	1390.85
