Data from 14-1119_FLMS001491_003.txt Node
Date: Thu Apr 19 16:09:43 BST 2018
User: hsy
Spectrometer: FLMS00149
Trigger mode: 0
Integration Time (sec): 1.000000E-2
Scans to average: 10
Electric dark correction enabled: true
Nonlinearity correction enabled: false
Boxcar width: 0
XAxis mode: Wavelengths
Number of Pixels in Spectrum: 2048
>>>>>Begin Spectral Data<<<<<
341.393	-5.54
341.776	-5.54
342.16	-5.54
342.543	-28.59
342.927	-49.83
343.31	-84.18
343.693	-76.5
344.077	-59.32
344.46	-48.25
344.843	-45.76
345.226	-54.35
345.61	-30.85
345.993	-9.38
346.376	-1.24
346.759	-0.34
347.142	28.36
347.525	55.25
347.908	66.78
348.291	66.33
348.674	89.38
349.057	104.07
349.44	121.92
349.823	138.41
350.206	162.82
350.588	224.74
350.971	236.94
351.354	273.33
351.737	286.21
352.119	281.24
352.502	298.86
352.884	305.42
353.267	318.3
353.65	320.56
354.032	337.51
354.414	333.44
354.797	340.22
355.179	341.12
355.562	372.31
355.944	365.75
356.326	374.57
356.709	378.86
357.091	395.36
357.473	372.31
357.855	363.95
358.238	395.36
358.62	372.53
359.002	370.05
359.384	368.92
359.766	385.87
360.148	367.11
360.53	388.35
360.912	386.32
361.294	372.76
361.676	367.56
362.057	378.41
362.439	358.97
362.821	386.77
363.203	374.57
363.584	361.23
363.966	390.16
364.348	379.54
364.729	369.82
365.111	370.5
365.493	384.51
365.874	356.26
366.256	353.55
366.637	368.46
367.019	354.68
367.4	367.33
367.781	361.46
368.163	393.55
368.544	355.58
368.925	368.01
369.306	346.77
369.688	365.98
370.069	385.64
370.45	379.99
370.831	359.2
371.212	375.47
371.593	377.73
371.974	364.85
372.355	368.24
372.736	384.28
373.117	376.15
373.498	375.02
373.879	375.24
374.26	364.85
374.641	362.82
375.021	364.62
375.402	387.67
375.783	398.97
376.163	412.08
376.544	396.49
376.925	401.01
377.305	388.13
377.686	404.85
378.066	383.38
378.447	398.75
378.827	372.76
379.208	410.05
379.588	407.11
379.968	383.83
380.349	397.16
380.729	390.16
381.109	397.16
381.489	403.72
381.87	411.4
382.25	390.16
382.63	429.93
383.01	423.15
383.39	428.8
383.77	427.9
384.15	413.21
384.53	428.58
384.91	421.57
385.29	436.49
385.67	431.29
386.049	439.65
386.429	449.82
386.809	432.87
387.189	450.72
387.568	447.56
387.948	434.23
388.328	457.28
388.707	452.3
389.087	445.98
389.466	450.95
389.846	459.08
390.225	466.09
390.605	497.5
390.984	491.4
391.363	471.51
391.743	465.41
392.122	481.23
392.501	479.2
392.881	498.4
393.26	480.55
393.639	507.9
394.018	516.71
394.397	508.57
394.776	518.29
395.155	511.96
395.534	523.72
395.913	529.36
396.292	527.1
396.671	511.96
397.05	513.77
397.429	532.98
397.808	548.8
398.186	560.55
398.565	540.44
398.944	551.51
399.323	550.83
399.701	532.08
400.08	559.19
400.458	568.91
400.837	572.75
401.215	579.08
401.594	579.31
401.972	588.8
402.351	583.83
402.729	574.56
403.107	593.54
403.486	617.72
403.864	591.51
404.242	594.22
404.62	601.91
404.999	617.05
405.377	638.97
405.755	619.31
406.133	635.8
406.511	649.36
406.889	635.35
407.267	674.45
407.645	689.13
408.023	671.51
408.401	678.51
408.779	683.48
409.156	690.72
409.534	701.56
409.912	735.46
410.29	743.82
410.667	737.49
411.045	752.86
411.422	768.23
411.8	740.88
412.178	769.13
412.555	784.05
412.933	818.62
413.31	822.92
413.687	834.44
414.065	867.66
414.442	848.23
414.819	854.78
415.197	850.49
415.574	871.28
415.951	879.64
416.328	889.13
416.705	912.63
417.082	907.89
417.46	924.16
417.837	889.13
418.214	923.93
418.591	968.45
418.967	963.03
419.344	991.05
419.721	971.84
420.098	973.87
420.475	1003.02
420.852	1005.74
421.228	1005.74
421.605	1022.91
421.982	1045.28
422.358	1034.44
422.735	1049.12
423.111	1055.9
423.488	1097.94
423.864	1082.12
424.241	1091.61
424.617	1126.19
424.994	1104.49
425.37	1129.8
425.746	1080.08
426.123	1146.3
426.499	1160.53
426.875	1141.33
427.251	1168.22
427.627	1172.74
428.003	1203.92
428.379	1206.86
428.756	1207.54
429.132	1243.92
429.507	1259.06
429.883	1262
430.259	1301.1
430.635	1311.94
431.011	1311.26
431.387	1349
431.763	1368.44
432.138	1336.12
432.514	1370.02
432.89	1406.86
433.265	1435.78
433.641	1439.85
434.016	1422.9
434.392	1473.29
434.767	1489.34
435.143	1496.8
435.518	1501.32
435.894	1518.72
436.269	1551.03
436.644	1552.84
437.02	1565.27
437.395	1561.88
437.77	1648.21
438.145	1623.35
438.52	1640.07
438.895	1625.83
439.271	1646.17
439.646	1659.73
440.021	1717.58
440.395	1711.25
440.77	1708.32
441.145	1689.11
441.52	1724.14
441.895	1732.27
442.27	1750.8
442.645	1744.25
443.019	1782.89
443.394	1752.61
443.769	1808.88
444.143	1817.92
444.518	1842.32
444.892	1829.67
445.267	1826.96
445.641	1845.04
446.016	1863.11
446.39	1888.2
446.764	1881.65
447.139	1869.67
447.513	1917.12
447.887	1941.53
448.262	1941.3
448.636	1939.95
449.01	1943.34
449.384	1969.78
449.758	1992.6
450.132	2028.08
450.506	1998.03
450.88	2058.14
451.254	2039.83
451.628	2072.83
452.002	2084.13
452.376	2142.2
452.75	2125.93
453.123	2156.44
453.497	2164.58
453.871	2170.9
454.244	2212.94
454.618	2192.37
454.992	2245.03
455.365	2282.31
455.739	2314.63
456.112	2398.92
456.486	2387.62
456.859	2382.2
457.232	2408.64
457.606	2447.51
457.979	2528.18
458.352	2502.87
458.725	2577.45
459.099	2571.8
459.472	2634.62
459.845	2661.96
460.218	2633.49
460.591	2754.16
460.964	2714.84
461.337	2734.5
461.71	2791.23
462.083	2845.46
462.456	2833.03
462.829	2873.48
463.201	2934.27
463.574	2907.38
463.947	2943.09
464.32	2992.35
464.692	3035.51
465.065	3066.02
465.438	3103.08
465.81	3080.48
466.183	3157.54
466.555	3183.08
466.928	3221.5
467.3	3267.15
467.672	3281.61
468.045	3377.65
468.417	3379.23
468.789	3380.59
469.161	3411.55
469.534	3472.79
469.906	3567.93
470.278	3574.71
470.65	3600.47
471.022	3681.82
471.394	3725.89
471.766	3745.78
472.138	3769.96
472.51	3894.93
472.882	3916.17
473.253	3921.82
473.625	4014.47
473.997	4119.1
474.369	4138.54
474.74	4144.64
475.112	4228.25
475.484	4315.71
475.855	4349.38
476.227	4444.06
476.598	4531.07
476.97	4562.7
477.341	4674.34
477.713	4739.42
478.084	4815.13
478.455	4919.76
478.827	4948.46
479.198	5116.81
479.569	5132.86
479.94	5211.5
480.311	5295.79
480.682	5402.91
481.053	5486.97
481.424	5631.6
481.795	5696.01
482.166	5763.58
482.537	5901.2
482.908	5955.66
483.279	6071.59
483.65	6225.94
484.021	6267.97
484.391	6390.23
484.762	6458.02
485.133	6545.93
485.503	6661.41
485.874	6842.87
486.244	6888.29
486.615	7043.09
486.985	7131
487.356	7286.48
487.726	7360.15
488.097	7568.28
488.467	7614.38
488.837	7813.47
489.207	7886.69
489.578	8000.35
489.948	8246.45
490.318	8338.42
490.688	8446.67
491.058	8599.89
491.428	8738.64
491.798	8865.64
492.168	9032.64
492.538	9144.28
492.908	9327.1
493.278	9471.95
493.648	9463.37
494.017	9709.01
494.387	9832.4
494.757	9976.57
495.126	10137.02
495.496	10216.34
495.866	10353.97
496.235	10438.03
496.605	10546.05
496.974	10655.2
497.344	10863.33
497.713	10996.43
498.082	11122.98
498.452	11313.94
498.821	11436.42
499.19	11394.62
499.559	11647.94
499.928	11780.14
500.298	11940.36
500.667	12024.43
501.036	12083.41
501.405	12263.29
501.774	12412.44
502.143	12571.08
502.512	12724.52
502.88	12902.6
503.249	12916.38
503.618	13086.55
503.987	13074.57
504.356	13396.37
504.724	13529.93
505.093	13560.66
505.462	13651.28
505.83	13867.54
506.199	14086.07
506.567	14193.19
506.936	14172.62
507.304	14506.4
507.672	14573.29
508.041	14627.3
508.409	14882.66
508.777	15040.62
509.145	15076.33
509.514	15144.8
509.882	15309.77
510.25	15472.25
510.618	15653.71
510.986	15689.42
511.354	15899.36
511.722	16023.65
512.09	16230.42
512.458	16203.08
512.826	16448.04
513.193	16511.54
513.561	16669.51
513.929	16813.23
514.297	16861.36
514.664	17097.52
515.032	17276.95
515.4	17410.28
515.767	17497.05
516.135	17686.43
516.502	17592.64
516.869	17898.85
517.237	17994.44
517.604	17994.67
517.972	18340.2
518.339	18366.18
518.706	18437.14
519.073	18617.93
519.44	18706.97
519.808	18963
520.175	19026.05
520.542	19314.86
520.909	19393.95
521.276	19492.93
521.643	19767.28
522.009	19802.98
522.376	19942.64
522.743	20100.38
523.11	20279.81
523.477	20604.99
523.843	20726.35
524.21	20944.2
524.577	21141.03
524.943	21206.79
525.31	21291.08
525.676	21516.16
526.043	21818.97
526.409	21747.56
526.776	22071.4
527.142	22201.34
527.508	22305.97
527.874	22574.21
528.241	22712.74
528.607	22727.2
528.973	23121.54
529.339	23087.87
529.705	23375.77
530.071	23563.79
530.437	23670
530.803	23691.24
531.169	23912.25
531.535	23955.87
531.901	24177.56
532.267	24208.29
532.632	24375.97
532.998	24473.14
533.364	24762.63
533.73	24709.52
534.095	24997.2
534.461	24986.12
534.826	25106.57
535.192	25161.03
535.557	25364.19
535.923	25394.02
536.288	25516.96
536.653	25649.16
537.019	25558.31
537.384	25794.69
537.749	25893.22
538.114	26016.83
538.479	26042.37
538.845	26088.47
539.21	26080.33
539.575	26268.57
539.94	26301.34
540.305	26488.46
540.67	26427.67
541.034	26614.1
541.399	26652.29
541.764	26662.91
542.129	26811.84
542.494	26824.49
542.858	27000.76
543.223	26967.31
543.587	27238.04
543.952	27122.56
544.316	27241.66
544.681	27302.67
545.045	27355.1
545.41	27602.78
545.774	27466.96
546.138	27583.79
546.503	27716.45
546.867	27704.24
547.231	27874.86
547.595	27946.72
547.959	27969.55
548.324	28032.37
548.688	28184.68
549.052	28205.02
549.416	28270.78
549.779	28216.09
550.143	28294.74
550.507	28649.76
550.871	28635.52
551.235	28573.82
551.599	28874.38
551.962	28878.68
552.326	29056.07
552.689	29039.35
553.053	28959.13
553.417	29026.24
553.78	29436.4
554.143	29351.21
554.507	29464.42
554.87	29453.35
555.234	29805.88
555.597	29606.34
555.96	29708.26
556.323	29892.89
556.686	29831.42
557.05	30151.64
557.413	30244.06
557.776	30178.08
558.139	30482.25
558.502	30447.45
558.865	30519.54
559.228	30813.99
559.59	30873.43
559.953	30943.93
560.316	31254.88
560.679	31287.43
561.041	31371.94
561.404	31535.1
561.767	31824.13
562.129	31680.41
562.492	31988.2
562.854	32078.59
563.217	32033.62
563.579	32107.29
563.941	32316.1
564.304	32410.33
564.666	32719.25
565.028	32695.3
565.39	32938.91
565.753	32957.44
566.115	33068.4
566.477	33130.99
566.839	33333.7
567.201	33644.88
567.563	33652.79
567.925	33985.66
568.287	33869.28
568.648	34009.61
569.01	34382.03
569.372	34539.32
569.734	34426.1
570.095	34749.71
570.457	34948.12
570.819	34995.8
571.18	35044.84
571.542	35337.71
571.903	35362.57
572.265	35515.79
572.626	35753.3
572.987	35756.01
573.349	36064.93
573.71	36273.96
574.071	36326.16
574.432	36485.48
574.794	36816.55
575.155	37014.51
575.516	36887.5
575.877	37092.7
576.238	37093.6
576.599	37353.93
576.96	37481.61
577.32	37605.68
577.681	37894.48
578.042	38112.78
578.403	38063.52
578.763	38133.57
579.124	38250.86
579.485	38674.35
579.845	38819.21
580.206	38778.3
580.566	38857.17
580.927	38969.71
581.287	39274.11
581.648	39226.65
582.008	39439.75
582.368	39660.77
582.728	39811.27
583.089	39723.36
583.449	40066.63
583.809	40228.66
584.169	40371.03
584.529	40473.17
584.889	41045.14
585.249	40915.65
585.609	40837.91
585.969	41269.31
586.329	41238.35
586.688	41535.29
587.048	41662.97
587.408	41846.02
587.768	41992.23
588.127	42282.84
588.487	42179.12
588.846	42763.73
589.206	42533.23
589.565	42775.26
589.925	43264.51
590.284	43281.46
590.643	43453.66
591.003	43746.53
591.362	44063.14
591.721	43990.59
592.08	44260.19
592.44	44579.96
592.799	44638.26
593.158	44946.73
593.517	45081.87
593.876	45317.34
594.235	45398.69
594.593	45724.56
594.952	45821.28
595.311	45977.44
595.67	46158.9
596.029	46476.86
596.387	46651.54
596.746	46920.46
597.104	47020.8
597.463	47032.1
597.822	47498.53
598.18	47487.9
598.538	47588.47
598.897	47928.57
599.255	47816.93
599.613	48545.28
599.972	48374.66
600.33	48512.96
600.688	48700.3
601.046	48800.64
601.404	49256.9
601.762	49358.59
602.12	49443.33
602.478	49736.66
602.836	49714.51
603.194	49660.95
603.552	49941.85
603.91	49991.34
604.268	50292.35
604.625	50324.67
604.983	50507.49
605.341	50534.38
605.698	50848.49
606.056	51053.91
606.413	51006.68
606.771	51265.43
607.128	51408.93
607.485	51380.91
607.843	51418.87
608.2	51708.58
608.557	51851.4
608.914	51951.52
609.272	52057.5
609.629	52326.65
609.986	52409.13
610.343	52356.93
610.7	52696.35
611.057	52623.59
611.414	52701.1
611.771	52955.33
612.127	53116
612.484	53086.17
612.841	53233.97
613.198	53207.08
613.554	53257.92
613.911	53565.26
614.267	53619.04
614.624	53616.56
614.98	53788.76
615.337	53988.3
615.693	53922.99
616.05	54057.45
616.406	54144.23
616.762	54120.5
617.118	54290.21
617.475	54293.15
617.831	54489.75
618.187	54568.4
618.543	54634.16
618.899	54765
619.255	54691.78
619.611	54702.4
619.967	54845.45
620.323	54974.03
620.678	54886.58
621.034	54916.86
621.39	55017.42
621.746	54957.76
622.101	55278.43
622.457	55088.61
622.812	55224.65
623.168	55415.15
623.523	55313.46
623.879	55390.97
624.234	55353.69
624.589	55427.36
624.945	55429.62
625.3	55519.78
625.655	55595.49
626.01	55579.44
626.365	55640.91
626.72	55591.42
627.075	55516.85
627.43	55599.1
627.785	55618.99
628.14	55627.8
628.495	55643.62
628.85	55708.93
629.205	55642.49
629.559	55746.22
629.914	55686.33
630.269	55720
630.623	55552.32
630.978	55495.38
631.332	55690.17
631.687	55649.72
632.041	55561.14
632.396	55652.89
632.75	55621.02
633.104	55631.42
633.459	55479.78
633.813	55481.82
634.167	55549.84
634.521	55548.93
634.875	55592.55
635.229	55507.13
635.583	55410.63
635.937	55394.14
636.291	55402.27
636.645	55429.16
636.999	55301.03
637.352	55438.66
637.706	55210.41
638.06	55417.19
638.413	55283.18
638.767	55171.32
639.121	55246.12
639.474	55170.41
639.828	55115.73
640.181	55185.33
640.534	55139.23
640.888	55112.56
641.241	54904.88
641.594	55025.56
641.947	55122.51
642.301	54932
642.654	55034.15
643.007	54933.13
643.36	54993.02
643.713	54870.08
644.066	54969.52
644.419	54739.01
644.771	54461.05
645.124	54217.22
645.477	54170.44
645.83	54008.64
646.182	54068.75
646.535	53948.75
646.888	54002.53
647.24	53984.46
647.593	54058.35
647.945	53988.98
648.298	53919.6
648.65	53807.06
649.002	53657.69
649.355	53728.19
649.707	53687.29
650.059	53564.35
650.411	53924.12
650.763	54216.99
651.115	54565.46
651.467	54374.73
651.819	54432.35
652.171	54363.88
652.523	54173.15
652.875	54293.6
653.227	54165.92
653.578	54360.27
653.93	54210.89
654.282	54122.31
654.633	54115.07
654.985	54215.86
655.337	54194.17
655.688	54143.32
656.039	54257.44
656.391	53928.19
656.742	54060.16
657.094	53989.43
657.445	54076.43
657.796	54081.18
658.147	53927.96
658.498	54071.46
658.849	54043.44
659.2	53931.8
659.551	53876.44
659.902	53993.72
660.253	53932.71
660.604	54007.73
660.955	53832.82
661.306	53964.8
661.656	53791.69
662.007	53818.13
662.358	53841.18
662.708	53862.65
663.059	53709.89
663.409	53707.4
663.76	53814.29
664.11	53786.5
664.461	53839.15
664.811	53774.07
665.161	53817.91
665.511	53668.53
665.862	53770.9
666.212	53747.85
666.562	53883.67
666.912	53733.62
667.262	53688.42
667.612	53691.36
667.962	53754.63
668.312	53636.89
668.662	53887.51
669.011	53781.3
669.361	53654.3
669.711	53798.7
670.06	53714.18
670.41	53704.01
670.76	53562.77
671.109	53768.64
671.459	53685.03
671.808	53611.58
672.157	53667.63
672.507	53521.87
672.856	53444.81
673.205	53559.16
673.554	53661.53
673.904	53459.95
674.253	53737.46
674.602	53477.35
674.951	53170.01
675.3	52962.11
675.649	53569.1
675.998	53443.23
676.346	53534.07
676.695	53431.93
677.044	53345.38
677.393	53292.5
677.741	53362.1
678.09	53216.34
678.438	53273.74
678.787	53370.69
679.135	53349.67
679.484	53142.22
679.832	53270.35
680.181	53118.26
680.529	53205.04
680.877	53148.55
681.225	53093.86
681.573	53292.05
681.922	53083.24
682.27	52992.84
682.618	53010.47
682.966	52976.12
683.314	52899.51
683.661	52938.16
684.009	52845.05
684.357	52692.29
684.705	52667.88
685.053	52788.1
685.4	52638.95
685.748	52586.53
686.095	52556.7
686.443	52365.29
686.79	52476.47
687.138	52540.2
687.485	52464.27
687.832	52358.96
688.18	52302.47
688.527	52287.33
688.874	52358.51
689.221	52353.31
689.568	52098.86
689.915	52076.71
690.262	52159.19
690.609	51953.1
690.956	51816.38
691.303	51975.24
691.65	51685.99
691.997	51769.83
692.344	51552.2
692.69	51564.86
693.037	51530.51
693.383	51299.1
693.73	51506.1
694.077	51114.93
694.423	51284.87
694.769	51116.28
695.116	51047.36
695.462	50974.59
695.808	50840.36
696.155	50926.01
696.501	50651.89
696.847	50872.67
697.193	50495.96
697.539	50546.81
697.885	50355.63
698.231	50297.32
698.577	50077.89
698.923	50234.72
699.269	49968.06
699.614	49859.59
699.96	49755.19
700.306	49852.81
700.651	49519.94
700.997	49456.89
701.342	49448.76
701.688	49284.92
702.033	49206.28
702.379	49259.61
702.724	49032.72
703.069	49169.22
703.415	48689.68
703.76	48718.61
704.105	48667.76
704.45	48657.14
704.795	48456.01
705.14	48364.72
705.485	48378.05
705.83	48132.86
706.175	48248.56
706.52	48019.42
706.865	47936.71
707.209	47729.03
707.554	47708.69
707.899	47697.84
708.243	47522.71
708.588	47502.14
708.932	47246.33
709.277	47355.25
709.621	47280.45
709.966	46949.16
710.31	47030.29
710.654	46629.4
710.998	46875.26
711.342	46825.1
711.687	46677.08
712.031	46558.89
712.375	46405.67
712.719	46372.9
713.063	46339.46
713.407	46473.47
713.75	46211.78
714.094	46062.4
714.438	45956.87
714.782	45992.35
715.125	45754.62
715.469	46033.93
715.812	45599.14
716.156	45508.07
716.499	45559.59
716.843	45674.62
717.186	45423.78
717.53	45633.94
717.873	45716.43
718.216	45396.66
718.559	45224.46
718.902	44914.64
719.246	45107.4
719.589	45036.67
719.932	44863.11
720.275	44870.8
720.617	45062.66
720.96	44836.9
721.303	44871.48
721.646	44854.98
721.989	44532.28
722.331	44758.48
722.674	44603.69
723.016	44533.86
723.359	44339.74
723.701	44471.49
724.044	44246.86
724.386	44124.6
724.729	44300.64
725.071	44150.14
725.413	44131.61
725.755	43968.22
726.097	44011.16
726.439	43749.02
726.782	43736.82
727.124	44045.28
727.465	43817.27
727.807	43765.06
728.149	43789.47
728.491	43649.13
728.833	43696.82
729.175	43572.98
729.516	43510.38
729.858	43383.38
730.199	43617.5
730.541	43596.48
730.882	43349.71
731.224	43467.22
731.565	43261.8
731.906	43278.98
732.248	43334.11
732.589	43027.68
732.93	42986.33
733.271	43046.44
733.612	43080.34
733.953	43061.35
734.294	42930.06
734.635	42984.07
734.976	43011.41
735.317	42863.84
735.658	42842.83
735.999	42831.53
736.339	42792.21
736.68	42872.21
737.021	42679.22
737.361	42674.47
737.702	42909.49
738.042	42683.51
738.383	42733.23
738.723	42751.31
739.063	42485.55
739.404	42675.83
739.744	42516.28
740.084	42440.13
740.424	42539.79
740.764	42412.33
741.104	42677.63
741.444	42364.65
741.784	42246.46
742.124	42433.35
742.464	42352.67
742.804	42330.07
743.143	42068.84
743.483	42395.38
743.823	42209.4
744.162	42159
744.502	42268.83
744.841	42165.56
745.181	42270.41
745.52	42188.16
745.86	42245.78
746.199	42174.37
746.538	42181.15
746.877	42262.5
747.216	42248.49
747.556	42205.78
747.895	42177.99
748.234	42184.77
748.573	42087.37
748.911	41947.26
749.25	42122.85
749.589	41872.68
749.928	41961.27
750.267	42100.7
750.605	42037.65
750.944	41996.52
751.283	41947.94
751.621	42050.31
751.96	41817.32
752.298	41801.5
752.636	41925.11
752.975	41757.89
753.313	41696.87
753.651	41952.23
753.989	41727.6
754.327	41808.73
754.666	41540.72
755.004	41705.01
755.342	41785.23
755.679	41645.12
756.017	41564.22
756.355	41653.93
756.693	41553.82
757.031	41605.8
757.368	41366.71
757.706	41348.18
758.044	41267.73
758.381	41392.92
758.719	41163.32
759.056	41126.26
759.394	41088.07
759.731	40920.17
760.068	40930.56
760.405	40948.87
760.743	40792.49
761.08	40829.32
761.417	40624.13
761.754	40499.16
762.091	40543
762.428	40281.99
762.765	40217.81
763.102	40298.26
763.438	40081.09
763.775	40138.49
764.112	39985.05
764.449	39867.09
764.785	39843.36
765.122	39689.01
765.458	39526.76
765.795	39569.69
766.131	39330.6
766.467	39274.11
766.804	39198.4
767.14	39069.82
767.476	38929.26
767.812	38817.17
768.148	39001.35
768.485	38767.46
768.821	38522.72
769.157	38452.44
769.492	38378.54
769.828	38218.77
770.164	38062.16
770.5	38067.59
770.836	38023.75
771.171	37874.6
771.507	37699.46
771.842	37429.86
772.178	37585.11
772.513	37416.53
772.849	37237.1
773.184	37141.06
773.519	37150.32
773.855	36790.56
774.19	36810.22
774.525	36680.73
774.86	36465.14
775.195	36436.44
775.53	36291.81
775.865	36015.44
776.2	36028.77
776.535	35697.48
776.87	35720.08
777.205	35514.89
777.539	35395.11
777.874	35344.27
778.209	35076.93
778.543	35001.23
778.878	34867.67
779.212	34982.24
779.547	34775.02
779.881	34735.92
780.215	34372.32
780.55	34472.2
780.884	34246.9
781.218	34090.97
781.552	34246.44
781.886	33907.02
782.22	33736.63
782.554	33569.4
782.888	33343.64
783.222	33379.57
783.556	33139.13
783.889	33127.83
784.223	32820.72
784.557	32859.81
784.89	32917.21
785.224	32504.8
785.557	32405.59
785.891	32483.1
786.224	32422.09
786.558	32305.93
786.891	31961.53
787.224	31973.28
787.557	31848.54
787.891	31771.03
788.224	31576.23
788.557	31609.9
788.89	31483.35
789.223	31472.73
789.556	31226.86
789.888	31181.67
790.221	31054.89
790.554	30745.07
790.887	30809.25
791.219	30603.83
791.552	30551.85
791.884	30450.39
792.217	30394.79
792.549	30329.26
792.882	29953.68
793.214	29957.07
793.546	30054.46
793.879	29898.76
794.211	29630.07
794.543	29807.69
794.875	29682.04
795.207	29576.51
795.539	29386.23
795.871	29465.1
796.203	29285.44
796.535	29108.95
796.867	29023.3
797.198	28931.56
797.53	28911.67
797.862	28663.77
798.193	28810.65
798.525	28488.86
798.856	28570.44
799.188	28289.99
799.519	28245.47
799.85	28198.92
800.182	28106.94
800.513	28129.77
800.844	27779.72
801.175	27981.07
801.506	27962.54
801.837	27770.68
802.168	27652.49
802.499	27673.74
802.83	27376.79
803.161	27419.96
803.491	27349.45
803.822	27412.05
804.153	27178.83
804.483	27004.15
804.814	26842.12
805.145	26872.85
805.475	26913.53
805.805	26800.54
806.136	26850.25
806.466	26578.4
806.796	26642.35
807.126	26466.76
807.457	26321.23
807.787	26405.29
808.117	26222.47
808.447	26137.5
808.777	26314.45
809.107	25921.24
809.436	25948.81
809.766	25975.02
810.096	26001.01
810.426	25743.39
810.755	25905.19
811.085	25739.55
811.414	25747.01
811.744	25568.71
812.073	25529.39
812.403	25515.37
812.732	25269.73
813.061	25422.27
813.39	25241.94
813.719	25198.77
814.049	25240.58
814.378	25195.61
814.707	25003.75
815.036	25013.47
815.365	24857.54
815.693	24614.83
816.022	24719.46
816.351	24529.41
816.68	24450.77
817.008	24619.13
817.337	24418.23
817.665	24431.79
817.994	24389.3
818.322	24426.82
818.651	24363.31
818.979	24246.93
819.307	24329.87
819.636	24186.82
819.964	24069.76
820.292	24127.39
820.62	24054.62
820.948	24107.05
821.276	24244.9
821.604	24071.12
821.932	24212.13
822.259	24029.54
822.587	24079.93
822.915	23981.18
823.243	24025.92
823.57	23873.38
823.898	24199.25
824.225	23988.63
824.553	23881.97
824.88	24057.79
825.207	24055.75
825.535	23893.72
825.862	24068.41
826.189	23905.02
826.516	24104.56
826.843	24125.81
827.17	24134.62
827.497	24038.35
827.824	24038.13
828.151	24117.67
828.478	24004.91
828.805	24113.15
829.131	24098.24
829.458	24118.57
829.785	23862.76
830.111	23948.41
830.438	24155.41
830.764	24057.33
831.09	24152.47
831.417	23880.39
831.743	24117.9
832.069	23926.26
832.395	23908.41
832.722	24041.06
833.048	23885.81
833.374	23917.9
833.7	23817.57
834.026	23838.58
834.351	23829.09
834.677	23959.93
835.003	23851.24
835.329	23846.49
835.654	23928.98
835.98	23682.2
836.306	23673.61
836.631	23658.47
836.956	23809.2
837.282	23704.57
837.607	23657.57
837.932	23599.27
838.258	23601.07
838.583	23544.58
838.908	23453.06
839.233	23518.82
839.558	23427.75
839.883	23494.18
840.208	23238.15
840.533	23333.28
840.858	23369.22
841.182	23373.74
841.507	23282.44
841.832	23194.53
842.156	23176
842.481	23211.03
842.805	23001.77
843.13	22988.44
843.454	23000.41
843.778	22907.31
844.103	22927.42
844.427	22808.78
844.751	22816.24
845.075	22734.2
845.399	22695.56
845.723	22537.83
846.047	22515
846.371	22473.65
846.695	22415.12
847.019	22301.9
847.343	22149.59
847.666	22082.24
847.99	21926.09
848.313	21858.97
848.637	21838.41
848.96	21711.86
849.284	21828.92
849.607	21519.1
849.931	21594.35
850.254	21477.06
850.577	21315.26
850.9	21171.53
851.223	21115.49
851.546	21083.4
851.869	20980.13
852.192	21094.47
852.515	20721.6
852.838	20628.72
853.161	20722.28
853.483	20562.74
853.806	20496.98
854.129	20521.83
854.451	20359.35
854.774	20286.81
855.096	20274.16
855.419	20222.86
855.741	20221.28
856.063	20069.19
856.385	20042.75
856.708	20022.86
857.03	19830.55
857.352	19841.63
857.674	19917.33
857.996	19657.22
858.318	19510.11
858.64	19630.78
858.961	19561.86
859.283	19444.8
859.605	19348.98
859.926	19467.85
860.248	19267.63
860.57	19269.44
860.891	19325.48
861.212	19191.25
861.534	18999.39
861.855	19035.09
862.176	19107.41
862.498	19096.56
862.819	19046.84
863.14	18945.83
863.461	18880.75
863.782	18836.23
864.103	18914.87
864.424	18730.02
864.745	18827.41
865.065	18689.57
865.386	18594.2
865.707	18541.09
866.027	18633.3
866.348	18489.8
866.668	18545.39
866.989	18520.3
867.309	18383.81
867.63	18369.35
867.95	18405.96
868.27	18316.02
868.59	18384.49
868.91	18283.7
869.23	18246.64
869.55	18109.02
869.87	18306.52
870.19	18140.43
870.51	18139.07
870.83	18097.26
871.15	18042.8
871.469	18044.16
871.789	18080.77
872.109	18059.07
872.428	17918.51
872.748	17943.37
873.067	17917.61
873.386	17834.22
873.706	17816.82
874.025	17826.08
874.344	17771.62
874.663	17738.18
874.982	17771.85
875.301	17730.72
875.62	17620.67
875.939	17628.8
876.258	17595.36
876.577	17557.39
876.896	17534.34
877.214	17530.05
877.533	17490.95
877.852	17411.63
878.17	17418.86
878.489	17463.61
878.807	17363.5
879.125	17353.33
879.444	17295.03
879.762	17268.36
880.08	17263.39
880.398	17235.59
880.716	17131.41
881.034	17141.13
881.352	17142.94
881.67	17137.29
881.988	17122.37
882.306	16995.15
882.624	17044.18
882.941	17008.71
883.259	16976.62
883.577	16835.83
883.894	16865.21
884.212	16808.48
884.529	16680.35
884.846	16747.02
885.164	16573.24
885.481	16673.8
885.798	16605.1
886.115	16555.16
886.432	16554.25
886.75	16496.63
887.067	16517.64
887.383	16436.97
887.7	16451.66
888.017	16288.72
888.334	16330.98
888.651	16213.02
888.967	16175.28
889.284	16231.55
889.6	16007.38
889.917	15961.05
890.233	16134.83
890.55	16031.78
890.866	15987.26
891.182	15947.72
891.498	15876.76
891.815	15790.21
892.131	15681.28
892.447	15692.13
892.763	15639.93
893.079	15601.51
893.395	15542.53
893.71	15544.11
894.026	15418.46
894.342	15412.82
894.657	15369.88
894.973	15295.76
895.289	15317.9
895.604	15231.8
895.92	15110.68
896.235	15171.24
896.55	15080.39
896.865	15035.2
897.181	15041.07
897.496	14974.18
897.811	14813.28
898.126	14815.54
898.441	14801.98
898.756	14752.72
899.071	14674.3
899.386	14698.26
899.7	14494.42
900.015	14409.9
900.33	14369.45
900.644	14400.64
900.959	14420.07
901.273	14226.63
901.588	14238.61
901.902	14220.08
902.216	14150.7
902.531	14173.07
902.845	14094.88
903.159	13935.79
903.473	13917.49
903.787	13920.65
904.101	13773.76
904.415	13833.42
904.729	13671.17
905.042	13691.05
905.356	13592.52
905.67	13672.97
905.984	13589.13
906.297	13596.82
906.611	13492.41
906.924	13477.27
907.237	13388.91
907.551	13375.81
907.864	13201.8
908.177	13221.91
908.491	13224.4
908.804	13161.57
909.117	12977.85
909.43	12969.72
909.743	12888.36
910.056	12983.95
910.368	12865.09
910.681	12803.62
910.994	12727.69
911.307	12628.03
911.619	12650.18
911.932	12669.16
912.244	12506.45
912.557	12555.72
912.869	12397.75
913.181	12337.64
913.494	12323.18
913.806	12232.79
914.118	12193.69
914.43	12187.36
914.742	12193.46
915.054	12146.91
915.366	12010.19
915.678	12007.93
915.99	11918.44
916.302	11881.61
916.613	11867.15
916.925	11851.33
917.236	11699.01
917.548	11684.1
917.859	11677.55
918.171	11642.52
918.482	11503.77
918.794	11530.88
919.105	11439.36
919.416	11371.57
919.727	11377.21
920.038	11326.14
920.349	11245.69
920.66	11163.21
920.971	11146.71
921.282	11182.42
921.593	11079.6
921.903	10944.68
922.214	10924.12
922.525	10914.85
922.835	10880.05
923.146	10755.31
923.456	10744.01
923.767	10695.2
924.077	10717.57
924.387	10699.49
924.697	10651.36
925.008	10641.19
925.318	10472.15
925.628	10421.31
925.938	10448.43
926.248	10416.79
926.558	10335.21
926.867	10346.73
927.177	10206.17
927.487	10280.75
927.796	10167.53
928.106	10115.1
928.416	10020.19
928.725	10095.67
929.034	9922.79
929.344	10046.63
929.653	9942
929.962	9874.88
930.271	9918.04
930.581	9774.77
930.89	9677.82
931.199	9623.14
931.508	9627.88
931.817	9513.08
932.125	9568.22
932.434	9455.23
932.743	9428.34
933.051	9408.91
933.36	9375.01
933.669	9296.14
933.977	9251.4
934.286	9238.06
934.594	9181.57
934.902	9213.66
935.21	9144.51
935.519	9093.66
935.827	9064.06
936.135	9008.92
936.443	8898.41
936.751	8901.12
937.059	8927.11
937.367	8833.78
937.674	8798.53
937.982	8776.15
938.29	8731.63
938.597	8753.56
938.905	8627.91
939.213	8612.32
939.52	8581.81
939.827	8664.52
940.135	8576.38
940.442	8494.13
940.749	8450.74
941.056	8438.31
941.363	8393.34
941.67	8301.59
941.977	8243.96
942.284	8238.31
942.591	8255.72
942.898	8239.44
943.205	8159.9
943.511	8200.35
943.818	8163.51
944.125	8029.28
944.431	7931.66
944.738	7961.03
945.044	7994.93
945.35	7924.2
945.657	7858.89
945.963	7822.28
946.269	7772.11
946.575	7822.28
946.881	7709.97
947.187	7732.34
947.493	7632
947.799	7606.47
948.105	7539.8
948.41	7554.26
948.716	7573.7
949.022	7493.7
949.327	7463.19
949.633	7332.8
949.938	7408.51
950.244	7383.65
950.549	7300.71
950.854	7294.84
951.16	7269.75
951.465	7220.71
951.77	7226.14
952.075	7167.61
952.38	7165.12
952.685	7146.59
952.99	7119.25
953.294	7072.02
953.599	6983.66
953.904	6996.99
954.209	6945.47
954.513	6914.73
954.818	6878.12
955.122	6821.63
955.426	6887.39
955.731	6772.82
956.035	6726.49
956.339	6745.25
956.643	6654.18
956.948	6652.14
957.252	6648.98
957.556	6665.93
957.86	6592.93
958.163	6517
958.467	6550
958.771	6521.98
959.075	6446.5
959.378	6452.82
959.682	6482.65
959.985	6389.55
960.289	6366.73
960.592	6308.42
960.896	6317.69
961.199	6284.47
961.502	6273.85
961.805	6231.81
962.108	6135.32
962.411	6159.95
962.714	6104.59
963.017	6042.67
963.32	6122.21
963.623	6043.57
963.926	6045.15
964.228	6039.73
964.531	5947.08
964.833	5986.4
965.136	5931.93
965.438	5845.83
965.741	5828.66
966.043	5815.55
966.345	5846.29
966.648	5822.33
966.95	5802.22
967.252	5745.72
967.554	5716.57
967.856	5645.16
968.158	5667.53
968.46	5649.23
968.761	5577.82
969.063	5570.14
969.365	5530.59
969.666	5533.07
969.968	5485.84
970.269	5475.68
970.571	5438.39
970.872	5454.66
971.174	5401.33
971.475	5411.95
971.776	5347.99
972.077	5326.53
972.378	5309.35
972.679	5247.66
972.98	5298.5
973.281	5223.48
973.582	5206.53
973.883	5183.93
974.183	5123.14
974.484	5181.67
974.785	5106.87
975.085	5117.27
975.386	5105.06
975.686	5055.57
975.986	5002.69
976.287	5026.42
976.587	4986.42
976.887	4963.37
977.187	4929.02
977.487	4926.54
977.787	4889.7
978.087	4823.71
978.387	4855.58
978.687	4774.45
978.987	4814.9
979.286	4772.87
979.586	4781.46
979.885	4697.39
980.185	4706.43
980.484	4665.08
980.784	4705.07
981.083	4663.49
981.382	4638.41
981.682	4641.8
981.981	4560.67
982.28	4575.59
982.579	4511.41
982.878	4544.63
983.177	4491.29
983.475	4494.46
983.774	4433.67
984.073	4393.9
984.372	4385.53
984.67	4401.81
984.969	4327.23
985.267	4366.1
985.566	4348.7
985.864	4350.28
986.162	4274.12
986.461	4317.29
986.759	4271.19
987.057	4237.52
987.355	4160.91
987.653	4158.65
987.951	4193
988.249	4136.95
988.547	4140.34
988.844	4106.22
989.142	4110.97
989.44	4041.81
989.737	4027.35
990.035	4015.6
990.332	3996.17
990.63	4040.91
990.927	3968.37
991.224	3951.87
991.521	3955.49
991.819	3885.21
992.116	3889.5
992.413	3868.03
992.71	3845.21
993.006	3816.28
993.303	3808.37
993.6	3826.45
993.897	3779.45
994.193	3767.7
994.49	3729.05
994.787	3706.68
995.083	3694.25
995.379	3665.1
995.676	3678.43
995.972	3692.67
996.268	3617.87
996.565	3604.99
996.861	3633.01
997.157	3585.56
997.453	3567.25
997.749	3540.36
998.044	3508.72
998.34	3470.3
998.636	3499.68
998.932	3453.81
999.227	3450.64
999.523	3412.9
999.818	3415.16
1000.114	3390.53
1000.409	3355.28
1000.704	3363.19
1001	3307.37
1001.295	3306.69
1001.59	3265.79
1001.885	3303.3
1002.18	3267.15
1002.475	3253.13
1002.77	3242.29
1003.065	3208.39
1003.359	3176.07
1003.654	3162.29
1003.949	3131.56
1004.243	3130.88
1004.538	3090.65
1004.832	3090.43
1005.127	3085.23
1005.421	3059.69
1005.715	3081.84
1006.009	3023.76
1006.304	3031.67
1006.598	3011.11
1006.892	2925.91
1007.186	2941.5
1007.48	2919.81
1007.773	2954.39
1008.067	2917.32
1008.361	2879.59
1008.655	2855.41
1008.948	2863.31
1009.242	2830.32
1009.535	2845.69
1009.829	2833.71
1010.122	2770.66
1010.415	2757.1
1010.708	2757.1
1011.001	2739.25
1011.295	2709.65
1011.588	2705.58
1011.881	2685.47
1012.173	2697.9
1012.466	2669.42
1012.759	2626.48
1013.052	2647.05
1013.344	2640.27
1013.637	2594.62
1013.93	2560.05
1014.222	2555.53
1014.514	2530.89
1014.807	2519.82
1015.099	2475.53
1015.391	2495.64
1015.683	2513.49
1015.976	2431.91
1016.268	2436.43
1016.56	2414.51
1016.851	2407.28
1017.143	2390.78
1017.435	2391.69
1017.727	2355.76
1018.018	2347.62
1018.31	2324.12
1018.602	2312.82
1018.893	2312.82
1019.185	2290
1019.476	2258.81
1019.767	2267.4
1020.058	2222.65
1020.35	2203.22
1020.641	2195.54
1020.932	2176.78
1021.223	2146.05
1021.514	2146.5
1021.804	2125.25
1022.095	2115.31
1022.386	2094.3
1022.677	2095.43
1022.967	2118.93
1023.258	2068.08
1023.548	2035.31
1023.839	2072.15
1024.129	2036.67
1024.419	2013.85
1024.709	2023.34
1025	1953.06
1025.29	1971.13
1025.58	1950.57
1025.87	1930.68
1026.16	1912.15
1026.449	1892.94
1026.739	1909.22
1027.029	1883.45
1027.319	1877.35
1027.608	1844.81
1027.898	1839.39
1028.187	1819.73
1028.477	1840.97
1028.766	1828.09
1029.055	1811.14
1029.344	1771.37
1029.634	1765.49
1029.923	1767.3
1030.212	1733.63
1030.501	1758.03
1030.79	1708.77
1031.078	1684.59
1031.367	1689.56
1031.656	1695.66
1031.945	1673.29
1032.233	1655.44
1032.522	1645.49
1032.81	1643.23
1033.099	1637.81
1033.387	1608.43
1033.675	1621.54
1033.963	1601.2
1034.251	1538.38
1034.54	1581.77
1034.828	1554.65
1035.116	1530.92
1035.403	1547.19
1035.691	1509.68
1035.979	1508.1
1036.267	1503.35
1036.554	1465.61
1036.842	1509.9
1037.129	1482.33
1037.417	1445.27
1037.704	1409.12
1037.992	1438.27
1038.279	1434.65
1038.566	1386.52
1038.853	1386.52
1039.14	1386.52
