Data from 14-1119_FLMS001491_005.txt Node
Date: Thu Apr 19 16:09:48 BST 2018
User: hsy
Spectrometer: FLMS00149
Trigger mode: 0
Integration Time (sec): 1.000000E-2
Scans to average: 10
Electric dark correction enabled: true
Nonlinearity correction enabled: false
Boxcar width: 0
XAxis mode: Wavelengths
Number of Pixels in Spectrum: 2048
>>>>>Begin Spectral Data<<<<<
341.393	1.29
341.776	1.29
342.16	1.29
342.543	-35.55
342.927	-67.87
343.31	-76
343.693	-72.39
344.077	-52.72
344.46	-78.26
344.843	-64.25
345.226	-47.08
345.61	-26.51
345.993	1.06
346.376	-3.91
346.759	3.77
347.142	16.43
347.525	38.57
347.908	75.41
348.291	85.58
348.674	88.51
349.057	111.79
349.44	123.09
349.823	159.25
350.206	180.49
350.588	210.09
350.971	239.25
351.354	254.61
351.737	281.73
352.119	269.53
352.502	294.38
352.884	340.71
353.267	338
353.65	354.5
354.032	338.23
354.414	354.95
354.797	357.21
355.179	359.69
355.562	359.24
355.944	360.15
356.326	378.9
356.709	386.36
357.091	382.52
357.473	379.81
357.855	388.17
358.238	385.68
358.62	375.96
359.002	378
359.384	375.06
359.766	377.32
360.148	395.63
360.53	390.88
360.912	367.83
361.294	371.22
361.676	388.39
362.057	377.77
362.439	351.33
362.821	362.63
363.203	372.8
363.584	373.48
363.966	386.13
364.348	387.49
364.729	350.43
365.111	345.23
365.493	378
365.874	345.23
366.256	363.31
366.637	362.41
367.019	363.54
367.4	353.59
367.781	361.73
368.163	371.9
368.544	368.73
368.925	367.83
369.306	384.55
369.688	355.63
370.069	374.83
370.45	371.45
370.831	350.2
371.212	373.25
371.593	370.99
371.974	387.72
372.355	376.42
372.736	365.8
373.117	364.21
373.498	369.86
373.879	382.74
374.26	395.17
374.641	368.28
375.021	377.09
375.402	369.41
375.783	386.13
376.163	363.08
376.544	399.24
376.925	378.45
377.305	411.44
377.686	387.72
378.066	404.89
378.447	391.11
378.827	418.45
379.208	405.34
379.588	410.99
379.968	407.6
380.349	400.37
380.729	391.33
381.109	418.22
381.489	413.03
381.87	417.77
382.25	425.45
382.63	409.18
383.01	427.71
383.39	410.99
383.77	422.97
384.15	426.81
384.53	419.35
384.91	434.27
385.29	430.2
385.67	436.08
386.049	461.61
386.429	429.97
386.809	455.96
387.189	436.98
387.568	449.64
387.948	440.6
388.328	465.91
388.707	472.69
389.087	487.37
389.466	471.1
389.846	471.78
390.225	489.18
390.605	469.52
390.984	479.69
391.363	463.65
391.743	474.95
392.122	476.53
392.501	494.38
392.881	496.87
393.26	510.2
393.639	498.67
394.018	515.17
394.397	508.62
394.776	507.71
395.155	514.72
395.534	501.84
395.913	519.46
396.292	514.72
396.671	524.21
397.05	534.15
397.429	535.73
397.808	517.2
398.186	540.48
398.565	541.38
398.944	549.75
399.323	562.4
399.701	559.69
400.08	549.97
400.458	535.06
400.837	555.85
401.215	552.46
401.594	571.44
401.972	566.47
402.351	590.42
402.729	578.22
403.107	593.81
403.486	617.77
403.864	605.56
404.242	608.27
404.62	605.11
404.999	597.65
405.377	641.95
405.755	648.27
406.133	661.83
406.511	635.84
406.889	647.37
407.267	647.14
407.645	674.04
408.023	678.1
408.401	697.09
408.779	692.11
409.156	730.08
409.534	703.41
409.912	717.42
410.29	710.65
410.667	730.76
411.045	748.38
411.422	740.47
411.8	740.47
412.178	782.96
412.555	783.19
412.933	799.46
413.31	819.57
413.687	813.24
414.065	834.94
414.442	865.9
414.819	873.35
415.197	874.03
415.574	849.85
415.951	890.08
416.328	879.91
416.705	925.78
417.082	930.07
417.46	916.06
417.837	904.76
418.214	936.4
418.591	941.37
418.967	946.57
419.344	962.84
419.721	985.67
420.098	962.39
420.475	992.67
420.852	993.58
421.228	995.38
421.605	1020.92
421.982	1013.91
422.358	1024.76
422.735	1033.35
423.111	1045.33
423.488	1074.93
423.864	1070.41
424.241	1088.26
424.617	1083.74
424.994	1110.86
425.37	1137.3
425.746	1109.05
426.123	1139.56
426.499	1133.91
426.875	1137.07
427.251	1203.74
427.627	1211.87
428.003	1204.87
428.379	1232.89
428.756	1214.36
429.132	1260.24
429.507	1260.91
429.883	1257.52
430.259	1258.2
430.635	1296.62
431.011	1304.98
431.387	1332.55
431.763	1349.95
432.138	1375.71
432.514	1373.45
432.89	1412.55
433.265	1436.5
433.641	1451.87
434.016	1456.16
434.392	1474.01
434.767	1517.4
435.143	1504.97
435.518	1497.74
435.894	1519.21
436.269	1552.88
436.644	1561.7
437.02	1576.61
437.395	1596.05
437.77	1608.02
438.145	1640.34
438.52	1619.1
438.895	1661.35
439.271	1667.23
439.646	1695.93
440.021	1687.12
440.395	1687.79
440.77	1672.88
441.145	1723.05
441.52	1770.05
441.895	1719.88
442.27	1781.8
442.645	1739.09
443.019	1768.92
443.394	1801.01
443.769	1790.39
444.143	1782.03
444.518	1824.97
444.892	1833.33
445.267	1837.17
445.641	1850.05
446.016	1861.35
446.39	1883.27
446.764	1920.33
447.139	1874.23
447.513	1934.57
447.887	1955.13
448.262	1917.17
448.636	1952.19
449.01	1980.44
449.384	1986.54
449.758	1992.19
450.132	1993.55
450.506	2049.59
450.88	2004.17
451.254	2030.84
451.628	2082.81
452.002	2084.17
452.376	2092.08
452.75	2133.66
453.123	2125.07
453.497	2162.58
453.871	2200.78
454.244	2236.71
454.618	2252.07
454.992	2302.02
455.365	2298.4
455.739	2339.98
456.112	2364.61
456.486	2386.76
456.859	2392.63
457.232	2462.69
457.606	2494.1
457.979	2509.02
458.352	2544.95
458.725	2556.92
459.099	2587.21
459.472	2628.79
459.845	2635.11
460.218	2680.08
460.591	2707.88
460.964	2711.95
461.337	2772.51
461.71	2863.58
462.083	2837.59
462.456	2874.43
462.829	2871.27
463.201	2911.94
463.574	2942
463.947	2948.33
464.32	3021.09
464.692	3065.84
465.065	3056.35
465.438	3100.41
465.81	3159.39
466.183	3150.81
466.555	3231.48
466.928	3234.19
467.3	3228.32
467.672	3294.98
468.045	3366.17
468.417	3411.14
468.789	3385.15
469.161	3423.57
469.534	3466.73
469.906	3525.49
470.278	3568.65
470.65	3566.16
471.022	3689.78
471.394	3727.06
471.766	3790.34
472.138	3821.98
472.51	3863.1
472.882	3940.16
473.253	3963.22
473.625	4038.92
473.997	4095.64
474.369	4114.17
474.74	4159.82
475.112	4281.17
475.484	4326.82
475.855	4375.18
476.227	4408.85
476.598	4517.1
476.97	4587.61
477.341	4688.62
477.713	4746.47
478.084	4789.63
478.455	4864.89
478.827	4963.87
479.198	5054.94
479.569	5079.34
479.94	5264.42
480.311	5318.89
480.682	5404.08
481.053	5500.12
481.424	5608.6
481.795	5669.84
482.166	5777.86
482.537	5860.11
482.908	6007.68
483.279	6045.19
483.65	6189.82
484.021	6374.68
484.391	6393.21
484.762	6509.59
485.133	6583.26
485.503	6668.23
485.874	6782.35
486.244	6884.27
486.615	7090.82
486.985	7215.11
487.356	7322.22
487.726	7354.99
488.097	7563.12
488.467	7611.48
488.837	7807.41
489.207	7960.17
489.578	8097.8
489.948	8187.28
490.318	8315.42
490.688	8368.3
491.058	8571.23
491.428	8722.19
491.798	8817.1
492.168	8984.1
492.538	9121.95
492.908	9275.84
493.278	9443.07
493.648	9565.1
494.017	9621.6
494.387	9813.46
494.757	9864.08
495.126	10034.24
495.496	10180.45
495.866	10338.41
496.235	10448.92
496.605	10620.22
496.974	10676.26
497.344	10886.2
497.713	10977.27
498.082	11109.47
498.452	11263.36
498.821	11476.46
499.19	11470.59
499.559	11632.62
499.928	11796.23
500.298	11993.96
500.667	12095.2
501.036	12192.6
501.405	12243.9
501.774	12445.03
502.143	12609.32
502.512	12706.71
502.88	12859.03
503.249	12914.84
503.618	13145.8
503.987	13175.85
504.356	13371.56
504.724	13487.48
505.093	13601.15
505.462	13751.66
505.83	13882.05
506.199	13998.88
506.567	14267.8
506.936	14232.1
507.304	14469.15
507.672	14509.83
508.041	14665.98
508.409	14917.96
508.777	15031.17
509.145	15108.23
509.514	15197.27
509.882	15396.59
510.25	15472.06
510.618	15559.75
510.986	15658.73
511.354	15869.79
511.722	16105.49
512.09	16160.86
512.458	16197.24
512.826	16431.14
513.193	16514.75
513.561	16651.69
513.929	16774.63
514.297	17016.43
514.664	17048.52
515.032	17178.01
515.4	17357.44
515.767	17518.79
516.135	17551.11
516.502	17593.59
516.869	17963.52
517.237	17986.12
517.604	17947.03
517.972	18369.39
518.339	18324.42
518.706	18554.92
519.073	18642.6
519.44	18756.5
519.808	18899.09
520.175	18991.07
520.542	19148.58
520.909	19346.99
521.276	19493.65
521.643	19638.96
522.009	19720.99
522.376	20041.44
522.743	20132.73
523.11	20301.54
523.477	20619.27
523.843	20608.88
524.21	21004.8
524.577	20954.18
524.943	21104.01
525.31	21306.26
525.676	21542.87
526.043	21679.81
526.409	21799.36
526.776	22044.1
527.142	22170.87
527.508	22259.68
527.874	22465.1
528.241	22604.08
528.607	22777.41
528.973	23006.33
529.339	22905.54
529.705	23310.5
530.071	23366.32
530.437	23513.89
530.803	23699.87
531.169	23926.31
531.535	23871.17
531.901	23982.35
532.267	24109.13
532.632	24317.03
532.998	24505.27
533.364	24594.54
533.73	24707.75
534.095	24934.42
534.461	24926.28
534.826	25165.37
535.192	25212.6
535.557	25409.66
535.923	25312.03
536.288	25468.86
536.653	25605.36
537.019	25518.58
537.384	25840.15
537.749	25759.03
538.114	25821.85
538.479	25980.72
538.845	26004.9
539.21	25966.7
539.575	26204.21
539.94	26284.89
540.305	26498.89
540.67	26580.7
541.034	26577.76
541.399	26627.03
541.764	26796.29
542.129	26862.27
542.494	26884.65
542.858	27056.17
543.223	27021.37
543.587	27178.2
543.952	27075.6
544.316	27285.54
544.681	27282.83
545.045	27483.95
545.41	27584.51
545.774	27426.55
546.138	27536.83
546.503	27659.32
546.867	27694.12
547.231	27895.02
547.595	27963.71
547.959	27973.66
548.324	27913.55
548.688	28128.91
549.052	28316.92
549.416	28128.68
549.779	28303.37
550.143	28350.14
550.507	28584.04
550.871	28499.07
551.235	28602.12
551.599	28810.7
551.962	28893.63
552.326	28831.04
552.689	29211.59
553.053	28871.71
553.417	29104.47
553.78	29321.19
554.143	29389.89
554.507	29536.1
554.87	29596.44
555.234	29921.18
555.597	29626.04
555.96	29827.62
556.323	29882.99
556.686	29904.45
557.05	30301.28
557.413	30209.76
557.776	30428.06
558.139	30388.96
558.502	30473.03
558.865	30461.5
559.228	30849.06
559.59	30889.29
559.953	30908.95
560.316	31261.71
560.679	31236.17
561.041	31293.8
561.404	31553
561.767	31810.39
562.129	31636.39
562.492	31998.64
562.854	31938.52
563.217	32066.66
563.579	32111.18
563.941	32260.55
564.304	32552.07
564.666	32722.23
565.028	32823.02
565.39	32818.5
565.753	33036.57
566.115	33065.27
566.477	33340.3
566.839	33312.95
567.201	33747.74
567.563	33645.6
567.925	33906.83
568.287	33944.35
568.648	34047.62
569.01	34232.02
569.372	34566.93
569.734	34529.42
570.095	34687.83
570.457	34907.94
570.819	34888.73
571.18	35048.05
571.542	35390.64
571.903	35394.93
572.265	35545.21
572.626	35756.73
572.987	35868.14
573.349	35982.49
573.71	36283.5
574.071	36314
574.432	36570.95
574.794	36759.87
575.155	36812.07
575.516	36728.68
575.877	37102.23
576.238	37248.67
576.599	37396.23
576.96	37461.77
577.32	37551.26
577.681	37744.47
578.042	37996.44
578.403	38125.25
578.763	38290
579.124	38288.19
579.485	38658.8
579.845	38751.45
580.206	38646.6
580.566	38866.7
580.927	39052.91
581.287	39165.23
581.648	39238.9
582.008	39727.02
582.368	39643.18
582.728	39871.42
583.089	39905.77
583.449	40112.32
583.809	40253.11
584.169	40544.4
584.529	40406.55
584.889	41005.63
585.249	40813.09
585.609	40856.03
585.969	41283.82
586.329	41250.82
586.688	41758.83
587.048	41698.95
587.408	41768.1
587.768	41943.23
588.127	42167.41
588.487	42201.31
588.846	42702.54
589.206	42591.13
589.565	42808.97
589.925	43194.5
590.284	43345
590.643	43545.23
591.003	43677.2
591.362	44093.69
591.721	44085.78
592.08	44127.13
592.44	44587.23
592.799	44760.33
593.158	44786.77
593.517	44964.4
593.876	45267.67
594.235	45301.11
594.593	45525.74
594.952	45923.92
595.311	45870.14
595.67	46071.94
596.029	46467.63
596.387	46687.29
596.746	46958.69
597.104	46862.65
597.463	47075.53
597.822	47415.41
598.18	47435.07
598.538	47497.89
598.897	48098.1
599.255	47863.3
599.613	48387.81
599.972	48208.15
600.33	48503.06
600.688	48501.03
601.046	48884.75
601.404	49166.77
601.762	49200.67
602.12	49461.68
602.478	49615.35
602.836	49642.47
603.194	49652.86
603.552	49813.08
603.91	49878.39
604.268	50080.87
604.625	50101.21
604.983	50536.45
605.341	50263.01
605.698	50733.28
606.056	50882.43
606.413	50924.01
606.771	51171.24
607.128	51267.96
607.485	51182.76
607.843	51389.99
608.2	51597.44
608.557	51821.17
608.914	51741.85
609.272	52017.32
609.629	52106.58
609.986	52370.76
610.343	52311.1
610.7	52595.83
611.057	52606.91
611.414	52652.33
611.771	52812.1
612.127	52888.48
612.484	53060.46
612.841	53169.15
613.198	53069.27
613.554	53126.89
613.911	53361.46
614.267	53480.78
614.624	53471.52
614.98	53616.15
615.337	53876.25
615.693	53745.41
616.05	53808.23
616.406	54040.32
616.762	53958.51
617.118	54075.8
617.475	54184.95
617.831	54277.6
618.187	54335.68
618.543	54399.18
618.899	54598.95
619.255	54713.07
619.611	54551.04
619.967	54775.89
620.323	54854.98
620.678	54772.73
621.034	54775.44
621.39	54820.63
621.746	54890.92
622.101	55259.27
622.457	54971.82
622.812	55141.76
623.168	55149.21
623.523	55114.86
623.879	55200.74
624.234	55121.64
624.589	55249.78
624.945	55266.72
625.3	55370.68
625.655	55293.39
626.01	55356.21
626.365	55396.89
626.72	55337.23
627.075	55366.61
627.43	55506.72
627.785	55398.47
628.14	55418.59
628.495	55503.33
628.85	55534.74
629.205	55407.29
629.559	55589.2
629.914	55533.16
630.269	55513.27
630.623	55407.74
630.978	55421.97
631.332	55529.54
631.687	55562.99
632.041	55398.25
632.396	55462.65
632.75	55423.56
633.104	55533.84
633.459	55436.44
633.813	55369.32
634.167	55364.35
634.521	55306.95
634.875	55343.11
635.229	55292.94
635.583	55199.16
635.937	55143.79
636.291	55165.26
636.645	55272.83
636.999	55066.5
637.352	55179.5
637.706	55012.49
638.06	55103.79
638.413	55025.6
638.767	55000.52
639.121	55057.46
639.474	54954.64
639.828	54921.65
640.181	54902.44
640.534	54979.5
640.888	54913.29
641.241	54660.64
641.594	54801.2
641.947	54861.76
642.301	54698.83
642.654	54770.92
643.007	54699.96
643.36	54748.09
643.713	54725.72
644.066	54872.38
644.419	54528.21
644.771	54332.51
645.124	54003.71
645.477	54038.73
645.83	53857.27
646.182	53716.71
646.535	53760.55
646.888	53802.13
647.24	53767.56
647.593	53897.04
647.945	53807.78
648.298	53686.2
648.65	53638.97
649.002	53444.85
649.355	53539.09
649.707	53432.65
650.059	53438.75
650.411	53784.73
650.763	53859.3
651.115	54278.73
651.467	54179.75
651.819	54204.38
652.171	54187.66
652.523	54040.54
652.875	54008.45
653.227	53946.53
653.578	54145.17
653.93	54079.86
654.282	53954.89
654.633	53875.57
654.985	53943.6
655.337	53980.88
655.688	53951.28
656.039	54047.32
656.391	53614.34
656.742	53797.38
657.094	53812.98
657.445	53869.47
657.796	53821.57
658.147	53641.23
658.498	53864.28
658.849	53892.52
659.2	53767.56
659.551	53720.32
659.902	53888
660.253	53709.7
660.604	53761.91
660.955	53577.05
661.306	53736.14
661.656	53625.64
662.007	53594.23
662.358	53660.67
662.708	53598.75
663.059	53604.17
663.409	53429.71
663.76	53647.56
664.11	53575.02
664.461	53634.45
664.811	53639.42
665.161	53572.53
665.511	53517.39
665.862	53523.95
666.212	53567.56
666.562	53602.59
666.912	53576.15
667.262	53370.96
667.612	53444.4
667.962	53575.47
668.312	53440.78
668.662	53692.08
669.011	53513.32
669.361	53417.06
669.711	53485.98
670.06	53454.8
670.41	53452.76
670.76	53417.73
671.109	53528.47
671.459	53485.08
671.808	53435.59
672.157	53472.42
672.507	53340.45
672.856	53271.97
673.205	53365.76
673.554	53384.06
673.904	53274.91
674.253	53418.86
674.602	53333.44
674.951	52933.68
675.3	52766
675.649	53364.63
675.998	53306.32
676.346	53294.35
676.695	53368.7
677.044	53069.04
677.393	53176.84
677.741	53259.77
678.09	53160.11
678.438	52955.37
678.787	53184.52
679.135	53087.12
679.484	52937.97
679.832	52963.06
680.181	52967.12
680.529	53012.32
680.877	52874.47
681.225	52835.38
681.573	53056.84
681.922	52845.77
682.27	52795.83
682.618	52772.33
682.966	52720.58
683.314	52789.95
683.661	52740.92
684.009	52591.99
684.357	52548.15
684.705	52473.58
685.053	52608.26
685.4	52448.27
685.748	52392.45
686.095	52370.53
686.443	52222.06
686.79	52164.21
687.138	52229.29
687.485	52269.29
687.832	52038.11
688.18	52086.92
688.527	52009.41
688.874	52006.02
689.221	52038.11
689.568	51771.45
689.915	51722.19
690.262	51701.85
690.609	51707.04
690.956	51681.28
691.303	51612.81
691.65	51492.59
691.997	51284.91
692.344	51258.92
692.69	51187.74
693.037	51278.13
693.383	50988.19
693.73	51089.66
694.077	50919.04
694.423	50902.09
694.769	50748.65
695.116	50784.36
695.462	50637.69
695.808	50518.38
696.155	50604.25
696.501	50346.18
696.847	50409.45
697.193	50093.75
697.539	50219.63
697.885	49946.19
698.231	49902.12
698.577	49924.27
698.923	49681.33
699.269	49536.93
699.614	49520.44
699.96	49281.8
700.306	49343.94
700.651	49425.52
700.997	49136.26
701.342	49031.86
701.688	49034.8
702.033	48891.07
702.379	48843.16
702.724	48676.62
703.069	48757.97
703.415	48296.74
703.76	48322.05
704.105	48356.62
704.45	48139.23
704.795	48087.93
705.14	47893.81
705.485	47885.22
705.83	47629.41
706.175	47845.68
706.52	47661.05
706.865	47536.76
707.209	47443.88
707.554	47355.07
707.899	47426.93
708.243	47158.46
708.588	47133.15
708.932	46821.98
709.277	46866.72
709.621	46703.11
709.966	46607.29
710.31	46751.47
710.654	46327.52
710.998	46474.19
711.342	46431.02
711.687	46420.86
712.031	46175.66
712.375	46000.98
712.719	45894.77
713.063	45844.15
713.407	46126.4
713.75	45749.01
714.094	45761.44
714.438	45542.69
714.782	45726.18
715.125	45478.51
715.469	45597.83
715.812	45300.66
716.156	45246.2
716.499	45166.88
716.843	45227.44
717.186	44958.52
717.53	45134.11
717.873	45057.28
718.216	44894.12
718.559	44892.08
718.902	44568.25
719.246	44636.27
719.589	44470.85
719.932	44349.72
720.275	44371.64
720.617	44333.9
720.96	44263.4
721.303	44276.05
721.646	44325.09
721.989	43907.25
722.331	44171.65
722.674	43927.81
723.016	43926.01
723.359	43722.4
723.701	43903.41
724.044	43657.31
724.386	43475.4
724.729	43688.5
725.071	43740.02
725.413	43563.3
725.755	43379.81
726.097	43428.17
726.439	43226.82
726.782	43220.71
727.124	43513.81
727.465	43320.6
727.807	43085.12
728.149	43223.65
728.491	43095.75
728.833	43165.12
729.175	43038.12
729.516	42971
729.858	42969.65
730.199	42966.48
730.541	42876.32
730.882	42674.06
731.224	42847.62
731.565	42685.13
731.906	42745.25
732.248	42714.96
732.589	42507.74
732.93	42379.15
733.271	42621.63
733.612	42534.86
733.953	42749.31
734.294	42511.81
734.635	42395.88
734.976	42610.11
735.317	42265.48
735.658	42313.85
735.999	42180.74
736.339	42307.97
736.68	42358.82
737.021	42182.78
737.361	42249.89
737.702	42438.81
738.042	42189.78
738.383	42251.02
738.723	42243.34
739.063	42061.65
739.404	42176.22
739.744	42082.21
740.084	41921.31
740.424	41972.61
740.764	41992.72
741.104	42237.91
741.444	41953.18
741.784	41762
742.124	41992.72
742.464	41860.07
742.804	41812.62
743.143	41819.62
743.483	41906.17
743.823	41675.22
744.162	41726.97
744.502	41886.51
744.841	41654.65
745.181	41862.78
745.52	41695.33
745.86	41789.34
746.199	41753.18
746.538	41735.1
746.877	41994.98
747.216	41891.94
747.556	41721.09
747.895	41802.9
748.234	41663.47
748.573	41645.16
748.911	41583.47
749.25	41689
749.589	41522.23
749.928	41644.48
750.267	41623.24
750.605	41622.79
750.944	41636.35
751.283	41437.48
751.621	41586.63
751.96	41474.77
752.298	41430.48
752.636	41522.68
752.975	41465.51
753.313	41372.85
753.651	41551.15
753.989	41309.58
754.327	41283.36
754.666	40993.65
755.004	41440.65
755.342	41286.53
755.679	41355.45
756.017	41041.56
756.355	41399.74
756.693	40978.51
757.031	41146.87
757.368	40947.1
757.706	40877.72
758.044	40731.74
758.381	40971.06
758.719	40886.54
759.056	40861.23
759.394	40784.62
759.731	40570.39
760.068	40458.3
760.405	40486.32
760.743	40333.11
761.08	40337.85
761.417	40339.21
761.754	40271.41
762.091	40110.29
762.428	40092.43
762.765	39846.11
763.102	39920.46
763.438	39810.41
763.775	39647.93
764.112	39555.95
764.449	39573.13
764.785	39499.23
765.122	39209.75
765.458	39171.55
765.795	39242.74
766.131	39209.07
766.467	39062.18
766.804	38711.45
767.14	38733.15
767.476	38542.87
767.812	38537.22
768.148	38517.79
768.485	38386.94
768.821	38146.95
769.157	37920.51
769.492	37970.68
769.828	37976.78
770.164	37594.87
770.5	37570.92
770.836	37573.18
771.171	37381.77
771.507	37209.57
771.842	37173.19
772.178	37114.89
772.513	36906.08
772.849	36701.56
773.184	36662.69
773.519	36645.07
773.855	36426.54
774.19	36465.64
774.525	36156.72
774.86	36180.22
775.195	36062.48
775.53	35931.87
775.865	35624.3
776.2	35408.94
776.535	35280.13
776.87	35325.55
777.205	35104.32
777.539	35046.47
777.874	34999.01
778.209	34601.05
778.543	34657.78
778.878	34486.93
779.212	34473.15
779.547	34195.41
779.881	34274.96
780.215	33853.73
780.55	34044.01
780.884	33759.72
781.218	33695.09
781.552	33778.02
781.886	33552.27
782.22	33328.77
782.554	33116.8
782.888	33013.07
783.222	32926.07
783.556	32804.49
783.889	32626.87
784.223	32398.63
784.557	32426.65
784.89	32568.56
785.224	32331.96
785.557	31997.51
785.891	31918.19
786.224	32039.31
786.558	31813.33
786.891	31668.25
787.224	31468.48
787.557	31423.96
787.891	31420.57
788.224	31304.87
788.557	31069.39
788.89	31154.59
789.223	31058.55
789.556	30787.14
789.888	30753.47
790.221	30586.24
790.554	30531.56
790.887	30504.89
791.219	30337.89
791.552	30296.53
791.884	30167.72
792.217	30033.04
792.549	29944.68
792.882	29661.75
793.214	29739.26
793.546	29660.84
793.879	29557.8
794.211	29354.19
794.543	29480.28
794.875	29264.47
795.207	29272.83
795.539	28987.19
795.871	29174.08
796.203	28974.31
796.535	28641.89
796.867	28655.22
797.198	28552.62
797.53	28405.96
797.862	28306.3
798.193	28386.53
798.525	28332.52
798.856	28259.07
799.188	27956.71
799.519	27823.6
799.85	27712.87
800.182	27714.68
800.513	27692.31
800.844	27328.02
801.175	27610.95
801.506	27560.33
801.837	27325.99
802.168	27364.18
802.499	27365.54
802.83	27210.97
803.161	26903.63
803.491	26973.91
803.822	27053.23
804.153	26789.73
804.483	26735.5
804.814	26487.82
805.145	26617.53
805.475	26589.29
805.805	26427.48
806.136	26447.37
806.466	26335.06
806.796	26145.68
807.126	26055.97
807.457	26063.2
807.787	26130.09
808.117	26036.98
808.447	25768.52
808.777	25939.13
809.107	25700.27
809.436	25731.68
809.766	25771
810.096	25590.89
810.426	25437.45
810.755	25570.56
811.085	25416.21
811.414	25367.4
811.744	25199.04
812.073	25251.24
812.403	25121.08
812.732	24909.78
813.061	25069.78
813.39	24922.44
813.719	24891.7
814.049	24945.04
814.378	24848.99
814.707	24786.4
815.036	24773.74
815.365	24604.03
815.693	24423.24
816.022	24455.11
816.351	24354.54
816.68	24166.75
817.008	24308.44
817.337	24117.71
817.665	24134.89
817.994	24189.8
818.322	24152.29
818.651	23934.22
818.979	23824.84
819.307	23958.62
819.636	23894.44
819.964	23792.3
820.292	23826.42
820.62	23829.13
820.948	23785.07
821.276	23920.2
821.604	23668.23
821.932	23870.49
822.259	23720.44
822.587	23757.04
822.915	23631.17
823.243	23879.98
823.57	23551.85
823.898	23757.27
824.225	23637.95
824.553	23630.49
824.88	23699.42
825.207	23754.11
825.535	23649.7
825.862	23673.43
826.189	23615.35
826.516	23764.5
826.843	23760.21
827.17	23820.77
827.497	23782.13
827.824	23778.51
828.151	23790.94
828.478	23644.73
828.805	23831.62
829.131	23761.11
829.458	23762.47
829.785	23659.65
830.111	23689.02
830.438	23841.11
830.764	23651.28
831.09	23748.46
831.417	23680.44
831.743	23684.28
832.069	23724.05
832.395	23609.7
832.722	23705.75
833.048	23596.82
833.374	23637.73
833.7	23615.13
834.026	23656.71
834.351	23612.19
834.677	23678.4
835.003	23536.71
835.329	23568.12
835.654	23569.03
835.98	23446.77
836.306	23581.23
836.631	23453.55
836.956	23524.96
837.282	23458.52
837.607	23370.61
837.932	23337.39
838.258	23277.74
838.583	23197.29
838.908	23141.92
839.233	23116.61
839.558	23071.64
839.883	23039.55
840.208	22834.81
840.533	23014.01
840.858	23051.75
841.182	22939.67
841.507	23010.62
841.832	22796.17
842.156	22768.82
842.481	22860.57
842.805	22735.6
843.13	22657.86
843.454	22762.72
843.778	22614.7
844.103	22521.37
844.427	22470.07
844.751	22413.58
845.075	22474.37
845.399	22303.98
845.723	22244.99
846.047	22304.2
846.371	22033.02
846.695	22011.55
847.019	21963.87
847.343	21905.12
847.666	21681.39
847.99	21620.15
848.313	21651.79
848.637	21539.48
848.96	21364.57
849.284	21471.46
849.607	21199.82
849.931	21290.67
850.254	21105.14
850.577	20904.46
850.9	20852.94
851.223	20792.15
851.546	20839.38
851.869	20540.86
852.192	20706.73
852.515	20487.75
852.838	20437.36
853.161	20363.01
853.483	20342.22
853.806	20250.02
854.129	20178.83
854.451	20087.99
854.774	19994.21
855.096	19941.78
855.419	19874.44
855.741	19890.48
856.063	19755.57
856.385	19558.74
856.708	19595.57
857.03	19552.64
857.352	19476.25
857.674	19499.3
857.996	19343.83
858.318	19222.25
858.64	19343.6
858.961	19229.48
859.283	19214.34
859.605	19008.7
859.926	19105.87
860.248	19023.84
860.57	18926.89
860.891	19007.11
861.212	18889.6
861.534	18843.05
861.855	18794.92
862.176	18778.42
862.498	18764.41
862.819	18762.15
863.14	18665.65
863.461	18620.23
863.782	18581.36
864.103	18664.3
864.424	18533.45
864.745	18555.83
865.065	18423.85
865.386	18360.12
865.707	18402.84
866.027	18388.6
866.348	18401.03
866.668	18335.27
866.989	18348.6
867.309	18131.2
867.63	18146.34
867.95	18295.27
868.27	18016.63
868.59	18149.28
868.91	18053.92
869.23	18126.01
869.55	17931.21
869.87	18002.39
870.19	17889.4
870.51	17960.14
870.83	17870.65
871.15	17841.72
871.469	17861.61
871.789	17812.57
872.109	17900.02
872.428	17676.53
872.748	17724.44
873.067	17601.73
873.386	17758.33
873.706	17669.75
874.025	17520.15
874.344	17471.56
874.663	17657.77
874.982	17579.13
875.301	17631.33
875.62	17441.96
875.939	17393.82
876.258	17381.17
876.577	17333.48
876.896	17289.42
877.214	17262.07
877.533	17290.77
877.852	17273.37
878.17	17320.38
878.489	17291.23
878.807	17254.39
879.125	17222.53
879.444	17085.36
879.762	17118.12
880.08	17148.41
880.398	16957.68
880.716	17063.89
881.034	17038.8
881.352	16941.18
881.67	16822.76
881.988	16855.76
882.306	16744.12
882.624	16837.23
882.941	16632.71
883.259	16639.72
883.577	16625.93
883.894	16618.7
884.212	16574.18
884.529	16527.18
884.846	16540.74
885.164	16385.04
885.481	16417.12
885.798	16371.48
886.115	16353.17
886.432	16341.87
886.75	16304.81
887.067	16274.3
887.383	16139.39
887.7	16178.04
888.017	16052.61
888.334	16049
888.651	16107.3
888.967	16015.78
889.284	15918.15
889.6	15857.59
889.917	15773.3
890.233	15820.98
890.55	15768.33
890.866	15767.65
891.182	15691.72
891.498	15584.83
891.815	15538.73
892.131	15436.59
892.447	15564.04
892.763	15502.57
893.079	15494.89
893.395	15334.44
893.71	15343.93
894.026	15294.22
894.342	15219.42
894.657	15198.85
894.973	15197.5
895.289	15115.92
895.604	15070.49
895.92	14927.67
896.235	14907.79
896.55	14930.38
896.865	14855.81
897.181	14823.49
897.496	14799.31
897.811	14711.18
898.126	14625.53
898.441	14595.7
898.756	14573.78
899.071	14430.06
899.386	14479.55
899.7	14377.4
900.015	14302.83
900.33	14247.69
900.644	14205.21
900.959	14178.09
901.273	14143.96
901.588	14121.59
901.902	14062.38
902.216	13954.36
902.531	13947.59
902.845	13875.72
903.159	13842.5
903.473	13786.69
903.787	13637.08
904.101	13559.57
904.415	13637.99
904.729	13535.84
905.042	13483.42
905.356	13356.64
905.67	13388.5
905.984	13458.33
906.297	13407.03
906.611	13211.56
906.924	13260.37
907.237	13166.59
907.551	13143.54
907.864	13081.62
908.177	13094.5
908.491	13076.65
908.804	12934.73
909.117	12863.55
909.43	12719.14
909.743	12742.65
910.056	12746.94
910.368	12609.77
910.681	12592.59
910.994	12580.84
911.307	12559.15
911.619	12346.72
911.932	12378.59
912.244	12257.91
912.557	12340.4
912.869	12282.32
913.181	12235.31
913.494	12152.6
913.806	12122.1
914.118	12039.39
914.43	11982.67
914.742	11934.76
915.054	11897.7
915.366	11865.38
915.678	11752.39
915.99	11725.27
916.302	11714.42
916.613	11569.79
916.925	11562.56
917.236	11522.34
917.548	11489.34
917.859	11469.68
918.171	11411.61
918.482	11376.35
918.794	11296.13
919.105	11267.66
919.416	11192.4
919.727	11166.19
920.038	11118.28
920.349	10962.13
920.66	11104.04
920.971	11022.24
921.282	10986.31
921.593	10797.61
921.903	10761.91
922.214	10805.75
922.525	10680.1
922.835	10719.87
923.146	10626.99
923.456	10609.37
923.767	10531.18
924.077	10499.54
924.387	10524.85
924.697	10379.54
925.008	10377.51
925.318	10330.51
925.628	10356.27
925.938	10242.15
926.248	10217.51
926.558	10089.83
926.867	10142.26
927.177	10064.52
927.487	10084.86
927.796	9987.24
928.106	9971.42
928.416	9906.11
928.725	9865.88
929.034	9859.78
929.344	9838.77
929.653	9749.28
929.962	9672.22
930.271	9629.28
930.581	9580.02
930.89	9526.46
931.199	9437.87
931.508	9496.85
931.817	9380.93
932.125	9393.13
932.434	9329.63
932.743	9310.19
933.051	9244.43
933.36	9217.09
933.669	9166.24
933.977	9147.94
934.286	9117.88
934.594	9081.27
934.902	9039.69
935.21	8938.23
935.519	8931.45
935.827	8895.51
936.135	8845.8
936.443	8807.83
936.751	8823.65
937.059	8745.69
937.367	8691
937.674	8651.23
937.982	8695.97
938.29	8618.91
938.597	8604.9
938.905	8493.27
939.213	8509.54
939.52	8438.8
939.827	8531.68
940.135	8421.4
940.442	8319.48
940.749	8293.72
941.056	8318.13
941.363	8259.6
941.67	8211.01
941.977	8167.62
942.284	8108.42
942.591	8090.56
942.898	8102.09
943.205	8054.63
943.511	7981.64
943.818	7985.93
944.125	7953.84
944.431	7889.67
944.738	7812.61
945.044	7800.63
945.35	7787.97
945.657	7750.46
945.963	7722.21
946.269	7671.37
946.575	7656.23
946.881	7672.04
947.187	7507.08
947.493	7472.05
947.799	7481.09
948.105	7462.56
948.41	7439.28
948.716	7395.89
949.022	7355.44
949.327	7351.83
949.633	7251.72
949.938	7256.24
950.244	7245.39
950.549	7266.63
950.854	7202.9
951.16	7124.94
951.465	7111.38
951.77	7091.72
952.075	7077.71
952.38	7065.28
952.685	6998.39
952.99	6905.06
953.294	6946.41
953.599	6893.76
953.904	6892.63
954.209	6799.07
954.513	6828
954.818	6819.86
955.122	6766.08
955.426	6733.99
955.731	6710.26
956.035	6702.35
956.339	6616.25
956.643	6637.27
956.948	6563.15
957.252	6589.13
957.556	6520.89
957.86	6472.75
958.163	6468.23
958.467	6457.16
958.771	6435.69
959.075	6364.96
959.378	6332.64
959.682	6336.03
959.985	6323.83
960.289	6238.64
960.592	6247.22
960.896	6199.54
961.199	6158.19
961.502	6137.62
961.805	6165.19
962.108	6049.94
962.411	6125.19
962.714	6051.3
963.017	6067.34
963.32	5992.77
963.623	5947.34
963.926	5966.33
964.228	5893.33
964.531	5945.54
964.833	5895.14
965.136	5821.7
965.438	5784.64
965.741	5807.46
966.043	5778.08
966.345	5716.16
966.648	5696.05
966.95	5653.11
967.252	5657.41
967.554	5632.78
967.856	5612.89
968.158	5525.89
968.46	5589.84
968.761	5526.79
969.063	5520.01
969.365	5456.51
969.666	5468.49
969.968	5396.4
970.269	5389.62
970.571	5403.4
970.872	5335.38
971.174	5362.5
971.475	5313.46
971.776	5264.65
972.077	5269.4
972.378	5245.44
972.679	5228.04
972.98	5179.68
973.281	5204.99
973.582	5150.75
973.883	5103.52
974.183	5092.68
974.484	5059.23
974.785	5052.9
975.085	4989.18
975.386	5016.52
975.686	5002.74
975.986	4963.41
976.287	4955.28
976.587	4875.51
976.887	4866.24
977.187	4881.16
977.487	4872.12
977.787	4850.88
978.087	4799.35
978.387	4784.66
978.687	4748.73
978.987	4708.73
979.286	4732.46
979.586	4672.12
979.885	4657.21
980.185	4621.73
980.484	4604.33
980.784	4585.8
981.083	4605.23
981.382	4581.05
981.682	4520.49
981.981	4522.52
982.28	4496.99
982.579	4421.51
982.878	4466.48
983.177	4427.16
983.475	4424.22
983.774	4376.31
984.073	4371.11
984.372	4397.1
984.67	4317.1
984.969	4319.14
985.267	4305.35
985.566	4289.31
985.864	4256.77
986.162	4268.07
986.461	4200.5
986.759	4166.6
987.057	4140.39
987.355	4124.57
987.653	4106.26
987.951	4080.5
988.249	4086.38
988.547	4084.34
988.844	4073.49
989.142	4015.64
989.44	4038.69
989.737	4030.78
990.035	4007.06
990.332	3960.28
990.63	3953.72
990.927	3959.6
991.224	3940.62
991.521	3912.59
991.819	3859.26
992.116	3866.27
992.413	3837.12
992.71	3821.07
993.006	3784.46
993.303	3787.17
993.6	3762.32
993.897	3777.46
994.193	3751.02
994.49	3750.11
994.787	3660.62
995.083	3628.53
995.379	3656.1
995.676	3657.91
995.972	3650
996.268	3602.77
996.565	3584.02
996.861	3589.67
997.157	3597.8
997.453	3483.68
997.749	3523.23
998.044	3515.77
998.34	3481.42
998.636	3436.45
998.932	3419.95
999.227	3395.77
999.523	3421.76
999.818	3368.2
1000.114	3342.21
1000.409	3332.95
1000.704	3312.38
1001	3279.39
1001.295	3292.72
1001.59	3253.63
1001.885	3250.47
1002.18	3228.32
1002.475	3195.55
1002.77	3214.31
1003.065	3178.38
1003.359	3129.56
1003.654	3101.32
1003.949	3092.28
1004.243	3086.85
1004.538	3074.42
1004.832	3069.68
1005.127	3035.33
1005.421	2994.2
1005.715	3002.56
1006.009	2998.04
1006.304	2982.22
1006.598	2955.56
1006.892	2953.3
1007.186	2912.62
1007.48	2884.83
1007.773	2922.34
1008.067	2873.53
1008.361	2795.34
1008.655	2851.61
1008.948	2817.71
1009.242	2793.53
1009.535	2778.39
1009.829	2748.78
1010.122	2759.63
1010.415	2697.94
1010.708	2707.88
1011.001	2697.49
1011.295	2660.2
1011.588	2681.44
1011.881	2619.75
1012.173	2609.8
1012.466	2639.18
1012.759	2606.19
1013.052	2605.06
1013.344	2560.31
1013.637	2550.82
1013.93	2533.42
1014.222	2532.52
1014.514	2517.15
1014.807	2512.86
1015.099	2476.47
1015.391	2459.75
1015.683	2457.27
1015.976	2412.52
1016.268	2405.06
1016.56	2407.1
1016.851	2392.18
1017.143	2356.25
1017.435	2336.37
1017.727	2306.08
1018.018	2324.61
1018.31	2284.62
1018.602	2273.09
1018.893	2295.24
1019.185	2225.41
1019.476	2252.3
1019.767	2219.76
1020.058	2194.9
1020.35	2207.1
1020.641	2163.71
1020.932	2137.05
1021.223	2148.8
1021.514	2116.03
1021.804	2137.27
1022.095	2098.41
1022.386	2098.18
1022.677	2098.86
1022.967	2059.08
1023.258	2058.63
1023.548	2038.29
1023.839	2016.83
1024.129	2036.71
1024.419	2000.78
1024.709	1971.18
1025	1975.92
1025.29	1925.3
1025.58	1932.53
1025.87	1907.68
1026.16	1926.66
1026.449	1891.18
1026.739	1874.68
1027.029	1858.86
1027.319	1847.56
1027.608	1831.29
1027.898	1833.78
1028.187	1801.24
1028.477	1795.36
1028.766	1776.83
1029.055	1788.81
1029.344	1769.37
1029.634	1768.7
1029.923	1730.51
1030.212	1701.35
1030.501	1708.59
1030.79	1692.54
1031.078	1679.89
1031.367	1652.54
1031.656	1638.3
1031.945	1681.02
1032.233	1640.56
1032.522	1645.08
1032.81	1615.93
1033.099	1602.6
1033.387	1589.04
1033.675	1601.02
1033.963	1585.88
1034.251	1574.8
1034.54	1549.95
1034.828	1523.73
1035.116	1529.83
1035.403	1534.13
1035.691	1495.26
1035.979	1474.24
1036.267	1527.12
1036.554	1460
1036.842	1443.96
1037.129	1468.82
1037.417	1438.76
1037.704	1422.26
1037.992	1397.41
1038.279	1428.37
1038.566	1406.67
1038.853	1406.67
1039.14	1406.67
