Data from 14-1119_FLMS001491_010.txt Node
Date: Thu Apr 19 16:10:01 BST 2018
User: hsy
Spectrometer: FLMS00149
Trigger mode: 0
Integration Time (sec): 1.000000E-2
Scans to average: 10
Electric dark correction enabled: true
Nonlinearity correction enabled: false
Boxcar width: 0
XAxis mode: Wavelengths
Number of Pixels in Spectrum: 2048
>>>>>Begin Spectral Data<<<<<
341.393	-8.49
341.776	-8.49
342.16	-8.49
342.543	-61.37
342.927	-77.64
343.31	-87.81
343.693	-63.63
344.077	-60.01
344.46	-49.17
344.843	-53.01
345.226	-46.91
345.61	-13.91
345.993	-26.12
346.376	-28.6
346.759	0.55
347.142	45.97
347.525	29.93
347.908	59.31
348.291	83.26
348.674	98.18
349.057	111.96
349.44	108.34
349.823	132.07
350.206	173.2
350.588	223.37
350.971	241.67
351.354	278.28
351.737	269.7
352.119	322.58
352.502	312.63
352.884	311.5
353.267	312.41
353.65	342.91
354.032	330.71
354.414	349.92
354.797	340.88
355.179	355.12
355.562	365.74
355.944	361.22
356.326	366.87
356.709	372.52
357.091	384.5
357.473	389.24
357.855	378.39
358.238	373.2
358.62	385.63
359.002	384.27
359.384	394.66
359.766	372.97
360.148	358.51
360.53	379.07
360.912	367.77
361.294	377.04
361.676	396.02
362.057	360.99
362.439	371.16
362.821	363.25
363.203	363.03
363.584	364.16
363.966	380.43
364.348	389.92
364.729	363.71
365.111	356.02
365.493	372.07
365.874	354.44
366.256	337.94
366.637	357.83
367.019	388.56
367.4	375.91
367.781	391.5
368.163	331.62
368.544	344.27
368.925	366.64
369.306	372.97
369.688	368.68
370.069	351.28
370.45	350.6
370.831	364.61
371.212	344.5
371.593	361.67
371.974	367.55
372.355	363.25
372.736	381.11
373.117	370.48
373.498	361.9
373.879	391.95
374.26	361.67
374.641	393.08
375.021	379.3
375.402	382.01
375.783	398.51
376.163	372.97
376.544	398.51
376.925	393.53
377.305	394.44
377.686	386.53
378.066	376.81
378.447	406.19
378.827	403.25
379.208	401.67
379.588	392.63
379.968	397.83
380.349	415.46
380.729	408.22
381.109	399.86
381.489	411.84
381.87	413.42
382.25	436.02
382.63	410.03
383.01	394.89
383.39	424.72
383.77	429.24
384.15	424.27
384.53	400.77
384.91	441.67
385.29	426.08
385.67	448.9
386.049	452.52
386.429	445.06
386.809	445.06
387.189	413.42
387.568	432.4
387.948	451.84
388.328	456.36
388.707	458.84
389.087	459.75
389.466	484.61
389.846	475.79
390.225	471.95
390.605	474.44
390.984	479.41
391.363	480.76
391.743	484.83
392.122	512.18
392.501	507.88
392.881	494.78
393.26	485.51
393.639	516.02
394.018	492.29
394.397	492.06
394.776	495.68
395.155	514.89
395.534	506.75
395.913	517.83
396.292	530.48
396.671	527.32
397.05	523.02
397.429	533.87
397.808	523.93
398.186	545.17
398.565	538.62
398.944	529.8
399.323	542.68
399.701	532.51
400.08	545.85
400.458	551.95
400.837	542.68
401.215	574.32
401.594	582.91
401.972	574.77
402.351	578.61
402.729	559.63
403.107	584.26
403.486	572.06
403.864	587.2
404.242	615.9
404.62	610.7
404.999	611.16
405.377	622.91
405.755	613.42
406.133	620.65
406.511	639.4
406.889	652.29
407.267	663.81
407.645	641.44
408.023	682.11
408.401	696.58
408.779	694.77
409.156	706.07
409.534	699.52
409.912	719.63
410.29	719.85
410.667	727.31
411.045	757.14
411.422	747.88
411.8	751.27
412.178	760.08
412.555	775.9
412.933	791.49
413.31	799.85
413.687	823.13
414.065	824.26
414.442	824.26
414.819	843.01
415.197	871.26
415.574	899.96
415.951	884.14
416.328	900.19
416.705	901.77
417.082	874.88
417.46	897.48
417.837	918.04
418.214	948.55
418.591	944.25
418.967	955.55
419.344	968.89
419.721	949.9
420.098	957.59
420.475	979.96
420.852	987.87
421.228	991.49
421.605	988.32
421.982	1014.31
422.358	1045.5
422.735	1056.12
423.111	1062.9
423.488	1073.29
423.864	1069
424.241	1112.61
424.617	1111.71
424.994	1119.84
425.37	1123.69
425.746	1089.11
426.123	1122.56
426.499	1164.14
426.875	1165.72
427.251	1170.46
427.627	1213.4
428.003	1187.41
428.379	1225.38
428.756	1226.28
429.132	1259.05
429.507	1278.94
429.883	1295.43
430.259	1280.52
430.635	1288.2
431.011	1332.72
431.387	1333.85
431.763	1369.55
432.138	1376.33
432.514	1391.93
432.89	1401.42
433.265	1417.01
433.641	1409.33
434.016	1443
434.392	1461.98
434.767	1464.92
435.143	1497.01
435.518	1547.4
435.894	1497.69
436.269	1536.1
436.644	1551.7
437.02	1587.85
437.395	1607.29
437.77	1600.96
438.145	1606.16
438.52	1626.72
438.895	1635.76
439.271	1640.73
439.646	1678.92
440.021	1701.52
440.395	1682.31
440.77	1702.65
441.145	1718.02
441.52	1732.26
441.895	1760.5
442.27	1760.73
442.645	1744.23
443.019	1797.79
443.394	1781.29
443.769	1763.44
444.143	1822.42
444.518	1826.04
444.892	1823.78
445.267	1828.75
445.641	1861.29
446.016	1881.86
446.39	1882.08
446.764	1861.97
447.139	1878.69
447.513	1908.3
447.887	1918.69
448.262	1927.28
448.636	1925.25
449.01	1951.69
449.384	1962.99
449.758	2013.61
450.132	1998.92
450.506	2014.51
450.88	2039.37
451.254	2038.92
451.628	2066.94
452.002	2081.85
452.376	2092.25
452.75	2113.72
453.123	2108.52
453.497	2164.79
453.871	2180.61
454.244	2220.61
454.618	2230.32
454.992	2289.76
455.365	2309.42
455.739	2320.26
456.112	2353.03
456.486	2377.44
456.859	2411.79
457.232	2463.54
457.606	2452.69
457.979	2465.57
458.352	2511.67
458.725	2535.4
459.099	2586.02
459.472	2611.56
459.845	2680.48
460.218	2628.96
460.591	2717.99
460.964	2699.69
461.337	2752.79
461.71	2805.9
462.083	2867.14
462.456	2854.49
462.829	2869.4
463.201	2875.5
463.574	2917.08
463.947	2934.03
464.32	3006.8
464.692	2993.92
465.065	3059.91
465.438	3074.82
465.81	3120.02
466.183	3134.71
466.555	3216.29
466.928	3268.04
467.3	3231.65
467.672	3281.59
468.045	3323.63
468.417	3331.31
468.789	3379.45
469.161	3413.34
469.534	3417.18
469.906	3516.39
470.278	3554.36
470.65	3606.11
471.022	3686.33
471.394	3694.47
471.766	3715.71
472.138	3794.58
472.51	3849.94
472.882	3898.08
473.253	3963.84
473.625	3985.08
473.997	4091.52
474.369	4091.29
474.74	4149.37
475.112	4229.14
475.484	4289.7
475.855	4372.41
476.227	4392.53
476.598	4516.14
476.97	4553.2
477.341	4647.21
477.713	4689.02
478.084	4752.74
478.455	4872.97
478.827	4957.03
479.198	5041.55
479.569	5096.24
479.94	5207.65
480.311	5270.02
480.682	5392.73
481.053	5523.57
481.424	5572.83
481.795	5597.47
482.166	5739.83
482.537	5816.67
482.908	5942.99
483.279	6012.14
483.65	6134.4
484.021	6338.01
484.391	6390.44
484.762	6457.1
485.133	6497.78
485.503	6587.5
485.874	6786.81
486.244	6835.17
486.615	7031.33
486.985	7097.99
487.356	7272.45
487.726	7366.01
488.097	7578.66
488.467	7609.84
488.837	7760.12
489.207	7916.5
489.578	8035.37
489.948	8139.32
490.318	8290.95
490.688	8352.87
491.058	8565.3
491.428	8704.05
491.798	8759.42
492.168	9008
492.538	9050.03
492.908	9207.77
493.278	9333.19
493.648	9440.98
494.017	9641.43
494.387	9685.72
494.757	9858.14
495.126	10017.46
495.496	10111.92
495.866	10274.63
496.235	10354.63
496.605	10623.55
496.974	10617.45
497.344	10833.26
497.713	10955.29
498.082	11073.03
498.452	11236.41
498.821	11341.72
499.19	11424.88
499.559	11620.81
499.928	11707.36
500.298	11870.52
500.667	12016.05
501.036	12126.56
501.405	12286.33
501.774	12386.89
502.143	12444.07
502.512	12635.47
502.88	12858.29
503.249	12913.43
503.618	13062.58
503.987	13098.51
504.356	13412.85
504.724	13500.99
505.093	13595.67
505.462	13653.3
505.83	13721.09
506.199	13974.19
506.567	14216
506.936	14240.4
507.304	14437.69
507.672	14503.67
508.041	14669.77
508.409	14862.31
508.777	14914.96
509.145	15127.38
509.514	15145.69
509.882	15389.07
510.25	15360.15
510.618	15560.37
510.986	15688.5
511.354	15839.23
511.722	16053.69
512.09	16181.37
512.458	16126.45
512.826	16474.02
513.193	16348.82
513.561	16563.05
513.929	16732.54
514.297	16858.41
514.664	17082.81
515.032	17124.39
515.4	17308.12
515.767	17461.79
516.135	17545.63
516.502	17542.24
516.869	17875.11
517.237	17956.69
517.604	17891.83
517.972	18219.96
518.339	18290.01
518.706	18358.49
519.073	18482.32
519.44	18586.95
519.808	18883.67
520.175	18951.01
520.542	19217.22
520.909	19283.89
521.276	19352.81
521.643	19611.56
522.009	19749.41
522.376	19887.94
522.743	19920.25
523.11	20226.23
523.477	20460.35
523.843	20535.15
524.21	20839.55
524.577	20975.14
524.943	21021.92
525.31	21247.9
525.676	21549.36
526.043	21605.63
526.409	21706.19
526.776	21953.42
527.142	22036.58
527.508	22284.94
527.874	22376.23
528.241	22596.34
528.607	22600.18
528.973	22950
529.339	22864.81
529.705	23161.52
530.071	23361.52
530.437	23492.59
530.803	23566.71
531.169	23734.39
531.535	23847.61
531.901	24008.96
532.267	24132.12
532.632	24328.72
532.998	24296.18
533.364	24499.34
533.73	24523.3
534.095	24846
534.461	24831.76
534.826	24938.88
535.192	25117.18
535.557	25350.39
535.923	25396.04
536.288	25450.73
536.653	25564.62
537.019	25546.09
537.384	25642.14
537.749	25714
538.114	25844.39
538.479	25927.33
538.845	26009.36
539.21	26024.5
539.575	26121.9
539.94	26167.09
540.305	26251.84
540.67	26327.54
541.034	26387.65
541.399	26543.13
541.764	26575.67
542.129	26564.82
542.494	26721.66
542.858	26923.23
543.223	26859.28
543.587	26974.76
543.952	27043
544.316	27079.84
544.681	27101.99
545.045	27345.14
545.41	27418.14
545.774	27312.38
546.138	27291.81
546.503	27523.22
546.867	27506.72
547.231	27557.34
547.595	27740.84
547.959	27844.11
548.324	27847.73
548.688	27797.11
549.052	28011.79
549.416	27961.85
549.779	28083.2
550.143	28121.17
550.507	28251.79
550.871	28463.76
551.235	28408.84
551.599	28681.6
551.962	28683.41
552.326	28656.75
552.689	28809.28
553.053	28516.41
553.417	28835.95
553.78	29109.84
554.143	29068.94
554.507	29110.75
554.87	29288.59
555.234	29495.82
555.597	29368.82
555.96	29588.93
556.323	29609.72
556.686	29722.71
557.05	29821.46
557.413	29912.08
557.776	29974.23
558.139	30252.18
558.502	30294.9
558.865	30309.58
559.228	30569.24
559.59	30605.62
559.953	30737.6
560.316	31046.06
560.679	30901.89
561.041	31088.1
561.404	31182.1
561.767	31491.47
562.129	31346.62
562.492	31715.2
562.854	31711.81
563.217	31699.15
563.579	31913.61
563.941	32082.87
564.304	32183.89
564.666	32613.25
565.028	32401.96
565.39	32613.7
565.753	32787.94
566.115	32801.72
566.477	32962.62
566.839	33144.31
567.201	33458.2
567.563	33557.63
567.925	33594.02
568.287	33667.24
568.648	33768.25
569.01	34093.67
569.372	34278.75
569.734	34273.55
570.095	34464.05
570.457	34769.35
570.819	34767.55
571.18	34736.13
571.542	35104.49
571.903	35068.33
572.265	35365.95
572.626	35412.28
572.987	35592.61
573.349	35869.21
573.71	35897.01
574.071	36034.41
574.432	36332.93
574.794	36731.34
575.155	36631
575.516	36820.37
575.877	36928.17
576.238	36924.78
576.599	37055.17
576.96	37240.25
577.32	37509.4
577.681	37461.03
578.042	37754.59
578.403	37885.2
578.763	37881.81
579.124	38033.22
579.485	38357.96
579.845	38518.86
580.206	38616.48
580.566	38628.01
580.927	38650.16
581.287	39057.6
581.648	39130.82
582.008	39410.14
582.368	39418.95
582.728	39484.03
583.089	39726.74
583.449	39865.27
583.809	39963.79
584.169	40175.99
584.529	40129.21
584.889	40752.47
585.249	40646.71
585.609	40672.7
585.969	41078.11
586.329	41039.92
586.688	41383.19
587.048	41419.12
587.408	41642.62
587.768	41820.02
588.127	41975.94
588.487	42042.84
588.846	42698.64
589.206	42380.68
589.565	42540.9
589.925	43058.4
590.284	43130.72
590.643	43318.28
591.003	43540.65
591.362	43917.59
591.721	44035.1
592.08	44099.96
592.44	44479.61
592.799	44611.58
593.158	44765.02
593.517	44856.77
593.876	45325.46
594.235	45331.11
594.593	45474.84
594.952	45848.38
595.311	45815.39
595.67	46118.66
596.029	46484.98
596.387	46763.62
596.746	46956.83
597.104	46966.1
597.463	47125.87
597.822	47522.69
598.18	47473.65
598.538	47576.93
598.897	48121.55
599.255	47943.92
599.613	48511.14
599.972	48405.15
600.33	48705.71
600.688	48657.35
601.046	48994.97
601.404	49363.32
601.762	49457.33
602.12	49668.85
602.478	49739.81
602.836	49823.65
603.194	49789.52
603.552	50109.52
603.91	50192.23
604.268	50455.95
604.625	50604.42
604.983	50694.81
605.341	50658.65
605.698	51014.12
606.056	51266.32
606.413	51158.75
606.771	51471.51
607.128	51563.94
607.485	51648.68
607.843	51758.29
608.2	51871.28
608.557	52186.3
608.914	52156.69
609.272	52388.1
609.629	52584.25
609.986	52728.43
610.343	52718.03
610.7	52987.63
611.057	52945.37
611.414	52949.89
611.771	53216.33
612.127	53324.35
612.484	53445.7
612.841	53653.15
613.198	53525.92
613.554	53572.48
613.911	53803.43
614.267	53912.35
614.624	53872.35
614.98	54088.62
615.337	54339.24
615.693	54341.27
616.05	54346.01
616.406	54482.73
616.762	54437.99
617.118	54581.26
617.475	54605.22
617.831	54732.9
618.187	54811.09
618.543	54858.77
618.899	55075.94
619.255	54998.2
619.611	55030.29
619.967	55243.84
620.323	55317.74
620.678	55218.99
621.034	55258.98
621.39	55318.87
621.746	55370.85
622.101	55725.41
622.457	55437.74
622.812	55543.72
623.168	55637.05
623.523	55613.55
623.879	55811.51
624.234	55647.9
624.589	55777.39
624.945	55760.89
625.3	55846.54
625.655	55911.4
626.01	55929.93
626.365	55898.06
626.72	55858.29
627.075	55859.2
627.43	55860.78
627.785	55961.57
628.14	55974.9
628.495	56043.82
628.85	55993.65
629.205	55948.01
629.559	56052.64
629.914	55981.23
630.269	56060.77
630.623	55876.6
630.978	55843.15
631.332	56036.37
631.687	55991.85
632.041	55966.31
632.396	56034.78
632.75	55904.84
633.104	55982.36
633.459	55828.24
633.813	55894.45
634.167	55862.36
634.521	55795.24
634.875	55893.32
635.229	55795.24
635.583	55674.12
635.937	55740.33
636.291	55721.35
636.645	55701.46
636.999	55500.11
637.352	55706.66
637.706	55447.68
638.06	55603.61
638.413	55526.77
638.767	55466.66
639.121	55484.97
639.474	55369.26
639.828	55435.48
640.181	55338.3
640.534	55448.13
640.888	55330.17
641.241	55276.61
641.594	55284.29
641.947	55460.79
642.301	55277.97
642.654	55299.89
643.007	55191.87
643.36	55288.36
643.713	55155.26
644.066	55309.38
644.419	55086.56
644.771	54781.03
645.124	54551.88
645.477	54550.53
645.83	54431.44
646.182	54312.57
646.535	54332.46
646.888	54339.46
647.24	54316.41
647.593	54458.1
647.945	54369.74
648.298	54259.01
648.65	54163.87
649.002	54058.34
649.355	53992.35
649.707	53994.84
650.059	53980.37
650.411	54360.25
650.763	54440.93
651.115	54849.05
651.467	54743.74
651.819	54822.39
652.171	54666.68
652.523	54606.35
652.875	54611.32
653.227	54561.6
653.578	54756.63
653.93	54713.69
654.282	54529.74
654.633	54541.04
654.985	54560.47
655.337	54547.59
655.688	54529.06
656.039	54609.51
656.391	54369.97
656.742	54465.33
657.094	54376.3
657.445	54492.45
657.796	54422.62
658.147	54317.99
658.498	54394.37
658.849	54391.21
659.2	54282.97
659.551	54246.58
659.902	54494.03
660.253	54261.5
660.604	54326.13
660.955	54249.07
661.306	54316.41
661.656	54221.95
662.007	54264.89
662.358	54302.63
662.708	54222.18
663.059	54225.11
663.409	54047.04
663.76	54247.71
664.11	54196.41
664.461	54260.14
664.811	54200.48
665.161	54198.67
665.511	54069.64
665.862	54114.61
666.212	54134.95
666.562	54174.49
666.912	54149.64
667.262	54036.42
667.612	54064.67
667.962	54129.75
668.312	54159.35
668.662	54205
669.011	54112.57
669.361	54070.09
669.711	54087.04
670.06	54070.99
670.41	54008.17
670.76	53960.49
671.109	54005.46
671.459	53946.25
671.808	53946.7
672.157	54014.05
672.507	53851.34
672.856	53839.81
673.205	53939.47
673.554	53945.57
673.904	53846.14
674.253	54094.72
674.602	53801.62
674.951	53455.64
675.3	53345.36
675.649	53806.37
675.998	53898.57
676.346	53795.29
676.695	53900.83
677.044	53719.36
677.393	53751.23
677.741	53878.68
678.09	53728.18
678.438	53628.29
678.787	53762.08
679.135	53732.7
679.484	53486.15
679.832	53643.66
680.181	53586.71
680.529	53587.84
680.877	53514.4
681.225	53393.05
681.573	53654.51
681.922	53562.08
682.27	53382.65
682.618	53367.06
682.966	53338.13
683.314	53307.62
683.661	53390.11
684.009	53160.73
684.357	53137.91
684.705	53109.66
685.053	53161.19
685.4	53088.65
685.748	53000.29
686.095	53034.41
686.443	52964.81
686.79	52855.43
687.138	53007.97
687.485	52958.48
687.832	52770.46
688.18	52745.6
688.527	52671.48
688.874	52593.52
689.221	52578.6
689.568	52507.64
689.915	52385.39
690.262	52496.12
690.609	52377.93
690.956	52175.68
691.303	52204.15
691.65	52041.67
691.997	52111.72
692.344	51939.98
692.69	51873.76
693.037	52015.68
693.383	51651.85
693.73	51740.66
694.077	51601.23
694.423	51562.13
694.769	51376.83
695.116	51434.45
695.462	51358.97
695.808	51238.98
696.155	51354
696.501	51065.87
696.847	51203.27
697.193	50861.13
697.539	50896.39
697.885	50581.37
698.231	50585.66
698.577	50556.28
698.923	50551.76
699.269	50346.57
699.614	50133.02
699.96	50259.12
700.306	50170.98
700.651	49966.24
700.997	49799.92
701.342	49820.71
701.688	49696.19
702.033	49640.38
702.379	49570.55
702.724	49390.66
703.069	49490.32
703.415	49194.96
703.76	49056.21
704.105	49034.74
704.45	49049.43
704.795	48759.95
705.14	48581.65
705.485	48687.41
705.83	48467.53
706.175	48544.81
706.52	48474.3
706.865	48278.38
707.209	48134.88
707.554	48033.64
707.899	48059.85
708.243	47785.74
708.588	47862.12
708.932	47710.26
709.277	47669.35
709.621	47580.54
709.966	47319.98
710.31	47449.47
710.654	47155.24
710.998	47307.1
711.342	47279.53
711.687	47056.26
712.031	46982.59
712.375	46743.28
712.719	46717.97
713.063	46658.53
713.407	46765.2
713.75	46617.18
714.094	46534.02
714.438	46380.8
714.782	46330.41
715.125	46165.44
715.469	46457.18
715.812	45974.03
716.156	45919.8
716.499	45795.96
716.843	45983.52
717.186	45741.5
717.53	45920.25
717.873	45815.84
718.216	45740.59
718.559	45589.41
718.902	45219.02
719.246	45435.97
719.589	45433.71
719.932	45180.83
720.275	45285.69
720.617	45188.74
720.96	45024.45
721.303	45228.51
721.646	45100.83
721.989	44734.74
722.331	44870.33
722.674	44782.2
723.016	44727.74
723.359	44605.93
723.701	44745.14
724.044	44550.11
724.386	44336.33
724.729	44582.43
725.071	44619.72
725.413	44326.39
725.755	44331.36
726.097	44283.45
726.439	44105.15
726.782	44082.33
727.124	44366.39
727.465	44172.5
727.807	43890.92
728.149	44011.82
728.491	43925.5
728.833	43956.01
729.175	43862.45
729.516	43819.74
729.858	43627.43
730.199	43880.75
730.541	43667.2
730.882	43442.35
731.224	43539.52
731.565	43347.89
731.906	43513.08
732.248	43478.5
732.589	43205.97
732.93	43303.59
733.271	43236.02
733.612	43368.68
733.953	43375.68
734.294	43145.86
734.635	43184.05
734.976	43276.02
735.317	43164.61
735.658	43158.29
735.999	43030.38
736.339	43086.2
736.68	43051.17
737.021	43096.14
737.361	42799.2
737.702	43155.57
738.042	42854.57
738.383	42923.26
738.723	43046.88
739.063	42727.56
739.404	43090.04
739.744	42797.39
740.084	42672.2
740.424	42836.03
740.764	42526.44
741.104	42915.35
741.444	42674.68
741.784	42594.69
742.124	42814.34
742.464	42786.77
742.804	42602.37
743.143	42542.48
743.483	42723.04
743.823	42481.69
744.162	42448.02
744.502	42593.33
744.841	42375.26
745.181	42718.3
745.52	42353.79
745.86	42535.03
746.199	42363.73
746.538	42578.64
746.877	42644.18
747.216	42522.6
747.556	42393.56
747.895	42588.13
748.234	42497.06
748.573	42446.67
748.911	42224.3
749.25	42456.61
749.589	42317.63
749.928	42356.27
750.267	42353.56
750.605	42327.12
750.944	42296.61
751.283	42355.37
751.621	42461.58
751.96	42269.95
752.298	42316.73
752.636	42319.66
752.975	42152.89
753.313	42052.33
753.651	42332.09
753.989	42095.26
754.327	42135.04
754.666	41894.59
755.004	42031.54
755.342	42034.47
755.679	42044.19
756.017	41746.35
756.355	42074.7
756.693	41893.23
757.031	41946.57
757.368	41752
757.706	41837.87
758.044	41730.3
758.381	41643.98
758.719	41608.27
759.056	41585.45
759.394	41488.95
759.731	41256.42
760.068	41308.17
760.405	41385.9
760.743	41059.58
761.08	41055.29
761.417	40973.94
761.754	40848.97
762.091	40872.47
762.428	40688.07
762.765	40580.27
763.102	40662.31
763.438	40541.18
763.775	40274.52
764.112	40350.9
764.449	40269.55
764.785	40246.95
765.122	40049.22
765.458	39849.9
765.795	39752.95
766.131	39967.64
766.467	39778.49
766.804	39512.96
767.14	39332.85
767.476	39322.91
767.812	39172.18
768.148	39253.76
768.485	39038.17
768.821	38721.34
769.157	38784.39
769.492	38733.54
769.828	38647.22
770.164	38269.38
770.5	38232.54
770.836	38281.35
771.171	38166.78
771.507	37944.64
771.842	37762.04
772.178	37807.69
772.513	37652.89
772.849	37401.6
773.184	37394.14
773.519	37255.62
773.855	37110.31
774.19	37020.37
774.525	36706.93
774.86	36800.26
775.195	36713.94
775.53	36621.73
775.865	36206.83
776.2	36126.61
776.535	36026.72
776.87	35890
777.205	35678.48
777.539	35864.01
777.874	35755.09
778.209	35401.2
778.543	35473.74
778.878	35240.98
779.212	35230.58
779.547	34975
779.881	34923.93
780.215	34721.9
780.55	34716.25
780.884	34462.24
781.218	34438.97
781.552	34381.79
781.886	34139.09
782.22	33999.43
782.554	34003.95
782.888	33691.42
783.222	33693.9
783.556	33376.85
783.889	33427.92
784.223	33155.61
784.557	33185.67
784.89	33184.99
785.224	32898.67
785.557	32793.81
785.891	32755.4
786.224	32630.2
786.558	32635.17
786.891	32324.67
787.224	32185.47
787.557	32068.41
787.891	32021.4
788.224	31909.32
788.557	31853.95
788.89	31793.39
789.223	31710.23
789.556	31485.82
789.888	31362.21
790.221	31060.07
790.554	31113.18
790.887	31112.5
791.219	31000.64
791.552	30912.05
791.884	30781.89
792.217	30821.44
792.549	30506.87
792.882	30298.74
793.214	30315.69
793.546	30268.46
793.879	30124.73
794.211	29848.58
794.543	30009.03
794.875	29940.78
795.207	29901.01
795.539	29772.65
795.871	29656.72
796.203	29488.14
796.535	29374.24
796.867	29319.55
797.198	29180.12
797.53	29199.33
797.862	28929.51
798.193	28998.66
798.525	28742.39
798.856	29009.28
799.188	28416.53
799.519	28421.05
799.85	28266.47
800.182	28350.77
800.513	28457.88
800.844	28030.1
801.175	28302.41
801.506	28051.79
801.837	27920.95
802.168	27833.72
802.499	27801.18
802.83	27574.74
803.161	27605.25
803.491	27633.72
803.822	27636.43
804.153	27370.9
804.483	27196.22
804.814	27059.95
805.145	27188.31
805.475	27071.03
805.805	27090.69
806.136	27083.68
806.466	26866.51
806.796	26867.42
807.126	26724.37
807.457	26677.82
807.787	26664.26
808.117	26508.55
808.447	26378.39
808.777	26497.03
809.107	26240.76
809.436	26099.98
809.766	26166.19
810.096	26153.76
810.426	26036.93
810.755	26076.25
811.085	25999.87
811.414	25862.47
811.744	25714
812.073	25700.21
812.403	25730.27
812.732	25562.14
813.061	25707.67
813.39	25396.95
813.719	25358.98
814.049	25488.02
814.378	25409.37
814.707	25264.07
815.036	25231.07
815.365	25117.63
815.693	24833.8
816.022	24912.21
816.351	24916.05
816.68	24695.72
817.008	24835.83
817.337	24575.27
817.665	24589.73
817.994	24537.98
818.322	24628.6
818.651	24422.28
818.979	24441.49
819.307	24394.71
819.636	24472.68
819.964	24233.81
820.292	24334.37
820.62	24287.37
820.948	24426.58
821.276	24366.69
821.604	24225.9
821.932	24363.98
822.259	24143.19
822.587	24217.32
822.915	24109.97
823.243	24261.61
823.57	24138.45
823.898	24344.77
824.225	24200.82
824.553	24132.57
824.88	24113.82
825.207	24194.04
825.535	24133.48
825.862	24271.1
826.189	24111.56
826.516	24260.7
826.843	24276.52
827.17	24357.42
827.497	24281.95
827.824	24277.2
828.151	24311.78
828.478	24116.98
828.805	24201.72
829.131	24252.12
829.458	24167.15
829.785	24061.61
830.111	24138.45
830.438	24309.74
830.764	24146.36
831.09	24321.72
831.417	24113.82
831.743	24211.21
832.069	24139.35
832.395	24089.18
832.722	24114.49
833.048	24127.6
833.374	24182.06
833.7	23955.18
834.026	24133.93
834.351	24010.99
834.677	24086.92
835.003	23958.79
835.329	24076.08
835.654	24007.83
835.98	23730.32
836.306	23860.94
836.631	23869.98
836.956	24006.93
837.282	23876.08
837.607	23765.8
837.932	23770.32
838.258	23699.36
838.583	23723.32
838.908	23612.13
839.233	23819.59
839.558	23535.3
839.883	23564.9
840.208	23404.46
840.533	23502.76
840.858	23419.6
841.182	23493.04
841.507	23412.82
841.832	23293.95
842.156	23269.54
842.481	23282.42
842.805	23156.78
843.13	23031.36
843.454	23184.8
843.778	23061.87
844.103	23076.78
844.427	23011.47
844.751	23015.99
845.075	22945.94
845.399	22823.23
845.723	22764.47
846.047	22730.57
846.371	22629.79
846.695	22486.51
847.019	22473.18
847.343	22242.23
847.666	22200.42
847.99	22109.35
848.313	21967.2
848.637	22053.08
848.96	21935.12
849.284	21766.31
849.607	21661.9
849.931	21698.06
850.254	21578.06
850.577	21454.22
850.9	21267.56
851.223	21240.22
851.546	21240.67
851.869	21025.99
852.192	21291.74
852.515	20927.01
852.838	20870.51
853.161	20892.2
853.483	20785.32
853.806	20787.57
854.129	20653.57
854.451	20522.95
854.774	20464.87
855.096	20397.08
855.419	20357.98
855.741	20314.82
856.063	20189.85
856.385	20084.54
856.708	20097.65
857.03	20035.28
857.352	19967.03
857.674	19955.73
857.996	19926.35
858.318	19741.5
858.64	19772.23
858.961	19705.8
859.283	19597.55
859.605	19432.58
859.926	19534.27
860.248	19467.84
860.57	19347.39
860.891	19377.67
861.212	19285.69
861.534	19202.76
861.855	19123.44
862.176	19291.34
862.498	19193.04
862.819	19167.28
863.14	19068.98
863.461	19045.7
863.782	18960.96
864.103	19052.93
864.424	18902.88
864.745	19019.03
865.065	18793.5
865.386	18764.13
865.707	18795.31
866.027	18746.5
866.348	18865.59
866.668	18671.25
866.989	18683
867.309	18502.44
867.63	18535.66
867.95	18645.48
868.27	18386.28
868.59	18470.35
868.91	18452.5
869.23	18444.36
869.55	18349.9
869.87	18445.04
870.19	18238.94
870.51	18260.64
870.83	18298.83
871.15	18123.01
871.469	18203.69
871.789	18264.03
872.109	18218.15
872.428	18001.21
872.748	18157.59
873.067	18166.17
873.386	18009.12
873.706	18008.66
874.025	18023.13
874.344	17880.31
874.663	17947.88
874.982	17981.32
875.301	17857.03
875.62	17805.73
875.939	17808.67
876.258	17753.3
876.577	17756.92
876.896	17707.66
877.214	17779.97
877.533	17681.89
877.852	17750.14
878.17	17619.97
878.489	17607.09
878.807	17471.05
879.125	17498.4
879.444	17471.5
879.762	17491.62
880.08	17457.49
880.398	17338.4
880.716	17345.18
881.034	17296.37
881.352	17259.53
881.67	17192.42
881.988	17281
882.306	17167.11
882.624	17150.38
882.941	17068.8
883.259	17003.49
883.577	16950.84
883.894	16885.98
884.212	16863.61
884.529	16886.21
884.846	16801.24
885.164	16764.63
885.481	16738.19
885.798	16754.91
886.115	16593.79
886.432	16679.66
886.75	16629.27
887.067	16598.98
887.383	16544.3
887.7	16572.54
888.017	16396.05
888.334	16487.35
888.651	16400.35
888.967	16414.36
889.284	16265.89
889.6	16233.12
889.917	16131.65
890.233	16136.4
890.55	16059.34
890.866	16039.45
891.182	16004.2
891.498	15935.73
891.815	15851.89
892.131	15918.1
892.447	15911.54
892.763	15848.27
893.079	15650.99
893.395	15623.19
893.71	15568.73
894.026	15622.74
894.342	15559.46
894.657	15517.43
894.973	15486.92
895.289	15454.38
895.604	15317.89
895.92	15216.42
896.235	15236.53
896.55	15211.22
896.865	15130.55
897.181	15094.84
897.496	15160.38
897.811	14921.06
898.126	14871.57
898.441	14859.82
898.756	14831.12
899.071	14830.9
899.386	14805.13
899.7	14712.71
900.015	14600.17
900.33	14450.57
900.644	14441.75
900.959	14490.11
901.273	14435.65
901.588	14350.46
901.902	14321.08
902.216	14200.86
902.531	14223.45
902.845	14184.58
903.159	14089.45
903.473	14060.52
903.787	13980.52
904.101	13955.44
904.415	13952.73
904.729	13803.13
905.042	13782.11
905.356	13745.05
905.67	13692.62
905.984	13758.61
906.297	13623.02
906.611	13591.83
906.924	13576.69
907.237	13486.3
907.551	13435.68
907.864	13324.49
908.177	13377.6
908.491	13265.06
908.804	13215.8
909.117	13163.59
909.43	13067.1
909.743	12979.42
910.056	12974.22
910.368	12896.03
910.681	12898.29
910.994	12805.64
911.307	12741.01
911.619	12611.74
911.932	12745.07
912.244	12558.41
912.557	12551.18
912.869	12498.53
913.181	12428.92
913.494	12461.01
913.806	12299.44
914.118	12298.98
914.43	12222.15
914.742	12260.79
915.054	12102.38
915.366	12128.14
915.678	11962.72
915.99	12023.29
916.302	11830.97
916.613	11826.91
916.925	11795.72
917.236	11819.45
917.548	11659.91
917.859	11727.47
918.171	11655.61
918.482	11628.95
918.794	11549.4
919.105	11490.19
919.416	11414.26
919.727	11393.25
920.038	11341.27
920.349	11364.77
920.66	11289.75
920.971	11259.92
921.282	11162.74
921.593	11159.58
921.903	10977.21
922.214	11024.67
922.525	10860.38
922.835	10925.69
923.146	10881.62
923.456	10877.55
923.767	10793.04
924.077	10712.59
924.387	10746.48
924.697	10615.19
925.008	10608.18
925.318	10578.35
925.628	10504
925.938	10488.64
926.248	10440.73
926.558	10394.85
926.867	10380.84
927.177	10303.1
927.487	10254.07
927.796	10162.77
928.106	10116.22
928.416	10117.12
928.725	10096.1
929.034	10003.9
929.344	10042.55
929.653	9928.65
929.962	9858.82
930.271	9862.21
930.581	9854.3
930.89	9787.64
931.199	9695.89
931.508	9716.91
931.817	9685.04
932.125	9588.77
932.434	9678.26
932.743	9527.53
933.051	9514.42
933.36	9488.66
933.669	9372.51
933.977	9363.92
934.286	9357.59
934.594	9334.99
934.902	9307.42
935.21	9197.37
935.519	9211.16
935.827	9185.39
936.135	9091.61
936.443	9086.87
936.751	9022.46
937.059	9022.46
937.367	8923.71
937.674	8936.36
937.982	8899.07
938.29	8836.7
938.597	8796.03
938.905	8716.03
939.213	8671.96
939.52	8630.83
939.827	8690.49
940.135	8569.82
940.442	8553.32
940.749	8505.86
941.056	8504.51
941.363	8463.83
941.67	8430.39
941.977	8386.77
942.284	8279.88
942.591	8310.16
942.898	8237.85
943.205	8271.75
943.511	8222.26
943.818	8189.94
944.125	8116.27
944.431	8054.12
944.738	8146.1
945.044	8047.8
945.35	8015.26
945.657	7944.97
945.963	7913.56
946.269	7799.22
946.575	7837.18
946.881	7831.53
947.187	7796.96
947.493	7678.99
947.799	7700.69
948.105	7626.79
948.41	7581.59
948.716	7598.54
949.022	7569.39
949.327	7483.52
949.633	7404.2
949.938	7466.34
950.244	7424.99
950.549	7372.33
950.854	7292.79
951.16	7317.19
951.465	7248.5
951.77	7211.21
952.075	7227.71
952.38	7157.65
952.685	7101.16
952.99	7101.16
953.294	7068.84
953.599	7044.43
953.904	7028.84
954.209	6939.8
954.513	6964.89
954.818	6937.32
955.122	6881.27
955.426	6822.29
955.731	6818.22
956.035	6777.1
956.339	6749.53
956.643	6761.73
956.948	6682.86
957.252	6652.58
957.556	6685.35
957.86	6613.71
958.163	6598.57
958.467	6573.03
958.771	6576.42
959.075	6556.99
959.378	6469.53
959.682	6467.05
959.985	6419.37
960.289	6406.71
960.592	6385.24
960.896	6295.07
961.199	6262.76
961.502	6291.46
961.805	6202.42
962.108	6183.44
962.411	6180.28
962.714	6139.15
963.017	6123.1
963.32	6154.29
963.623	6081.29
963.926	6088.98
964.228	5990.22
964.531	6000.17
964.833	5980.51
965.136	5971.47
965.438	5910
965.741	5849.21
966.043	5880.85
966.345	5810.34
966.648	5824.13
966.95	5801.75
967.252	5707.29
967.554	5711.36
967.856	5694.41
968.158	5647.41
968.46	5627.3
968.761	5626.62
969.063	5598.37
969.365	5583.45
969.666	5552.04
969.968	5505.49
970.269	5503.01
970.571	5486.51
970.872	5471.37
971.174	5433.18
971.475	5352.95
971.776	5365.38
972.077	5338.72
972.378	5328.77
972.679	5303.01
972.98	5324.25
973.281	5242.45
973.582	5250.36
973.883	5230.92
974.183	5206.29
974.484	5140.3
974.785	5141.66
975.085	5150.47
975.386	5145.5
975.686	5093.3
975.986	5048.33
976.287	4999.97
976.587	5016.46
976.887	5010.81
977.187	5009.91
977.487	4927.88
977.787	4921.1
978.087	4900.76
978.387	4884.49
978.687	4821.44
978.987	4808.56
979.286	4811.05
979.586	4812.85
979.885	4738.73
980.185	4738.51
980.484	4736.25
980.784	4739.64
981.083	4709.13
981.382	4687.89
981.682	4634.55
981.981	4649.47
982.28	4619.86
982.579	4583.71
982.878	4553.88
983.177	4531.73
983.475	4560.2
983.774	4497.38
984.073	4457.61
984.372	4467.78
984.67	4423.49
984.969	4432.3
985.267	4375.58
985.566	4332.41
985.864	4311.85
986.162	4331.96
986.461	4278.86
986.759	4279.76
987.057	4197.95
987.355	4243.38
987.653	4233.89
987.951	4206.77
988.249	4142.36
988.547	4175.13
988.844	4110.27
989.142	4135.58
989.44	4085.87
989.737	4113.66
990.035	4064.85
990.332	4044.06
990.63	4039.54
990.927	4032.99
991.224	4009.03
991.521	3966.32
991.819	3981.24
992.116	3962.93
992.413	3924.97
992.71	3874.8
993.006	3900.11
993.303	3878.19
993.6	3803.39
993.897	3780.79
994.193	3822.37
994.49	3787.57
994.787	3754.58
995.083	3746.67
995.379	3673.22
995.676	3683.39
995.972	3692.66
996.268	3641.59
996.565	3617.18
996.861	3594.13
997.157	3602.94
997.453	3571.98
997.749	3501.48
998.044	3527.46
998.34	3491.98
998.636	3503.06
998.932	3453.12
999.227	3463.96
999.523	3461.02
999.818	3410.18
1000.114	3439.78
1000.409	3390.07
1000.704	3402.04
1001	3339.9
1001.295	3350.29
1001.59	3308.03
1001.885	3278.43
1002.18	3285.44
1002.475	3264.19
1002.77	3228.71
1003.065	3244.76
1003.359	3184.42
1003.654	3197.3
1003.949	3154.14
1004.243	3180.81
1004.538	3126.57
1004.832	3131.54
1005.127	3105.1
1005.421	3077.53
1005.715	3047.02
1006.009	3071.43
1006.304	3020.36
1006.598	3019.23
1006.892	2994.6
1007.186	2957.54
1007.48	2890.64
1007.773	2918.67
1008.067	2932.23
1008.361	2866.69
1008.655	2882.28
1008.948	2848.16
1009.242	2863.53
1009.535	2791.66
1009.829	2819.01
1010.122	2799.57
1010.415	2780.59
1010.708	2773.59
1011.001	2719.58
1011.295	2744.66
1011.588	2708.28
1011.881	2717.77
1012.173	2644.32
1012.466	2661.27
1012.759	2660.37
1013.052	2659.92
1013.344	2603.19
1013.637	2616.3
1013.93	2596.19
1014.222	2569.3
1014.514	2581.95
1014.807	2528.62
1015.099	2506.25
1015.391	2498.79
1015.683	2487.94
1015.976	2455.18
1016.268	2468.28
1016.56	2413.14
1016.851	2410.43
1017.143	2398.68
1017.435	2398
1017.727	2381.05
1018.018	2369.3
1018.31	2355.52
1018.602	2324.78
1018.893	2318
1019.185	2274.16
1019.476	2281.17
1019.767	2247.27
1020.058	2216.54
1020.35	2200.94
1020.641	2214.05
1020.932	2186.48
1021.223	2162.3
1021.514	2169.99
1021.804	2157.56
1022.095	2165.24
1022.386	2102.87
1022.677	2130.21
1022.967	2099.93
1023.258	2086.6
1023.548	2069.42
1023.839	2050.67
1024.129	1996.2
1024.419	2018.35
1024.709	2007.96
1025	1974.28
1025.29	1960.27
1025.58	1950.56
1025.87	1926.38
1026.16	1940.39
1026.449	1899.71
1026.739	1918.69
1027.029	1905.13
1027.319	1882.08
1027.608	1866.26
1027.898	1844.12
1028.187	1846.15
1028.477	1804.8
1028.766	1800.28
1029.055	1777.68
1029.344	1809.32
1029.634	1793.27
1029.923	1754.18
1030.212	1733.16
1030.501	1757.57
1030.79	1698.81
1031.078	1699.04
1031.367	1686.38
1031.656	1693.16
1031.945	1683.9
1032.233	1654.52
1032.522	1637.8
1032.81	1654.29
1033.099	1645.48
1033.387	1618.81
1033.675	1599.83
1033.963	1590.34
1034.251	1567.74
1034.54	1553.96
1034.828	1535.2
1035.116	1536.56
1035.403	1536.33
1035.691	1527.06
1035.979	1542.66
1036.267	1527.97
1036.554	1489.33
1036.842	1488.2
1037.129	1460.4
1037.417	1470.79
1037.704	1473.51
1037.992	1446.39
1038.279	1431.02
1038.566	1449.1
1038.853	1449.1
1039.14	1449.1
