Data from 14-1119_FLMS001491_008.txt Node
Date: Thu Apr 19 16:09:55 BST 2018
User: hsy
Spectrometer: FLMS00149
Trigger mode: 0
Integration Time (sec): 1.000000E-2
Scans to average: 10
Electric dark correction enabled: true
Nonlinearity correction enabled: false
Boxcar width: 0
XAxis mode: Wavelengths
Number of Pixels in Spectrum: 2048
>>>>>Begin Spectral Data<<<<<
341.393	-2.4
341.776	-2.4
342.16	-2.4
342.543	-34.72
342.927	-61.38
343.31	-73.59
343.693	-55.28
344.077	-83.75
344.46	-56.18
344.843	-40.37
345.226	-52.8
345.61	-54.6
345.993	-18.22
346.376	-3.98
346.759	5.28
347.142	4.83
347.525	54.55
347.908	56.81
348.291	80.08
348.674	114.88
349.057	122.34
349.44	135.22
349.823	139.74
350.206	163.24
350.588	214.54
350.971	228.1
351.354	265.61
351.737	254.99
352.119	265.16
352.502	292.73
352.884	304.03
353.267	346.74
353.65	337.03
354.032	351.94
354.414	346.29
354.797	363.92
355.179	345.16
355.562	380.19
355.944	378.15
356.326	383.35
356.709	392.62
357.091	374.09
357.473	385.16
357.855	367.53
358.238	365.27
358.62	391.71
359.002	388.1
359.384	371.37
359.766	392.16
360.148	386.29
360.53	374.76
360.912	376.57
361.294	376.8
361.676	388.1
362.057	376.57
362.439	372.96
362.821	378.83
363.203	383.58
363.584	371.6
363.966	365.72
364.348	368.66
364.729	373.63
365.111	375.44
365.493	366.63
365.874	367.08
366.256	352.39
366.637	353.3
367.019	390.36
367.4	380.41
367.781	361.43
368.163	361.66
368.544	390.58
368.925	366.4
369.306	347.87
369.688	366.18
370.069	369.11
370.45	382
370.831	369.11
371.212	367.31
371.593	385.84
371.974	363.01
372.355	369.34
372.736	377.48
373.117	377.7
373.498	386.29
373.879	383.58
374.26	376.8
374.641	364.82
375.021	363.24
375.402	360.98
375.783	378.83
376.163	380.64
376.544	382.67
376.925	389
377.305	398.72
377.686	380.41
378.066	387.87
378.447	406.4
378.827	413.86
379.208	401.66
379.588	399.62
379.968	412.05
380.349	404.82
380.729	447.3
381.109	410.24
381.489	420.64
381.87	420.64
382.25	446.4
382.63	393.29
383.01	433.29
383.39	422.22
383.77	427.64
384.15	425.84
384.53	424.71
384.91	423.58
385.29	429.68
385.67	440.75
386.049	433.52
386.429	438.72
386.809	447.53
387.189	451.15
387.568	452.73
387.948	458.38
388.328	473.74
388.707	466.06
389.087	460.41
389.466	443.91
389.846	457.93
390.225	479.62
390.605	477.36
390.984	485.72
391.363	473.74
391.743	511.48
392.122	490.02
392.501	480.3
392.881	497.02
393.26	518.49
393.639	522.33
394.018	511.03
394.397	509
394.776	489.11
395.155	513.52
395.534	527.08
395.913	513.97
396.292	508.55
396.671	505.38
397.05	530.47
397.429	532.27
397.808	560.52
398.186	521.2
398.565	539.51
398.944	528.43
399.323	536.34
399.701	564.14
400.08	553.97
400.458	575.21
400.837	573.85
401.215	570.47
401.594	573.63
401.972	587.19
402.351	579.5
402.729	595.78
403.107	591.48
403.486	625.38
403.864	598.94
404.242	607.98
404.62	621.99
404.999	625.61
405.377	646.62
405.755	628.09
406.133	655.89
406.511	649.33
406.889	674.87
407.267	671.71
407.645	665.6
408.023	697.69
408.401	699.05
408.779	715.09
409.156	708.54
409.534	710.35
409.912	734.75
410.29	760.97
410.667	743.57
411.045	761.65
411.422	755.09
411.8	784.47
412.178	779.27
412.555	823.34
412.933	816.56
413.31	821.76
413.687	849.55
414.065	852.72
414.442	864.24
414.819	858.82
415.197	864.92
415.574	892.72
415.951	912.15
416.328	914.64
416.705	919.61
417.082	928.65
417.46	904.92
417.837	927.97
418.214	967.97
418.591	974.97
418.967	1000.06
419.344	976.56
419.721	1008.87
420.098	989.21
420.475	1027.4
420.852	1012.49
421.228	1040.51
421.605	1037.8
421.982	1031.92
422.358	1058.14
422.735	1051.81
423.111	1084.58
423.488	1095.2
423.864	1108.76
424.241	1117.8
424.617	1110.56
424.994	1113.05
425.37	1122.09
425.746	1146.5
426.123	1160.05
426.499	1175.65
426.875	1172.48
427.251	1204.35
427.627	1244.35
428.003	1239.83
428.379	1223.1
428.756	1236.44
429.132	1260.62
429.507	1267.17
429.883	1307.17
430.259	1308.07
430.635	1325.7
431.011	1317.56
431.387	1358.92
431.763	1413.83
432.138	1393.95
432.514	1385.59
432.89	1410.22
433.265	1458.35
433.641	1478.24
434.016	1473.27
434.392	1492.93
434.767	1518.46
435.143	1510.78
435.518	1548.97
435.894	1594.62
436.269	1576.54
436.644	1596.2
437.02	1625.58
437.395	1619.48
437.77	1628.29
438.145	1657.67
438.52	1676.42
438.895	1687.95
439.271	1675.52
439.646	1732.69
440.021	1738.8
440.395	1734.73
440.77	1722.07
441.145	1791.68
441.52	1789.19
441.895	1776.31
442.27	1795.52
442.645	1775.63
443.019	1804.33
443.394	1841.84
443.769	1852.24
444.143	1847.95
444.518	1852.01
444.892	1811.79
445.267	1880.04
445.641	1915.06
446.016	1920.94
446.39	1918.68
446.764	1918.68
447.139	1923.65
447.513	1930.66
447.887	1959.13
448.262	1947.83
448.636	1981.5
449.01	2030.54
449.384	2007.72
449.758	2038.68
450.132	2042.06
450.506	2062.63
450.88	2056.98
451.254	2089.52
451.628	2117.77
452.002	2148.95
452.376	2162.06
452.75	2167.49
453.123	2201.83
453.497	2226.92
453.871	2234.83
454.244	2301.72
454.618	2346.92
454.992	2314.6
455.365	2362.06
455.739	2402.06
456.112	2415.16
456.486	2456.74
456.859	2456.74
457.232	2495.84
457.606	2511.88
457.979	2550.3
458.352	2599.56
458.725	2619.9
459.099	2656.06
459.472	2659.9
459.845	2726.79
460.218	2728.37
460.591	2777.19
460.964	2762.5
461.337	2780.12
461.71	2917.75
462.083	2936.05
462.456	2931.08
462.829	2923.17
463.201	3011.76
463.574	3014.02
463.947	3054.47
464.32	3127.46
464.692	3118.87
465.065	3154.8
465.438	3152.77
465.81	3222.6
466.183	3242.94
466.555	3317.29
466.928	3314.8
467.3	3400.22
467.672	3341.24
468.045	3452.42
468.417	3417.4
468.789	3507.56
469.161	3500.11
469.534	3550.95
469.906	3625.3
470.278	3665.07
470.65	3679.08
471.022	3765.41
471.394	3818.97
471.766	3863.71
472.138	3943.71
472.51	4030.71
472.882	4030.71
473.253	4070.03
473.625	4145.06
473.997	4254.66
474.369	4206.53
474.74	4295.57
475.112	4337.6
475.484	4427.54
475.855	4526.07
476.227	4542.56
476.598	4701.43
476.97	4723.58
477.341	4817.81
477.713	4883.8
478.084	4939.84
478.455	5041.76
478.827	5100.74
479.198	5265.03
479.569	5277.01
479.94	5387.74
480.311	5403.56
480.682	5553.16
481.053	5701.4
481.424	5751.57
481.795	5853.94
482.166	5951.34
482.537	6022.07
482.908	6164.89
483.279	6242.41
483.65	6401.27
484.021	6501.61
484.391	6641.49
484.762	6693.24
485.133	6734.37
485.503	6897.98
485.874	7039.67
486.244	7140.91
486.615	7309.95
486.985	7398.31
487.356	7519.21
487.726	7595.14
488.097	7804.17
488.467	7892.53
488.837	8103.83
489.207	8150.83
489.578	8341.11
489.948	8509.01
490.318	8617.71
490.688	8642.8
491.058	8829.23
491.428	8983.8
491.798	9141.09
492.168	9272.16
492.538	9415.43
492.908	9598.93
493.278	9749.88
493.648	9826.95
494.017	9974.29
494.387	10024
494.757	10214.73
495.126	10404.56
495.496	10507.83
495.866	10689.97
496.235	10818.78
496.605	10944.88
496.974	11071.21
497.344	11186.68
497.713	11355.04
498.082	11469.84
498.452	11602.49
498.821	11758.19
499.19	11788.93
499.559	11974.91
499.928	12173.1
500.298	12265.07
500.667	12470.27
501.036	12516.82
501.405	12708.9
501.774	12766.08
502.143	13013.75
502.512	13114.54
502.88	13220.08
503.249	13331.26
503.618	13472.05
503.987	13545.72
504.356	13672.72
504.724	13868.65
505.093	13918.59
505.462	14049.88
505.83	14168.98
506.199	14360.84
506.567	14513.6
506.936	14541.17
507.304	14826.81
507.672	14955.17
508.041	15099.35
508.409	15131.66
508.777	15341.15
509.145	15487.81
509.514	15541.37
509.882	15752.66
510.25	15760.35
510.618	16065.43
510.986	16012.55
511.354	16212.77
511.722	16441.69
512.09	16538.18
512.458	16648.46
512.826	16796.71
513.193	16822.24
513.561	16986.08
513.929	17174.1
514.297	17377.03
514.664	17508.32
515.032	17490.92
515.4	17751.93
515.767	17849.11
516.135	17975.21
516.502	17912.16
516.869	18319.6
517.237	18414.74
517.604	18294.07
517.972	18644.34
518.339	18744.9
518.706	18853.15
519.073	18959.13
519.44	19088.85
519.808	19299.24
520.175	19303.53
520.542	19617.2
520.909	19753.01
521.276	19778.77
521.643	20085.88
522.009	20150.52
522.376	20293.11
522.743	20337.4
523.11	20794.57
523.477	20869.82
523.843	21028.68
524.21	21328.56
524.577	21377.83
524.943	21499.18
525.31	21610.59
525.676	21884.26
526.043	22170.12
526.409	22297.58
526.776	22404.02
527.142	22517.68
527.508	22830.67
527.874	22950.89
528.241	23081.06
528.607	23157.44
528.973	23347.27
529.339	23466.36
529.705	23729.18
530.071	23872.23
530.437	24041.49
530.803	24222.5
531.169	24292.33
531.535	24387.69
531.901	24434.02
532.267	24575.94
532.632	24806.66
532.998	24818.87
533.364	25024.06
533.73	25137.28
534.095	25317.61
534.461	25403.71
534.826	25462.92
535.192	25568.68
535.557	25834.66
535.923	25853.42
536.288	25977.03
536.653	26051.83
537.019	26062.22
537.384	26199.85
537.749	26253.86
538.114	26375.21
538.479	26392.84
538.845	26555.54
539.21	26486.85
539.575	26680.97
539.94	26746.05
540.305	26967.74
540.67	26915.08
541.034	27113.27
541.399	27151.24
541.764	27212.7
542.129	27369.53
542.494	27371.57
542.858	27529.98
543.223	27457.22
543.587	27581.96
543.952	27622.86
544.316	27675.06
544.681	27629.87
545.045	27881.84
545.41	27900.37
545.774	28007.03
546.138	27996.86
546.503	28161.6
546.867	28138.33
547.231	28407.93
547.595	28396.4
547.959	28484.08
548.324	28539.9
548.688	28606.79
549.052	28824.86
549.416	28697.18
549.779	28656.73
550.143	28826.45
550.507	29029.6
550.871	29000
551.235	29022.15
551.599	29212.65
551.962	29263.27
552.326	29212.42
552.689	29268.47
553.053	29334.91
553.417	29584.62
553.78	29816.93
554.143	29716.59
554.507	29917.04
554.87	30020.76
555.234	30158.61
555.597	29929.92
555.96	30103.25
556.323	30202.23
556.686	30384.14
557.05	30533.97
557.413	30508.66
557.776	30634.53
558.139	30797.24
558.502	30776.45
558.865	30853.74
559.228	31119.27
559.59	31206.04
559.953	31220.73
560.316	31595.64
560.679	31499.14
561.041	31770.32
561.404	31831.34
561.767	32145.45
562.129	31900.04
562.492	32312.68
562.854	32273.59
563.217	32322.85
563.579	32409.85
563.941	32711.77
564.304	32717.64
564.666	33050.52
565.028	33070.4
565.39	33150.4
565.753	33463.16
566.115	33425.87
566.477	33630.16
566.839	33758.29
567.201	34142.24
567.563	34009.36
567.925	34254.1
568.287	34270.82
568.648	34422.91
569.01	34739.06
569.372	35039.39
569.734	34970.46
570.095	35239.38
570.457	35393.96
570.819	35450.23
571.18	35410
571.542	35721.18
571.903	35774.74
572.265	36059.02
572.626	36247.49
572.987	36287.27
573.349	36469.86
573.71	36753.47
574.071	36858.1
574.432	36968.83
574.794	37357.29
575.155	37212.21
575.516	37397.07
575.877	37554.8
576.238	37785.98
576.599	37951.63
576.96	37967
577.32	38192.75
577.681	38235.24
578.042	38455.12
578.403	38606.75
578.763	38835.45
579.124	38808.33
579.485	39132.62
579.845	39244.7
580.206	39283.12
580.566	39439.27
580.927	39630.68
581.287	39941.18
581.648	39958.58
582.008	40202.42
582.368	40424.33
582.728	40515.18
583.089	40631.11
583.449	40557.44
583.809	40748.39
584.169	41162.62
584.529	41276.29
584.889	41617.07
585.249	41641.48
585.609	41388.15
585.969	41944.29
586.329	41964.63
586.688	42242.59
587.048	42311.51
587.408	42580.89
587.768	42656.36
588.127	42867.43
588.487	43022
588.846	43619.73
589.206	43309.68
589.565	43450.69
589.925	43961.41
590.284	43987.63
590.643	44194.4
591.003	44333.61
591.362	44752.13
591.721	44838.68
592.08	45004.55
592.44	45321.6
592.799	45201.16
593.158	45553.92
593.517	45590.07
593.876	45884.53
594.235	46001.59
594.593	46274.8
594.952	46521.12
595.311	46557.73
595.67	46844.73
596.029	47194.78
596.387	47311.38
596.746	47511.83
597.104	47468.89
597.463	47622.56
597.822	48054.41
598.18	47955.43
598.538	48153.17
598.897	48616.43
599.255	48332.6
599.613	48982.07
599.972	48841.51
600.33	49060.94
600.688	49131
601.046	49302.52
601.404	49703.18
601.762	49612.79
602.12	50001.71
602.478	50052.55
602.836	50290.06
603.194	50225.43
603.552	50424.97
603.91	50394.92
604.268	50600.56
604.625	50679.43
604.983	50943.15
605.341	50798.52
605.698	51251.39
606.056	51493.19
606.413	51307.21
606.771	51762.57
607.128	51709.69
607.485	51716.69
607.843	51878.04
608.2	52153.97
608.557	52320.29
608.914	52259.95
609.272	52447.52
609.629	52671.69
609.986	52693.84
610.343	52805.93
610.7	53073.27
611.057	53037.79
611.414	53027.84
611.771	53289.08
612.127	53402.97
612.484	53426.93
612.841	53531.78
613.198	53513.71
613.554	53532.46
613.911	53851.32
614.267	53913.47
614.624	53960.25
614.98	53945.33
615.337	54282.05
615.693	54239.34
616.05	54306
616.406	54483.4
616.762	54366.56
617.118	54487.92
617.475	54539.89
617.831	54691.08
618.187	54761.58
618.543	54802.94
618.899	54983.95
619.255	54992.54
619.611	55000.45
619.967	55176.94
620.323	55286.31
620.678	55207.22
621.034	55178.75
621.39	55197.96
621.746	55252.42
622.101	55501.22
622.457	55318.63
622.812	55529.47
623.168	55569.92
623.523	55555.91
623.879	55722.91
624.234	55513.43
624.589	55666.64
624.945	55710.03
625.3	55759.07
625.655	55836.36
626.01	55861.89
626.365	55842.23
626.72	55816.92
627.075	55880.65
627.43	55934.43
627.785	55888.78
628.14	55900.54
628.495	55964.49
628.85	55975.11
629.205	55905.28
629.559	56003.13
629.914	55974.88
630.269	55917.71
630.623	55812.4
630.978	55837.71
631.332	55974.66
631.687	55923.13
632.041	55908.22
632.396	55924.04
632.75	55845.17
633.104	55901.67
633.459	55771.05
633.813	55825.51
634.167	55844.49
634.521	55831.84
634.875	55824.38
635.229	55762.69
635.583	55648.34
635.937	55650.6
636.291	55629.13
636.645	55667.77
636.999	55577.15
637.352	55694.67
637.706	55484.5
638.06	55623.25
638.413	55477.04
638.767	55440.21
639.121	55508.68
639.474	55331.51
639.828	55379.42
640.181	55361.34
640.534	55408.12
640.888	55382.81
641.241	55102.59
641.594	55214.23
641.947	55290.61
642.301	55189.82
642.654	55242.7
643.007	55072.53
643.36	55219.42
643.713	55069.6
644.066	55214.68
644.419	54967.68
644.771	54708.93
645.124	54458.77
645.477	54414.25
645.83	54348.03
646.182	54298.09
646.535	54247.25
646.888	54281.82
647.24	54134.71
647.593	54318.88
647.945	54161.82
648.298	54110.07
648.65	54020.13
649.002	53913.02
649.355	53949.4
649.707	53825.11
650.059	53876.63
650.411	54287.92
650.763	54314.81
651.115	54710.28
651.467	54561.81
651.819	54663.28
652.171	54465.09
652.523	54447.47
652.875	54484.3
653.227	54328.83
653.578	54518.65
653.93	54481.14
654.282	54296.28
654.633	54270.97
654.985	54372.21
655.337	54377.64
655.688	54295.38
656.039	54486.11
656.391	54112.56
656.742	54231.65
657.094	54160.24
657.445	54294.93
657.796	54242.95
658.147	54192.11
658.498	54177.42
658.849	54246.57
659.2	54108.04
659.551	54077.76
659.902	54214.48
660.253	54063.3
660.604	54226.91
660.955	54093.8
661.306	54205.89
661.656	54045.22
662.007	54128.83
662.358	53978.78
662.708	54070.08
663.059	54066.01
663.409	53901.49
663.76	54009.96
664.11	54057.65
664.461	54065.1
664.811	54037.08
665.161	53935.16
665.511	53905.56
665.862	54019.68
666.212	54030.75
666.562	54018.1
666.912	53975.61
667.262	53882.74
667.612	53905.11
667.962	54071.43
668.312	53826.92
668.662	53993.69
669.011	53932.45
669.361	53930.42
669.711	53907.59
670.06	53907.14
670.41	53835.51
670.76	53785.79
671.109	53952.56
671.459	53848.61
671.808	53795.96
672.157	53928.61
672.507	53722.06
672.856	53734.27
673.205	53788.05
673.554	53866.47
673.904	53713.7
674.253	53930.87
674.602	53708.28
674.951	53307.38
675.3	53234.84
675.649	53755.96
675.998	53675.74
676.346	53681.84
676.695	53737.65
677.044	53628.51
677.393	53693.81
677.741	53725.23
678.09	53606.36
678.438	53588.96
678.787	53570.88
679.135	53634.83
679.484	53366.14
679.832	53650.2
680.181	53374.5
680.529	53388.74
680.877	53315.29
681.225	53361.62
681.573	53579.01
681.922	53344.67
682.27	53350.55
682.618	53303.09
682.966	53118.24
683.314	53258.57
683.661	53244.33
684.009	53047.73
684.357	53050.67
684.705	53005.47
685.053	53093.6
685.4	52880.28
685.748	52849.77
686.095	52812.71
686.443	52691.35
686.79	52727.74
687.138	52811.35
687.485	52755.99
687.832	52643.22
688.18	52651.36
688.527	52513.05
688.874	52541.75
689.221	52531.13
689.568	52329.1
689.915	52242.55
690.262	52445.49
690.609	52346.73
690.956	52117.81
691.303	52060.18
691.65	52046.17
691.997	51929.57
692.344	51801.89
692.69	51788.33
693.037	51885.73
693.383	51386.98
693.73	51618.84
694.077	51444.61
694.423	51528.67
694.769	51343.82
695.116	51333.88
695.462	51192.41
695.808	51209.59
696.155	51175.91
696.501	50801.23
696.847	50927.11
697.193	50715.59
697.539	50789.71
697.885	50539.55
698.231	50434.46
698.577	50535.71
698.923	50398.99
699.269	50171.87
699.614	50068.15
699.96	50034.25
700.306	49991.31
700.651	49820.24
700.997	49770.53
701.342	49685.56
701.688	49578.44
702.033	49514.49
702.379	49534.83
702.724	49243.99
703.069	49288.73
703.415	48980.94
703.76	48901.62
704.105	48976.65
704.45	48788.41
704.795	48737.11
705.14	48566.27
705.485	48505.25
705.83	48295.76
706.175	48531.69
706.52	48326.5
706.865	48208.53
707.209	48074.53
707.554	47923.8
707.899	48029.78
708.243	47781.65
708.588	47879.28
708.932	47534.88
709.277	47687.87
709.621	47437.26
709.966	47225.74
710.31	47245.85
710.654	46991.17
710.998	47012.41
711.342	47144.38
711.687	46911.62
712.031	46811.06
712.375	46662.81
712.719	46725.18
713.063	46587.56
713.407	46634.56
713.75	46437.96
714.094	46329.49
714.438	46317.06
714.782	46297.85
715.125	46081.13
715.469	46223.73
715.812	45856.51
716.156	45921.82
716.499	45816.28
716.843	45837.75
717.186	45611.09
717.53	45873.23
717.873	45862.83
718.216	45716.4
718.559	45482.73
718.902	45182.85
719.246	45305.11
719.589	45148.95
719.932	44950.99
720.275	45083.87
720.617	44974.04
720.96	45007.04
721.303	44961.84
721.646	44990.99
721.989	44676.65
722.331	44926.81
722.674	44826.25
723.016	44774.73
723.359	44610.21
723.701	44682.07
724.044	44523.43
724.386	44273.95
724.729	44556.43
725.071	44579.25
725.413	44382.87
725.755	44346.94
726.097	44091.13
726.439	44005.48
726.782	44041.41
727.124	44273.95
727.465	43933.39
727.807	43944.01
728.149	44121.41
728.491	43754.87
728.833	43804.13
729.175	43848.65
729.516	43586.28
729.858	43571.59
730.199	43773.17
730.541	43702.89
730.882	43544.93
731.224	43676.68
731.565	43339.51
731.906	43581.76
732.248	43621.08
732.589	43330.24
732.93	43440.3
733.271	43307.65
733.612	43303.8
733.953	43397.36
734.294	43233.3
734.635	43131.38
734.976	43307.65
735.317	43084.38
735.658	43143.13
735.999	43010.03
736.339	42932.52
736.68	42976.36
737.021	43035.79
737.361	42911.27
737.702	43045.73
738.042	42931.84
738.383	42846.42
738.723	43110.59
739.063	42768.23
739.404	43204.15
739.744	42871.27
740.084	42819.07
740.424	42880.77
740.764	42609.81
741.104	42994.89
741.444	42739.3
741.784	42601.22
742.124	42864.27
742.464	42738.17
742.804	42600.32
743.143	42613.2
743.483	42814.55
743.823	42455.47
744.162	42648
744.502	42617.27
744.841	42568.01
745.181	42736.81
745.52	42464.5
745.86	42555.12
746.199	42449.36
746.538	42549.93
746.877	42479.65
747.216	42412.3
747.556	42317.39
747.895	42440.32
748.234	42495.01
748.573	42542.24
748.911	42366.88
749.25	42430.61
749.589	42114.23
749.928	42435.35
750.267	42417.95
750.605	42172.76
750.944	42259.31
751.283	42144.74
751.621	42396.71
751.96	42147
752.298	42173.44
752.636	42027.23
752.975	42155.36
753.313	41892.99
753.651	42223.61
753.989	41936.16
754.327	42081.24
754.666	41768.03
755.004	41920.11
755.342	41926.21
755.679	41924.41
756.017	41598.31
756.355	41816.16
756.693	41671.98
757.031	41936.16
757.368	41482.16
757.706	41547.47
758.044	41482.16
758.381	41292.33
758.719	41295.04
759.056	41352.44
759.394	41438.77
759.731	41192.45
760.068	41101.6
760.405	41128.27
760.743	40838.56
761.08	40997.65
761.417	40861.84
761.754	40778.45
762.091	40687.38
762.428	40492.81
762.765	40323.09
763.102	40444.22
763.438	40482.18
763.775	40127.62
764.112	40177.33
764.449	40184.56
764.785	40137.79
765.122	39766.95
765.458	39690.11
765.795	39739.6
766.131	39681.98
766.467	39559.72
766.804	39227.53
767.14	39208.55
767.476	39116.34
767.812	39132.16
768.148	39050.36
768.485	38889.91
768.821	38638.84
769.157	38612.4
769.492	38479.3
769.828	38331.96
770.164	38223.03
770.5	38046.09
770.836	38087.44
771.171	37877.73
771.507	37717.29
771.842	37601.13
772.178	37505.31
772.513	37401.14
772.849	37284.08
773.184	37359.1
773.519	37157.53
773.855	36934.93
774.19	36862.84
774.525	36760.47
774.86	36580.37
775.195	36574.49
775.53	36358.45
775.865	36110.32
776.2	36027.39
776.535	35699.94
776.87	35793.72
777.205	35615.87
777.539	35442.09
777.874	35577.23
778.209	35200.06
778.543	35182.44
778.878	34999.62
779.212	35140.86
779.547	34556.01
779.881	34749.68
780.215	34450.48
780.55	34552.17
780.884	34190.82
781.218	34135.01
781.552	34208.9
781.886	33921.68
782.22	33744.06
782.554	33719.88
782.888	33371.64
783.222	33392.2
783.556	33251.87
783.889	33122.38
784.223	32934.59
784.557	32949.05
784.89	32855.94
785.224	32805.55
785.557	32539.79
785.891	32395.84
786.224	32448.05
786.558	32364.43
786.891	32177.77
787.224	31907.49
787.557	31916.76
787.891	31745.92
788.224	31641.06
788.557	31521.06
788.89	31540.27
789.223	31425.02
789.556	31394.06
789.888	31131.02
790.221	31070
790.554	30955.88
790.887	31001.98
791.219	30766.06
791.552	30639.51
791.884	30413.75
792.217	30442
792.549	30361.55
792.882	30146.86
793.214	30149.35
793.546	30086.53
793.879	29856.02
794.211	29616.71
794.543	29775.12
794.875	29655.58
795.207	29626.65
795.539	29550.72
795.871	29521.34
796.203	29376.94
796.535	29065.54
796.867	29037.06
797.198	29011.98
797.53	28888.59
797.862	28612.44
798.193	28766.11
798.525	28553.23
798.856	28632.55
799.188	28272.11
799.519	28199.12
799.85	28119.57
800.182	28113.02
800.513	28181.72
800.844	27838.67
801.175	28090.42
801.506	27968.39
801.837	27748.06
802.168	27663.31
802.499	27703.76
802.83	27549.42
803.161	27421.28
803.491	27279.59
803.822	27361.4
804.153	27085.25
804.483	27031.92
804.814	26816.78
805.145	26861.07
805.475	26966.16
805.805	26922.77
806.136	26804.58
806.466	26613.17
806.796	26755.77
807.126	26459.5
807.457	26440.97
807.787	26364.36
808.117	26372.05
808.447	26243.91
808.777	26169.79
809.107	26049.8
809.436	25959.63
809.766	25920.08
810.096	26016.8
810.426	25789.46
810.755	25822.91
811.085	25722.8
811.414	25733.87
811.744	25597.6
812.073	25499.08
812.403	25443.48
812.732	25413.43
813.061	25382.69
813.39	25252.3
813.719	25247.33
814.049	25291.4
814.378	25117.39
814.707	25044.85
815.036	25028.13
815.365	24856.61
815.693	24807.57
816.022	24711.53
816.351	24737.51
816.68	24528.25
817.008	24625.2
817.337	24395.83
817.665	24370.29
817.994	24317.64
818.322	24504.53
818.651	24370.07
818.979	24251.42
819.307	24333.46
819.636	24307.92
819.964	24077.42
820.292	24227.02
820.62	24123.29
820.948	24153.8
821.276	24204.65
821.604	24140.69
821.932	24244.87
822.259	24034.93
822.587	24068.15
822.915	23981.38
823.243	24183.18
823.57	23977.08
823.898	24042.39
824.225	24068.15
824.553	23958.32
824.88	23988.38
825.207	24131.2
825.535	23845.56
825.862	24032.67
826.189	23869.06
826.516	24241.03
826.843	24115.38
827.17	24133.24
827.497	24029.06
827.824	24106.8
828.151	24057.31
828.478	23990.19
828.805	24148.38
829.131	24037.64
829.458	24049.85
829.785	23912.9
830.111	23907.7
830.438	24163.07
830.764	24023.18
831.09	24073.58
831.417	23884.43
831.743	24114.48
832.069	23983.86
832.395	23948.16
832.722	24090.98
833.048	23893.69
833.374	23936.18
833.7	23748.16
834.026	23884.65
834.351	23851.89
834.677	23819.12
835.003	23898.67
835.329	23843.53
835.654	23810.98
835.98	23603.53
836.306	23866.35
836.631	23618.45
836.956	23814.15
837.282	23750.19
837.607	23530.54
837.932	23538.45
838.258	23602.63
838.583	23502.52
838.908	23500.48
839.233	23433.37
839.558	23360.37
839.883	23307.04
840.208	23263.43
840.533	23343.88
840.858	23343.88
841.182	23194.96
841.507	23199.25
841.832	23099.59
842.156	22923.32
842.481	23214.16
842.805	22947.73
843.13	22903.89
843.454	22841.74
843.778	22771.46
844.103	22785.02
844.427	22770.11
844.751	22759.94
845.075	22600.17
845.399	22583.22
845.723	22560.85
846.047	22647.62
846.371	22371.25
846.695	22228.88
847.019	22284.7
847.343	22105.27
847.666	22074.31
847.99	21967.64
848.313	21845.61
848.637	21831.38
848.96	21832.05
849.284	21709.34
849.607	21590.48
849.931	21423.7
850.254	21273.65
850.577	21295.34
850.9	21141.22
851.223	21074.33
851.546	21002.7
851.869	20922.25
852.192	20932.87
852.515	20815.58
852.838	20723.83
853.161	20673.89
853.483	20495.82
853.806	20522.71
854.129	20448.81
854.451	20356.84
854.774	20312.77
855.096	20194.13
855.419	20127.69
855.741	20109.16
856.063	20050.18
856.385	19962.72
856.708	19988.26
857.03	19864.65
857.352	19893.8
857.674	19840.92
857.996	19660.13
858.318	19546.24
858.64	19495.84
858.961	19470.53
859.283	19487.48
859.605	19348.28
859.926	19392.57
860.248	19268.28
860.57	19248.17
860.891	19243.42
861.212	19261.5
861.534	19078.23
861.855	19052.01
862.176	19083.2
862.498	19032.35
862.819	18994.16
863.14	18958.91
863.461	18835.3
863.782	18709.88
864.103	18825.58
864.424	18779.48
864.745	18789.65
865.065	18642.98
865.386	18628.75
865.707	18670.55
866.027	18643.44
866.348	18628.3
866.668	18536.77
866.989	18425.59
867.309	18419.94
867.63	18371.35
867.95	18400.96
868.27	18259.49
868.59	18374.29
868.91	18275.54
869.23	18311.69
869.55	18113.28
869.87	18246.38
870.19	18100.85
870.51	18166.84
870.83	18102.66
871.15	18052.49
871.469	18009.33
871.789	18106.95
872.109	17930.91
872.428	17861.54
872.748	18046.84
873.067	17827.41
873.386	17909.22
873.706	17859.05
874.025	17760.07
874.344	17790.35
874.663	17836
874.982	17661.32
875.301	17723.46
875.62	17665.83
875.939	17620.64
876.258	17635.55
876.577	17526.63
876.896	17552.84
877.214	17521.21
877.533	17460.19
877.852	17435.56
878.17	17435.56
878.489	17471.04
878.807	17226.52
879.125	17398.5
879.444	17258.39
879.762	17274.21
880.08	17307.65
880.398	17188.11
880.716	17164.15
881.034	17137.71
881.352	17169.8
881.67	17034.21
881.988	17071.05
882.306	16945.18
882.624	17037.15
882.941	16917.15
883.259	16835.12
883.577	16881
883.894	16814.11
884.212	16782.92
884.529	16736.37
884.846	16578.86
885.164	16637.16
885.481	16540.67
885.798	16619.99
886.115	16452.08
886.432	16566.2
886.75	16485.75
887.067	16469.26
887.383	16376.38
887.7	16403.95
888.017	16191.75
888.334	16260.22
888.651	16190.17
888.967	16178.87
889.284	16027.23
889.6	16115.59
889.917	16099.77
890.233	16018.42
890.55	15911.3
890.866	15921.47
891.182	15843.96
891.498	15841.02
891.815	15749.05
892.131	15719.22
892.447	15624.08
892.763	15633.12
893.079	15587.25
893.395	15608.94
893.71	15521.94
894.026	15422.05
894.342	15393.58
894.657	15317.65
894.973	15269.74
895.289	15182.51
895.604	15161.72
895.92	15139.8
896.235	15100.93
896.55	15034.72
896.865	14971.44
897.181	14973.93
897.496	15041.05
897.811	14786.36
898.126	14870.2
898.441	14834.27
898.756	14799.02
899.071	14733.71
899.386	14688.96
899.7	14537.33
900.015	14493.26
900.33	14398.12
900.644	14374.4
900.959	14367.39
901.273	14322.19
901.588	14195.42
901.902	14216.21
902.216	14174.18
902.531	14098.25
902.845	14031.13
903.159	13925.82
903.473	13934.18
903.787	13907.74
904.101	13838.82
904.415	13832.94
904.729	13694.87
905.042	13728.31
905.356	13604.92
905.67	13676.56
905.984	13615.09
906.297	13514.53
906.611	13387.3
906.924	13422.1
907.237	13375.78
907.551	13243.8
907.864	13209.91
908.177	13316.34
908.491	13147.76
908.804	13063.47
909.117	13072.06
909.43	12948.9
909.743	12873.19
910.056	12868.67
910.368	12857.6
910.681	12726.53
910.994	12845.62
911.307	12663.25
911.619	12512.3
911.932	12532.86
912.244	12496.71
912.557	12498.06
912.869	12314.11
913.181	12318.86
913.494	12318.4
913.806	12233.44
914.118	12182.82
914.43	12117.05
914.742	12080.9
915.054	12016.27
915.366	11963.84
915.678	11880.45
915.99	11978.3
916.302	11829.83
916.613	11809.49
916.925	11808.59
917.236	11735.82
917.548	11609.5
917.859	11623.28
918.171	11569.5
918.482	11561.81
918.794	11470.07
919.105	11469.84
919.416	11383.06
919.727	11372.44
920.038	11337.87
920.349	11162.96
920.66	11161.6
920.971	11233.69
921.282	11109.17
921.593	11011.09
921.903	10936.07
922.214	10976.07
922.525	10861.49
922.835	10879.35
923.146	10758.9
923.456	10736.07
923.767	10731.78
924.077	10621.27
924.387	10610.65
924.697	10527.72
925.008	10534.5
925.318	10472.8
925.628	10465.8
925.938	10434.39
926.248	10290.21
926.558	10181.06
926.867	10212.25
927.177	10142.64
927.487	10149.65
927.796	10117.11
928.106	10093.38
928.416	9975.42
928.725	9975.19
929.034	9927.73
929.344	9970.44
929.653	9901.52
929.962	9861.75
930.271	9784.01
930.581	9708.98
930.89	9699.04
931.199	9678.25
931.508	9640.74
931.817	9558.25
932.125	9565.48
932.434	9466.5
932.743	9421.53
933.051	9394.19
933.36	9356.22
933.669	9279.61
933.977	9283.68
934.286	9208.66
934.594	9271.93
934.902	9175.44
935.21	9103.8
935.519	9055.67
935.827	9044.14
936.135	8967.98
936.443	8929.12
936.751	8889.34
937.059	8859.74
937.367	8851.38
937.674	8799.4
937.982	8776.35
938.29	8785.84
938.597	8669.91
938.905	8628.33
939.213	8592.18
939.52	8548.79
939.827	8602.8
940.135	8490.71
940.442	8432.41
940.749	8513.53
941.056	8448
941.363	8323.03
941.67	8313.76
941.977	8259.3
942.284	8250.49
942.591	8233.31
942.898	8229.7
943.205	8160.77
943.511	8102.24
943.818	8139.76
944.125	8015.24
944.431	8011.17
944.738	7947.22
945.044	7945.64
945.35	7872.65
945.657	7809.37
945.963	7835.13
946.269	7750.84
946.575	7742.93
946.881	7700.9
947.187	7659.32
947.493	7559.89
947.799	7610.51
948.105	7596.72
948.41	7507.23
948.716	7527.8
949.022	7478.08
949.327	7391.98
949.633	7380.46
949.938	7377.29
950.244	7359.89
950.549	7295.71
950.854	7217.52
951.16	7206
951.465	7219.78
951.77	7131.2
952.075	7111.54
952.38	7143.4
952.685	7116.51
952.99	7040.13
953.294	7044.87
953.599	6987.02
953.904	6897.3
954.209	6891.65
954.513	6862.73
954.818	6862.96
955.122	6881.03
955.426	6777.76
955.731	6736.4
956.035	6761.04
956.339	6680.59
956.643	6621.38
956.948	6643.53
957.252	6599.91
957.556	6618.89
957.86	6558.33
958.163	6575.28
958.467	6510.65
958.771	6475.39
959.075	6474.49
959.378	6404.66
959.682	6399.01
959.985	6356.98
960.289	6317.88
960.592	6291.9
960.896	6243.08
961.199	6277.43
961.502	6205.57
961.805	6158.79
962.108	6155.86
962.411	6164.89
962.714	6049.87
963.017	6032.92
963.32	6085.12
963.623	6014.84
963.926	6031.79
964.228	5981.17
964.531	5955.41
964.833	5973.49
965.136	5880.83
965.438	5903.88
965.741	5870.21
966.043	5793.6
966.345	5801.06
966.648	5796.09
966.95	5730.1
967.252	5669.54
967.554	5693.95
967.856	5666.15
968.158	5663.21
968.46	5552.71
968.761	5605.36
969.063	5530.33
969.365	5536.21
969.666	5537.57
969.968	5455.08
970.269	5471.81
970.571	5479.04
970.872	5426.83
971.174	5413.95
971.475	5326.05
971.776	5340.51
972.077	5297.57
972.378	5313.62
972.679	5297.57
972.98	5259.83
973.281	5205.82
973.582	5164.02
973.883	5180.06
974.183	5164.69
974.484	5131.93
974.785	5093.28
975.085	5037.47
975.386	5091.25
975.686	5003.34
975.986	4981.42
976.287	4940.97
976.587	4966.06
976.887	4971.93
977.187	4926.73
977.487	4941.65
977.787	4852.84
978.087	4825.04
978.387	4836.57
978.687	4762.22
978.987	4797.92
979.286	4752.5
979.586	4784.82
979.885	4722.45
980.185	4683.58
980.484	4697.14
980.784	4668.89
981.083	4639.06
981.382	4624.14
981.682	4595.44
981.981	4592.51
982.28	4580.3
982.579	4490.36
982.878	4492.85
983.177	4509.12
983.475	4415.34
983.774	4415.56
984.073	4390.93
984.372	4380.76
984.67	4362
984.969	4380.31
985.267	4364.49
985.566	4336.24
985.864	4284.27
986.162	4292.4
986.461	4257.6
986.759	4251.5
987.057	4190.26
987.355	4169.24
987.653	4181.44
987.951	4129.47
988.249	4170.14
988.547	4099.86
988.844	4061.9
989.142	4146.64
989.44	4060.77
989.737	4043.14
990.035	3983.26
990.332	3974.22
990.63	3942.81
990.927	3977.61
991.224	3967.21
991.521	3948.68
991.819	3893.77
992.116	3858.51
992.413	3856.03
992.71	3827.1
993.006	3822.81
993.303	3817.16
993.6	3809.25
993.897	3773.32
994.193	3787.56
994.49	3752.98
994.787	3724.28
995.083	3686.09
995.379	3666.66
995.676	3638.41
995.972	3622.81
996.268	3630.05
996.565	3614.23
996.861	3557.28
997.157	3560.67
997.453	3544.62
997.749	3538.75
998.044	3487.9
998.34	3495.81
998.636	3477.73
998.932	3439.54
999.227	3472.76
999.523	3411.97
999.818	3397.51
1000.114	3355.7
1000.409	3379.66
1000.704	3335.82
1001	3364.29
1001.295	3288.36
1001.59	3300.11
1001.885	3277.74
1002.18	3209.49
1002.475	3212.66
1002.77	3221.69
1003.065	3215.14
1003.359	3202.71
1003.654	3169.94
1003.949	3128.59
1004.243	3101.47
1004.538	3102.38
1004.832	3102.38
1005.127	3086.11
1005.421	3046.78
1005.715	3034.58
1006.009	2995.94
1006.304	2989.38
1006.598	2982.61
1006.892	2969.72
1007.186	2916.84
1007.48	2913
1007.773	2897.18
1008.067	2899.9
1008.361	2819.67
1008.655	2871.65
1008.948	2835.49
1009.242	2832.55
1009.535	2808.82
1009.829	2807.24
1010.122	2776.73
1010.415	2783.06
1010.708	2729.5
1011.001	2722.5
1011.295	2707.81
1011.588	2687.92
1011.881	2685.66
1012.173	2636.4
1012.466	2647.02
1012.759	2631.88
1013.052	2601.15
1013.344	2602.05
1013.637	2562.5
1013.93	2564.09
1014.222	2557.08
1014.514	2523.63
1014.807	2520.02
1015.099	2510.53
1015.391	2459.46
1015.683	2449.51
1015.976	2442.05
1016.268	2445.9
1016.56	2427.82
1016.851	2413.13
1017.143	2408.61
1017.435	2333.13
1017.727	2351.44
1018.018	2308.72
1018.31	2323.41
1018.602	2303.3
1018.893	2285.9
1019.185	2279.8
1019.476	2264.43
1019.767	2238.44
1020.058	2237.54
1020.35	2201.16
1020.641	2169.29
1020.932	2168.62
1021.223	2195.96
1021.514	2160.48
1021.804	2084.55
1022.095	2113.48
1022.386	2098.79
1022.677	2114.38
1022.967	2082.29
1023.258	2059.69
1023.548	2045.45
1023.839	2018.79
1024.129	2003.87
1024.419	2000.94
1024.709	2013.37
1025	1954.16
1025.29	1989.86
1025.58	1953.25
1025.87	1912.8
1026.16	1920.03
1026.449	1912.58
1026.739	1914.16
1027.029	1910.54
1027.319	1866.02
1027.608	1856.08
1027.898	1859.7
1028.187	1822.41
1028.477	1829.87
1028.766	1787.83
1029.055	1787.61
1029.344	1765.01
1029.634	1752.58
1029.923	1746.71
1030.212	1738.57
1030.501	1725.01
1030.79	1706.03
1031.078	1706.71
1031.367	1693.6
1031.656	1676.2
1031.945	1653.37
1032.233	1659.93
1032.522	1638.69
1032.81	1636.2
1033.099	1619.48
1033.387	1611.79
1033.675	1588.29
1033.963	1574.05
1034.251	1585.35
1034.54	1556.88
1034.828	1565.69
1035.116	1534.06
1035.403	1539.93
1035.691	1530.67
1035.979	1523.66
1036.267	1476.43
1036.554	1510.78
1036.842	1515.53
1037.129	1481.18
1037.417	1436.21
1037.704	1447.5
1037.992	1456.77
1038.279	1410.22
1038.566	1409.99
1038.853	1409.99
1039.14	1409.99
