Data from 14-1119_FLMS001491_004.txt Node
Date: Thu Apr 19 16:09:46 BST 2018
User: hsy
Spectrometer: FLMS00149
Trigger mode: 0
Integration Time (sec): 1.000000E-2
Scans to average: 10
Electric dark correction enabled: true
Nonlinearity correction enabled: false
Boxcar width: 0
XAxis mode: Wavelengths
Number of Pixels in Spectrum: 2048
>>>>>Begin Spectral Data<<<<<
341.393	-24.6
341.776	-24.6
342.16	-24.6
342.543	-89.91
342.927	-101.21
343.31	-69.57
343.693	-60.54
344.077	-61.21
344.46	-81.78
344.843	-57.37
345.226	-29.58
345.61	-32.06
345.993	-7.43
346.376	20.82
346.759	2.06
347.142	11.78
347.525	51.55
347.908	45.22
348.291	74.6
348.674	88.84
349.057	104.66
349.44	116.41
349.823	146.24
350.206	178.33
350.588	222.4
350.971	241.15
351.354	245.9
351.737	261.72
352.119	279.79
352.502	299
352.884	286.57
353.267	317.76
353.65	318.66
354.032	349.85
354.414	324.31
354.797	339.68
355.179	339.68
355.562	363.63
355.944	381.94
356.326	353.69
356.709	356.18
357.091	388.04
357.473	379.45
357.855	370.87
358.238	373.8
358.62	387.81
359.002	362.73
359.384	372.45
359.766	386.23
360.148	375.16
360.53	376.29
360.912	375.39
361.294	365.67
361.676	386.46
362.057	348.72
362.439	380.58
362.821	381.71
363.203	343.75
363.584	368.15
363.966	373.8
364.348	355.05
364.729	361.6
365.111	350.53
365.493	369.06
365.874	353.01
366.256	379.45
366.637	366.8
367.019	355.5
367.4	343.07
367.781	357.53
368.163	349.17
368.544	363.63
368.925	370.87
369.306	372.9
369.688	356.63
370.069	374.03
370.45	359.34
370.831	353.47
371.212	340.13
371.593	371.54
371.974	361.37
372.355	371.32
372.736	381.49
373.117	361.83
373.498	375.39
373.879	373.8
374.26	376.52
374.641	372.45
375.021	357.08
375.402	378.55
375.783	349.62
376.163	378.1
376.544	384.2
376.925	376.29
377.305	388.49
377.686	371.77
378.066	365.89
378.447	382.39
378.827	370.19
379.208	393.69
379.588	394.14
379.968	413.12
380.349	394.37
380.729	397.31
381.109	397.76
381.489	385.55
381.87	435.27
382.25	404.54
382.63	383.52
383.01	411.54
383.39	430.75
383.77	400.7
384.15	429.17
384.53	430.98
384.91	405.67
385.29	425.78
385.67	425.33
386.049	447.7
386.429	446.57
386.809	462.61
387.189	438.21
387.568	448.15
387.948	429.85
388.328	455.61
388.707	454.48
389.087	456.51
389.466	431.2
389.846	451.77
390.225	453.8
390.605	471.88
390.984	463.52
391.363	465.78
391.743	482.28
392.122	476.85
392.501	474.14
392.881	478.43
393.26	479.11
393.639	500.13
394.018	490.64
394.397	497.19
394.776	514.82
395.155	490.64
395.534	525.21
395.913	503.74
396.292	513.24
396.671	514.59
397.05	500.35
397.429	522.05
397.808	533.35
398.186	509.39
398.565	546
398.944	527.92
399.323	561.37
399.701	553.91
400.08	561.37
400.458	555.72
400.837	557.08
401.215	559.79
401.594	545.1
401.972	579.67
402.351	604.76
402.729	601.59
403.107	595.94
403.486	601.14
403.864	609.28
404.242	609.05
404.62	614.25
404.999	627.13
405.377	620.8
405.755	597.75
406.133	613.12
406.511	636.4
406.889	647.69
407.267	655.83
407.645	673
408.023	677.75
408.401	687.92
408.779	665.1
409.156	706
409.534	713
409.912	727.47
410.29	739.9
410.667	763.17
411.045	738.54
411.422	767.92
411.8	753.91
412.178	765.66
412.555	786.9
412.933	804.07
413.31	790.29
413.687	837.07
414.065	828.71
414.442	830.29
414.819	830.51
415.197	849.95
415.574	872.1
415.951	897.18
416.328	898.31
416.705	884.98
417.082	900.12
417.46	923.17
417.837	920
418.214	928.37
418.591	947.8
418.967	960.45
419.344	961.13
419.721	961.81
420.098	976.95
420.475	1013.79
420.852	1016.5
421.228	998.87
421.605	994.58
421.982	1030.51
422.358	1037.52
422.735	1022.15
423.111	1027.57
423.488	1054.46
423.864	1091.3
424.241	1078.64
424.617	1076.61
424.994	1096.27
425.37	1126.55
425.746	1140.79
426.123	1144.63
426.499	1155.93
426.875	1154.12
427.251	1169.04
427.627	1192.54
428.003	1195.03
428.379	1198.41
428.756	1189.83
429.132	1227.11
429.507	1249.94
429.883	1275.25
430.259	1278.64
430.635	1296.49
431.011	1302.59
431.387	1334.46
431.763	1362.93
432.138	1345.08
432.514	1406.09
432.89	1375.36
433.265	1438.18
433.641	1442.25
434.016	1446.77
434.392	1475.24
434.767	1514.11
435.143	1479.99
435.518	1503.27
435.894	1488.8
436.269	1539.2
436.644	1551.63
437.02	1572.42
437.395	1563.83
437.77	1593.21
438.145	1633.43
438.52	1623.04
438.895	1654.67
439.271	1633.66
439.646	1663.49
440.021	1701.23
440.395	1695.35
440.77	1693.77
441.145	1713.66
441.52	1741.9
441.895	1737.38
442.27	1736.03
442.645	1733.77
443.019	1758.63
443.394	1758.4
443.769	1793.88
444.143	1817.83
444.518	1834.56
444.892	1821.9
445.267	1838.62
445.641	1871.39
446.016	1836.36
446.39	1874.78
446.764	1880.66
447.139	1889.24
447.513	1912.07
447.887	1907.1
448.262	1923.14
448.636	1938.73
449.01	1954.33
449.384	1958.17
449.758	1996.81
450.132	1998.85
450.506	2029.13
450.88	2021.22
451.254	2054.21
451.628	2058.51
452.002	2093.53
452.376	2122.01
452.75	2127.66
453.123	2132.85
453.497	2178.05
453.871	2165.17
454.244	2246.75
454.618	2228.67
454.992	2258.27
455.365	2280.65
455.739	2321.1
456.112	2346.41
456.486	2380.98
456.859	2393.19
457.232	2476.12
457.606	2434.09
457.979	2488.78
458.352	2530.36
458.725	2556.8
459.099	2566.74
459.472	2624.82
459.845	2648.09
460.218	2663.46
460.591	2718.6
460.964	2708.66
461.337	2760.18
461.71	2792.72
462.083	2802.21
462.456	2825.72
462.829	2859.16
463.201	2912.04
463.574	2920.18
463.947	2953.4
464.32	3015.09
464.692	3005.6
465.065	3032.94
465.438	3101.42
465.81	3139.15
466.183	3106.16
466.555	3202.66
466.928	3246.72
467.3	3218.25
467.672	3309.32
468.045	3350.9
468.417	3382.54
468.789	3345.25
469.161	3421.86
469.534	3454.4
469.906	3509.09
470.278	3559.71
470.65	3629.76
471.022	3629.76
471.394	3712.02
471.766	3764.45
472.138	3774.62
472.51	3878.34
472.882	3921.28
473.253	3973.26
473.625	3995.4
473.997	4079.24
474.369	4079.92
474.74	4168.05
475.112	4246.24
475.484	4287.83
475.855	4334.38
476.227	4406.47
476.598	4528.04
476.97	4528.04
477.341	4687.81
477.713	4701.83
478.084	4749.06
478.455	4899.33
478.827	4963.06
479.198	5042.61
479.569	5108.59
479.94	5175.03
480.311	5238.08
480.682	5398.76
481.053	5460.22
481.424	5550.84
481.795	5685.75
482.166	5746.54
482.537	5828.12
482.908	5968.68
483.279	6034.9
483.65	6177.94
484.021	6276.02
484.391	6408.22
484.762	6473.76
485.133	6495
485.503	6652.28
485.874	6816.8
486.244	6843.69
486.615	7018.15
486.985	7133.4
487.356	7246.17
487.726	7306.05
488.097	7522.54
488.467	7622.2
488.837	7763.44
489.207	7905.36
489.578	8029.2
489.948	8164.33
490.318	8293.82
490.688	8376.98
491.058	8543.53
491.428	8671.44
491.798	8854.94
492.168	8990.53
492.538	9119.34
492.908	9200.92
493.278	9392.55
493.648	9421.7
494.017	9698.3
494.387	9737.4
494.757	9825.53
495.126	10058.29
495.496	10155.47
495.866	10320.66
496.235	10373.54
496.605	10558.39
496.974	10621.67
497.344	10835.9
497.713	10921.1
498.082	11086.74
498.452	11219.85
498.821	11333.74
499.19	11476.34
499.559	11569.22
499.928	11684.01
500.298	11811.7
500.667	12081.07
501.036	12017.57
501.405	12212.36
501.774	12319.7
502.143	12444.22
502.512	12557.89
502.88	12795.85
503.249	12780.03
503.618	13003.08
503.987	13004.66
504.356	13174.15
504.724	13355.84
505.093	13392.22
505.462	13563.97
505.83	13696.17
506.199	13811.64
506.567	14064.07
506.936	14066.55
507.304	14276.72
507.672	14384.28
508.041	14496.37
508.409	14613.43
508.777	14826.98
509.145	14896.81
509.514	14920.09
509.882	15101.1
510.25	15216.35
510.618	15368.89
510.986	15471.03
511.354	15641.65
511.722	15801.19
512.09	15984.24
512.458	15947.18
512.826	16221.75
513.193	16329.32
513.561	16360.95
513.929	16499.93
514.297	16699.7
514.664	16768.17
515.032	16859.02
515.4	17025.12
515.767	17227.82
516.135	17243.87
516.502	17230.76
516.869	17560.92
517.237	17703.97
517.604	17616.06
517.972	17936.51
518.339	18014.47
518.706	18140.12
519.073	18280.9
519.44	18328.59
519.808	18626.66
520.175	18626.66
520.542	18757.05
520.909	19004.5
521.276	19036.14
521.643	19275.68
522.009	19298.73
522.376	19545.05
522.743	19731.94
523.11	19971.71
523.477	20059.61
523.843	20179.84
524.21	20398.36
524.577	20603.78
524.943	20645.81
525.31	20860.04
525.676	21032.92
526.043	21222.52
526.409	21270.43
526.776	21482.18
527.142	21656.41
527.508	21787.48
527.874	22060.69
528.241	22172.55
528.607	22229.5
528.973	22454.13
529.339	22423.85
529.705	22696.15
530.071	22849.14
530.437	23091.85
530.803	23157.61
531.169	23322.35
531.535	23324.84
531.901	23513.53
532.267	23586.75
532.632	23850.7
532.998	23843.92
533.364	24005.5
533.73	24091.82
534.095	24297.69
534.461	24366.85
534.826	24498.37
535.192	24587.86
535.557	24850.9
535.923	24859.04
536.288	24944.91
536.653	25073.27
537.019	25033.27
537.384	25178.12
537.749	25236.65
538.114	25434.84
538.479	25375.18
538.845	25522.97
539.21	25493.6
539.575	25776.3
539.94	25621.28
540.305	25963.19
540.67	25911.89
541.034	25935.62
541.399	25990.53
541.764	26165.44
542.129	26184.65
542.494	26356.62
542.858	26458.32
543.223	26337.87
543.587	26510.52
543.952	26531.31
544.316	26713.45
544.681	26634.81
545.045	26897.63
545.41	26920.9
545.774	26774.69
546.138	26883.62
546.503	26943.5
546.867	27040.9
547.231	27302.81
547.595	27403.38
547.959	27327.45
548.324	27404.96
548.688	27457.39
549.052	27520.43
549.416	27601.34
549.779	27586.2
550.143	27746.64
550.507	27751.61
550.871	27757.49
551.235	27892.18
551.599	28163.13
551.962	28032.96
552.326	28288.55
552.689	28106.41
553.053	28216.01
553.417	28453.07
553.78	28502.56
554.143	28549.33
554.507	28680.4
554.87	28749.55
555.234	28920.62
555.597	28818.93
555.96	29040.62
556.323	29198.81
556.686	29138.02
557.05	29359.26
557.413	29426.83
557.776	29399.93
558.139	29602.64
558.502	29689.87
558.865	29788.17
559.228	29884.44
559.59	29949.3
559.953	30046.92
560.316	30318.33
560.679	30450.98
561.041	30509.06
561.404	30608.94
561.767	30718.99
562.129	30760.12
562.492	31029.72
562.854	30967.58
563.217	31185.42
563.579	31164.63
563.941	31337.51
564.304	31535.24
564.666	31678.29
565.028	31738.4
565.39	31893.2
565.753	32168.9
566.115	32101.56
566.477	32296.13
566.839	32465.62
567.201	32718.04
567.563	32618.83
567.925	32912.38
568.287	32902.67
568.648	32981.76
569.01	33252.26
569.372	33604.57
569.734	33428.75
570.095	33626.49
570.457	34009.98
570.819	33957.55
571.18	33915.97
571.542	34335.62
571.903	34435.06
572.265	34638.67
572.626	34762.28
572.987	34735.84
573.349	35062.61
573.71	35192.55
574.071	35259.89
574.432	35522.94
574.794	35871.85
575.155	35912.76
575.516	35860.78
575.877	36012.41
576.238	36175.12
576.599	36389.13
576.96	36600.65
577.32	36593.42
577.681	36869.12
578.042	37086.06
578.403	37105.95
578.763	37268.2
579.124	37460.51
579.485	37667.96
579.845	37879.94
580.206	37893.27
580.566	38017.11
580.927	38198.57
581.287	38387.72
581.648	38417.1
582.008	38826.35
582.368	38871.55
582.728	39213.01
583.089	39320.35
583.449	39283.74
583.809	39525.32
584.169	39850.51
584.529	39832.65
584.889	40203.49
585.249	40192.64
585.609	40276.48
585.969	40667.43
586.329	40800.76
586.688	41182.67
587.048	41274.65
587.408	41357.81
587.768	41497.02
588.127	41872.6
588.487	41863.11
588.846	42552.58
589.206	42227.62
589.565	42553.03
589.925	43014.49
590.284	43021.95
590.643	43283.86
591.003	43505.33
591.362	43941.92
591.721	43941.47
592.08	44082.48
592.44	44598.86
592.799	44628.69
593.158	44836.82
593.517	44879.3
593.876	45239.74
594.235	45402
594.593	45488.1
594.952	45858.94
595.311	45900.97
595.67	46227.74
596.029	46553.83
596.387	46764.45
596.746	47035.4
597.104	47034.5
597.463	47180.03
597.822	47590.64
598.18	47493.69
598.538	47608.72
598.897	48074.24
599.255	47966.45
599.613	48694.79
599.972	48339.1
600.33	48652.99
600.688	48793.55
601.046	49082.13
601.404	49329.13
601.762	49439.63
602.12	49783.8
602.478	49818.38
602.836	49993.74
603.194	49811.6
603.552	50040.07
603.91	50099.28
604.268	50317.12
604.625	50415.43
604.983	50699.94
605.341	50695.87
605.698	51095.86
606.056	51230.77
606.413	51118.01
606.771	51544.44
607.128	51576.53
607.485	51497.88
607.843	51539.92
608.2	51941.71
608.557	51971.77
608.914	52028.04
609.272	52378.76
609.629	52333.34
609.986	52614.92
610.343	52523.17
610.7	52889.94
611.057	52850.39
611.414	52909.6
611.771	53175.81
612.127	53273.88
612.484	53366.08
612.841	53421.9
613.198	53441.33
613.554	53418.51
613.911	53755.68
614.267	53756.81
614.624	53837.93
614.98	53974.2
615.337	54177.81
615.693	54144.14
616.05	54160.41
616.406	54382.55
616.762	54326.74
617.118	54455.09
617.475	54446.05
617.831	54685.82
618.187	54683.56
618.543	54721.08
618.899	54957.68
619.255	54893.5
619.611	54977.79
619.967	55091.46
620.323	55226.6
620.678	55169.88
621.034	55147.73
621.39	55187.73
621.746	55216.43
622.101	55477.89
622.457	55233.83
622.812	55525.12
623.168	55465.46
623.523	55510.66
623.879	55621.62
624.234	55448.97
624.589	55630.2
624.945	55687.6
625.3	55651.22
625.655	55744.33
626.01	55763.76
626.365	55794.04
626.72	55706.36
627.075	55781.39
627.43	55761.27
627.785	55842.63
628.14	55799.69
628.495	55888.73
628.85	55878.56
629.205	55734.16
629.559	55966.47
629.914	55837.88
630.269	55853.93
630.623	55794.27
630.978	55713.14
631.332	55924.66
631.687	55958.1
632.041	55847.83
632.396	55881.72
632.75	55832.68
633.104	55826.58
633.459	55766.02
633.813	55800.37
634.167	55699.81
634.521	55756.3
634.875	55770.77
635.229	55691.9
635.583	55581.62
635.937	55604.22
636.291	55593.59
636.645	55683.31
636.999	55537.55
637.352	55616.19
637.706	55448.97
638.06	55568.74
638.413	55416.88
638.767	55386.14
639.121	55507.04
639.474	55319.93
639.828	55331.91
640.181	55301.63
640.534	55338.46
640.888	55233.38
641.241	55151.57
641.594	55142.76
641.947	55288.74
642.301	55156.32
642.654	55170.78
643.007	55147.28
643.36	55118.8
643.713	55098.01
644.066	55158.58
644.419	55016.43
644.771	54775.31
645.124	54401.31
645.477	54372.61
645.83	54251.71
646.182	54239.51
646.535	54130.58
646.888	54257.81
647.24	54149.34
647.593	54304.14
647.945	54209
648.298	54097.14
648.65	53941.66
649.002	53888.78
649.355	53902.34
649.707	53816.69
650.059	53856.01
650.411	54192.5
650.763	54398.6
651.115	54712.71
651.467	54601.08
651.819	54529.67
652.171	54536.22
652.523	54425.26
652.875	54499.16
653.227	54341.88
653.578	54576.9
653.93	54433.4
654.282	54281.31
654.633	54319.73
654.985	54378.49
655.337	54329.45
655.688	54351.59
656.039	54394.3
656.391	54131.03
656.742	54194.99
657.094	54159.51
657.445	54247.42
657.796	54255.55
658.147	54039.74
658.498	54221.65
658.849	54251.03
659.2	54169.9
659.551	54080.87
659.902	54280.86
660.253	54080.41
660.604	54135.33
660.955	53999.96
661.306	54181.43
661.656	54011.04
662.007	54059.17
662.358	54044.26
662.708	54080.64
663.059	54003.35
663.409	53881.78
663.76	54103.01
664.11	53962.9
664.461	54032.73
664.811	54039.96
665.161	53932.85
665.511	53918.61
665.862	53941.21
666.212	54035.22
666.562	54027.53
666.912	53992.73
667.262	53837.93
667.612	53938.5
667.962	53853.53
668.312	53810.36
668.662	53967.65
669.011	53891.27
669.361	53878.84
669.711	53907.31
670.06	53804.94
670.41	53738.28
670.76	53744.38
671.109	53902.57
671.459	53725.4
671.808	53754.32
672.157	53774.89
672.507	53676.58
672.856	53622.8
673.205	53665.28
673.554	53652.63
673.904	53592.97
674.253	53854.88
674.602	53619.41
674.951	53312.3
675.3	53052.19
675.649	53624.38
675.998	53597.72
676.346	53636.81
676.695	53565.4
677.044	53446.08
677.393	53598.84
677.741	53543.93
678.09	53558.39
678.438	53461.9
678.787	53520.43
679.135	53438.4
679.484	53292.64
679.832	53396.36
680.181	53258.74
680.529	53404.73
680.877	53233.2
681.225	53298.97
681.573	53470.71
681.922	53255.35
682.27	53204.73
682.618	53210.38
682.966	53117.28
683.314	53114.56
683.661	53120.67
684.009	52975.58
684.357	52891.52
684.705	52868.92
685.053	53009.71
685.4	52881.12
685.748	52754.57
686.095	52744.86
686.443	52682.03
686.79	52716.16
687.138	52745.53
687.485	52690.39
687.832	52576.95
688.18	52552.77
688.527	52414.02
688.874	52422.6
689.221	52541.02
689.568	52348.03
689.915	52191.88
690.262	52258.09
690.609	52199.11
690.956	51998.44
691.303	52004.31
691.65	52017.42
691.997	51873.69
692.344	51707.14
692.69	51696.52
693.037	51716.18
693.383	51498.79
693.73	51616.75
694.077	51469.64
694.423	51431.44
694.769	51197.55
695.116	51278.91
695.462	51139.93
695.808	51116.2
696.155	51098.57
696.501	50765.47
696.847	50927.05
697.193	50633.27
697.539	50708.98
697.885	50473.73
698.231	50445.48
698.577	50447.06
698.923	50388.08
699.269	50148.31
699.614	50028.09
699.96	49934.31
700.306	49928.21
700.651	49709.23
700.997	49640.76
701.342	49655.9
701.688	49554.66
702.033	49424.72
702.379	49365.28
702.724	49192.86
703.069	49278.73
703.415	48824.51
703.76	48887.78
704.105	48814.79
704.45	48685.98
704.795	48655.25
705.14	48522.14
705.485	48451.18
705.83	48179.33
706.175	48294.58
706.52	48182.49
706.865	48014.81
707.209	47999.22
707.554	47970.29
707.899	47908.37
708.243	47687.59
708.588	47695.27
708.932	47526.69
709.277	47505.67
709.621	47325.79
709.966	47082.18
710.31	47180.03
710.654	46863.43
710.998	47079.24
711.342	47038.34
711.687	46870.43
712.031	46586.15
712.375	46617.33
712.719	46425.25
713.063	46402.65
713.407	46643.77
713.75	46448.3
714.094	46336.21
714.438	46123.11
714.782	46193.39
715.125	45960.18
715.469	46126.5
715.812	45779.84
716.156	45761.76
716.499	45706.62
716.843	45703.91
717.186	45481.09
717.53	45835.43
717.873	45733.74
718.216	45524.71
718.559	45411.94
718.902	45145.28
719.246	45137.6
719.589	45083.14
719.932	44946.42
720.275	45103.02
720.617	45016.7
720.96	44942.35
721.303	44832.75
721.646	44855.8
721.989	44645.63
722.331	44754.56
722.674	44658.74
723.016	44532.87
723.359	44320.22
723.701	44559.31
724.044	44364.06
724.386	44287.23
724.729	44308.92
725.071	44346.88
725.413	44259.2
725.755	44089.49
726.097	44038.19
726.439	43967.69
726.782	43957.97
727.124	44142.82
727.465	44085.2
727.807	43954.8
728.149	43809.5
728.491	43688.82
728.833	43810.4
729.175	43600.69
729.516	43619.45
729.858	43656.28
730.199	43654.47
730.541	43693.57
730.882	43580.35
731.224	43525.66
731.565	43396.63
731.906	43400.92
732.248	43524.31
732.589	43275.73
732.93	43060.14
733.271	43405.21
733.612	43153.24
733.953	43311.88
734.294	43192.56
734.635	43066.69
734.976	43223.75
735.317	43094.04
735.658	42980.82
735.999	42823.31
736.339	42797.77
736.68	42933.14
737.021	42906.24
737.361	42735.63
737.702	42882.52
738.042	42788.96
738.383	42834.16
738.723	42830.09
739.063	42779.02
739.404	42816.53
739.744	42811.56
740.084	42679.36
740.424	42855.4
740.764	42501.74
741.104	42734.27
741.444	42533.6
741.784	42516.65
742.124	42575.86
742.464	42555.75
742.804	42514.62
743.143	42469.87
743.483	42626.25
743.823	42441.17
744.162	42494.96
744.502	42336.32
744.841	42382.87
745.181	42592.35
745.52	42416.77
745.86	42478.91
746.199	42297.67
746.538	42431.91
746.877	42391.23
747.216	42407.5
747.556	42390.1
747.895	42455.41
748.234	42276.66
748.573	42362.98
748.911	42257.9
749.25	42321.63
749.589	42125.7
749.928	42242.99
750.267	42378.8
750.605	42169.09
750.944	42188.75
751.283	42179.03
751.621	42288.86
751.96	42071.92
752.298	42155.76
752.636	42152.37
752.975	42065.36
753.313	41915.54
753.651	42227.62
753.989	42039.83
754.327	41985.36
754.666	41706.5
755.004	41992.82
755.342	41997.57
755.679	41845.48
756.017	41640.97
756.355	41886.38
756.693	41644.81
757.031	41854.29
757.368	41438.03
757.706	41697.24
758.044	41493.17
758.381	41536.11
758.719	41430.35
759.056	41471.93
759.394	41276.91
759.731	40989.91
760.068	41061.55
760.405	41152.17
760.743	40882.8
761.08	40922.12
761.417	40797.83
761.754	40864.72
762.091	40802.57
762.428	40615.46
762.765	40355.13
763.102	40631.5
763.438	40477.83
763.775	40160.78
764.112	40315.35
764.449	40272.87
764.785	40093.89
765.122	39865.65
765.458	39715.14
765.795	39641.92
766.131	39672.43
766.467	39595.37
766.804	39355.6
767.14	39178.89
767.476	39119.45
767.812	39046.69
768.148	39180.92
768.485	38792.45
768.821	38615.96
769.157	38618.22
769.492	38704.32
769.828	38461.16
770.164	38282.19
770.5	38161.51
770.836	38070.67
771.171	38021.18
771.507	37797.68
771.842	37621.41
772.178	37542.54
772.513	37505.48
772.849	37315.66
773.184	37308.88
773.519	37230.01
773.855	36989.34
774.19	36915.44
774.525	36755.22
774.86	36675.22
775.195	36509.12
775.53	36468.45
775.865	36347.77
776.2	36107.1
776.535	35939.87
776.87	35778.97
777.205	35580.34
777.539	35597.96
777.874	35434.12
778.209	35300.79
778.543	35287.01
778.878	35039.56
779.212	34997.98
779.547	34874.59
779.881	34623.52
780.215	34465.79
780.55	34585.33
780.884	34332.01
781.218	34206.59
781.552	34332.01
781.886	34030.55
782.22	33873.94
782.554	33636.21
782.888	33501.75
783.222	33342.65
783.556	33262.2
783.889	33221.98
784.223	32951.25
784.557	33005.49
784.89	33034.41
785.224	32727.76
785.557	32460.42
785.891	32545.61
786.224	32597.14
786.558	32446.63
786.891	32083.48
787.224	32036.93
787.557	31903.6
787.891	31894.78
788.224	31841
788.557	31721.91
788.89	31500.44
789.223	31514.23
789.556	31232.2
789.888	31216.61
790.221	31040.12
790.554	31016.84
790.887	30869.95
791.219	30763.06
791.552	30613.91
791.884	30477.87
792.217	30607.13
792.549	30302.73
792.882	30120.82
793.214	30250.31
793.546	29958.11
793.879	29929.86
794.211	29670.43
794.543	29879.69
794.875	29688.97
795.207	29623.88
795.539	29544.34
795.871	29538.23
796.203	29402.42
796.535	29163.1
796.867	29127.17
797.198	28975.09
797.53	28818.25
797.862	28647.18
798.193	28663.23
798.525	28538.94
798.856	28637.69
799.188	28273.41
799.519	28294.88
799.85	28178.95
800.182	28144.37
800.513	28295.1
800.844	27881.1
801.175	27968.78
801.506	28033.19
801.837	27802.01
802.168	27620.09
802.499	27698.73
802.83	27594.78
803.161	27485.63
803.491	27347.56
803.822	27405.18
804.153	27269.59
804.483	26999.32
804.814	26877.51
805.145	26928.13
805.475	26997.74
805.805	26869.83
806.136	26811.53
806.466	26726.78
806.796	26662.83
807.126	26440.91
807.457	26527.47
807.787	26463.74
808.117	26350.07
808.447	26299.22
808.777	26391.88
809.107	25966.8
809.436	25973.81
809.766	26047.25
810.096	26035.28
810.426	25865.79
810.755	25775.62
811.085	25753.25
811.414	25677.55
811.744	25546.7
812.073	25513.71
812.403	25483.88
812.732	25426.03
813.061	25525.68
813.39	25258.57
813.719	25288.18
814.049	25406.82
814.378	25175.86
814.707	24957.56
815.036	25176.09
815.365	24941.29
815.693	24824.69
816.022	24683.67
816.351	24661.53
816.68	24579.72
817.008	24592.6
817.337	24315.1
817.665	24486.62
817.994	24468.99
818.322	24511.02
818.651	24353.06
818.979	24317.81
819.307	24273.74
819.636	24217.47
819.964	24097.93
820.292	24217.47
820.62	24147.42
820.948	24150.81
821.276	24114.2
821.604	24054.99
821.932	24170.01
822.259	24071.94
822.587	24121.43
822.915	23983.58
823.243	24090.02
823.57	23917.14
823.898	24065.38
824.225	23991.94
824.553	24024.48
824.88	23987.19
825.207	24030.81
825.535	23906.07
825.862	24044.37
826.189	23906.07
826.516	24184.25
826.843	24158.94
827.17	24109.45
827.497	24138.83
827.824	24002.11
828.151	24117.81
828.478	23926.86
828.805	24120.75
829.131	24087.3
829.458	24072.39
829.785	23885.05
830.111	24008.21
830.438	24100.19
830.764	24033.29
831.09	24071.26
831.417	23901.32
831.743	24114.87
832.069	24012.96
832.395	23857.03
832.722	23987.19
833.048	23849.12
833.374	23986.74
833.7	23856.8
834.026	23904.71
834.351	23852.96
834.677	23894.77
835.003	23863.81
835.329	23911.94
835.654	23781.55
835.98	23779.97
836.306	23809.35
836.631	23688.9
836.956	23729.8
837.282	23693.87
837.607	23631.72
837.932	23598.05
838.258	23645.73
838.583	23586.75
838.908	23462.69
839.233	23466.98
839.558	23412.75
839.883	23377.72
840.208	23293.65
840.533	23367.55
840.858	23219.08
841.182	23309.25
841.507	23198.97
841.832	23132.53
842.156	23160.78
842.481	23115.58
842.805	23038.74
843.13	23009.82
843.454	22961.68
843.778	22778.19
844.103	22829.26
844.427	22838.07
844.751	22781.58
845.075	22685.76
845.399	22640.56
845.723	22396.95
846.047	22592.2
846.371	22428.59
846.695	22359.21
847.019	22187.47
847.343	22114.48
847.666	21992.67
847.99	21907.7
848.313	21835.16
848.637	21805.1
848.96	21771.43
849.284	21646.24
849.607	21567.6
849.931	21616.86
850.254	21415.51
850.577	21268.85
850.9	21168.06
851.223	21184.78
851.546	21110.66
851.869	20883.32
852.192	21095.74
852.515	20775.53
852.838	20745.25
853.161	20691.91
853.483	20529.66
853.806	20508.19
854.129	20451.24
854.451	20523.78
854.774	20285.6
855.096	20270.23
855.419	20224.13
855.741	20107.97
856.063	19999.28
856.385	19974.64
856.708	19905.27
857.03	19816.46
857.352	19824.82
857.674	19757.7
857.996	19672.28
858.318	19571.27
858.64	19663.69
858.961	19537.14
859.283	19400.65
859.605	19393.64
859.926	19426.18
860.248	19319.07
860.57	19271.39
860.891	19214.66
861.212	19129.69
861.534	19086.53
861.855	19007.66
862.176	19137.38
862.498	19126.76
862.819	18976.7
863.14	18934.9
863.461	18875.01
863.782	18863.94
864.103	18778.52
864.424	18744.62
864.745	18813.32
865.065	18676.6
865.386	18592.08
865.707	18604.74
866.027	18666.66
866.348	18604.96
866.668	18524.51
866.989	18582.36
867.309	18411.52
867.63	18380.34
867.95	18351.64
868.27	18322.26
868.59	18399.09
868.91	18312.77
869.23	18273.45
869.55	18171.3
869.87	18301.24
870.19	18142.83
870.51	18137.86
870.83	18182.38
871.15	17961.59
871.469	18077.97
871.789	18125.65
872.109	17988.48
872.428	17952.78
872.748	17897.18
873.067	17833.68
873.386	17917.52
873.706	17828.49
874.025	17621.49
874.344	17643.86
874.663	17838.66
874.982	17684.31
875.301	17809.96
875.62	17583.52
875.939	17579.23
876.258	17613.58
876.577	17531.32
876.896	17474.6
877.214	17437.31
877.533	17528.61
877.852	17507.36
878.17	17516.4
878.489	17441.6
878.807	17375.16
879.125	17334.04
879.444	17366.8
879.762	17296.07
880.08	17310.53
880.398	17197.32
880.716	17246.13
881.034	17139.69
881.352	17226.92
881.67	17073.25
881.988	17146.7
882.306	16990.09
882.624	17058.34
882.941	16872.13
883.259	16841.85
883.577	16870.77
883.894	16813.37
884.212	16859.25
884.529	16828.96
884.846	16664.67
885.164	16626.94
885.481	16540.84
885.798	16648.4
886.115	16493.38
886.432	16600.5
886.75	16442.08
887.067	16561.85
887.383	16449.31
887.7	16388.98
888.017	16263.56
888.334	16230.34
888.651	16242.09
888.967	16127.74
889.284	16090.45
889.6	16139.26
889.917	16058.14
890.233	16002.32
890.55	15963.9
890.866	15907.86
891.182	15952.83
891.498	15835.32
891.815	15735.66
892.131	15803.45
892.447	15704.7
892.763	15691.37
893.079	15666.73
893.395	15558.49
893.71	15570.47
894.026	15452.05
894.342	15447.98
894.657	15359.85
894.973	15304.94
895.289	15264.94
895.604	15243.02
895.92	15191.27
896.235	15178.61
896.55	15154.21
896.865	15013.42
897.181	15073.53
897.496	14981.33
897.811	14881.22
898.126	14874.89
898.441	14792.18
898.756	14787.89
899.071	14669.25
899.386	14743.6
899.7	14617.05
900.015	14613.2
900.33	14422.93
900.644	14390.38
900.959	14426.77
901.273	14361.91
901.588	14257.28
901.902	14255.7
902.216	14156.04
902.531	14162.14
902.845	14118.3
903.159	13956.72
903.473	13915.82
903.787	13887.35
904.101	13823.62
904.415	13827.69
904.729	13800.57
905.042	13672.66
905.356	13672.21
905.67	13588.6
905.984	13600.12
906.297	13617.98
906.611	13429.73
906.924	13408.94
907.237	13354.03
907.551	13394.25
907.864	13259.57
908.177	13318.1
908.491	13147.48
908.804	12990.65
909.117	12996.07
909.43	12933.7
909.743	12900.48
910.056	12918.56
910.368	12808.73
910.681	12882.85
910.994	12733.93
911.307	12638.34
911.619	12595.86
911.932	12627.04
912.244	12533.48
912.557	12539.81
912.869	12322.19
913.181	12474.28
913.494	12284.68
913.806	12276.32
914.118	12209.42
914.43	12170.33
914.742	12164.45
915.054	12057.34
915.366	12000.16
915.678	11972.14
915.99	11897.34
916.302	11802.2
916.613	11739.61
916.925	11779.38
917.236	11742.32
917.548	11628.65
917.859	11670.46
918.171	11590.23
918.482	11498.03
918.794	11510.46
919.105	11390.01
919.416	11296.91
919.727	11325.61
920.038	11259.85
920.349	11197.25
920.66	11183.69
920.971	11175.33
921.282	11057.36
921.593	11100.53
921.903	10971.72
922.214	10912.51
922.525	10849.69
922.835	10799.74
923.146	10726.98
923.456	10788.67
923.767	10678.17
924.077	10649.47
924.387	10608.79
924.697	10584.61
925.008	10501.22
925.318	10432.3
925.628	10435.91
925.938	10425.06
926.248	10300.77
926.558	10287.22
926.867	10216.26
927.177	10211.51
927.487	10121.34
927.796	10117.28
928.106	10043.83
928.416	9982.14
928.725	9960.67
929.034	9944.85
929.344	9914.34
929.653	9857.62
929.962	9795.7
930.271	9731.75
930.581	9682.49
930.89	9675.48
931.199	9609.27
931.508	9677.97
931.817	9612.43
932.125	9521.81
932.434	9542.83
932.743	9426.45
933.051	9350.74
933.36	9381.48
933.669	9304.19
933.977	9279.11
934.286	9255.83
934.594	9204.31
934.902	9176.74
935.21	9052.45
935.519	9137.19
935.827	8998.21
936.135	8911.88
936.443	8876.63
936.751	8864.43
937.059	8962.96
937.367	8794.15
937.674	8806.58
937.982	8797.99
938.29	8786.24
938.597	8699.23
938.905	8635.96
939.213	8553.93
939.52	8593.93
939.827	8569.07
940.135	8531.33
940.442	8426.7
940.749	8411.78
941.056	8502.86
941.363	8332.92
941.67	8305.12
941.977	8304.44
942.284	8203.43
942.591	8232.13
942.898	8182.86
943.205	8158.68
943.511	8148.51
943.818	8115.52
944.125	8019.48
944.431	7963.66
944.738	8000.72
945.044	7868.52
945.35	7864.45
945.657	7798.92
945.963	7814.51
946.269	7745.36
946.575	7795.98
946.881	7697.9
947.187	7698.81
947.493	7681.18
947.799	7641.86
948.105	7567.51
948.41	7487.74
948.716	7445.71
949.022	7467.63
949.327	7461.3
949.633	7307.86
949.938	7339.5
950.244	7334.07
950.549	7297.01
950.854	7197.13
951.16	7198.48
951.465	7189.9
951.77	7152.83
952.075	7171.14
952.38	7156.22
952.685	7140.41
952.99	7008.88
953.294	7021.54
953.599	6972.95
953.904	6919.17
954.209	6867.19
954.513	6925.04
954.818	6856.12
955.122	6866.74
955.426	6801.66
955.731	6757.82
956.035	6737.7
956.339	6722.56
956.643	6701.09
956.948	6648.67
957.252	6615.9
957.556	6580.65
957.86	6563.92
958.163	6567.99
958.467	6496.58
958.771	6479.63
959.075	6424.49
959.378	6391.5
959.682	6426.98
959.985	6377.26
960.289	6294.33
960.592	6262.69
960.896	6260.88
961.199	6251.62
961.502	6251.39
961.805	6203.25
962.108	6176.14
962.411	6114.44
962.714	6069.25
963.017	6036.93
963.32	6097.27
963.623	6022.47
963.926	6058.17
964.228	5968.01
964.531	5911.96
964.833	5952.87
965.136	5830.84
965.438	5887.56
965.741	5841.91
966.043	5823.38
966.345	5760.55
966.648	5794.45
966.95	5769.82
967.252	5707.67
967.554	5711.29
967.856	5670.16
968.158	5595.81
968.46	5563.05
968.761	5588.13
969.063	5584.51
969.365	5516.04
969.666	5472.88
969.968	5446.66
970.269	5446.44
970.571	5434.01
970.872	5396.5
971.174	5358.76
971.475	5376.16
971.776	5335.26
972.077	5296.61
972.378	5270.62
972.679	5267.46
972.98	5234.69
973.281	5228.82
973.582	5185.65
973.883	5164.64
974.183	5131.64
974.484	5176.16
974.785	5030.18
975.085	5062.49
975.386	5019.78
975.686	5003.74
975.986	4997.86
976.287	4977.98
976.587	4960.35
976.887	4910.18
977.187	4922.84
977.487	4935.94
977.787	4856.4
978.087	4839.22
978.387	4785.21
978.687	4796.51
978.987	4739.11
979.286	4761.48
979.586	4741.6
979.885	4729.17
980.185	4672
980.484	4633.58
980.784	4621.38
981.083	4613.24
981.382	4603.52
981.682	4576.63
981.981	4571.66
982.28	4550.19
982.579	4518.33
982.878	4532.56
983.177	4483.98
983.475	4482.62
983.774	4452.34
984.073	4454.6
984.372	4371.44
984.67	4386.35
984.969	4345
985.267	4361.27
985.566	4305.68
985.864	4289.41
986.162	4298.45
986.461	4256.19
986.759	4226.81
987.057	4212.8
987.355	4167.83
987.653	4183.42
987.951	4144.78
988.249	4113.82
988.547	4090.77
988.844	4099.81
989.142	4068.62
989.44	4029.07
989.737	4027.27
990.035	4009.41
990.332	4005.12
990.63	4023.88
990.927	3983.2
991.224	3907.72
991.521	3935.52
991.819	3918.34
992.116	3891.23
992.413	3869.76
992.71	3833.6
993.006	3780.04
993.303	3780.04
993.6	3808.97
993.897	3760.16
994.193	3780.27
994.49	3756.99
994.787	3712.7
995.083	3702.08
995.379	3660.27
995.676	3665.02
995.972	3652.14
996.268	3606.49
996.565	3577.79
996.861	3585.92
997.157	3568.52
997.453	3524
997.749	3539.6
998.044	3487.62
998.34	3528.75
998.636	3490.33
998.932	3471.35
999.227	3407.62
999.523	3425.93
999.818	3419.83
1000.114	3424.34
1000.409	3331.47
1000.704	3306.83
1001	3303.44
1001.295	3276.78
1001.59	3241.98
1001.885	3266.38
1002.18	3239.49
1002.475	3248.98
1002.77	3175.54
1003.065	3186.39
1003.359	3138.7
1003.654	3134.41
1003.949	3149.78
1004.243	3145.48
1004.538	3114.07
1004.832	3034.3
1005.127	3104.58
1005.421	3028.2
1005.715	3007.41
1006.009	3021.19
1006.304	3012.38
1006.598	2989.78
1006.892	2959.05
1007.186	2936.9
1007.48	2938.48
1007.773	2852.38
1008.067	2891.48
1008.361	2892.16
1008.655	2862.55
1008.948	2848.54
1009.242	2844.7
1009.535	2813.29
1009.829	2808.99
1010.122	2763.8
1010.415	2734.42
1010.708	2717.24
1011.001	2716.34
1011.295	2686.29
1011.588	2653.74
1011.881	2648.55
1012.173	2645.61
1012.466	2633.86
1012.759	2625.04
1013.052	2580.3
1013.344	2580.98
1013.637	2554.99
1013.93	2589.11
1014.222	2567.64
1014.514	2537.59
1014.807	2524.93
1015.099	2454.43
1015.391	2452.39
1015.683	2463.24
1015.976	2442
1016.268	2416.01
1016.56	2402.68
1016.851	2384.82
1017.143	2390.93
1017.435	2355.67
1017.727	2336.46
1018.018	2347.31
1018.31	2334.88
1018.602	2324.49
1018.893	2295.56
1019.185	2260.76
1019.476	2256.01
1019.767	2244.04
1020.058	2191.61
1020.35	2216.24
1020.641	2184.6
1020.932	2144.38
1021.223	2149.58
1021.514	2149.8
1021.804	2144.38
1022.095	2119.07
1022.386	2073.87
1022.677	2062.12
1022.967	2079.52
1023.258	2019.64
1023.548	2025.51
1023.839	2039.3
1024.129	2014.89
1024.419	1975.34
1024.709	1998.62
1025	1973.99
1025.29	1973.99
1025.58	1951.16
1025.87	1892.63
1026.16	1905.51
1026.449	1891.05
1026.739	1886.98
1027.029	1859.19
1027.319	1845.18
1027.608	1873.2
1027.898	1842.69
1028.187	1843.14
1028.477	1815.8
1028.766	1778.96
1029.055	1802.01
1029.344	1792.75
1029.634	1739.64
1029.923	1746.42
1030.212	1737.38
1030.501	1718.63
1030.79	1680.89
1031.078	1687.22
1031.367	1672.07
1031.656	1652.87
1031.945	1665.52
1032.233	1647.44
1032.522	1626.43
1032.81	1632.08
1033.099	1614.22
1033.387	1606.54
1033.675	1588.01
1033.963	1591.17
1034.251	1564.51
1034.54	1507.11
1034.828	1564.28
1035.116	1523.15
1035.403	1537.61
1035.691	1525.41
1035.979	1492.87
1036.267	1489.25
1036.554	1461.01
1036.842	1473.66
1037.129	1459.88
1037.417	1430.95
1037.704	1424.17
1037.992	1429.6
1038.279	1400.67
1038.566	1410.39
1038.853	1410.39
1039.14	1410.39
