Data from 14-4516_FLMS001491_006.txt Node
Date: Thu Apr 19 16:47:05 BST 2018
User: hsy
Spectrometer: FLMS00149
Trigger mode: 0
Integration Time (sec): 1.000000E-2
Scans to average: 10
Electric dark correction enabled: true
Nonlinearity correction enabled: false
Boxcar width: 0
XAxis mode: Wavelengths
Number of Pixels in Spectrum: 2048
>>>>>Begin Spectral Data<<<<<
341.393	-14.59
341.776	-14.59
342.16	-14.59
342.543	-64.08
342.927	-47.13
343.31	-69.96
343.693	-78.32
344.077	-61.37
344.46	-74.48
344.843	-70.41
345.226	-46.23
345.61	-32.22
345.993	-20.01
346.376	1.91
346.759	20.66
347.142	26.09
347.525	55.24
347.908	61.57
348.291	78.51
348.674	94.33
349.057	114.67
349.44	126.2
349.823	144.05
350.206	172.52
350.588	214.33
350.971	236.48
351.354	263.82
351.737	282.35
352.119	296.14
352.502	294.78
352.884	324.38
353.267	330.94
353.65	316.93
354.032	327.77
354.414	359.41
354.797	350.82
355.179	351.05
355.562	359.64
355.944	347.43
356.326	370.26
356.709	384.5
357.091	390.15
357.473	371.16
357.855	388.34
358.238	375
358.62	375
359.002	390.37
359.384	386.53
359.766	365.96
360.148	384.72
360.53	379.07
360.912	372.97
361.294	385.4
361.676	368.22
362.057	380.43
362.439	373.87
362.821	356.02
363.203	382.69
363.584	370.71
363.966	390.15
364.348	374.33
364.729	367.55
365.111	371.84
365.493	341.78
365.874	364.16
366.256	355.8
366.637	360.77
367.019	355.34
367.4	357.6
367.781	374.33
368.163	357.38
368.544	361.22
368.925	367.55
369.306	361.22
369.688	353.08
370.069	361.45
370.45	374.33
370.831	349.02
371.212	369.13
371.593	347.43
371.974	378.17
372.355	374.33
372.736	368.9
373.117	393.08
373.498	373.87
373.879	370.94
374.26	365.74
374.641	373.42
375.021	370.03
375.402	377.49
375.783	370.48
376.163	411.16
376.544	399.64
376.925	386.3
377.305	392.18
377.686	388.34
378.066	398.51
378.447	379.3
378.827	394.89
379.208	414.33
379.588	398.96
379.968	398.73
380.349	412.29
380.729	405.06
381.109	414.55
381.489	431.05
381.87	395.34
382.25	410.03
382.63	418.62
383.01	429.24
383.39	439.18
383.77	427.88
384.15	440.31
384.53	427.43
384.91	427.88
385.29	446.87
385.67	443.7
386.049	449.13
386.429	463.14
386.809	455.23
387.189	467.88
387.568	441.9
387.948	477.37
388.328	463.82
388.707	453.42
389.087	501.33
389.466	484.38
389.846	488.22
390.225	482.8
390.605	485.74
390.984	496.81
391.363	470.82
391.743	495.91
392.122	511.72
392.501	511.72
392.881	521.89
393.26	509.69
393.639	518.96
394.018	537.71
394.397	544.49
394.776	515.11
395.155	546.53
395.534	531.61
395.913	540.88
396.292	554.89
396.671	552.17
397.05	581.78
397.429	551.27
397.808	548.33
398.186	575.68
398.565	549.46
398.944	586.52
399.323	559.86
399.701	593.98
400.08	608.9
400.458	615.45
400.837	618.39
401.215	612.96
401.594	636.01
401.972	625.85
402.351	611.83
402.729	625.85
403.107	646.86
403.486	640.08
403.864	656.35
404.242	670.59
404.62	685.28
404.999	673.08
405.377	695.22
405.755	704.04
406.133	687.99
406.511	696.58
406.889	723.47
407.267	745.84
407.645	751.49
408.023	764.37
408.401	805.95
408.779	781.77
409.156	806.63
409.534	798.04
409.912	810.47
410.29	835.33
410.667	848.44
411.045	873.3
411.422	871.04
411.8	894.09
412.178	894.09
412.555	961.43
412.933	935.89
413.31	940.41
413.687	962.33
414.065	992.62
414.442	1001.43
414.819	1023.12
415.197	1013.63
415.574	1057.02
415.951	1035.1
416.328	1083.01
416.705	1066.51
417.082	1082.78
417.46	1121.43
417.837	1110.58
418.214	1111.03
418.591	1132.72
418.967	1125.49
419.344	1153.74
419.721	1173.63
420.098	1168.2
420.475	1214.76
420.852	1225.6
421.228	1220.41
421.605	1225.38
421.982	1242.78
422.358	1271.93
422.735	1285.71
423.111	1305.83
423.488	1344.7
423.864	1348.54
424.241	1347.41
424.617	1393.06
424.994	1375.66
425.37	1388.99
425.746	1399.61
426.123	1397.12
426.499	1412.04
426.875	1455.65
427.251	1489.55
427.627	1500.62
428.003	1533.17
428.379	1547.18
428.756	1528.87
429.132	1565.93
429.507	1651.13
429.883	1605.03
430.259	1653.16
430.635	1665.82
431.011	1672.82
431.387	1699.49
431.763	1774.74
432.138	1735.87
432.514	1778.81
432.89	1797.34
433.265	1861.07
433.641	1863.33
434.016	1876.21
434.392	1918.69
434.767	1974.96
435.143	1962.76
435.518	1992.36
435.894	1994.4
436.269	2011.35
436.644	2078.24
437.02	2121.17
437.395	2106.71
437.77	2157.56
438.145	2181.74
438.52	2197.33
438.895	2224.67
439.271	2220.38
439.646	2292.47
440.021	2318.91
440.395	2353.03
440.77	2323.65
441.145	2369.98
441.52	2388.51
441.895	2385.8
442.27	2473.71
442.645	2424.89
443.019	2414.27
443.394	2474.16
443.769	2506.02
444.143	2510.99
444.518	2551.9
444.892	2569.3
445.267	2542.4
445.641	2577.88
446.016	2590.77
446.39	2631.67
446.764	2600.26
447.139	2642.29
447.513	2658.56
447.887	2682.97
448.262	2687.94
448.636	2707.37
449.01	2765.9
449.384	2745.11
449.758	2804.09
450.132	2839.35
450.506	2836.63
450.88	2871.89
451.254	2878.44
451.628	2938.55
452.002	2957.31
452.376	2989.17
452.75	3001.83
453.123	2976.97
453.497	3106.91
453.871	3134.03
454.244	3197.75
454.618	3185.55
454.992	3331.54
455.365	3311.88
455.739	3362.72
456.112	3407.24
456.486	3414.02
456.859	3441.14
457.232	3533.11
457.606	3567.91
457.979	3591.19
458.352	3652.43
458.725	3719.78
459.099	3774.69
459.472	3808.36
459.845	3854.46
460.218	3877.74
460.591	3921.58
460.964	3969.03
461.337	4026.21
461.71	4102.14
462.083	4195.69
462.456	4188.01
462.829	4188.69
463.201	4335.58
463.574	4310.49
463.947	4375.8
464.32	4460.55
464.692	4519.98
465.065	4558.17
465.438	4665.29
465.81	4643.59
466.183	4696.7
466.555	4786.19
466.928	4821.89
467.3	4835.9
467.672	4934.88
468.045	5034.32
468.417	5009.91
468.789	5119.06
469.161	5156.57
469.534	5227.98
469.906	5313.86
470.278	5353.18
470.65	5474.08
471.022	5523.57
471.394	5569.67
471.766	5670.23
472.138	5685.15
472.51	5826.84
472.882	5909.55
473.253	6024.8
473.625	6064.35
473.997	6185.25
474.369	6231.35
474.74	6309.99
475.112	6432.92
475.484	6524
475.855	6643.31
476.227	6697.1
476.598	6865.23
476.97	6935.96
477.341	7119.46
477.713	7216.18
478.084	7246.69
478.455	7393.12
478.827	7484.65
479.198	7798.99
479.569	7799.89
479.94	7975.26
480.311	8087.12
480.682	8291.18
481.053	8412.08
481.424	8552.64
481.795	8642.58
482.166	8843.93
482.537	8919.41
482.908	9104.49
483.279	9286.86
483.65	9443.01
484.021	9642.78
484.391	9716.91
484.762	9873.51
485.133	9961.42
485.503	10094.75
485.874	10405.7
486.244	10518.24
486.615	10695.86
486.985	10816.76
487.356	10990.32
487.726	11138.11
488.097	11406.8
488.467	11470.08
488.837	11674.14
489.207	11764.31
489.578	12101.7
489.948	12286.78
490.318	12454.01
490.688	12522.26
491.058	12766.54
491.428	13000.21
491.798	13087.66
492.168	13359.52
492.538	13464.6
492.908	13691.04
493.278	13909.11
493.648	14014.87
494.017	14152.04
494.387	14354.3
494.757	14451.02
495.126	14630.67
495.496	14736.43
495.866	14991.8
496.235	15029.76
496.605	15179.36
496.974	15371.67
497.344	15629.74
497.713	15767.82
498.082	15881.72
498.452	16028.83
498.821	16169.17
499.19	16280.8
499.559	16409.16
499.928	16600.11
500.298	16738.87
500.667	16916.72
501.036	16896.15
501.405	17142.47
501.774	17241.23
502.143	17374.78
502.512	17490.03
502.88	17723.25
503.249	17767.54
503.618	17941.32
503.987	18000.53
504.356	18199.62
504.724	18328.43
505.093	18466.05
505.462	18523.91
505.83	18694.52
506.199	18909.43
506.567	19087.73
506.936	19155.98
507.304	19322.3
507.672	19399.81
508.041	19469.87
508.409	19636.19
508.777	19861.5
509.145	19946.02
509.514	20010.19
509.882	20228.04
510.25	20278.21
510.618	20424.19
510.986	20501.25
511.354	20668.71
511.722	20846.56
512.09	21049.04
512.458	21049.71
512.826	21282.25
513.193	21390.04
513.561	21414.23
513.929	21583.49
514.297	21733.99
514.664	21925.85
515.032	22033.19
515.4	22206.52
515.767	22120.2
516.135	22327.65
516.502	22266.18
516.869	22621.42
517.237	22779.16
517.604	22576.68
517.972	23007.63
518.339	23103.45
518.706	23181.18
519.073	23167.85
519.44	23306.38
519.808	23672.24
520.175	23586.6
520.542	23892.13
520.909	23947.72
521.276	24001.73
521.643	24287.37
522.009	24404.88
522.376	24486.91
522.743	24608.49
523.11	24814.59
523.477	25118.99
523.843	25135.48
524.21	25426.32
524.577	25535.02
524.943	25546.77
525.31	25623.15
525.676	25993.31
526.043	26070.83
526.409	26182.46
526.776	26461.78
527.142	26521.89
527.508	26591.26
527.874	26751.94
528.241	26817.02
528.607	26930.24
528.973	27185.82
529.339	27073.74
529.705	27336.78
530.071	27523.89
530.437	27646.38
530.803	27628.3
531.169	27899.48
531.535	27788.29
531.901	27826.49
532.267	27971.34
532.632	28042.3
532.998	28056.99
533.364	28294.5
533.73	28226.93
534.095	28351.9
534.461	28458.11
534.826	28456.3
535.192	28475.06
535.557	28720.25
535.923	28641.83
536.288	28798.66
536.653	28728.16
537.019	28647.26
537.384	28842.5
537.749	28825.1
538.114	28809.51
538.479	28816.74
538.845	28902.62
539.21	28826.23
539.575	28956.4
539.94	28804.77
540.305	29102.38
540.67	28894.48
541.034	28961.37
541.399	28927.47
541.764	28965.66
542.129	29024.87
542.494	29025.55
542.858	29084.98
543.223	28850.87
543.587	29050.86
543.952	28940.81
544.316	28966.34
544.681	28871.66
545.045	28964.08
545.41	29088.37
545.774	28906.46
546.138	28842.5
546.503	28874.59
546.867	28894.71
547.231	29052.67
547.595	28895.84
547.959	28884.31
548.324	28896.74
548.688	28891.77
549.052	28917.76
549.416	28869.17
549.779	28882.5
550.143	28734.26
550.507	28959.11
550.871	28930.19
551.235	28827.14
551.599	29083.4
551.962	29114.14
552.326	28943.52
552.689	28974.25
553.053	28904.2
553.417	28918.89
553.78	29146.68
554.143	28990.3
554.507	29049.05
554.87	29016.06
555.234	29171.54
555.597	28910.75
555.96	29073.46
556.323	29018.77
556.686	28968.15
557.05	29120.01
557.413	29097.41
557.776	29053.8
558.139	29122.72
558.502	29210.4
558.865	29141.03
559.228	29229.61
559.59	29274.58
559.953	29211.31
560.316	29560
560.679	29409.5
561.041	29507.12
561.404	29585.76
561.767	29703.72
562.129	29458.31
562.492	29604.07
562.854	29597.29
563.217	29646.55
563.579	29746.89
563.941	29811.97
564.304	29841.35
564.666	30022.13
565.028	29962.02
565.39	30004.51
565.753	30138.06
566.115	30112.08
566.477	30264.39
566.839	30226.42
567.201	30417.83
567.563	30302.35
567.925	30472.52
568.287	30510.71
568.648	30395.23
569.01	30732.4
569.372	30782.34
569.734	30668.9
570.095	30819.85
570.457	30888.78
570.819	30891.49
571.18	30907.31
571.542	31123.12
571.903	31014.65
572.265	31197.7
572.626	31241.99
572.987	31210.8
573.349	31351.36
573.71	31414.87
574.071	31535.31
574.432	31518.14
574.794	31901.63
575.155	31704.12
575.516	31642.88
575.877	31872.71
576.238	31820.28
576.599	31912.93
576.96	31986.83
577.32	31979.6
577.681	31921.97
578.042	32170.1
578.403	32055.3
578.763	32188.18
579.124	32158.35
579.485	32208.97
579.845	32310.21
580.206	32260.04
580.566	32387.72
580.927	32282.41
581.287	32452.35
581.648	32247.84
582.008	32483.09
582.368	32414.39
582.728	32490.77
583.089	32383.43
583.449	32462.3
583.809	32429.3
584.169	32581.16
584.529	32301.62
584.889	32616.19
585.249	32457.55
585.609	32330.77
585.969	32561.05
586.329	32511.79
586.688	32571.22
587.048	32552.24
587.408	32514.27
587.768	32493.93
588.127	32440.6
588.487	32400.6
588.846	32661.84
589.206	32423.2
589.565	32527.61
589.925	32625
590.284	32621.39
590.643	32536.19
591.003	32610.77
591.362	32700.03
591.721	32662.52
592.08	32523.09
592.44	32735.51
592.799	32627.94
593.158	32662.74
593.517	32528.96
593.876	32706.81
594.235	32652.12
594.593	32633.14
594.952	32697.54
595.311	32628.39
595.67	32803.53
596.029	32926.92
596.387	32843.08
596.746	32908.16
597.104	32740.93
597.463	32798.11
597.822	32886.92
598.18	32781.16
598.538	32859.12
598.897	32912.68
599.255	32677.88
599.613	33199.68
599.972	33043.52
600.33	33005.78
600.688	32961.49
601.046	33100.92
601.404	33233.35
601.762	33091.21
602.12	33223.18
602.478	33268.38
602.836	33242.16
603.194	33036.97
603.552	33115.39
603.91	33253.01
604.268	33344.08
604.625	33196.51
604.983	33320.8
605.341	33155.84
605.698	33427.69
606.056	33567.8
606.413	33384.76
606.771	33537.97
607.128	33539.56
607.485	33422.5
607.843	33441.48
608.2	33667.91
608.557	33825.88
608.914	33761.25
609.272	33919.66
609.629	34078.98
609.986	34071.07
610.343	33914.69
610.7	34218.18
611.057	34028.36
611.414	34137.96
611.771	34182.02
612.127	34278.52
612.484	34302.02
612.841	34325.75
613.198	34248.69
613.554	34179.09
613.911	34520.77
614.267	34641
614.624	34644.84
614.98	34604.39
615.337	34847.54
615.693	34688.9
616.05	34829.24
616.406	34836.7
616.762	34791.5
617.118	34863.59
617.475	34892.06
617.831	35047.31
618.187	35022.23
618.543	35120.76
618.899	35301.32
619.255	35144.26
619.611	35190.36
619.967	35349.23
620.323	35446.17
620.678	35290.24
621.034	35236.46
621.39	35201.21
621.746	35311.26
622.101	35784.69
622.457	35492.95
622.812	35601.65
623.168	35667.18
623.523	35601.42
623.879	35841.42
624.234	35517.58
624.589	35748.99
624.945	35629.67
625.3	35756.9
625.655	35835.77
626.01	35806.84
626.365	35718.26
626.72	35660.86
627.075	35595.77
627.43	35627.86
627.785	35635.55
628.14	35603.91
628.495	35707.86
628.85	35616.79
629.205	35593.97
629.559	35765.94
629.914	35640.97
630.269	35797.12
630.623	35506.51
630.978	35388.77
631.332	35665.38
631.687	35653.85
632.041	35570.46
632.396	35608.65
632.75	35447.75
633.104	35544.93
633.459	35269
633.813	35234.65
634.167	35219.51
634.521	35332.73
634.875	35267.65
635.229	35200.76
635.583	35048.89
635.937	35017.71
636.291	35123.47
636.645	35104.71
636.999	34927.32
637.352	35048.22
637.706	34837.15
638.06	35009.8
638.413	34967.99
638.767	34907.43
639.121	34906.3
639.474	34638.06
639.828	34713.54
640.181	34832.63
640.534	34745.17
640.888	34619.3
641.241	34495.92
641.594	34602.13
641.947	34629.92
642.301	34397.61
642.654	34571.17
643.007	34538.85
643.36	34589.25
643.713	34521.9
644.066	34513.77
644.419	34245.53
644.771	34064.06
645.124	33808.48
645.477	33739.1
645.83	33633.11
646.182	33615.03
646.535	33385.44
646.888	33713.34
647.24	33552.44
647.593	33823.62
647.945	33565.54
648.298	33517.64
648.65	33389.96
649.002	33162.84
649.355	33257.53
649.707	33249.39
650.059	33342.05
650.411	33714.01
650.763	33821.13
651.115	34310.38
651.467	34117.85
651.819	34215.7
652.171	34185.87
652.523	34069.94
652.875	34144.74
653.227	34045.76
653.578	34301.57
653.93	34224.51
654.282	34115.36
654.633	34096.83
654.985	34122.59
655.337	34132.53
655.688	34128.24
656.039	34322.59
656.391	33946.78
656.742	34083.95
657.094	34159.2
657.445	34266.54
657.796	34155.58
658.147	34059.54
658.498	34234
658.849	34307.45
659.2	34248.69
659.551	34126.43
659.902	34437.16
660.253	34192.42
660.604	34345.64
660.955	34204.62
661.306	34436.71
661.656	34315.58
662.007	34434.67
662.358	34456.37
662.708	34534.78
663.059	34461.79
663.409	34271.29
663.76	34364.39
664.11	34551.73
664.461	34501.56
664.811	34581.79
665.161	34529.81
665.511	34500.89
665.862	34446.65
666.212	34608.23
666.562	34771.39
666.912	34570.04
667.262	34513.77
667.612	34478.97
667.962	34569.59
668.312	34391.28
668.662	34657.27
669.011	34579.08
669.361	34579.98
669.711	34570.26
670.06	34500.89
670.41	34525.97
670.76	34439.65
671.109	34602.58
671.459	34565.29
671.808	34538.17
672.157	34487.33
672.507	34463.15
672.856	34378.86
673.205	34476.03
673.554	34478.06
673.904	34429.93
674.253	34556.93
674.602	34416.6
674.951	33937.96
675.3	33753.56
675.649	34430.15
675.998	34420.66
676.346	34306.54
676.695	34378.18
677.044	34260.89
677.393	34172.76
677.741	34271.97
678.09	34199.43
678.438	34078.98
678.787	34223.15
679.135	34191.06
679.484	33911.75
679.832	34122.82
680.181	33888.25
680.529	33907.46
680.877	33769.38
681.225	33702.94
681.573	33958.3
681.922	33673.56
682.27	33627.92
682.618	33589.27
682.966	33490.74
683.314	33568.26
683.661	33425.43
684.009	33273.35
684.357	33320.58
684.705	33130.98
685.053	33090.08
685.4	33008.72
685.748	32846.47
686.095	32837.65
686.443	32731.22
686.79	32700.26
687.138	32868.16
687.485	32643.99
687.832	32542.75
688.18	32514.95
688.527	32391.34
688.874	32280.61
689.221	32274.05
689.568	31940.28
689.915	31855.31
690.262	31939.6
690.609	31911.12
690.956	31623
691.303	31677.91
691.65	31388.88
691.997	31456.22
692.344	31342.55
692.69	31175.78
693.037	31229.33
693.383	30996.35
693.73	30993.63
694.077	30827.54
694.423	30678.16
694.769	30505.51
695.116	30538.28
695.462	30435.46
695.808	30259.64
696.155	30205.18
696.501	30057.39
696.847	30035.69
697.193	29798.86
697.539	29824.63
697.885	29445.43
698.231	29344.86
698.577	29433.68
698.923	29266.9
699.269	29046.11
699.614	28891.77
699.96	28837.53
700.306	28892.45
700.651	28648.16
700.997	28488.16
701.342	28477.77
701.688	28286.59
702.033	28302.41
702.379	28105.35
702.724	27992.81
703.069	28012.24
703.415	27669.65
703.76	27722.53
704.105	27784.23
704.45	27461.52
704.795	27441.41
705.14	27448.64
705.485	27269.66
705.83	27107.18
706.175	27144.02
706.52	26999.84
706.865	26951.93
707.209	26791.48
707.554	26743.12
707.899	26683.92
708.243	26622
708.588	26539.74
708.932	26384.49
709.277	26441.21
709.621	26282.12
709.966	26070.15
710.31	26203.03
710.654	25986.08
710.998	26007.78
711.342	25900.66
711.687	25807.33
712.031	25877.84
712.375	25737.05
712.719	25698.86
713.063	25585.87
713.407	25786.09
713.75	25608.69
714.094	25572.08
714.438	25510.84
714.782	25481.24
715.125	25374.12
715.469	25561.69
715.812	25384.52
716.156	25306.78
716.499	25274.91
716.843	25287.8
717.186	25214.58
717.53	25356.72
717.873	25325.76
718.216	25204.18
718.559	25117.86
718.902	25010.29
719.246	25014.13
719.589	25031.76
719.932	24924.87
720.275	25045.54
720.617	24987.24
720.96	25086.44
721.303	25068.37
721.646	25044.86
721.989	24938.88
722.331	25008.93
722.674	24910.4
723.016	24942.72
723.359	24890.07
723.701	24869.28
724.044	24732.1
724.386	24742.27
724.729	24915.38
725.071	24838.99
725.413	24948.37
725.755	24894.13
726.097	24794.02
726.439	24843.51
726.782	24775.94
727.124	24911.08
727.465	24840.8
727.807	24773.68
728.149	24841.48
728.491	24875.83
728.833	24936.84
729.175	24814.81
729.516	24834.7
729.858	24888.03
730.199	25033.11
730.541	24907.47
730.882	24800.12
731.224	25031.98
731.565	24978.2
731.906	25087.12
732.248	25007.12
732.589	24873.57
732.93	25008.93
733.271	25016.62
733.612	25062.49
733.953	25301.81
734.294	25100.91
734.635	25041.02
734.976	25323.5
735.317	25185.2
735.658	25353.78
735.999	25224.29
736.339	25418.87
736.68	25468.58
737.021	25365.53
737.361	25397.62
737.702	25616.83
738.042	25507.45
738.383	25565.08
738.723	25695.69
739.063	25584.96
739.404	25883.03
739.744	25786.31
740.084	25897.72
740.424	25932.75
740.764	25939.08
741.104	26174.1
741.444	26129.36
741.784	26099.75
742.124	26409.35
742.464	26422.68
742.804	26341.55
743.143	26425.84
743.483	26613.18
743.823	26578.61
744.162	26720.07
744.502	26874.87
744.841	27006.17
745.181	27155.77
745.52	27199.16
745.86	27392.37
746.199	27422.65
746.538	27523.44
746.877	27771.57
747.216	27814.51
747.556	28018.57
747.895	28000.04
748.234	28284.78
748.573	28315.29
748.911	28426.7
749.25	28572.45
749.589	28729.74
749.928	28964.99
750.267	29140.8
750.605	29326.79
750.944	29454.69
751.283	29657.62
751.621	30000.89
751.96	29856.71
752.298	30125.63
752.636	30438.39
752.975	30462.12
753.313	30551.16
753.651	30872.06
753.989	30962.9
754.327	31156.57
754.666	31201.76
755.004	31465.03
755.342	31661.19
755.679	31926.04
756.017	31983.89
756.355	32327.16
756.693	32465.23
757.031	32672.01
757.368	32596.53
757.706	32837.2
758.044	33048.95
758.381	33323.97
758.719	33438.32
759.056	33640.34
759.394	33790.85
759.731	33646.22
760.068	33953.33
760.405	34188.58
760.743	34190.84
761.08	34613.43
761.417	34618.62
761.754	34572.75
762.091	34767.09
762.428	34682.35
762.765	34940.65
763.102	35142.68
763.438	35307.42
763.775	35177.48
764.112	35459.73
764.449	35551.71
764.785	35613.4
765.122	35571.37
765.458	35565.04
765.795	35644.36
766.131	35895.43
766.467	36003.67
766.804	35859.72
767.14	35902.21
767.476	36000.51
767.812	36013.84
768.148	36163.89
768.485	36098.58
768.821	35905.6
769.157	36085.7
769.492	36045.48
769.828	36323.44
770.164	36037.8
770.5	36068.08
770.836	36174.74
771.171	36121.41
771.507	35918.25
771.842	35988.76
772.178	35925.48
772.513	35927.52
772.849	35935.88
773.184	35944.92
773.519	35896.33
773.855	35874.41
774.19	35774.53
774.525	35835.31
774.86	35804.13
775.195	35631.48
775.53	35598.48
775.865	35461.54
776.2	35307.65
776.535	35241.43
776.87	35281.88
777.205	35145.84
777.539	35118.05
777.874	35120.31
778.209	34930.48
778.543	34901.55
778.878	34891.84
779.212	34975.9
779.547	34730.94
779.881	34757.15
780.215	34487.55
780.55	34719.86
780.884	34349.25
781.218	34429.7
781.552	34463.15
781.886	34318.07
782.22	34055.7
782.554	33844.63
782.888	33695.71
783.222	33669.04
783.556	33664.75
783.889	33491.42
784.223	33430.18
784.557	33354.48
784.89	33491.87
785.224	33173.01
785.557	33146.35
785.891	33221.6
786.224	33086.23
786.558	32999.01
786.891	32748.62
787.224	32640.82
787.557	32641.05
787.891	32613.93
788.224	32391.56
788.557	32402.18
788.89	32340.27
789.223	32279.7
789.556	32066.15
789.888	32048.07
790.221	31834.97
790.554	31748.87
790.887	31653.73
791.219	31559.72
791.552	31529.67
791.884	31381.87
792.217	31288.54
792.549	31185.49
792.882	30994.54
793.214	30999.28
793.546	30903.92
793.879	30877.25
794.211	30632.97
794.543	30853.98
794.875	30667.54
795.207	30696.47
795.539	30436.36
795.871	30655.56
796.203	30330.15
796.535	30187.78
796.867	30165.63
797.198	30054
797.53	29940.33
797.862	29798.86
798.193	29841.12
798.525	29651.07
798.856	29747.79
799.188	29450.17
799.519	29261.48
799.85	29301.02
800.182	29289.5
800.513	29341.93
800.844	29015.61
801.175	29183.96
801.506	29178.09
801.837	28822.39
802.168	28846.57
802.499	28894.71
802.83	28697.42
803.161	28658.78
803.491	28674.6
803.822	28670.76
804.153	28441.16
804.483	28316.42
804.814	27980.83
805.145	28136.31
805.475	28113.03
805.805	28147.38
806.136	28132.92
806.466	28054.28
806.796	27972.47
807.126	27743.1
807.457	27762.08
807.787	27746.94
808.117	27544.23
808.447	27555.08
808.777	27573.16
809.107	27367.51
809.436	27223.34
809.766	27341.98
810.096	27348.98
810.426	27125.71
810.755	27228.99
811.085	27049.56
811.414	27178.14
811.744	26918.71
812.073	27000.52
812.403	26923.23
812.732	26661.77
813.061	26907.87
813.39	26666.52
813.719	26593.52
814.049	26721.43
814.378	26653.41
814.707	26419.29
815.036	26545.16
815.365	26382.46
815.693	26257.26
816.022	26323.93
816.351	26202.57
816.68	26029.92
817.008	26058.62
817.337	25784.96
817.665	25931.39
817.994	25863.6
818.322	25999.87
818.651	25915.12
818.979	25763.94
819.307	25827.67
819.636	25659.31
819.964	25574.57
820.292	25678.75
820.62	25674.23
820.948	25670.61
821.276	25829.02
821.604	25550.39
821.932	25788.8
822.259	25525.53
822.587	25675.36
822.915	25558.75
823.243	25632.42
823.57	25530.95
823.898	25630.84
824.225	25575.7
824.553	25537.28
824.88	25552.2
825.207	25732.76
825.535	25589.93
825.862	25805.3
826.189	25587.22
826.516	25798.06
826.843	25739.31
827.17	25797.61
827.497	25763.49
827.824	25725.75
828.151	25851.62
828.478	25714.68
828.805	25917.84
829.131	25841.23
829.458	25743.6
829.785	25650.05
830.111	25751.96
830.438	25816.82
830.764	25743.6
831.09	25799.65
831.417	25689.82
831.743	25921.45
832.069	25726.65
832.395	25743.6
832.722	25702.93
833.048	25625.87
833.374	25685.98
833.7	25735.92
834.026	25685.07
834.351	25640.1
834.677	25802.81
835.003	25664.73
835.329	25545.19
835.654	25612.76
835.98	25570.73
836.306	25675.13
836.631	25523.72
836.956	25627.9
837.282	25528.02
837.607	25476.27
837.932	25426.55
838.258	25372.99
838.583	25416.15
838.908	25345.42
839.233	25368.92
839.558	25184.3
839.883	25292.54
840.208	25120.12
840.533	25163.28
840.858	25125.99
841.182	25123.28
841.507	25126.67
841.832	24987.24
842.156	25016.62
842.481	24871.54
842.805	24966.22
843.13	24815.94
843.454	24711.77
843.778	24685.78
844.103	24758.32
844.427	24550.41
844.751	24580.02
845.075	24549.06
845.399	24402.85
845.723	24345.9
846.047	24342.51
846.371	24208.5
846.695	24088.73
847.019	24053.03
847.343	23977.77
847.666	23913.59
847.99	23723.32
848.313	23672.92
848.637	23660.27
848.96	23468.63
849.284	23446.49
849.607	23335.53
849.931	23359.94
850.254	23140.96
850.577	22976.22
850.9	22798.14
851.223	22986.16
851.546	22820.06
851.869	22618.49
852.192	22778.48
852.515	22506.17
852.838	22385.27
853.161	22462.56
853.483	22250.14
853.806	22253.75
854.129	22175.79
854.451	22134.21
854.774	21877.49
855.096	21851.73
855.419	21804.72
855.741	21798.85
856.063	21661.9
856.385	21663.94
856.708	21508.69
857.03	21535.8
857.352	21597.95
857.674	21373.32
857.996	21352.98
858.318	21247.45
858.64	21152.54
858.961	21101.92
859.283	21120.9
859.605	20951.41
859.926	20932.2
860.248	20926.78
860.57	20845.2
860.891	20830.06
861.212	20766.11
861.534	20709.61
861.855	20583.06
862.176	20638.88
862.498	20657.41
862.819	20605.88
863.14	20608.14
863.461	20550.52
863.782	20447.7
864.103	20435.04
864.424	20416.06
864.745	20405.44
865.065	20261.26
865.386	20221.94
865.707	20285.67
866.027	20212
866.348	20122.28
866.668	20088.38
866.989	20117.99
867.309	19953.02
867.63	19977.2
867.95	20003.87
868.27	19933.59
868.59	19955.05
868.91	19906.02
869.23	19925.45
869.55	19702.18
869.87	19739.69
870.19	19634.16
870.51	19733.82
870.83	19658.11
871.15	19562.75
871.469	19486.14
871.789	19653.82
872.109	19605.91
872.428	19527.27
872.748	19536.53
873.067	19458.34
873.386	19506.03
873.706	19290.89
874.025	19359.82
874.344	19262.42
874.663	19296.99
874.982	19252.02
875.301	19189.88
875.62	19125.25
875.939	19046.83
876.258	19141.97
876.577	18976.78
876.896	19015.42
877.214	19044.12
877.533	19024.91
877.852	19013.38
878.17	18995.98
878.489	19031.24
878.807	18882.31
879.125	18837.57
879.444	18832.82
879.762	18735.88
880.08	18775.2
880.398	18713.51
880.716	18641.42
881.034	18636.67
881.352	18676.9
881.67	18551.02
881.988	18592.6
882.306	18642.77
882.624	18481.19
882.941	18356.9
883.259	18372.27
883.577	18426.28
883.894	18247.75
884.212	18278.49
884.529	18273.06
884.846	18187.64
885.164	18078.72
885.481	18008.89
885.798	18037.36
886.115	17926.41
886.432	17988.1
886.75	17966.41
887.067	17908.1
887.383	17855.67
887.7	17876.01
888.017	17672.85
888.334	17675.79
888.651	17711.5
888.967	17690.93
889.284	17505.63
889.6	17447.32
889.917	17424.73
890.233	17520.09
890.55	17425.63
890.866	17392.64
891.182	17271.51
891.498	17272.64
891.815	17055.7
892.131	17062.48
892.447	17121.46
892.763	17010.27
893.079	16902.48
893.395	16928.24
893.71	16884.85
894.026	16954.68
894.342	16770.05
894.657	16652.09
894.973	16590.4
895.289	16634.46
895.604	16516.05
895.92	16409.38
896.235	16405.09
896.55	16438.08
896.865	16252.55
897.181	16299.11
897.496	16218.2
897.811	16090.75
898.126	16131.43
898.441	16134.36
898.756	15963.07
899.071	15854.6
899.386	15927.82
899.7	15736.63
900.015	15613.93
900.33	15594.27
900.644	15593.81
900.959	15617.32
901.273	15542.97
901.588	15355.85
901.902	15438.11
902.216	15314.72
902.531	15280.38
902.845	15276.99
903.159	15115.18
903.473	15074.96
903.787	15016.88
904.101	14901.85
904.415	14995.41
904.729	14879.93
905.042	14840.61
905.356	14855.3
905.67	14786.15
905.984	14760.84
906.297	14745.25
906.611	14570.79
906.924	14524.46
907.237	14429.78
907.551	14479.04
907.864	14408.31
908.177	14327.86
908.491	14291.25
908.804	14153.4
909.117	14171.25
909.43	14005.83
909.743	14037.24
910.056	13957.7
910.368	14008.32
910.681	13849.68
910.994	13825.5
911.307	13659.63
911.619	13547.99
911.932	13654.43
912.244	13556.58
912.557	13568.56
912.869	13470.93
913.181	13403.59
913.494	13351.16
913.806	13253.31
914.118	13185.06
914.43	13155.23
914.742	13183.71
915.054	13110.26
915.366	13031.17
915.678	12985.29
915.99	12863.04
916.302	12835.92
916.613	12736.71
916.925	12757.73
917.236	12711.63
917.548	12756.15
917.859	12700.33
918.171	12568.36
918.482	12495.14
918.794	12391.64
919.105	12436.16
919.416	12316.61
919.727	12296.95
920.038	12161.59
920.349	12139.67
920.66	12134.02
920.971	12088.82
921.282	12009.73
921.593	11902.38
921.903	11827.13
922.214	11919.79
922.525	11741.03
922.835	11649.74
923.146	11600.47
923.456	11677.76
923.767	11614.48
924.077	11611.77
924.387	11534.03
924.697	11482.96
925.008	11414.26
925.318	11416.3
925.628	11320.25
925.938	11282.97
926.248	11173.36
926.558	11207.04
926.867	11158.22
927.177	11045.68
927.487	11027.61
927.796	10949.19
928.106	10939.92
928.416	10838.68
928.725	10838.01
929.034	10703.77
929.344	10769.31
929.653	10753.26
929.962	10675.98
930.271	10603.89
930.581	10678.01
930.89	10544.68
931.199	10383.33
931.508	10414.97
931.817	10411.8
932.125	10382.65
932.434	10358.92
932.743	10232.15
933.051	10248.42
933.36	10127.74
933.669	10083.22
933.977	10015.2
934.286	10005.03
934.594	10012.94
934.902	9916.9
935.21	9899.27
935.519	9855.88
935.827	9790.12
936.135	9816.34
936.443	9663.57
936.751	9658.15
937.059	9656.57
937.367	9558.27
937.674	9608.89
937.982	9503.8
938.29	9481.66
938.597	9470.81
938.905	9367.54
939.213	9286.41
939.52	9311.94
939.827	9319.85
940.135	9229.69
940.442	9165.51
940.749	9167.99
941.056	9153.3
941.363	9021.33
941.67	9037.15
941.977	8979.52
942.284	8878.06
942.591	8979.3
942.898	8911.95
943.205	8859.53
943.511	8796.48
943.818	8790.38
944.125	8691.17
944.431	8710.6
944.738	8649.59
945.044	8616.37
945.35	8516.94
945.657	8521.46
945.963	8488.24
946.269	8421.57
946.575	8457.28
946.881	8375.92
947.187	8373.89
947.493	8272.65
947.799	8267.68
948.105	8297.51
948.41	8168.47
948.716	8144.97
949.022	8138.42
949.327	8107.68
949.633	8023.39
949.938	7967.57
950.244	8032.43
950.549	7884.41
950.854	7936.16
951.16	7847.35
951.465	7864.75
951.77	7808.71
952.075	7777.97
952.38	7700.24
952.685	7726
952.99	7635.38
953.294	7598.77
953.599	7597.64
953.904	7474.25
954.209	7463.86
954.513	7489.62
954.818	7466.34
955.122	7392.45
955.426	7453.01
955.731	7387.25
956.035	7318.78
956.339	7303.64
956.643	7237.2
956.948	7215.28
957.252	7186.35
957.556	7222.51
957.86	7171.44
958.163	7116.75
958.467	7009.86
958.771	7072.91
959.075	6998.11
959.378	6993.14
959.682	6996.07
959.985	6860.48
960.289	6911.33
960.592	6865.91
960.896	6806.25
961.199	6739.58
961.502	6793.14
961.805	6735.51
962.108	6705.23
962.411	6638.34
962.714	6573.71
963.017	6567.61
963.32	6635.63
963.623	6558.8
963.926	6501.62
964.228	6520.61
964.531	6452.58
964.833	6472.47
965.136	6405.81
965.438	6339.14
965.741	6304.11
966.043	6315.19
966.345	6254.62
966.648	6264.34
966.95	6204.91
967.252	6196.32
967.554	6220.73
967.856	6171.01
968.158	6106.83
968.46	6116.55
968.761	6081.97
969.063	6082.65
969.365	6000.17
969.666	5971.02
969.968	5913.84
970.269	5919.27
970.571	5878.14
970.872	5838.59
971.174	5889.89
971.475	5877.01
971.776	5794.97
972.077	5768.31
972.378	5733.73
972.679	5691.25
972.98	5683.34
973.281	5651.25
973.582	5656.22
973.883	5648.09
974.183	5582.32
974.484	5527.86
974.785	5505.72
975.085	5534.42
975.386	5462.78
975.686	5473.85
975.986	5457.58
976.287	5459.84
976.587	5393.86
976.887	5343.91
977.187	5332.84
977.487	5343.69
977.787	5284.71
978.087	5261.43
978.387	5224.82
978.687	5256.68
978.987	5177.59
979.286	5191.83
979.586	5145.5
979.885	5126.74
980.185	5049.01
980.484	5123.35
980.784	5066.63
981.083	5027.99
981.382	5065.5
981.682	4991.83
981.981	4961.55
982.28	4916.58
982.579	4883.36
982.878	4885.85
983.177	4875.68
983.475	4898.5
983.774	4799.75
984.073	4775.79
984.372	4734.21
984.67	4701.67
984.969	4733.76
985.267	4708.9
985.566	4668.9
985.864	4616.25
986.162	4625.29
986.461	4580.32
986.759	4607.21
987.057	4544.39
987.355	4539.41
987.653	4564.95
987.951	4500.55
988.249	4480.89
988.547	4461.68
988.844	4462.35
989.142	4416.03
989.44	4432.98
989.737	4364.73
990.035	4378.29
990.332	4382.36
990.63	4345.52
990.927	4303.26
991.224	4276.82
991.521	4261.46
991.819	4212.64
992.116	4196.6
992.413	4233.89
992.71	4153.44
993.006	4127.22
993.303	4119.99
993.6	4122.7
993.897	4141.01
994.193	4070.5
994.49	4053.55
994.787	4031.18
995.083	3980.11
995.379	3961.58
995.676	3910.96
995.972	3915.02
996.268	3886.78
996.565	3921.8
996.861	3833.9
997.157	3863.5
997.453	3844.29
997.749	3785.31
998.044	3776.95
998.34	3762.71
998.636	3779.89
998.932	3731.75
999.227	3696.5
999.523	3694.01
999.818	3693.79
1000.114	3677.52
1000.409	3625.77
1000.704	3604.07
1001	3590.74
1001.295	3553.68
1001.59	3557.29
1001.885	3521.81
1002.18	3532.89
1002.475	3474.58
1002.77	3509.16
1003.065	3469.16
1003.359	3421.48
1003.654	3388.03
1003.949	3399.33
1004.243	3347.36
1004.538	3365.43
1004.832	3360.01
1005.127	3306.9
1005.421	3301.93
1005.715	3247.92
1006.009	3241.37
1006.304	3263.52
1006.598	3190.75
1006.892	3180.81
1007.186	3201.37
1007.48	3151.43
1007.773	3088.38
1008.067	3123.18
1008.361	3124.99
1008.655	3071.43
1008.948	3010.42
1009.242	3050.64
1009.535	2994.6
1009.829	3001.15
1010.122	2989.17
1010.415	2960.92
1010.708	2959.8
1011.001	2948.5
1011.295	2914.15
1011.588	2880.48
1011.881	2881.83
1012.173	2864.88
1012.466	2856.29
1012.759	2846.35
1013.052	2790.53
1013.344	2817.43
1013.637	2766.13
1013.93	2762.74
1014.222	2715.96
1014.514	2717.99
1014.807	2690.65
1015.099	2692.01
1015.391	2677.09
1015.683	2616.98
1015.976	2638.45
1016.268	2577.21
1016.56	2587.38
1016.851	2588.05
1017.143	2573.59
1017.435	2559.35
1017.727	2537.43
1018.018	2506.25
1018.31	2505.8
1018.602	2472.12
1018.893	2436.19
1019.185	2464.67
1019.476	2429.41
1019.767	2386.7
1020.058	2377.44
1020.35	2359.81
1020.641	2335.4
1020.932	2334.5
1021.223	2312.81
1021.514	2316.65
1021.804	2245.01
1022.095	2281.39
1022.386	2263.09
1022.677	2247.05
1022.967	2228.29
1023.258	2165.47
1023.548	2199.59
1023.839	2198.69
1024.129	2170.66
1024.419	2125.01
1024.709	2116.2
1025	2130.66
1025.29	2129.53
1025.58	2100.61
1025.87	2084.56
1026.16	2035.3
1026.449	2061.29
1026.739	2030.1
1027.029	2016.77
1027.319	2014.74
1027.608	1972.7
1027.898	1975.19
1028.187	1941.06
1028.477	1962.08
1028.766	1972.02
1029.055	1910.11
1029.344	1922.31
1029.634	1913.49
1029.923	1894.96
1030.212	1827.85
1030.501	1838.24
1030.79	1822.2
1031.078	1839.6
1031.367	1834.63
1031.656	1786.49
1031.945	1786.27
1032.233	1731.35
1032.522	1748.75
1032.81	1735.87
1033.099	1722.09
1033.387	1707.85
1033.675	1717.34
1033.963	1706.95
1034.251	1680.73
1034.54	1647.74
1034.828	1655.2
1035.116	1640.51
1035.403	1646.16
1035.691	1643.22
1035.979	1607.29
1036.267	1636.67
1036.554	1566.84
1036.842	1569.32
1037.129	1553.73
1037.417	1556.89
1037.704	1560.06
1037.992	1511.7
1038.279	1538.82
1038.566	1499.27
1038.853	1499.27
1039.14	1499.27
