Data from 14-4516_FLMS001491_007.txt Node
Date: Thu Apr 19 16:47:08 BST 2018
User: hsy
Spectrometer: FLMS00149
Trigger mode: 0
Integration Time (sec): 1.000000E-2
Scans to average: 10
Electric dark correction enabled: true
Nonlinearity correction enabled: false
Boxcar width: 0
XAxis mode: Wavelengths
Number of Pixels in Spectrum: 2048
>>>>>Begin Spectral Data<<<<<
341.393	5.79
341.776	5.79
342.16	5.79
342.543	-61.78
342.927	-55.68
343.31	-67.65
343.693	-85.51
344.077	-66.07
344.46	-50.7
344.843	-50.7
345.226	-45.96
345.61	-25.39
345.993	-22.46
346.376	0.37
346.759	10.76
347.142	28.84
347.525	35.85
347.908	51.67
348.291	73.59
348.674	99.12
349.057	114.26
349.44	102.51
349.823	134.83
350.206	166.92
350.588	220.93
350.971	254.82
351.354	262.96
351.737	262.51
352.119	292.34
352.502	274.94
352.884	302.73
353.267	309.29
353.65	322.17
354.032	344.54
354.414	347.93
354.797	329.4
355.179	349.06
355.562	356.06
355.944	354.26
356.326	357.42
356.709	372.56
357.091	376.18
357.473	386.8
357.855	360.81
358.238	392
358.62	376.4
359.002	387.93
359.384	370.98
359.766	370.98
360.148	364.88
360.53	402.84
360.912	370.98
361.294	369.85
361.676	370.53
362.057	389.96
362.439	358.78
362.821	381.37
363.203	354.93
363.584	347.7
363.966	370.3
364.348	368.49
364.729	370.53
365.111	347.02
365.493	364.65
365.874	355.84
366.256	342.28
366.637	375.72
367.019	366.23
367.4	375.72
367.781	370.53
368.163	354.93
368.544	356.74
368.925	360.58
369.306	356.74
369.688	366.23
370.069	356.97
370.45	363.07
370.831	356.06
371.212	338.21
371.593	373.24
371.974	356.52
372.355	348.83
372.736	347.7
373.117	367.82
373.498	366.01
373.879	381.83
374.26	371.88
374.641	352.9
375.021	379.11
375.402	372.56
375.783	396.97
376.163	372.33
376.544	384.31
376.925	393.8
377.305	369.4
377.686	381.15
378.066	388.38
378.447	386.12
378.827	382.5
379.208	395.39
379.588	385.44
379.968	394.93
380.349	401.49
380.729	408.49
381.109	390.41
381.489	395.61
381.87	422.28
382.25	418.44
382.63	402.84
383.01	461.15
383.39	418.21
383.77	422.95
384.15	421.6
384.53	415.05
384.91	415.5
385.29	419.11
385.67	427.47
386.049	432.67
386.429	416.4
386.809	443.07
387.189	432.22
387.568	475.38
387.948	459.11
388.328	447.81
388.707	474.03
389.087	446.23
389.466	464.31
389.846	472.45
390.225	489.85
390.605	454.82
390.984	473.35
391.363	477.87
391.743	478.55
392.122	491.65
392.501	483.07
392.881	507.7
393.26	492.11
393.639	521.48
394.018	513.35
394.397	497.76
394.776	505.44
395.155	514.7
395.534	509.05
395.913	535.04
396.292	523.29
396.671	544.08
397.05	550.64
397.429	561.26
397.808	540.92
398.186	556.74
398.565	548.6
398.944	581.82
399.323	551.54
399.701	568.94
400.08	577.98
400.458	570.3
400.837	582.5
401.215	587.02
401.594	610.75
401.972	618.88
402.351	597.41
402.729	613.68
403.107	630.86
403.486	612.55
403.864	655.94
404.242	643.51
404.62	667.69
404.999	660.24
405.377	660.24
405.755	651.42
406.133	686.22
406.511	694.13
406.889	672.21
407.267	713.12
407.645	728.48
408.023	743.17
408.401	758.31
408.779	775.94
409.156	761.7
409.534	780.23
409.912	811.19
410.29	834.7
410.667	834.02
411.045	844.64
411.422	857.75
411.8	868.59
412.178	888.48
412.555	899.1
412.933	909.04
413.31	924.64
413.687	952.88
414.065	931.19
414.442	935.48
414.819	992.66
415.197	1018.42
415.574	1009.61
415.951	1008.48
416.328	1015.26
416.705	1036.5
417.082	1046.44
417.46	1069.04
417.837	1066.55
418.214	1107.91
418.591	1120.34
418.967	1111.07
419.344	1137.29
419.721	1154.46
420.098	1133.44
420.475	1148.59
420.852	1146.1
421.228	1185.87
421.605	1208.25
421.982	1224.97
422.358	1271.97
422.735	1254.8
423.111	1258.41
423.488	1285.98
423.864	1291.41
424.241	1290.95
424.617	1328.02
424.994	1321.46
425.37	1362.82
425.746	1380.44
426.123	1382.48
426.499	1374.12
426.875	1418.64
427.251	1441.69
427.627	1450.5
428.003	1479.2
428.379	1480.55
428.756	1538.18
429.132	1544.73
429.507	1557.61
429.883	1570.72
430.259	1613.88
430.635	1618.86
431.011	1646.65
431.387	1681
431.763	1670.61
432.138	1702.24
432.514	1718.51
432.89	1773.65
433.265	1778.4
433.641	1805.29
434.016	1808.91
434.392	1873.09
434.767	1903.37
435.143	1908.57
435.518	1937.27
435.894	1972.07
436.269	1965.74
436.644	2035.34
437.02	2005.96
437.395	2107.2
437.77	2060.43
438.145	2144.72
438.52	2156.02
438.895	2173.42
439.271	2200.31
439.646	2197.37
440.021	2271.49
440.395	2268.56
440.77	2261.78
441.145	2259.97
441.52	2310.36
441.895	2322.34
442.27	2350.36
442.645	2332.51
443.019	2363.02
443.394	2381.77
443.769	2422.22
444.143	2418.61
444.518	2431.49
444.892	2440.3
445.267	2481.88
445.641	2499.06
446.016	2511.94
446.39	2517.14
446.764	2563.24
447.139	2523.46
447.513	2554.65
447.887	2623.58
448.262	2604.37
448.636	2681.65
449.01	2671.48
449.384	2718.49
449.758	2717.58
450.132	2732.72
450.506	2768.88
450.88	2780.63
451.254	2783.34
451.628	2866.28
452.002	2911.48
452.376	2904.47
452.75	2890.46
453.123	2969.55
453.497	3045.94
453.871	3029.44
454.244	3077.8
454.618	3083.9
454.992	3197.8
455.365	3199.83
455.739	3243.45
456.112	3276.21
456.486	3327.51
456.859	3361.86
457.232	3426.94
457.606	3464.23
457.979	3497.68
458.352	3525.7
458.725	3616.54
459.099	3648.18
459.472	3695.86
459.845	3797.78
460.218	3772.92
460.591	3842.75
460.964	3842.53
461.337	3895.86
461.71	3929.98
462.083	4060.83
462.456	4085.23
462.829	4085.01
463.201	4205.91
463.574	4156.87
463.947	4283.42
464.32	4329.29
464.692	4367.26
465.065	4391.89
465.438	4455.84
465.81	4569.74
466.183	4553.47
466.555	4613.13
466.928	4694.71
467.3	4682.5
467.672	4758.66
468.045	4845.66
468.417	4889.5
468.789	4894.93
469.161	4984.87
469.534	5049.05
469.906	5091.53
470.278	5202.26
470.65	5286.33
471.022	5414.69
471.394	5435.03
471.766	5428.02
472.138	5587.34
472.51	5621.69
472.882	5800.89
473.253	5846.77
473.625	5856.26
473.997	6035.24
474.369	6023.71
474.74	6111.62
475.112	6234.33
475.484	6276.81
475.855	6401.33
476.227	6523.36
476.598	6693.3
476.97	6709.34
477.341	6868.66
477.713	6979.84
478.084	7028.21
478.455	7251.02
478.827	7250.57
479.198	7488.76
479.569	7524.46
479.94	7741.18
480.311	7821.4
480.682	8027.95
481.053	8192.47
481.424	8289.19
481.795	8441.5
482.166	8523.98
482.537	8629.29
482.908	8844.65
483.279	8975.5
483.65	9130.3
484.021	9310.63
484.391	9418.88
484.762	9505.2
485.133	9628.14
485.503	9755.82
485.874	10015.7
486.244	10081.46
486.615	10342.92
486.985	10492.52
487.356	10586.53
487.726	10729.35
488.097	10976.8
488.467	11162.79
488.837	11359.84
489.207	11463.12
489.578	11742.21
489.948	11847.06
490.318	12024.91
490.688	12078.69
491.058	12342.87
491.428	12482.98
491.798	12593.48
492.168	12982.85
492.538	13054.71
492.908	13158.89
493.278	13430.52
493.648	13496.06
494.017	13717.97
494.387	13923.84
494.757	13971.3
495.126	14167.45
495.496	14310.5
495.866	14448.12
496.235	14574.9
496.605	14852.18
496.974	14794.33
497.344	15024.38
497.713	15252.62
498.082	15350.25
498.452	15512.05
498.821	15701.2
499.19	15803.12
499.559	15975.99
499.928	15981.64
500.298	16164.24
500.667	16327.4
501.036	16378.02
501.405	16588.86
501.774	16765.12
502.143	16888.74
502.512	17081.05
502.88	17228.39
503.249	17200.37
503.618	17469.74
503.987	17547.25
504.356	17721.48
504.724	17827.7
505.093	17907.92
505.462	18022.94
505.83	18084.64
506.199	18363.05
506.567	18585.87
506.936	18544.51
507.304	18790.16
507.672	18957.16
508.041	18887.55
508.409	19154.44
508.777	19241.9
509.145	19436.01
509.514	19446.64
509.882	19602.11
510.25	19681.88
510.618	19817.93
510.986	19969.33
511.354	20128.2
511.722	20287.97
512.09	20486.61
512.458	20372.94
512.826	20649.54
513.193	20729.09
513.561	20869.2
513.929	20971.57
514.297	21172.47
514.664	21243.65
515.032	21342.18
515.4	21492.91
515.767	21679.35
516.135	21693.58
516.502	21505.11
516.869	22023.06
517.237	21992.11
517.604	21975.38
517.972	22385.09
518.339	22360.68
518.706	22449.95
519.073	22542.6
519.44	22628.92
519.808	22858.75
520.175	22938.52
520.542	23187.55
520.909	23279.08
521.276	23221.9
521.643	23611.72
522.009	23640.42
522.376	23775.79
522.743	23823.92
523.11	24055.1
523.477	24267.07
523.843	24387.75
524.21	24651.92
524.577	24740.73
524.943	24756.78
525.31	24944.8
525.676	25180.27
526.043	25269.08
526.409	25425.24
526.776	25516.76
527.142	25613.25
527.508	25751.1
527.874	25856.86
528.241	26126.91
528.607	26113.35
528.973	26425.21
529.339	26254.37
529.705	26526.68
530.071	26780.23
530.437	26730.06
530.803	26948.81
531.169	26998.53
531.535	27016.38
531.901	27153.55
532.267	27117.85
532.632	27462.47
532.998	27382.7
533.364	27416.37
533.73	27544.05
534.095	27568.46
534.461	27615.69
534.826	27720.77
535.192	27749.24
535.557	27918.05
535.923	27849.13
536.288	27979.29
536.653	28012.74
537.019	27911.95
537.384	28052.28
537.749	27945.4
538.114	27990.59
538.479	27897.49
538.845	27987.65
539.21	28035.11
539.575	28076.01
539.94	28052.74
540.305	28243.01
540.67	28084.37
541.034	28025.17
541.399	28207.08
541.764	28088.67
542.129	28159.4
542.494	28146.75
542.858	28170.25
543.223	28157.59
543.587	28139.51
543.952	28111.04
544.316	28157.14
544.681	28109.01
545.045	28217.25
545.41	28189.46
545.774	28085.28
546.138	28050.48
546.503	28079.18
546.867	28120.31
547.231	28222
547.595	28202.79
547.959	28158.95
548.324	27989.01
548.688	28201.21
549.052	28056.8
549.416	28036.24
549.779	27972.51
550.143	28165.73
550.507	28149.68
550.871	28056.58
551.235	28076.69
551.599	28147.65
551.962	28139.51
552.326	28117.82
552.689	28188.1
553.053	28014.77
553.417	28048.9
553.78	28199.4
554.143	28064.04
554.507	28178.84
554.87	28099.06
555.234	28370.24
555.597	28029.91
555.96	28121.66
556.323	28148.78
556.686	28185.39
557.05	28161.66
557.413	28257.7
557.776	28265.16
558.139	28284.6
558.502	28293.63
558.865	28318.04
559.228	28379.06
559.59	28503.12
559.953	28289.79
560.316	28664.7
560.679	28453.4
561.041	28623.12
561.404	28671.7
561.767	28813.85
562.129	28792.6
562.492	28853.85
562.854	28762.32
563.217	28795.99
563.579	28890
563.941	28942.66
564.304	29156.44
564.666	29160.05
565.028	28989.44
565.39	29097.23
565.753	29253.38
566.115	29225.59
566.477	29334.29
566.839	29362.08
567.201	29632.36
567.563	29606.82
567.925	29567.05
568.287	29580.38
568.648	29631
569.01	29751
569.372	29985.12
569.734	29937.66
570.095	30025.11
570.457	30044.1
570.819	30231.21
571.18	30101.72
571.542	30211.32
571.903	30186.47
572.265	30378.78
572.626	30581.71
572.987	30461.04
573.349	30583.29
573.71	30616.51
574.071	30653.57
574.432	30876.39
574.794	30999.33
575.155	30881.59
575.516	30820.57
575.877	31048.59
576.238	31004.52
576.599	31079.32
576.96	31094.92
577.32	31263.73
577.681	31092.43
578.042	31253.78
578.403	31286.32
578.763	31277.74
579.124	31297.62
579.485	31469.14
579.845	31540.55
580.206	31451.97
580.566	31500.1
580.927	31343.72
581.287	31731.51
581.648	31499.43
582.008	31713.66
582.368	31629.37
582.728	31585.3
583.089	31557.96
583.449	31626.2
583.809	31742.13
584.169	31652.64
584.529	31615.36
584.889	31918.62
585.249	31701.68
585.609	31362.03
585.969	31749.14
586.329	31619.65
586.688	31699.19
587.048	31740.78
587.408	31725.18
587.768	31651.06
588.127	31740.55
588.487	31646.99
588.846	31791.17
589.206	31554.34
589.565	31680.44
589.925	31878.4
590.284	31874.11
590.643	31715.47
591.003	31784.39
591.362	31936.93
591.721	31829.36
592.08	31872.52
592.44	31988
592.799	31937.15
593.158	31849.47
593.517	31774
593.876	31939.19
594.235	31863.03
594.593	31983.93
594.952	31958.85
595.311	31840.43
595.67	31867.55
596.029	32144.61
596.387	32040.43
596.746	32208.56
597.104	32002.46
597.463	31938.28
597.822	32260.54
598.18	32014.44
598.538	32015.8
598.897	32364.94
599.255	32156.58
599.613	32442.68
599.972	32288.56
600.33	32315.22
600.688	32405.84
601.046	32413.3
601.404	32422.11
601.762	32493.98
602.12	32533.07
602.478	32658.04
602.836	32581.21
603.194	32304.83
603.552	32484.48
603.91	32382.57
604.268	32523.35
604.625	32611.04
604.983	32737.59
605.341	32395.22
605.698	32719.73
606.056	32898.03
606.413	32698.26
606.771	32918.15
607.128	32847.41
607.485	32698.72
607.843	32713.41
608.2	32873.4
608.557	33131.25
608.914	33030.23
609.272	33042.66
609.629	33314.52
609.986	33268.87
610.343	33209.66
610.7	33555.42
611.057	33446.49
611.414	33425.25
611.771	33541.63
612.127	33525.36
612.484	33833.83
612.841	33717.45
613.198	33724.68
613.554	33685.36
613.911	33833.83
614.267	33853.04
614.624	33808.97
614.98	34067.04
615.337	34168.28
615.693	34016.42
616.05	34057.32
616.406	34295.28
616.762	34238.79
617.118	34156.76
617.475	34200.6
617.831	34331.44
618.187	34303.19
618.543	34427.71
618.899	34624.32
619.255	34632.45
619.611	34560.81
619.967	34586.58
620.323	34750.41
620.678	34504.54
621.034	34544.77
621.39	34615.05
621.746	34676.52
622.101	35077.19
622.457	34654.37
622.812	34977.75
623.168	34775.5
623.523	34769.4
623.879	34995.15
624.234	34755.84
624.589	34866.12
624.945	34943.4
625.3	34903.86
625.655	34909.05
626.01	35022.05
626.365	35071.08
626.72	34941.6
627.075	34860.02
627.43	34986.57
627.785	34855.95
628.14	34871.54
628.495	35104.53
628.85	35025.43
629.205	34935.95
629.559	35056.17
629.914	35022.05
630.269	34830.41
630.623	34715.39
630.978	34729.4
631.332	34830.64
631.687	34892.56
632.041	34685.56
632.396	34822.28
632.75	34751.54
633.104	34792.22
633.459	34644.2
633.813	34639.68
634.167	34598.1
634.521	34521.27
634.875	34576.63
635.229	34524.43
635.583	34381.38
635.937	34502.51
636.291	34399.24
636.645	34359.46
636.999	34209.64
637.352	34427.71
637.706	34021.62
638.06	34265.23
638.413	34252.8
638.767	33987.27
639.121	34205.57
639.474	33986.14
639.828	33933.26
640.181	33973.71
640.534	33974.39
640.888	33756.99
641.241	33739.82
641.594	33868.4
641.947	33886.03
642.301	33767.84
642.654	33845.35
643.007	33697.79
643.36	33886.48
643.713	33733.04
644.066	33874.96
644.419	33628.41
644.771	33314.97
645.124	33148.65
645.477	33111.36
645.83	32815.55
646.182	32880.63
646.535	32764.93
646.888	32862.55
647.24	32721.99
647.593	33058.93
647.945	32815.55
648.298	32746.85
648.65	32636.12
649.002	32450.59
649.355	32526.07
649.707	32440.19
650.059	32420.98
650.411	32856.23
650.763	33086.95
651.115	33606.26
651.467	33463.44
651.819	33461.41
652.171	33255.76
652.523	33318.59
652.875	33347.51
653.227	33169.44
653.578	33476.78
653.93	33382.77
654.282	33297.12
654.633	33215.09
654.985	33438.81
655.337	33410.56
655.688	33253.5
656.039	33399.04
656.391	33248.31
656.742	33274.07
657.094	33340.51
657.445	33359.49
657.796	33433.61
658.147	33458.02
658.498	33420.73
658.849	33544.34
659.2	33436.78
659.551	33384.8
659.902	33526.72
660.253	33554.74
660.604	33588.41
660.955	33369.21
661.306	33630.9
661.656	33563.55
662.007	33469.32
662.358	33612.82
662.708	33573.95
663.059	33587.51
663.409	33355.65
663.76	33763.32
664.11	33745.24
664.461	33846.71
664.811	33737.33
665.161	33841.96
665.511	33729.88
665.862	33652.14
666.212	33868.4
666.562	33742.08
666.912	33894.39
667.262	33709.31
667.612	33637.22
667.962	33829.31
668.312	33829.08
668.662	33901.85
669.011	33916.31
669.361	33839.7
669.711	33795.64
670.06	33739.82
670.41	33715.41
670.76	33632.93
671.109	33866.82
671.459	33738.01
671.808	33710.44
672.157	33691.23
672.507	33627.96
672.856	33652.59
673.205	33613.04
673.554	33720.16
673.904	33502.76
674.253	33842.87
674.602	33640.39
674.951	33134.19
675.3	32861.65
675.649	33528.75
675.998	33542.76
676.346	33563.33
676.695	33565.59
677.044	33382.54
677.393	33467.74
677.741	33555.19
678.09	33336.67
678.438	33301.41
678.787	33314.07
679.135	33382.31
679.484	33091.93
679.832	33264.13
680.181	33223
680.529	33229.55
680.877	32930.8
681.225	32980.97
681.573	33047.18
681.922	32799.05
682.27	32794.99
682.618	32820.3
682.966	32751.37
683.314	32729.68
683.661	32637.93
684.009	32451.94
684.357	32497.14
684.705	32384.6
685.053	32474.99
685.4	32276.35
685.748	32156.36
686.095	32106.42
686.443	31985.97
686.79	31948.23
687.138	32042.01
687.485	31970.6
687.832	31731.96
688.18	31734.22
688.527	31582.81
688.874	31580.1
689.221	31435.92
689.568	31408.81
689.915	31295.82
690.262	31183.05
690.609	31149.83
690.956	30901.25
691.303	30999.78
691.65	30768.37
691.997	30804.08
692.344	30533.8
692.69	30550.3
693.037	30494.93
693.383	30188.73
693.73	30247.26
694.077	30011.33
694.423	29976.53
694.769	29955.29
695.116	29868.73
695.462	29679.59
695.808	29620.15
696.155	29656.76
696.501	29259.48
696.847	29279.82
697.193	29149.21
697.539	29142.88
697.885	28837.58
698.231	28737.92
698.577	28806.62
698.923	28675.77
699.269	28370.47
699.614	28354.2
699.96	28194.65
700.306	28142.9
700.651	28033.75
700.997	27848.67
701.342	27850.93
701.688	27615.69
702.033	27668.34
702.379	27432.64
702.724	27421.57
703.069	27527.55
703.415	27154.91
703.76	27043.05
704.105	27107
704.45	27014.12
704.795	26775.93
705.14	26717.63
705.485	26686.67
705.83	26481.25
706.175	26560.35
706.52	26466.34
706.865	26357.41
707.209	26197.87
707.554	26173.69
707.899	26093.24
708.243	26027.93
708.588	25885.34
708.932	25705.23
709.277	25672.23
709.621	25726.02
709.966	25433.37
710.31	25540.49
710.654	25393.15
710.998	25374.16
711.342	25379.59
711.687	25362.41
712.031	25233.6
712.375	25086.04
712.719	25100.27
713.063	24993.16
713.407	25143.43
713.75	25022.76
714.094	25022.08
714.438	24851.92
714.782	24840.62
715.125	24671.81
715.469	24986.38
715.812	24688.31
716.156	24689.21
716.499	24729.21
716.843	24613.28
717.186	24503.23
717.53	24693.05
717.873	24681.3
718.216	24531.7
718.559	24626.84
718.902	24383.68
719.246	24428.88
719.589	24359.73
719.932	24465.71
720.275	24457.8
720.617	24413.06
720.96	24359.27
721.303	24327.86
721.646	24420.74
721.989	24281.54
722.331	24322.67
722.674	24245.38
723.016	24359.5
723.359	24102.11
723.701	24402.89
724.044	24234.08
724.386	24089
724.729	24229.33
725.071	24283.8
725.413	24196.79
725.755	24234.53
726.097	24226.62
726.439	24102.33
726.782	24161.99
727.124	24324.47
727.465	24280.41
727.807	24205.15
728.149	24252.61
728.491	24119.51
728.833	24329.22
729.175	24357.92
729.516	24141.88
729.858	24214.87
730.199	24440.63
730.541	24300.29
730.882	24179.84
731.224	24451.25
731.565	24286.28
731.906	24311.37
732.248	24451.93
732.589	24324.02
732.93	24321.08
733.271	24402.89
733.612	24365.38
733.953	24459.61
734.294	24465.71
734.635	24531.7
734.976	24667.06
735.317	24658.25
735.658	24652.6
735.999	24556.33
736.339	24606.27
736.68	24694.18
737.021	24660.96
737.361	24784.57
737.702	25046.26
738.042	24828.64
738.383	25062.31
738.723	24950.67
739.063	24940.05
739.404	25118.58
739.744	25131.91
740.084	25216.88
740.424	25320.38
740.764	25343.88
741.104	25529.64
741.444	25447.83
741.784	25474.73
742.124	25691.67
742.464	25598.11
742.804	25750.42
743.143	25732.12
743.483	25978.67
743.823	25902.74
744.162	26132.79
744.502	26206.68
744.841	26202.62
745.181	26397.19
745.52	26444.19
745.86	26523.51
746.199	26648.71
746.538	26878.76
746.877	27097.51
747.216	27235.13
747.556	27191.06
747.895	27381.79
748.234	27549.7
748.573	27637.38
748.911	27791.5
749.25	27872.63
749.589	27963.93
749.928	28182.23
750.267	28360.98
750.605	28534.76
750.944	28683.68
751.283	28712.61
751.621	29116.44
751.96	29214.97
752.298	29342.42
752.636	29708.74
752.975	29727.95
753.313	29725.91
753.651	30268.05
753.989	30281.6
754.327	30462.62
754.666	30329.06
755.004	30746
755.342	31022.6
755.679	31125.65
756.017	31157.97
756.355	31533.55
756.693	31677.73
757.031	31906.42
757.368	31914.56
757.706	32171.72
758.044	32242.91
758.381	32493.98
758.719	32608.1
759.056	32945.72
759.394	32837.92
759.731	32979.39
760.068	33113.62
760.405	33455.98
760.743	33381.64
761.08	33638.35
761.417	33804.9
761.754	33789.54
762.091	33842.87
762.428	33982.75
762.765	34029.08
763.102	34404.89
763.438	34367.83
763.775	34382.74
764.112	34596.97
764.449	34729.17
764.785	34836.74
765.122	34721.04
765.458	34701.83
765.795	34868.83
766.131	34910.64
766.467	34941.6
766.804	35043.29
767.14	35130.29
767.476	35134.36
767.812	35173.23
768.148	35301.36
768.485	35270.17
768.821	35094.36
769.157	35136.17
769.492	35180.01
769.828	35185.43
770.164	35122.38
770.5	35074.25
770.836	35262.04
771.171	35137.97
771.507	35156.73
771.842	35069.73
772.178	35156.5
772.513	35174.58
772.849	35132.1
773.184	35041.93
773.519	35064.3
773.855	35010.52
774.19	35097.52
774.525	34974.14
774.86	34740.7
775.195	34865.44
775.53	34787.7
775.865	34669.74
776.2	34629.97
776.535	34466.35
776.87	34522.85
777.205	34447.82
777.539	34275.17
777.874	34399.69
778.209	34287.83
778.543	34198.79
778.878	34150.43
779.212	34248.05
779.547	33865.47
779.881	34082.63
780.215	33810.33
780.55	33946.59
780.884	33780.95
781.218	33642.19
781.552	33707.28
781.886	33443.56
782.22	33383.67
782.554	33284.46
782.888	33133.96
783.222	32949.78
783.556	32946.17
783.889	32924.93
784.223	32682.67
784.557	32583.24
784.89	32787.08
785.224	32533.75
785.557	32406.52
785.891	32383.02
786.224	32338.95
786.558	32401.1
786.891	32009.02
787.224	31926.08
787.557	32008.57
787.891	31818.29
788.224	31666.88
788.557	31538.3
788.89	31666.88
789.223	31561.57
789.556	31396.83
789.888	31242.94
790.221	31239.09
790.554	30915.94
790.887	31078.42
791.219	30976.28
791.552	30883.4
791.884	30783.51
792.217	30727.92
792.549	30516.18
792.882	30420.13
793.214	30260.59
793.546	30339.68
793.879	30123.64
794.211	29945.34
794.543	30276.63
794.875	29938.56
795.207	30045
795.539	29821.05
795.871	29971.56
796.203	29701.06
796.535	29473.72
796.867	29599.81
797.198	29353.49
797.53	29266.49
797.862	29164.12
798.193	29105.36
798.525	28979.49
798.856	29207.51
799.188	28751.7
799.519	28746.28
799.85	28614.76
800.182	28684.13
800.513	28748.76
800.844	28365.27
801.175	28611.82
801.506	28594.42
801.837	28350.81
802.168	28287.53
802.499	28415.89
802.83	28203.69
803.161	27964.15
803.491	27936.58
803.822	28061.1
804.153	27893.87
804.483	27619.3
804.814	27449.14
805.145	27636.93
805.475	27580.88
805.805	27450.27
806.136	27567.33
806.466	27453.66
806.796	27380.21
807.126	27306.77
807.457	27257.05
807.787	27231.74
808.117	27004.18
808.447	27021.35
808.777	27047.79
809.107	26827.91
809.436	26912.65
809.766	26873.11
810.096	26811.41
810.426	26679.44
810.755	26662.27
811.085	26662.27
811.414	26730.06
811.744	26401.71
812.073	26518.77
812.403	26375.27
812.732	26290.52
813.061	26361.71
813.39	26245.33
813.719	26183.63
814.049	26296.4
814.378	26157.87
814.707	26066.8
815.036	25942.74
815.365	25882.17
815.693	25717.66
816.022	25759.92
816.351	25665
816.68	25521.05
817.008	25618.22
817.337	25393.6
817.665	25393.37
817.994	25476.31
818.322	25598.11
818.651	25368.97
818.979	25263.43
819.307	25348.85
819.636	25261.85
819.964	25145.69
820.292	25096.66
820.62	25001.29
820.948	25163.55
821.276	25212.81
821.604	25072.25
821.932	25168.97
822.259	25059.6
822.587	25152.47
822.915	25138.69
823.243	25134.62
823.57	25084
823.898	25251.45
824.225	24991.8
824.553	25032.03
824.88	25139.59
825.207	25162.42
825.535	25116.99
825.862	25195.41
826.189	25072.93
826.516	25292.36
826.843	25386.59
827.17	25211.91
827.497	25347.72
827.824	25174.85
828.151	25479.47
828.478	25269.08
828.805	25355.41
829.131	25329.19
829.458	25314.73
829.785	25127.39
830.111	25254.62
830.438	25362.19
830.764	25307.27
831.09	25352.92
831.417	25218.01
831.743	25431.34
832.069	25268.4
832.395	25174.39
832.722	25346.82
833.048	25175.75
833.374	25194.06
833.7	25017.79
834.026	25189.54
834.351	25260.27
834.677	25313.6
835.003	25203.77
835.329	25201.74
835.654	25070.22
835.98	25050.56
836.306	25132.81
836.631	25033.61
836.956	25161.29
837.282	25141.18
837.607	25058.01
837.932	25036.32
838.258	24997.22
838.583	25017.34
838.908	24884.23
839.233	24910.22
839.558	24860.73
839.883	24658.93
840.208	24631.36
840.533	24815.08
840.858	24660.28
841.182	24672.26
841.507	24604.92
841.832	24516.78
842.156	24475.66
842.481	24481.53
842.805	24374.87
843.13	24322.67
843.454	24344.59
843.778	24189.34
844.103	24179.84
844.427	24151.14
844.751	24161.31
845.075	23995.67
845.399	23956.35
845.723	23870.7
846.047	23949.57
846.371	23829.35
846.695	23587.54
847.019	23651.72
847.343	23428.68
847.666	23339.64
847.99	23262.81
848.313	23128.8
848.637	23173.77
848.96	23035.24
849.284	22992.08
849.607	22814.46
849.931	22894
850.254	22748.24
850.577	22433.45
850.9	22324.3
851.223	22409.95
851.546	22370.17
851.869	22180.35
852.192	22233.91
852.515	22077.75
852.838	21901.03
853.161	21966.12
853.483	21841.37
853.806	21792.79
854.129	21774.94
854.451	21642.28
854.774	21479.58
855.096	21561.83
855.419	21458.79
855.741	21375.85
856.063	21339.47
856.385	21290.2
856.708	21158.91
857.03	21211.11
857.352	21070.1
857.674	21035.97
857.996	20820.61
858.318	20734.29
858.64	20775.64
858.961	20721.63
859.283	20685.47
859.605	20586.27
859.926	20579.49
860.248	20510.56
860.57	20444.35
860.891	20410.68
861.212	20357.57
861.534	20267.4
861.855	20171.36
862.176	20269.21
862.498	20203.9
862.819	20255.2
863.14	20176.33
863.461	20019.5
863.782	20015.89
864.103	20031.7
864.424	19936.34
864.745	19950.35
865.065	19805.72
865.386	19707.19
865.707	19850.92
866.027	19808.89
866.348	19787.19
866.668	19766.85
866.989	19787.87
867.309	19500.65
867.63	19603.69
867.95	19621.55
868.27	19467.88
868.59	19595.78
868.91	19541.55
869.23	19450.7
869.55	19439.86
869.87	19479.18
870.19	19335.45
870.51	19286.87
870.83	19342.23
871.15	19188.34
871.469	19163.48
871.789	19282.8
872.109	19278.28
872.428	19136.36
872.748	19209.58
873.067	19173.87
873.386	19093.42
873.706	19041
874.025	18978.4
874.344	18794.68
874.663	19117.83
874.982	18933.43
875.301	18908.34
875.62	18779.53
875.939	18700.67
876.258	18823.6
876.577	18751.29
876.896	18676.26
877.214	18669.03
877.533	18615.02
877.852	18633.32
878.17	18695.92
878.489	18691.18
878.807	18552.65
879.125	18480.11
879.444	18556.94
879.762	18461.58
880.08	18499.99
880.398	18338.64
880.716	18350.85
881.034	18295.48
881.352	18295.25
881.67	18232.43
881.988	18278.3
882.306	18103.85
882.624	18206.44
882.941	18020.46
883.259	17973.23
883.577	18033.34
883.894	17907.02
884.212	17912.44
884.529	17828.6
884.846	17761.48
885.164	17748.6
885.481	17741.37
885.798	17654.14
886.115	17682.16
886.432	17755.15
886.75	17688.49
887.067	17568.04
887.383	17548.15
887.7	17478.55
888.017	17467.03
888.334	17480.36
888.651	17380.48
888.967	17333.92
889.284	17223.87
889.6	17126.24
889.917	17099.58
890.233	17153.14
890.55	17049.18
890.866	17071.78
891.182	16915.18
891.498	16999.47
891.815	16909.53
892.131	16833.82
892.447	16752.7
892.763	16721.28
893.079	16767.61
893.395	16624.11
893.71	16580.95
894.026	16610.55
894.342	16580.5
894.657	16417.56
894.973	16340.28
895.289	16324.68
895.604	16285.36
895.92	16172.15
896.235	16204.23
896.55	16227.74
896.865	16112.03
897.181	15994.97
897.496	16045.6
897.811	15931.7
898.126	15853.06
898.441	15776.45
898.756	15765.6
899.071	15683.8
899.386	15702.78
899.7	15539.85
900.015	15468.89
900.33	15359.06
900.644	15403.8
900.959	15366.29
901.273	15262.34
901.588	15176.01
901.902	15177.14
902.216	15144.6
902.531	15166.52
902.845	15109.8
903.159	14905.74
903.473	14874.55
903.787	14823.25
904.101	14752.3
904.415	14816.93
904.729	14655.58
905.042	14570.15
905.356	14580.77
905.67	14505.75
905.984	14493.09
906.297	14481.57
906.611	14362.93
906.924	14390.95
907.237	14342.14
907.551	14296.26
907.864	14236.15
908.177	14059.43
908.491	14004.29
908.804	13960.68
909.117	13997.74
909.43	13805.43
909.743	13802.26
910.056	13795.71
910.368	13727.24
910.681	13626.45
910.994	13619.9
911.307	13489.28
911.619	13375.16
911.932	13441.6
912.244	13312.56
912.557	13307.59
912.869	13247.02
913.181	13162.51
913.494	13133.81
913.806	13086.35
914.118	13103.3
914.43	12964.55
914.742	12887.71
915.054	12788.73
915.366	12844.1
915.678	12758
915.99	12759.35
916.302	12635.74
916.613	12584.9
916.925	12571.11
917.236	12515.07
917.548	12431.9
917.859	12392.13
918.171	12380.15
918.482	12260.16
918.794	12209.76
919.105	12121.86
919.416	12038.47
919.727	12174.06
920.038	12103.78
920.349	11986.04
920.66	11932.71
920.971	11934.74
921.282	11819.27
921.593	11748.31
921.903	11675.77
922.214	11600.06
922.525	11574.98
922.835	11514.87
923.146	11495.43
923.456	11485.94
923.767	11394.87
924.077	11396.45
924.387	11319.39
924.697	11280.3
925.008	11266.51
925.318	11163.24
925.628	11196.01
925.938	11075.78
926.248	11016.12
926.558	10901.1
926.867	11011.83
927.177	10989.23
927.487	10784.94
927.796	10676.47
928.106	10742.46
928.416	10704.49
928.725	10699.97
929.034	10654.32
929.344	10626.08
929.653	10602.8
929.962	10480.09
930.271	10499.3
930.581	10397.83
930.89	10323.49
931.199	10276.26
931.508	10297.95
931.817	10200.33
932.125	10187.22
932.434	10110.84
932.743	10111.06
933.051	10018.63
933.36	9999.2
933.669	9952.2
933.977	9920.11
934.286	9913.1
934.594	9841.69
934.902	9799.66
935.21	9691.19
935.519	9745.87
935.827	9718.76
936.135	9617.29
936.443	9552.43
936.751	9474.02
937.059	9427.46
937.367	9463.17
937.674	9416.16
937.982	9341.14
938.29	9351.76
938.597	9283.29
938.905	9139.34
939.213	9271.31
939.52	9095.72
939.827	9184.98
940.135	9088.26
940.442	8950.64
940.749	9035.38
941.056	9091.2
941.363	8935.73
941.67	8908.61
941.977	8878.55
942.284	8804.43
942.591	8821.15
942.898	8755.39
943.205	8737.54
943.511	8699.35
943.818	8682.4
944.125	8527.15
944.431	8501.16
944.738	8490.31
945.044	8454.83
945.35	8444.66
945.657	8401.95
945.963	8380.03
946.269	8281.51
946.575	8293.26
946.881	8254.39
947.187	8204.67
947.493	8173.49
947.799	8185.46
948.105	8093.94
948.41	8062.08
948.716	8017.78
949.022	8037.22
949.327	7974.85
949.633	7841.52
949.938	7844
950.244	7787.73
950.549	7793.16
950.854	7767.85
951.16	7738.92
951.465	7733.27
951.77	7632.48
952.075	7558.36
952.38	7620.51
952.685	7638.13
952.99	7510
953.294	7519.72
953.599	7466.61
953.904	7456.67
954.209	7402.43
954.513	7350.23
954.818	7373.05
955.122	7322.66
955.426	7331.02
955.731	7267.07
956.035	7232.49
956.339	7168.31
956.643	7183
956.948	7091.48
957.252	7041.31
957.556	7082.67
957.86	7034.98
958.163	7079.5
958.467	6957.02
958.771	6942.11
959.075	6947.53
959.378	6805.16
959.682	6903.01
959.985	6815.78
960.289	6777.59
960.592	6743.92
960.896	6711.6
961.199	6699.85
961.502	6714.09
961.805	6619.85
962.108	6574.66
962.411	6585.05
962.714	6555.22
963.017	6483.13
963.32	6535.56
963.623	6430.25
963.926	6436.58
964.228	6409.01
964.531	6387.77
964.833	6315.23
965.136	6304.61
965.438	6285.4
965.741	6206.98
966.043	6225.51
966.345	6144.39
966.648	6155.23
966.95	6133.31
967.252	6099.87
967.554	6124.05
967.856	6049.7
968.158	6014.45
968.46	5993.2
968.761	5948.91
969.063	5924.73
969.365	5900.55
969.666	5890.83
969.968	5843.83
970.269	5825.75
970.571	5798.86
970.872	5778.07
971.174	5751.4
971.475	5715.92
971.776	5720.67
972.077	5639.99
972.378	5639.09
972.679	5663.72
972.98	5583.72
973.281	5567.23
973.582	5541.69
973.883	5517.96
974.183	5490.17
974.484	5528.13
974.785	5441.81
975.085	5443.39
975.386	5442.26
975.686	5385.08
975.986	5359.55
976.287	5325.88
976.587	5322.49
976.887	5267.57
977.187	5281.13
977.487	5295.6
977.787	5223.28
978.087	5210.63
978.387	5186.9
978.687	5141.47
978.987	5093.34
979.286	5130.4
979.586	5073.68
979.885	5050.86
980.185	5042.72
980.484	5012.66
980.784	4977.41
981.083	4968.15
981.382	4943.51
981.682	4921.82
981.981	4953.23
982.28	4886.57
982.579	4802.05
982.878	4835.49
983.177	4846.34
983.475	4799.79
983.774	4717.76
984.073	4720.24
984.372	4759.34
984.67	4688.83
984.969	4692.22
985.267	4645.44
985.566	4597.31
985.864	4579.91
986.162	4581.72
986.461	4560.02
986.759	4520.25
987.057	4475.96
987.355	4438.22
987.653	4442.06
987.951	4463.3
988.249	4408.16
988.547	4335.85
988.844	4375.17
989.142	4337.65
989.44	4341.95
989.737	4360.25
990.035	4287.03
990.332	4280.48
990.63	4264.44
990.927	4305.79
991.224	4232.8
991.521	4205.23
991.819	4193.03
992.116	4101.5
992.413	4147.6
992.71	4094.04
993.006	4087.94
993.303	4081.84
993.6	4028.51
993.897	4039.58
994.193	4028.06
994.49	3973.37
994.787	3975.86
995.083	3989.64
995.379	3932.24
995.676	3906.93
995.972	3899.47
996.268	3859.47
996.565	3826.48
996.861	3856.31
997.157	3814.73
997.453	3817.22
997.749	3765.24
998.044	3731.57
998.34	3735.41
998.636	3709.65
998.932	3692.93
999.227	3652.02
999.523	3662.87
999.818	3633.27
1000.114	3627.16
1000.409	3568.41
1000.704	3533.16
1001	3524.57
1001.295	3519.14
1001.59	3497.9
1001.885	3524.57
1002.18	3453.38
1002.475	3462.42
1002.77	3399.37
1003.065	3418.36
1003.359	3414.06
1003.654	3402.99
1003.949	3385.14
1004.243	3357.57
1004.538	3306.27
1004.832	3303.11
1005.127	3304.46
1005.421	3252.26
1005.715	3245.03
1006.009	3257.23
1006.304	3204.12
1006.598	3181.98
1006.892	3159.83
1007.186	3123
1007.48	3130
1007.773	3092.04
1008.067	3099.72
1008.361	3032.83
1008.655	3033.51
1008.948	3036.67
1009.242	3007.97
1009.535	2963.91
1009.829	2959.61
1010.122	2916.67
1010.415	2942.21
1010.708	2902.66
1011.001	2890.46
1011.295	2914.64
1011.588	2891.14
1011.881	2826.96
1012.173	2815.66
1012.466	2818.82
1012.759	2817.92
1013.052	2783.57
1013.344	2768.66
1013.637	2740.18
1013.93	2742.67
1014.222	2678.94
1014.514	2666.96
1014.807	2668.09
1015.099	2632.61
1015.391	2643.91
1015.683	2602.56
1015.976	2598.94
1016.268	2556.68
1016.56	2550.13
1016.851	2510.36
1017.143	2542.45
1017.435	2522.56
1017.727	2485.5
1018.018	2493.41
1018.31	2474.43
1018.602	2480.08
1018.893	2421.77
1019.185	2395.11
1019.476	2365.28
1019.767	2392.39
1020.058	2373.41
1020.35	2331.15
1020.641	2311.72
1020.932	2311.04
1021.223	2334.09
1021.514	2287.76
1021.804	2260.42
1022.095	2236.01
1022.386	2248.44
1022.677	2207.54
1022.967	2195.34
1023.258	2163.7
1023.548	2159.86
1023.839	2156.02
1024.129	2127.54
1024.419	2106.98
1024.709	2092.06
1025	2111.72
1025.29	2082.12
1025.58	2056.36
1025.87	2052.52
1026.16	2042.12
1026.449	2022.23
1026.739	1979.52
1027.029	1989.02
1027.319	1956.7
1027.608	1953.76
1027.898	1975.23
1028.187	1951.28
1028.477	1933.65
1028.766	1908.79
1029.055	1892.52
1029.344	1877.15
1029.634	1854.33
1029.923	1866.08
1030.212	1835.57
1030.501	1809.81
1030.79	1823.37
1031.078	1796.93
1031.367	1784.95
1031.656	1776.37
1031.945	1771.85
1032.233	1773.2
1032.522	1716.48
1032.81	1742.24
1033.099	1738.63
1033.387	1696.14
1033.675	1695.01
1033.963	1646.2
1034.251	1687.1
1034.54	1636.26
1034.828	1649.14
1035.116	1624.96
1035.403	1609.59
1035.691	1582.47
1035.979	1604.39
1036.267	1604.39
1036.554	1571.63
1036.842	1555.13
1037.129	1549.71
1037.417	1523.04
1037.704	1516.94
1037.992	1533.66
1038.279	1473.77
1038.566	1503.83
1038.853	1503.83
1039.14	1503.83
