Data from 14-4516_FLMS001491_002.txt Node
Date: Thu Apr 19 16:46:54 BST 2018
User: hsy
Spectrometer: FLMS00149
Trigger mode: 0
Integration Time (sec): 1.000000E-2
Scans to average: 10
Electric dark correction enabled: true
Nonlinearity correction enabled: false
Boxcar width: 0
XAxis mode: Wavelengths
Number of Pixels in Spectrum: 2048
>>>>>Begin Spectral Data<<<<<
341.393	-14.17
341.776	-14.17
342.16	-14.17
342.543	-71.57
342.927	-51
343.31	-50.78
343.693	-77.44
344.077	-54.84
344.46	-65.92
344.843	-46.03
345.226	-62.53
345.61	-43.77
345.993	-19.59
346.376	9.56
346.759	20.41
347.142	31.48
347.525	14.53
347.908	80.75
348.291	69.9
348.674	80.75
349.057	113.51
349.44	134.3
349.823	128.43
350.206	180.4
350.588	219.05
350.971	245.49
351.354	284.13
351.737	299.72
352.119	281.65
352.502	309.44
352.884	313.06
353.267	297.69
353.65	310.57
354.032	342.66
354.414	337.91
354.797	360.51
355.179	364.81
355.562	345.37
355.944	364.35
356.326	365.94
356.709	358.93
357.091	343.34
357.473	379.95
357.855	411.59
358.238	376.78
358.62	391.02
359.002	397.12
359.384	375.65
359.766	373.62
360.148	389.89
360.53	396.9
360.912	395.54
361.294	397.12
361.676	389.89
362.057	374.52
362.439	379.04
362.821	371.13
363.203	380.85
363.584	377.46
363.966	372.26
364.348	392.15
364.729	358.25
365.111	360.74
365.493	360.06
365.874	369.78
366.256	370.91
366.637	360.74
367.019	376.78
367.4	372.49
367.781	337.91
368.163	362.77
368.544	375.65
368.925	355.77
369.306	346.5
369.688	363.45
370.069	368.65
370.45	356.9
370.831	378.82
371.212	375.88
371.593	361.19
371.974	368.2
372.355	375.43
372.736	380.17
373.117	392.15
373.498	366.84
373.879	391.47
374.26	370.46
374.641	366.84
375.021	381.3
375.402	406.61
375.783	382.66
376.163	397.12
376.544	400.06
376.925	386.5
377.305	389.44
377.686	399.61
378.066	404.58
378.447	404.81
378.827	396.44
379.208	411.36
379.588	406.84
379.968	407.07
380.349	403.45
380.729	412.26
381.109	398.7
381.489	428.08
381.87	431.25
382.25	425.37
382.63	437.57
383.01	434.86
383.39	417.46
383.77	424.01
384.15	431.7
384.53	441.19
384.91	432.83
385.29	431.47
385.67	444.8
386.049	445.71
386.429	457.01
386.809	459.72
387.189	436.67
387.568	462.43
387.948	455.88
388.328	463.11
388.707	478.48
389.087	471.92
389.466	490.23
389.846	487.52
390.225	502.2
390.605	471.92
390.984	500.4
391.363	501.75
391.743	515.99
392.122	512.6
392.501	504.92
392.881	515.09
393.26	512.83
393.639	540.85
394.018	504.92
394.397	522.77
394.776	555.76
395.155	535.65
395.534	545.59
395.913	557.8
396.292	544.92
396.671	572.03
397.05	576.55
397.429	577
397.808	576.78
398.186	597.57
398.565	580.39
398.944	581.98
399.323	604.12
399.701	604.35
400.08	619.04
400.458	604.35
400.837	625.59
401.215	619.72
401.594	626.72
401.972	634.86
402.351	648.87
402.729	661.3
403.107	639.6
403.486	651.8
403.864	662.88
404.242	657
404.62	661.52
404.999	718.92
405.377	714.85
405.755	711.01
406.133	731.12
406.511	737.9
406.889	707.62
407.267	752.37
407.645	767.28
408.023	781.07
408.401	777.45
408.779	792.59
409.156	826.72
409.534	796.66
409.912	836.43
410.29	842.31
410.667	859.03
411.045	878.47
411.422	880.27
411.8	868.07
412.178	930.44
412.555	921.85
412.933	942.19
413.31	974.51
413.687	985.81
414.065	991.01
414.442	990.78
414.819	1012.93
415.197	1040.72
415.574	1043.66
415.951	1075.75
416.328	1089.99
416.705	1076.88
417.082	1076.65
417.46	1134.05
417.837	1123.88
418.214	1144.9
418.591	1143.77
418.967	1125.01
419.344	1181.06
419.721	1178.8
420.098	1187.84
420.475	1192.81
420.852	1203.65
421.228	1224.9
421.605	1207.95
421.982	1238.68
422.358	1252.47
422.735	1280.49
423.111	1266.93
423.488	1336.98
423.864	1323.43
424.241	1348.74
424.617	1385.8
424.994	1373.37
425.37	1379.02
425.746	1405.91
426.123	1442.29
426.499	1448.17
426.875	1494.95
427.251	1497.21
427.627	1527.71
428.003	1533.36
428.379	1575.17
428.756	1572.01
429.132	1576.98
429.507	1605.45
429.883	1635.96
430.259	1665.34
430.635	1685
431.011	1661.27
431.387	1718.22
431.763	1730.19
432.138	1764.09
432.514	1771.78
432.89	1779.91
433.265	1865.56
433.641	1854.49
434.016	1896.29
434.392	1914.82
434.767	1960.7
435.143	1968.38
435.518	1985.33
435.894	2034.82
436.269	2063.75
436.644	2087.02
437.02	2093.57
437.395	2150.75
437.77	2123.4
438.145	2182.84
438.52	2248.37
438.895	2213.35
439.271	2229.16
439.646	2294.7
440.021	2336.28
440.395	2348.26
440.77	2315.72
441.145	2329.95
441.52	2378.09
441.895	2404.98
442.27	2442.72
442.645	2447.01
443.019	2470.06
443.394	2458.99
443.769	2503.96
444.143	2481.36
444.518	2559.1
444.892	2529.72
445.267	2565.43
445.641	2584.64
446.016	2614.47
446.39	2651.07
446.764	2652.66
447.139	2658.98
447.513	2674.12
447.887	2685.88
448.262	2674.8
448.636	2752.31
449.01	2794.35
449.384	2772.43
449.758	2830.28
450.132	2841.35
450.506	2885.64
450.88	2867.11
451.254	2890.84
451.628	2953.21
452.002	2981.24
452.376	3013.32
452.75	3074.11
453.123	3079.31
453.497	3143.04
453.871	3155.47
454.244	3212.42
454.618	3264.39
454.992	3281.11
455.365	3291.06
455.739	3385.74
456.112	3416.25
456.486	3421.45
456.859	3455.8
457.232	3561.56
457.606	3616.25
457.979	3643.59
458.352	3733.31
458.725	3708.67
459.099	3770.14
459.472	3831.61
459.845	3883.58
460.218	3922.45
460.591	3960.19
460.964	3950.02
461.337	4017.59
461.71	4174.42
462.083	4142.33
462.456	4235.21
462.829	4267.76
463.201	4329.45
463.574	4343.01
463.947	4348.2
464.32	4481.76
464.692	4500.97
465.065	4543.68
465.438	4613.51
465.81	4654.86
466.183	4728.76
466.555	4838.81
466.928	4828.19
467.3	4851.92
467.672	4922.65
468.045	5062.08
468.417	5049.43
468.789	5101.63
469.161	5171.91
469.534	5239.03
469.906	5351.79
470.278	5396.31
470.65	5474.5
471.022	5557.66
471.394	5584.56
471.766	5722.18
472.138	5754.95
472.51	5910.88
472.882	5930.54
473.253	5979.35
473.625	6150.64
473.997	6205.78
474.369	6280.81
474.74	6346.34
475.112	6448.94
475.484	6601.7
475.855	6679.44
476.227	6753.11
476.598	6944.07
476.97	7043.95
477.341	7159.66
477.713	7254.8
478.084	7295.02
478.455	7552.64
478.827	7573.2
479.198	7788.57
479.569	7880.32
479.94	8016.58
480.311	8093.19
480.682	8349.68
481.053	8488.89
481.424	8574.99
481.795	8720.07
482.166	8862.21
482.537	8979.72
482.908	9162.77
483.279	9305.59
483.65	9487.28
484.021	9649.08
484.391	9806.37
484.762	9921.39
485.133	10030.32
485.503	10219.24
485.874	10420.81
486.244	10546.46
486.615	10837.53
486.985	10958.65
487.356	11163.17
487.726	11280.68
488.097	11547.34
488.467	11685.19
488.837	11889.7
489.207	11995.69
489.578	12175.12
489.948	12411.27
490.318	12592.73
490.688	12692.39
491.058	12907.08
491.428	13090.8
491.798	13164.02
492.168	13508.42
492.538	13648.53
492.908	13825.47
493.278	14046.03
493.648	14075.86
494.017	14270.88
494.387	14535.73
494.757	14648.27
495.126	14749.51
495.496	14938.21
495.866	15126.68
496.235	15330.97
496.605	15451.87
496.974	15536.61
497.344	15788.13
497.713	15908.35
498.082	16081
498.452	16170.49
498.821	16369.13
499.19	16513.53
499.559	16681.67
499.928	16803.47
500.298	16925.95
500.667	17121.43
501.036	17167.75
501.405	17367.52
501.774	17451.59
502.143	17637.35
502.512	17645.93
502.88	17955.53
503.249	17930.45
503.618	18191
503.987	18204.11
504.356	18414.73
504.724	18561.16
505.093	18678
505.462	18727.04
505.83	18896.3
506.199	19076.41
506.567	19276.4
506.936	19317.75
507.304	19599.56
507.672	19623.96
508.041	19810.17
508.409	20044.06
508.777	20012.2
509.145	20326.77
509.514	20300.1
509.882	20499.19
510.25	20533.32
510.618	20767.89
510.986	20828.45
511.354	20971.5
511.722	21120.87
512.09	21408.77
512.458	21460.98
512.826	21523.12
513.193	21532.84
513.561	21696.22
513.929	21849.21
514.297	22072.03
514.664	22132.6
515.032	22336.43
515.4	22451.68
515.767	22564
516.135	22726.93
516.502	22526.26
516.869	22911.11
517.237	23055.74
517.604	22907.72
517.972	23405.78
518.339	23472
518.706	23452.11
519.073	23463.63
519.44	23739.33
519.808	23892.78
520.175	24011.64
520.542	24157.63
520.909	24356.94
521.276	24359.43
521.643	24617.5
522.009	24729.14
522.376	24958.51
522.743	24989.47
523.11	25200.76
523.477	25419.52
523.843	25435.11
524.21	25835.78
524.577	25793.74
524.943	25910.8
525.31	26074.19
525.676	26354.18
526.043	26503.1
526.409	26571.12
526.776	26808.18
527.142	26887.05
527.508	27055.86
527.874	27225.12
528.241	27157.1
528.607	27315.74
528.973	27540.59
529.339	27556.18
529.705	27835.5
530.071	27896.51
530.437	27987.36
530.803	28110.97
531.169	28211.08
531.535	28249.27
531.901	28298.99
532.267	28361.81
532.632	28479.77
532.998	28497.63
533.364	28589.38
533.73	28727.9
534.095	28922.93
534.461	28894.45
534.826	28964.05
535.192	28937.39
535.557	29115.46
535.923	29069.36
536.288	29231.17
536.653	29338.51
537.019	29230.94
537.384	29240.88
537.749	29294.67
538.114	29275.46
538.479	29299.64
538.845	29370.37
539.21	29352.52
539.575	29299.87
539.94	29355.23
540.305	29420.09
540.67	29461.89
541.034	29455.79
541.399	29492.4
541.764	29442.46
542.129	29471.84
542.494	29470.03
542.858	29517.26
543.223	29478.62
543.587	29501.22
543.952	29575.34
544.316	29555.45
544.681	29354.1
545.045	29600.87
545.41	29533.98
545.774	29425.29
546.138	29399.75
546.503	29445.62
546.867	29474.78
547.231	29636.13
547.595	29558.39
547.959	29559.29
548.324	29487.88
548.688	29498.28
549.052	29555.68
549.416	29402.69
549.779	29453.31
550.143	29359.52
550.507	29475.23
550.871	29439.07
551.235	29494.44
551.599	29574.89
551.962	29546.64
552.326	29578.5
552.689	29557.49
553.053	29297.61
553.417	29335.57
553.78	29574.66
554.143	29440.65
554.507	29552.51
554.87	29572.85
555.234	29692.4
555.597	29457.15
555.96	29528.33
556.323	29658.05
556.686	29510.26
557.05	29683.36
557.413	29651.49
557.776	29623.47
558.139	29780.53
558.502	29684.94
558.865	29818.72
559.228	29908.66
559.59	29845.39
559.953	29793.64
560.316	30071.14
560.679	29951.6
561.041	29997.93
561.404	30107.53
561.767	30232.95
562.129	30060.98
562.492	30296.68
562.854	30218.49
563.217	30167.86
563.579	30287.18
563.941	30395.88
564.304	30508.65
564.666	30667.51
565.028	30651.92
565.39	30582.54
565.753	30761.07
566.115	30644.69
566.477	30845.36
566.839	30920.39
567.201	31138.01
567.563	30913.61
567.925	31128.97
568.287	31078.8
568.648	31167.16
569.01	31298.23
569.372	31434.05
569.734	31289.87
570.095	31482.41
570.457	31656.41
570.819	31512.91
571.18	31627.94
571.542	31678.79
571.903	31811.44
572.265	31827.48
572.626	31900.47
572.987	31876.07
573.349	32128.72
573.71	32107.7
574.071	32273.57
574.432	32389.95
574.794	32643.05
575.155	32243.97
575.516	32328.26
575.877	32367.81
576.238	32424.08
576.599	32572.32
576.96	32535.03
577.32	32623.39
577.681	32774.58
578.042	32759.21
578.403	32793.33
578.763	32803.95
579.124	32856.61
579.485	33039.43
579.845	33019.99
580.206	32941.35
580.566	33057.05
580.927	33050.5
581.287	33118.97
581.648	32962.14
582.008	33135.24
582.368	33047.79
582.728	33161.91
583.089	33131.18
583.449	33110.39
583.809	33105.19
584.169	33253.21
584.529	33036.04
584.889	33241.23
585.249	33148.13
585.609	33018.19
585.969	33200.55
586.329	33163.94
586.688	33294.56
587.048	33186.77
587.408	33090.05
587.768	33132.76
588.127	33108.13
588.487	33182.93
588.846	33307.44
589.206	33117.84
589.565	33074.46
589.925	33326.43
590.284	33329.14
590.643	33291.85
591.003	33341.57
591.362	33518.96
591.721	33368.01
592.08	33346.09
592.44	33523.48
592.799	33316.71
593.158	33282.59
593.517	33381.57
593.876	33467.21
594.235	33411.17
594.593	33527.55
594.952	33420.43
595.311	33319.19
595.67	33424.28
596.029	33662.46
596.387	33485.07
596.746	33760.31
597.104	33493.2
597.463	33500.66
597.822	33700.88
598.18	33606.64
598.538	33443.71
598.897	33782.91
599.255	33576.14
599.613	33923.02
599.972	33688.22
600.33	33733.42
600.688	33706.98
601.046	33749.01
601.404	34007.76
601.762	33838.73
602.12	34014.32
602.478	33969.35
602.836	33942
603.194	33627.44
603.552	33818.16
603.91	33890.93
604.268	33994.21
604.625	33923.02
604.983	34096.12
605.341	33882.8
605.698	34260.19
606.056	34301.09
606.413	34182.67
606.771	34342.9
607.128	34299.06
607.485	34238.94
607.843	34287.3
608.2	34404.59
608.557	34508.54
608.914	34319.85
609.272	34518.94
609.629	34604.13
609.986	34722.32
610.343	34806.39
610.7	34844.58
611.057	34983.56
611.414	34790.79
611.771	34945.14
612.127	35133.38
612.484	35186.49
612.841	35353.72
613.198	35040.28
613.554	34962.32
613.911	35361.63
614.267	35247.28
614.624	35294.06
614.98	35419.03
615.337	35557.33
615.693	35535.41
616.05	35518.91
616.406	35679.81
616.762	35606.37
617.118	35657.89
617.475	35579.47
617.831	35705.57
618.187	35763.65
618.543	35942.63
618.899	36024.43
619.255	35885.45
619.611	36010.2
619.967	36151.21
620.323	36140.36
620.678	36042.51
621.034	36112.12
621.39	36174.94
621.746	36012.01
622.101	36473.69
622.457	36129.74
622.812	36609.73
623.168	36368.38
623.523	36378.32
623.879	36555.04
624.234	36449.28
624.589	36559.56
624.945	36471.2
625.3	36608.83
625.655	36680.91
626.01	36670.74
626.365	36623.97
626.72	36563.85
627.075	36440.92
627.43	36494.7
627.785	36405.67
628.14	36543.29
628.495	36461.26
628.85	36536.74
629.205	36428.72
629.559	36533.12
629.914	36379.23
630.269	36473.69
630.623	36307.59
630.978	36254.48
631.332	36471.43
631.687	36430.75
632.041	36295.61
632.396	36306.46
632.75	36227.14
633.104	36294.71
633.459	35994.38
633.813	36045
634.167	36087.94
634.521	36061.95
634.875	36116.86
635.229	35998.67
635.583	35837.77
635.937	35809.07
636.291	35808.39
636.645	35731.56
636.999	35604.33
637.352	35691.79
637.706	35518.01
638.06	35723.65
638.413	35598.68
638.767	35484.34
639.121	35565.69
639.474	35469.19
639.828	35497.44
640.181	35442.3
640.534	35461.51
640.888	35400.27
641.241	35235.98
641.594	35280.95
641.947	35493.6
642.301	35183.1
642.654	35415.64
643.007	35252.7
643.36	35384
643.713	35283.66
644.066	35370.89
644.419	35213.61
644.771	34819.04
645.124	34485.04
645.477	34542.67
645.83	34377.02
646.182	34264.93
646.535	34309.9
646.888	34451.82
647.24	34283.24
647.593	34495.89
647.945	34488.2
648.298	34145.61
648.65	34168.21
649.002	34106.97
649.355	34098.84
649.707	33899.07
650.059	33953.98
650.411	34414.08
650.763	34564.13
651.115	35070.11
651.467	34975.87
651.819	35007.29
652.171	34880.96
652.523	34906.27
652.875	35049.54
653.227	34807.07
653.578	35106.49
653.93	34987.63
654.282	34817.69
654.633	34849.55
654.985	34824.69
655.337	34886.16
655.688	35077.34
656.039	35072.37
656.391	34692.49
656.742	34881.19
657.094	34956.21
657.445	34987.4
657.796	35005.93
658.147	34809.78
658.498	35131.12
658.849	35174.96
659.2	35052.26
659.551	34953.5
659.902	35222.42
660.253	35120.96
660.604	35202.53
660.955	35111.24
661.306	35215.87
661.656	35132.71
662.007	35141.97
662.358	35203.89
662.708	35200.28
663.059	35171.35
663.409	35170.67
663.76	35317.11
664.11	35241.86
664.461	35385.35
664.811	35306.26
665.161	35297
665.511	35362.76
665.862	35355.98
666.212	35366.82
666.562	35527.27
666.912	35440.72
667.262	35171.58
667.612	35284.11
667.962	35450.89
668.312	35344.23
668.662	35579.25
669.011	35393.94
669.361	35405.92
669.711	35302.19
670.06	35323.66
670.41	35181.29
670.76	35200.5
671.109	35461.96
671.459	35313.27
671.808	35226.71
672.157	35422.42
672.507	35166.15
672.856	35166.15
673.205	35212.25
673.554	35203.66
673.904	35136.55
674.253	35409.76
674.602	35165.47
674.951	34692.94
675.3	34452.95
675.649	35112.59
675.998	35013.39
676.346	34996.21
676.695	35106.04
677.044	34848.65
677.393	34933.39
677.741	35015.87
678.09	34922.54
678.438	34868.76
678.787	34868.76
679.135	34737.24
679.484	34609.33
679.832	34809.32
680.181	34540.86
680.529	34644.13
680.877	34462.44
681.225	34300.19
681.573	34582.44
681.922	34466.96
682.27	34337.02
682.618	34407.53
682.966	34198.04
683.314	34247.31
683.661	34234.2
684.009	33943.58
684.357	34019.29
684.705	33780.2
685.053	33929.57
685.4	33759.86
685.748	33528.91
686.095	33526.87
686.443	33470.6
686.79	33334.79
687.138	33459.08
687.485	33343.15
687.832	33296.6
688.18	33193.32
688.527	32918.75
688.874	32848.25
689.221	32972.54
689.568	32748.14
689.915	32568.03
690.262	32742.71
690.609	32591.76
690.956	32446.9
691.303	32248.04
691.65	32218.88
691.997	32045.56
692.344	31864.32
692.69	31857.76
693.037	31876.29
693.383	31456.87
693.73	31606.02
694.077	31321.28
694.423	31433.59
694.769	31294.16
695.116	31275.18
695.462	30979.82
695.808	30843.55
696.155	30917.68
696.501	30555.65
696.847	30626.38
697.193	30446.5
697.539	30342.32
697.885	30183.46
698.231	30074.76
698.577	30018.72
698.923	30060.52
699.269	29535.11
699.614	29602
699.96	29475.91
700.306	29404.5
700.651	29272.75
700.997	29134.9
701.342	29013.09
701.688	29001.34
702.033	28856.04
702.379	28791.63
702.724	28615.82
703.069	28693.55
703.415	28381.25
703.76	28337.86
704.105	28328.14
704.45	28020.8
704.795	28029.39
705.14	27879.56
705.485	27947.81
705.83	27671.89
706.175	27850.64
706.52	27662.17
706.865	27556.86
707.209	27353.48
707.554	27355.06
707.899	27377.88
708.243	27218.56
708.588	27157.55
708.932	27075.52
709.277	27059.92
709.621	26883.43
709.966	26817.9
710.31	26909.19
710.654	26560.95
710.998	26627.62
711.342	26664.68
711.687	26527.96
712.031	26475.53
712.375	26259.49
712.719	26419.94
713.063	26205.26
713.407	26482.09
713.75	26322.99
714.094	26109.67
714.438	26123.9
714.782	26053.17
715.125	25934.53
715.469	26140.4
715.812	25851.82
716.156	25810.47
716.499	25824.93
716.843	25886.85
717.186	25751.03
717.53	25898.15
717.873	25927.75
718.216	25868.99
718.559	25900.41
718.902	25549.68
719.246	25713.74
719.589	25634.88
719.932	25549.91
720.275	25581.32
720.617	25660.86
720.96	25552.17
721.303	25590.58
721.646	25605.5
721.989	25563.92
722.331	25506.74
722.674	25474.88
723.016	25462.68
723.359	25464.49
723.701	25518.27
724.044	25488.67
724.386	25235.79
724.729	25544.03
725.071	25513.98
725.413	25330.25
725.755	25445.73
726.097	25296.13
726.439	25238.96
726.782	25285.96
727.124	25513.3
727.465	25448.22
727.807	25395.56
728.149	25490.7
728.491	25442.11
728.833	25564.82
729.175	25508.33
729.516	25431.27
729.858	25313.53
730.199	25519.85
730.541	25470.14
730.882	25562.11
731.224	25619.28
731.565	25578.38
731.906	25618.83
732.248	25706.97
732.589	25472.85
732.93	25603.92
733.271	25623.13
733.612	25600.75
733.953	25723.24
734.294	25740.64
734.635	25835.1
734.976	25857.02
735.317	25800.75
735.658	25854.76
735.999	25816.57
736.339	25965.72
736.68	25985.38
737.021	26058.59
737.361	26008.43
737.702	26186.73
738.042	26132.72
738.383	26275.09
738.723	26411.58
739.063	26377.46
739.404	26456.55
739.744	26347.85
740.084	26495.87
740.424	26468.08
740.764	26538.81
741.104	26806.6
741.444	26683.66
741.784	26855.86
742.124	26890.44
742.464	27040.72
742.804	27069.19
743.143	27165.68
743.483	27275.96
743.823	27135.18
744.162	27382.85
744.502	27559.35
744.841	27593.24
745.181	27815.61
745.52	27715.5
745.86	28011.54
746.199	28194.81
746.538	28268.03
746.877	28469.15
747.216	28514.58
747.556	28598.64
747.895	28748.47
748.234	28974
748.573	28962.25
748.911	29178.96
749.25	29352.75
749.589	29373.54
749.928	29700.53
750.267	29967.64
750.605	30071.6
750.944	30128.77
751.283	30293.51
751.621	30469.1
751.96	30454.41
752.298	30664.8
752.636	31028.63
752.975	31157.44
753.313	31299.36
753.651	31649.41
753.989	31726.02
754.327	31886.46
754.666	31916.29
755.004	32273.35
755.342	32500.01
755.679	32624.07
756.017	32718.53
756.355	33109.93
756.693	33201.01
757.031	33406.65
757.368	33535.46
757.706	33703.37
758.044	33832.63
758.381	34068.55
758.719	34134.77
759.056	34285.5
759.394	34449.11
759.731	34533.17
760.068	34626.05
760.405	34980.62
760.743	34939.26
761.08	35313.72
761.417	35232.14
761.754	35478.01
762.091	35701.96
762.428	35516.42
762.765	35635.07
763.102	35861.27
763.438	35909.63
763.775	35928.84
764.112	35959.13
764.449	36272.79
764.785	36244.32
765.122	36268.72
765.458	36200.93
765.795	36364.54
766.131	36544.87
766.467	36630.97
766.804	36522.05
767.14	36498.77
767.476	36659.22
767.812	36564.98
768.148	36830.06
768.485	36809.27
768.821	36697.18
769.157	36735.83
769.492	36814.92
769.828	36741.25
770.164	36564.31
770.5	36621.25
770.836	36798.2
771.171	36744.42
771.507	36569.73
771.842	36607.24
772.178	36516.62
772.513	36526.57
772.849	36538.32
773.184	36486.34
773.519	36551.88
773.855	36507.81
774.19	36429.17
774.525	36339.45
774.86	36292.68
775.195	36297.87
775.53	36277.99
775.865	36185.33
776.2	35852.91
776.535	35867.83
776.87	35962.29
777.205	35776.08
777.539	35700.6
777.874	35701.05
778.209	35429.65
778.543	35564.56
778.878	35435.98
779.212	35325.47
779.547	35289.54
779.881	35176.77
780.215	34991.92
780.55	35096.1
780.884	34836.22
781.218	34811.58
781.552	34894.29
781.886	34657.69
782.22	34432.16
782.554	34545.83
782.888	34207.53
783.222	34235.78
783.556	34146.74
783.889	34039.18
784.223	33828.11
784.557	33966.18
784.89	34003.24
785.224	33640.77
785.557	33519.87
785.891	33508.34
786.224	33480.55
786.558	33465.63
786.891	33225.64
787.224	33063.83
787.557	32941.13
787.891	33009.37
788.224	32781.81
788.557	32828.59
788.89	32710.85
789.223	32685.76
789.556	32571.64
789.888	32457.07
790.221	32277.19
790.554	32247.13
790.887	32305.21
791.219	32224.08
791.552	32044.88
791.884	31994.48
792.217	31767.6
792.549	31754.94
792.882	31540.26
793.214	31419.81
793.546	31566.02
793.879	31308.63
794.211	31129.42
794.543	31299.13
794.875	31149.76
795.207	31112.25
795.539	31063.66
795.871	30991.35
796.203	30793.61
796.535	30645.37
796.867	30655.31
797.198	30536.89
797.53	30359.95
797.862	30253.74
798.193	30269.56
798.525	30063.23
798.856	30252.61
799.188	29854.43
799.519	29774.65
799.85	29697.14
800.182	29641.33
800.513	29777.14
800.844	29368.34
801.175	29597.26
801.506	29586.86
801.837	29318.85
802.168	29278.17
802.499	29384.61
802.83	29224.61
803.161	29044.05
803.491	29050.15
803.822	29034.11
804.153	28877.28
804.483	28800.22
804.814	28495.82
805.145	28729.48
805.475	28617.85
805.805	28420.34
806.136	28555.93
806.466	28371.53
806.796	28340.79
807.126	28184.64
807.457	27986.91
807.787	28166.79
808.117	28068.71
808.447	27927.7
808.777	28108.71
809.107	27913.23
809.436	27758.44
809.766	27788.49
810.096	27721.15
810.426	27640.93
810.755	27602.51
811.085	27480.7
811.414	27594.37
811.744	27404.55
812.073	27336.3
812.403	27230.54
812.732	27140.83
813.061	27259.47
813.39	27096.31
813.719	27091.34
814.049	27167.27
814.378	27071.68
814.707	26883.88
815.036	27013.6
815.365	26789.65
815.693	26539.49
816.022	26604.34
816.351	26516.44
816.68	26503.1
817.008	26683.89
817.337	26281.41
817.665	26336.1
817.994	26317.34
818.322	26469.43
818.651	26204.58
818.979	26132.72
819.307	26216.1
819.636	26095.2
819.964	26095.88
820.292	26035.54
820.62	26043.23
820.948	26081.42
821.276	26097.01
821.604	26049.33
821.932	26214.52
822.259	26031.02
822.587	25974.08
822.915	25947.86
823.243	26095.88
823.57	25925.04
823.898	26168.65
824.225	26030.12
824.553	26006.17
824.88	25998.26
825.207	26210.91
825.535	26077.13
825.862	26156.22
826.189	25936.79
826.516	26220.17
826.843	26324.8
827.17	26342.2
827.497	26300.17
827.824	26236.22
828.151	26395.31
828.478	26155.32
828.805	26324.12
829.131	26181.76
829.458	26285.48
829.785	26014.53
830.111	26127.29
830.438	26206.16
830.764	26071.93
831.09	26284.35
831.417	26035.77
831.743	26226.5
832.069	26189.21
832.395	26087.07
832.722	26171.59
833.048	25971.59
833.374	26128.88
833.7	26087.29
834.026	26155.32
834.351	26063.11
834.677	26079.84
835.003	26089.33
835.329	26083.68
835.654	26007.3
835.98	25881.2
836.306	25991.03
836.631	25865.15
836.956	26031.02
837.282	26008.65
837.607	25823.35
837.932	25790.58
838.258	25793.52
838.583	25701.99
838.908	25640.07
839.233	25723.46
839.558	25566.63
839.883	25555.78
840.208	25320.31
840.533	25549
840.858	25471.72
841.182	25526.86
841.507	25461.77
841.832	25317.6
842.156	25354.43
842.481	25206.87
842.805	25275.11
843.13	25130.94
843.454	25168.67
843.778	25003.93
844.103	25041.9
844.427	24899.75
844.751	24982.24
845.075	24835.58
845.399	24778.63
845.723	24696.6
846.047	24712.64
846.371	24463.61
846.695	24577.73
847.019	24320.56
847.343	24182.49
847.666	24170.73
847.99	24037.4
848.313	23992.66
848.637	23890.97
848.96	23865.21
849.284	23767.36
849.607	23676.28
849.931	23624.76
850.254	23507.93
850.577	23243.98
850.9	23160.14
851.223	23296.18
851.546	23098.67
851.869	23021.84
852.192	23093.47
852.515	22763.31
852.838	22619.14
853.161	22707.27
853.483	22589.31
853.806	22555.41
854.129	22486.03
854.451	22299.15
854.774	22278.58
855.096	22171.92
855.419	22117.46
855.741	22047.85
856.063	21956.1
856.385	21861.42
856.708	21891.02
857.03	21836.33
857.352	21872.94
857.674	21809.44
857.996	21605.38
858.318	21478.15
858.64	21495.32
858.961	21399.73
859.283	21299.62
859.605	21212.17
859.926	21279.06
860.248	21271.15
860.57	21112.28
860.891	21086.97
861.212	21159.97
861.534	21031.83
861.855	20884.72
862.176	21019.18
862.498	20949.58
862.819	20816.47
863.14	20812.4
863.461	20718.85
863.782	20667.1
864.103	20706.87
864.424	20664.61
864.745	20666.87
865.065	20644.05
865.386	20480.66
865.707	20524.28
866.027	20568.12
866.348	20335.36
866.668	20380.78
866.989	20368.35
867.309	20234.57
867.63	20215.13
867.95	20291.97
868.27	20192.08
868.59	20257.62
868.91	20086.1
869.23	20175.59
869.55	20012.2
869.87	20062.82
870.19	19952.31
870.51	19977.17
870.83	19941.47
871.15	19889.49
871.469	19765.88
871.789	19897.17
872.109	19846.33
872.428	19682.72
872.748	19839.77
873.067	19716.16
873.386	19761.58
873.706	19649.05
874.025	19615.37
874.344	19614.02
874.663	19649.05
874.982	19566.56
875.301	19487.92
875.62	19434.14
875.939	19384.19
876.258	19411.76
876.577	19453.57
876.896	19359.34
877.214	19242.95
877.533	19338.55
877.852	19237.3
878.17	19188.72
878.489	19260.81
878.807	19143.52
879.125	19074.15
879.444	19040.93
879.762	19040.47
880.08	19106.91
880.398	18912.79
880.716	19000.25
881.034	18893.59
881.352	18957.99
881.67	18821.72
881.988	18813.59
882.306	18714.61
882.624	18718.45
882.941	18622.18
883.259	18618.56
883.577	18686.58
883.894	18527.49
884.212	18548.96
884.529	18499.25
884.846	18405.01
885.164	18371.11
885.481	18365.24
885.798	18289.99
886.115	18131.35
886.432	18313.49
886.75	18334.5
887.067	18223.55
887.383	18120.05
887.7	18133.38
888.017	17962.08
888.334	17830.56
888.651	17969.32
888.967	17814.74
889.284	17758.47
889.6	17758.47
889.917	17768.42
890.233	17570.46
890.55	17638.7
890.866	17651.36
891.182	17554.41
891.498	17503.11
891.815	17409.78
892.131	17357.13
892.447	17339.95
892.763	17370.24
893.079	17188.09
893.395	17221.09
893.71	17089.11
894.026	17070.81
894.342	17005.27
894.657	16972.73
894.973	16928.21
895.289	16858.16
895.604	16852.96
895.92	16754.43
896.235	16642.12
896.55	16648.45
896.865	16528.22
897.181	16549.69
897.496	16516.25
897.811	16473.76
898.126	16318.06
898.441	16312.86
898.756	16236.25
899.071	16170.27
899.386	16252.3
899.7	16046.88
900.015	15956.26
900.33	15896.6
900.644	15917.39
900.959	15833.1
901.273	15766.66
901.588	15833.55
901.902	15686.66
902.216	15579.1
902.531	15580.68
902.845	15440.79
903.159	15323.06
903.473	15407.35
903.787	15230.18
904.101	15252.78
904.415	15216.17
904.729	15122.61
905.042	15074.7
905.356	14997.19
905.67	14977.53
905.984	14950.64
906.297	14879.68
906.611	14834.03
906.924	14694.6
907.237	14769.85
907.551	14639.01
907.864	14592
908.177	14528.28
908.491	14481.72
908.804	14349.52
909.117	14316.98
909.43	14225.46
909.743	14219.36
910.056	14184.33
910.368	14096.65
910.681	14018.69
910.994	13959.7
911.307	13882.19
911.619	13783.66
911.932	13782.76
912.244	13631.12
912.557	13684.23
912.869	13604.01
913.181	13562.65
913.494	13554.74
913.806	13480.62
914.118	13382.77
914.43	13332.38
914.742	13357.01
915.054	13235.2
915.366	13199.72
915.678	13141.65
915.99	13124.47
916.302	12994.53
916.613	12913.63
916.925	12973.51
917.236	12891.48
917.548	12748.66
917.859	12758.61
918.171	12671.6
918.482	12573.3
918.794	12581.21
919.105	12588.89
919.416	12542.57
919.727	12492.17
920.038	12298.73
920.349	12229.13
920.66	12248.34
920.971	12257.38
921.282	12198.62
921.593	12098.51
921.903	12012.64
922.214	12039.3
922.525	11965.63
922.835	11909.81
923.146	11802.7
923.456	11816.48
923.767	11761.12
924.077	11734.9
924.387	11749.37
924.697	11728.35
925.008	11600.44
925.318	11596.15
925.628	11519.09
925.938	11456.04
926.248	11340.79
926.558	11303.28
926.867	11299.21
927.177	11165.2
927.487	11178.31
927.796	11111.42
928.106	11099.67
928.416	11082.49
928.725	10953.23
929.034	10976.28
929.344	10990.97
929.653	10899.45
929.962	10847.47
930.271	10743.29
930.581	10733.8
930.89	10670.07
931.199	10599.79
931.508	10616.97
931.817	10594.82
932.125	10490.64
932.434	10487.93
932.743	10314.15
933.051	10389.4
933.36	10287.48
933.669	10228.05
933.977	10238.67
934.286	10218.33
934.594	10097.21
934.902	10095.62
935.21	9974.05
935.519	10023.76
935.827	10000.26
936.135	9904.67
936.443	9820.38
936.751	9780.6
937.059	9779.25
937.367	9727.95
937.674	9703.09
937.982	9716.2
938.29	9656.99
938.597	9644.34
938.905	9502.87
939.213	9435.08
939.52	9393.27
939.827	9399.15
940.135	9378.13
940.442	9301.75
940.749	9336.1
941.056	9320.05
941.363	9216.33
941.67	9233.95
941.977	9109.21
942.284	9107.4
942.591	9113.5
942.898	9080.74
943.205	8976.11
943.511	8933.17
943.818	8895.88
944.125	8866.5
944.431	8791.03
944.738	8765.26
945.044	8725.26
945.35	8769.56
945.657	8638.94
945.963	8680.97
946.269	8584.48
946.575	8561.88
946.881	8479.4
947.187	8471.03
947.493	8433.52
947.799	8397.36
948.105	8352.39
948.41	8305.84
948.716	8314.2
949.022	8229.46
949.327	8206.63
949.633	8124.6
949.938	8131.16
950.244	8111.5
950.549	8039.63
950.854	8016.81
951.16	8033.98
951.465	7976.36
951.77	7835.57
952.075	7864.04
952.38	7812.97
952.685	7823.14
952.99	7759.64
953.294	7718.06
953.599	7722.81
953.904	7569.59
954.209	7612.98
954.513	7587.89
954.818	7643.03
955.122	7521
955.426	7481.91
955.731	7439.42
956.035	7398.52
956.339	7369.59
956.643	7317.17
956.948	7321.23
957.252	7322.82
957.556	7323.27
957.86	7228.58
958.163	7255.47
958.467	7226.1
958.771	7189.49
959.075	7148.13
959.378	7031.52
959.682	7064.74
959.985	7014.12
960.289	6898.87
960.592	6979.55
960.896	6928.48
961.199	6882.38
961.502	6902.26
961.805	6837.18
962.108	6728.26
962.411	6868.36
962.714	6715.37
963.017	6660.46
963.32	6625.66
963.623	6641.25
963.926	6604.87
964.228	6567.36
964.531	6561.71
964.833	6568.03
965.136	6466.79
965.438	6512.22
965.741	6425.89
966.043	6396.51
966.345	6400.35
966.648	6365.33
966.95	6377.53
967.252	6247.82
967.554	6272.67
967.856	6234.26
968.158	6222.28
968.46	6158.55
968.761	6143.64
969.063	6143.64
969.365	6095.5
969.666	6061.83
969.968	6002.17
970.269	5909.52
970.571	5987.26
970.872	5963.3
971.174	5942.97
971.475	5931.44
971.776	5843.76
972.077	5837.88
972.378	5866.36
972.679	5820.71
972.98	5728.51
973.281	5725.12
973.582	5707.94
973.883	5745.68
974.183	5700.26
974.484	5643.76
974.785	5583.43
975.085	5566.25
975.386	5583.88
975.686	5490.55
975.986	5479.02
976.287	5509.53
976.587	5468.85
976.887	5417.1
977.187	5426.82
977.487	5413.26
977.787	5342.3
978.087	5338.91
978.387	5310.44
978.687	5250.78
978.987	5249.2
979.286	5229.31
979.586	5240.61
979.885	5181.18
980.185	5182.53
980.484	5127.62
980.784	5106.83
981.083	5141.63
981.382	5089.2
981.682	5082.65
981.981	5076.77
982.28	4987.28
982.579	4951.8
982.878	4953.39
983.177	4912.03
983.475	4888.53
983.774	4828.42
984.073	4856.89
984.372	4803.33
984.67	4827.29
984.969	4767.63
985.267	4804.24
985.566	4732.38
985.864	4720.62
986.162	4693.96
986.461	4676.33
986.759	4658.71
987.057	4629.1
987.355	4646.95
987.653	4604.47
987.951	4530.12
988.249	4553.85
988.547	4527.18
988.844	4493.29
989.142	4500.07
989.44	4450.58
989.737	4402.44
990.035	4443.34
990.332	4387.07
990.63	4408.09
990.927	4390.24
991.224	4326.51
991.521	4331.03
991.819	4300.52
992.116	4275.21
992.413	4257.59
992.71	4229.56
993.006	4183.01
993.303	4182.56
993.6	4148.44
993.897	4193.41
994.193	4120.19
994.49	4157.25
994.787	4084.48
995.083	4066.86
995.379	4054.43
995.676	4033.86
995.972	3979.85
996.268	3973.75
996.565	3932.4
996.861	3965.39
997.157	3940.08
997.453	3842
997.749	3846.75
998.044	3841.1
998.34	3835.22
998.636	3854.66
998.932	3797.26
999.227	3776.69
999.523	3774.89
999.818	3734.21
1000.114	3695.57
1000.409	3685.4
1000.704	3649.69
1001	3639.07
1001.295	3651.95
1001.59	3573.31
1001.885	3578.96
1002.18	3563.37
1002.475	3564.5
1002.77	3514.33
1003.065	3475.91
1003.359	3495.57
1003.654	3452.86
1003.949	3468.91
1004.243	3408.12
1004.538	3401.56
1004.832	3361.79
1005.127	3367.44
1005.421	3342.81
1005.715	3358.4
1006.009	3318.18
1006.304	3260.32
1006.598	3265.75
1006.892	3247.44
1007.186	3209.03
1007.48	3221.23
1007.773	3196.82
1008.067	3140.33
1008.361	3128.12
1008.655	3087.45
1008.948	3131.06
1009.242	3107.33
1009.535	3021.69
1009.829	3052.87
1010.122	3061.23
1010.415	3012.19
1010.708	2989.14
1011.001	2973.33
1011.295	2968.58
1011.588	2911.63
1011.881	2901.24
1012.173	2911.41
1012.466	2880.45
1012.759	2891.52
1013.052	2847
1013.344	2828.7
1013.637	2809.71
1013.93	2800.22
1014.222	2760.22
1014.514	2750.28
1014.807	2737.63
1015.099	2734.01
1015.391	2693.11
1015.683	2691.98
1015.976	2668.25
1016.268	2671.19
1016.56	2640.45
1016.851	2599.78
1017.143	2593
1017.435	2581.02
1017.727	2540.34
1018.018	2536.73
1018.31	2554.35
1018.602	2516.39
1018.893	2504.41
1019.185	2492.89
1019.476	2431.42
1019.767	2464.86
1020.058	2437.97
1020.35	2405.21
1020.641	2393.91
1020.932	2355.94
1021.223	2367.24
1021.514	2321.82
1021.804	2298.99
1022.095	2301.03
1022.386	2288.6
1022.677	2280.46
1022.967	2237.3
1023.258	2252.89
1023.548	2221.03
1023.839	2217.64
1024.129	2199.11
1024.419	2144.87
1024.709	2141.03
1025	2131.54
1025.29	2120.92
1025.58	2150.07
1025.87	2107.59
1026.16	2110.98
1026.449	2069.85
1026.739	2074.59
1027.029	2042.05
1027.319	2034.59
1027.608	2027.59
1027.898	1969.51
1028.187	1960.25
1028.477	1958.66
1028.766	1954.14
1029.055	1949.85
1029.344	1943.52
1029.634	1929.51
1029.923	1917.08
1030.212	1879.12
1030.501	1867.14
1030.79	1828.05
1031.078	1829.4
1031.367	1793.7
1031.656	1797.54
1031.945	1825.11
1032.233	1815.62
1032.522	1819.68
1032.81	1786.01
1033.099	1760.48
1033.387	1712.34
1033.675	1719.8
1033.963	1717.09
1034.251	1695.62
1034.54	1662.17
1034.828	1678.9
1035.116	1667.82
1035.403	1664.21
1035.691	1636.41
1035.979	1618.79
1036.267	1630.54
1036.554	1590.76
1036.842	1606.36
1037.129	1583.76
1037.417	1581.05
1037.704	1569.52
1037.992	1541.95
1038.279	1537.88
1038.566	1530.2
1038.853	1530.2
1039.14	1530.2
