Data from 14-4516_FLMS001491_010.txt Node
Date: Thu Apr 19 16:47:19 BST 2018
User: hsy
Spectrometer: FLMS00149
Trigger mode: 0
Integration Time (sec): 1.000000E-2
Scans to average: 10
Electric dark correction enabled: true
Nonlinearity correction enabled: false
Boxcar width: 0
XAxis mode: Wavelengths
Number of Pixels in Spectrum: 2048
>>>>>Begin Spectral Data<<<<<
341.393	-20.24
341.776	-20.24
342.16	-20.24
342.543	-62.05
342.927	-69.5
343.31	-86.9
343.693	-72.67
344.077	-61.14
344.46	-58.2
344.843	-40.35
345.226	-41.48
345.61	-22.5
345.993	-12.78
346.376	-11.2
346.759	1
347.142	40.55
347.525	46.2
347.908	68.8
348.291	73.32
348.674	65.18
349.057	112.19
349.44	132.98
349.823	149.93
350.206	182.47
350.588	227.44
350.971	264.95
351.354	271.5
351.737	262.92
352.119	283.48
352.502	292.52
352.884	336.81
353.267	325.51
353.65	318.28
354.032	331.16
354.414	334.78
354.797	341.56
355.179	362.8
355.562	391.73
355.944	365.51
356.326	379.98
356.709	361.22
357.091	386.76
357.473	388.11
357.855	404.38
358.238	388.79
358.62	372.07
359.002	380.43
359.384	384.72
359.766	385.4
360.148	393.31
360.53	377.72
360.912	390.15
361.294	367.55
361.676	390.37
362.057	363.71
362.439	367.55
362.821	366.19
363.203	391.5
363.584	347.89
363.966	371.39
364.348	361.45
364.729	368.22
365.111	349.47
365.493	360.54
365.874	367.77
366.256	369.81
366.637	364.84
367.019	400.09
367.4	383.59
367.781	362.8
368.163	362.58
368.544	350.37
368.925	359.86
369.306	356.7
369.688	363.71
370.069	349.69
370.45	379.3
370.831	356.02
371.212	355.8
371.593	381.56
371.974	373.87
372.355	377.49
372.736	380.65
373.117	354.21
373.498	381.56
373.879	391.28
374.26	376.36
374.641	370.48
375.021	364.38
375.402	394.66
375.783	398.28
376.163	377.04
376.544	398.96
376.925	383.37
377.305	383.82
377.686	408.9
378.066	395.57
378.447	387.43
378.827	405.74
379.208	415.68
379.588	408.22
379.968	403.03
380.349	418.62
380.729	410.26
381.109	410.26
381.489	421.33
381.87	410.71
382.25	422.23
382.63	427.43
383.01	424.95
383.39	436.25
383.77	412.29
384.15	445.28
384.53	418.84
384.91	451.16
385.29	427.88
385.67	455.45
386.049	453.65
386.429	462.23
386.809	452.74
387.189	460.88
387.568	455.68
387.948	436.47
388.328	456.36
388.707	488.67
389.087	463.82
389.466	478.96
389.846	482.12
390.225	483.02
390.605	481.44
390.984	495
391.363	485.96
391.743	490.71
392.122	487.32
392.501	506.98
392.881	524.83
393.26	505.62
393.639	516.7
394.018	518.73
394.397	526.19
394.776	509.69
395.155	523.25
395.534	521.89
395.913	551.5
396.292	575.68
396.671	534.55
397.05	556.24
397.429	573.19
397.808	580.65
398.186	556.02
398.565	588.56
398.944	557.82
399.323	582.23
399.701	569.58
400.08	604.38
400.458	603.25
400.837	583.59
401.215	633.3
401.594	608.9
401.972	601.21
402.351	626.98
402.729	632.4
403.107	626.98
403.486	661.55
403.864	652.74
404.242	664.04
404.62	667.88
404.999	657.93
405.377	678.5
405.755	696.13
406.133	713.98
406.511	692.51
406.889	695
407.267	714.66
407.645	741.1
408.023	719.4
408.401	765.5
408.779	739.97
409.156	792.17
409.534	773.64
409.912	785.61
410.29	853.64
410.667	798.95
411.045	845.5
411.422	864.03
411.8	875.1
412.178	875.33
412.555	892.5
412.933	932.73
413.31	951.03
413.687	939.51
414.065	938.83
414.442	949.45
414.819	980.19
415.197	997.13
415.574	993.07
415.951	997.59
416.328	1049.34
416.705	1040.98
417.082	1054.99
417.46	1059.28
417.837	1094.99
418.214	1081.43
418.591	1074.65
418.967	1114.87
419.344	1125.94
419.721	1146.06
420.098	1130.92
420.475	1156
420.852	1178.15
421.228	1152.61
421.605	1194.64
421.982	1218.37
422.358	1228.54
422.735	1200.07
423.111	1244.59
423.488	1283.45
423.864	1296.79
424.241	1277.35
424.617	1332.04
424.994	1311.48
425.37	1374.75
425.746	1371.59
426.123	1376.79
426.499	1400.74
426.875	1407.75
427.251	1431.25
427.627	1455.43
428.003	1471.47
428.379	1497.01
428.756	1493.39
429.132	1537.46
429.507	1545.14
429.883	1573.84
430.259	1573.62
430.635	1603.9
431.011	1623.78
431.387	1650.45
431.763	1634.41
432.138	1682.99
432.514	1722.09
432.89	1704.91
433.265	1770.45
433.641	1790.33
434.016	1781.29
434.392	1859.94
434.767	1902.87
435.143	1864.23
435.518	1911.01
435.894	1923.44
436.269	1985.81
436.644	1982.87
437.02	1988.97
437.395	2054.96
437.77	2081.4
438.145	2094.28
438.52	2116.88
438.895	2125.92
439.271	2155.07
439.646	2205.46
440.021	2211.11
440.395	2235.29
440.77	2212.92
441.145	2227.61
441.52	2300.6
441.895	2302.64
442.27	2322.07
442.645	2308.51
443.019	2362.75
443.394	2354.39
443.769	2388.06
444.143	2387.38
444.518	2394.84
444.892	2428.28
445.267	2476.19
445.641	2481.16
446.016	2528.17
446.39	2497.89
446.764	2530.43
447.139	2517.55
447.513	2615.17
447.887	2569.75
448.262	2562.29
448.636	2626.92
449.01	2659.46
449.384	2678.9
449.758	2694.72
450.132	2736.3
450.506	2743.76
450.88	2766.58
451.254	2743.3
451.628	2801.38
452.002	2835.05
452.376	2831.66
452.75	2889.97
453.123	2949.4
453.497	2955.95
453.871	2995.5
454.244	3066.46
454.618	3082.28
454.992	3171.77
455.365	3164.31
455.739	3197.75
456.112	3291.99
456.486	3287.02
456.859	3340.8
457.232	3379.45
457.606	3433
457.979	3458.76
458.352	3546.9
458.725	3585.99
459.099	3617.4
459.472	3669.15
459.845	3736.5
460.218	3720.23
460.591	3808.36
460.964	3810.85
461.337	3844.29
461.71	3950.05
462.083	3979.66
462.456	4036.83
462.829	4061.91
463.201	4115.92
463.574	4157.73
463.947	4183.04
464.32	4276.37
464.692	4332.19
465.065	4327.22
465.438	4409.47
465.81	4451.28
466.183	4495.57
466.555	4574.89
466.928	4612.41
467.3	4656.93
467.672	4647.21
468.045	4828.67
468.417	4836.13
468.789	4872.06
469.161	4970.82
469.534	5030.02
469.906	5103.24
470.278	5193.63
470.65	5249.9
471.022	5331.03
471.394	5348.66
471.766	5434.53
472.138	5498.94
472.51	5628.65
472.882	5658.93
473.253	5722.21
473.625	5867.97
473.997	5909.55
474.369	6004.01
474.74	6053.95
475.112	6164.91
475.484	6293.94
475.855	6398.8
476.227	6477.22
476.598	6596.54
476.97	6651.68
477.341	6825.23
477.713	6905
478.084	6919.24
478.455	7151.78
478.827	7223.86
479.198	7416.18
479.569	7474.03
479.94	7679.44
480.311	7766.67
480.682	7908.14
481.053	8060
481.424	8193.1
481.795	8356.49
482.166	8456.83
482.537	8562.13
482.908	8798.51
483.279	8849.36
483.65	9045.74
484.021	9209.57
484.391	9369.12
484.762	9468.78
485.133	9621.99
485.503	9719.39
485.874	9932.04
486.244	10052.94
486.615	10209.55
486.985	10355.08
487.356	10551.69
487.726	10699.7
488.097	11021.96
488.467	11109.86
488.837	11278.9
489.207	11423.75
489.578	11587.14
489.948	11789.85
490.318	11981.03
490.688	12070.29
491.058	12246.78
491.428	12473.9
491.798	12527.45
492.168	12882.47
492.538	12981.23
492.908	13181.9
493.278	13310.48
493.648	13422.8
494.017	13660.98
494.387	13850.58
494.757	13910.24
495.126	14101.65
495.496	14223.91
495.866	14401.08
496.235	14639.26
496.605	14769.65
496.974	14839.93
497.344	15057.56
497.713	15220.26
498.082	15309.07
498.452	15465.23
498.821	15672.23
499.19	15708.84
499.559	15917.87
499.928	15982.96
500.298	16120.8
500.667	16409.61
501.036	16412.1
501.405	16533.22
501.774	16627.23
502.143	16861.35
502.512	16892.54
502.88	17194.68
503.249	17149.25
503.618	17300.66
503.987	17386.53
504.356	17615.91
504.724	17740.65
505.093	17774.77
505.462	17879.4
505.83	17950.59
506.199	18173.41
506.567	18459.95
506.936	18409.78
507.304	18739.49
507.672	18787.85
508.041	18786.5
508.409	19087.05
508.777	19196.66
509.145	19304.9
509.514	19334.28
509.882	19503.31
510.25	19555.52
510.618	19751.22
510.986	19708.06
511.354	19981.27
511.722	20131.32
512.09	20210.19
512.458	20321.37
512.826	20576.73
513.193	20651.99
513.561	20732.89
513.929	20811.3
514.297	21070.96
514.664	21154.8
515.032	21291.97
515.4	21399.76
515.767	21544.84
516.135	21571.96
516.502	21420.78
516.869	21885.17
517.237	22102.34
517.604	21796.81
517.972	22284.26
518.339	22289.68
518.706	22447.87
519.073	22525.83
519.44	22551.6
519.808	22797.92
520.175	22801.99
520.542	22968.53
520.909	23293.05
521.276	23216.66
521.643	23472.02
522.009	23606.03
522.376	23619.59
522.743	23753.6
523.11	24053.7
523.477	24273.36
523.843	24298.44
524.21	24544.09
524.577	24648.94
524.943	24741.37
525.31	24779.56
525.676	25088.03
526.043	25201.02
526.409	25245.99
526.776	25460.22
527.142	25501.8
527.508	25683.94
527.874	25870.61
528.241	25964.84
528.607	25928.46
528.973	26277.83
529.339	26272.4
529.705	26424.04
530.071	26525.5
530.437	26636.69
530.803	26700.19
531.169	26801.2
531.535	26855.44
531.901	26836.91
532.267	26951.93
532.632	27102.44
532.998	27101.99
533.364	27285.94
533.73	27315.09
534.095	27508.75
534.461	27427.4
534.826	27662.65
535.192	27561.41
535.557	27732.93
535.923	27655.19
536.288	27805.47
536.653	27723.44
537.019	27703.55
537.384	27806.83
537.749	27763.89
538.114	27836.88
538.479	27717.56
538.845	27929.08
539.21	27652.93
539.575	27765.02
539.94	27910.33
540.305	28031.9
540.67	27963.66
541.034	27968.63
541.399	27937.67
541.764	28024.67
542.129	27976.99
542.494	27977.44
542.858	28023.99
543.223	27838.91
543.587	27948.52
543.952	27891.34
544.316	27990.1
544.681	27829.65
545.045	28021.28
545.41	28070.55
545.774	27919.82
546.138	27857.22
546.503	27877.33
546.867	27761.63
547.231	28042.98
547.595	27841.85
547.959	27950.1
548.324	27830.78
548.688	27822.19
549.052	27939.48
549.416	27857.45
549.779	27803.89
550.143	27854.28
550.507	27765.02
550.871	27884.56
551.235	27787.84
551.599	27954.39
551.962	27901.29
552.326	27895.86
552.689	27878.91
553.053	27679.82
553.417	27840.5
553.78	27985.8
554.143	27854.51
554.507	27935.64
554.87	27932.25
555.234	28055.63
555.597	27731.35
555.96	27845.02
556.323	27855.64
556.686	27879.59
557.05	28023.32
557.413	28070.1
557.776	27973.6
558.139	27986.26
558.502	28017.89
558.865	27899.03
559.228	28043.88
559.59	28151
559.953	28050.66
560.316	28309.19
560.679	28180.83
561.041	28271.67
561.404	28301.28
561.767	28412.01
562.129	28258.79
562.492	28508.28
562.854	28506.92
563.217	28524.77
563.579	28451.1
563.941	28519.35
564.304	28649.29
564.666	28898.55
565.028	28725.67
565.39	28729.74
565.753	28868.27
566.115	28720.93
566.477	28930.41
566.839	29046.34
567.201	29178.09
567.563	28999.11
567.925	29238.65
568.287	29236.62
568.648	29327.46
569.01	29320.23
569.372	29502.6
569.734	29492.2
570.095	29602.03
570.457	29633.44
570.819	29689.04
571.18	29648.13
571.542	29894.91
571.903	29802.25
572.265	29969.03
572.626	30013.55
572.987	29954.57
573.349	30103.04
573.71	30095.35
574.071	30125.41
574.432	30286.99
574.794	30485.85
575.155	30380.77
575.516	30318.62
575.877	30419.64
576.238	30487.43
576.599	30571.5
576.96	30565.62
577.32	30556.58
577.681	30726.97
578.042	30796.13
578.403	30656.92
578.763	30696.69
579.124	30753.87
579.485	30929
579.845	31030.24
580.206	31025.95
580.566	30974.2
580.927	30913.41
581.287	31061.88
581.648	30906.63
582.008	31106.85
582.368	30979.4
582.728	31091.48
583.089	31184.14
583.449	31001.09
583.809	31070.02
584.169	31217.58
584.529	31140.07
584.889	31354.53
585.249	31195.44
585.609	31011.94
585.969	31236.11
586.329	31218.49
586.688	31250.12
587.048	31230.01
587.408	31169.67
587.768	31155.66
588.127	31248.77
588.487	31146.62
588.846	31503.9
589.206	31169.9
589.565	31200.18
589.925	31304.36
590.284	31093.97
590.643	31215.78
591.003	31306.17
591.362	31506.84
591.721	31376.9
592.08	31309.33
592.44	31473.62
592.799	31445.6
593.158	31358.6
593.517	31502.1
593.876	31475.2
594.235	31446.28
594.593	31444.02
594.952	31537.8
595.311	31370.35
595.67	31527.18
596.029	31715.88
596.387	31594.97
596.746	31698.7
597.104	31425.26
597.463	31675.65
597.822	31729.89
598.18	31435.88
598.538	31601.98
598.897	31811.92
599.255	31430.23
599.613	31934.63
599.972	31678.59
600.33	31621.87
600.688	31566.05
601.046	31728.3
601.404	31982.76
601.762	31854.18
602.12	31924.46
602.478	31916.1
602.836	31944.57
603.194	31731.47
603.552	31983.21
603.91	31855.76
604.268	31917.23
604.625	31938.24
604.983	32102.98
605.341	31805.36
605.698	32127.39
606.056	32282.64
606.413	31998.13
606.771	32312.02
607.128	32208.07
607.485	32170.33
607.843	32163.55
608.2	32361.51
608.557	32532.12
608.914	32465.91
609.272	32453.93
609.629	32641.95
609.986	32545.91
610.343	32499.58
610.7	32993.81
611.057	32781.84
611.414	32713.81
611.771	32841.72
612.127	32985.67
612.484	33014.37
612.841	33092.34
613.198	32975.5
613.554	33052.34
613.911	33277.42
614.267	33358.32
614.624	33293.69
614.98	33320.58
615.337	33443.51
615.693	33380.46
616.05	33536.39
616.406	33536.39
616.762	33577.75
617.118	33515.6
617.475	33556.5
617.831	33682.6
618.187	33742.71
618.543	33709.95
618.899	33960.56
619.255	33847.57
619.611	33936.83
619.967	34003.05
620.323	34132.31
620.678	34076.49
621.034	33932.31
621.39	33941.13
621.746	34096.83
622.101	34392.19
622.457	33945.65
622.812	34227.9
623.168	34324.17
623.523	34207.79
623.879	34265.86
624.234	34214.79
624.589	34199.43
624.945	34291.85
625.3	34320.55
625.655	34515.12
626.01	34289.37
626.365	34332.76
626.72	34310.84
627.075	34255.7
627.43	34276.49
627.785	34247.56
628.14	34306.32
628.495	34262.02
628.85	34266.77
629.205	34244.85
629.559	34337.95
629.914	34254.11
630.269	34226.77
630.623	34118.3
630.978	34055.7
631.332	34341.57
631.687	34293.66
632.041	34229.48
632.396	34230.61
632.75	34057.06
633.104	34204.17
633.459	34061.58
633.813	34043.5
634.167	33969.6
634.521	33909.94
634.875	34073.78
635.229	33858.19
635.583	33758.08
635.937	33656.84
636.291	33816.84
636.645	33760.12
636.999	33584.98
637.352	33703.39
637.706	33490.97
638.06	33748.14
638.413	33575.94
638.767	33519.44
639.121	33636.05
639.474	33410.52
639.828	33332.56
640.181	33363.29
640.534	33506.56
640.888	33365.32
641.241	33285.78
641.594	33243.29
641.947	33410.97
642.301	33330.75
642.654	33195.38
643.007	33323.06
643.36	33289.39
643.713	33345.66
644.066	33433.34
644.419	33241.26
644.771	32836.07
645.124	32590.65
645.477	32454.39
645.83	32407.61
646.182	32392.24
646.535	32378.68
646.888	32507.49
647.24	32308.63
647.593	32521.28
647.945	32471.56
648.298	32378.46
648.65	32251.91
649.002	32114.06
649.355	32000.61
649.707	31977.34
650.059	31905.7
650.411	32515.63
650.763	32619.81
651.115	33017.54
651.467	32944.77
651.819	33043.98
652.171	33010.3
652.523	32798.33
652.875	32888.27
653.227	32698.22
653.578	33150.19
653.93	32930.98
654.282	32730.09
654.633	32761.5
654.985	32946.35
655.337	32962.85
655.688	32947.93
656.039	33066.35
656.391	32817.99
656.742	32869.07
657.094	32914.71
657.445	32966.46
657.796	33061.15
658.147	32851.21
658.498	33016.63
658.849	33102.28
659.2	33049.17
659.551	32896.86
659.902	33293.01
660.253	33026.35
660.604	33225.89
660.955	33100.7
661.306	33449.16
661.656	33139.11
662.007	33220.02
662.358	33227.47
662.708	33228.38
663.059	33290.3
663.409	33162.62
663.76	33319.9
664.11	33426.56
664.461	33393.57
664.811	33443.29
665.161	33409.84
665.511	33338.21
665.862	33476.28
666.212	33568.71
666.562	33525.32
666.912	33507.69
667.262	33418.2
667.612	33483.29
667.962	33643.06
668.312	33463.4
668.662	33531.87
669.011	33475.38
669.361	33509.05
669.711	33475.6
670.06	33347.02
670.41	33319.45
670.76	33325.78
671.109	33408.03
671.459	33481.7
671.808	33540.91
672.157	33389.28
672.507	33250.07
672.856	33137.53
673.205	33207.36
673.554	33311.99
673.904	33198.77
674.253	33382.5
674.602	33264.31
674.951	32770.08
675.3	32678.34
675.649	33126.91
675.998	33200.81
676.346	33087.59
676.695	33336.4
677.044	32947.26
677.393	33026.12
677.741	33086.01
678.09	32946.13
678.438	32838.11
678.787	32867.71
679.135	33123.07
679.484	32775.96
679.832	32816.41
680.181	32630.65
680.529	32749.07
680.877	32498.68
681.225	32477.21
681.573	32770.76
681.922	32432.69
682.27	32420.04
682.618	32366.71
682.966	32238.57
683.314	32334.39
683.661	32136.43
684.009	32151.12
684.357	32031.8
684.705	31918.13
685.053	31976.89
685.4	31861.63
685.748	31718.59
686.095	31664.58
686.443	31454.87
686.79	31510.23
687.138	31650.34
687.485	31429.33
687.832	31321.76
688.18	31330.35
688.527	31222.1
688.874	31149.11
689.221	31174.65
689.568	30730.36
689.915	30802.9
690.262	30726.3
690.609	30675.45
690.956	30527.66
691.303	30575.11
691.65	30394.78
691.997	30272.75
692.344	30147.78
692.69	29991.63
693.037	30070.27
693.383	29619.66
693.73	29718.41
694.077	29534.46
694.423	29647.45
694.769	29431.19
695.116	29457.86
695.462	29268.71
695.808	28999.34
696.155	29121.59
696.501	28876.4
696.847	28940.35
697.193	28567.26
697.539	28572.23
697.885	28436.19
698.231	28313.03
698.577	28372.01
698.923	28194.61
699.269	28005.92
699.614	28039.36
699.96	27840.27
700.306	27926.37
700.651	27724.34
700.997	27547.4
701.342	27441.64
701.688	27374.75
702.033	27346.27
702.379	27398.25
702.724	26985.15
703.069	27096.11
703.415	26828.77
703.76	26777.47
704.105	26753.52
704.45	26646.63
704.795	26543.58
705.14	26340.42
705.485	26341.1
705.83	26224.95
706.175	26227.43
706.52	26080.77
706.865	25935.24
707.209	26003.71
707.554	25876.71
707.899	25958.51
708.243	25691.4
708.588	25663.38
708.932	25542.03
709.277	25561.46
709.621	25412.54
709.966	25318.53
710.31	25326.66
710.654	25154.24
710.998	25196.95
711.342	25194.92
711.687	25000.35
712.031	25110.17
712.375	24884.87
712.719	24992.21
713.063	24826.79
713.407	25067.69
713.75	24874.25
714.094	24809.62
714.438	24607.14
714.782	24695.72
715.125	24606.46
715.469	24784.53
715.812	24496.4
716.156	24504.54
716.499	24495.73
716.843	24636.29
717.186	24371.21
717.53	24486.69
717.873	24575.27
718.216	24450.08
718.559	24376.18
718.902	24183.87
719.246	24201.5
719.589	24404.65
719.932	24199.91
720.275	24129.86
720.617	24246.92
720.96	24320.82
721.303	24233.81
721.646	24209.86
721.989	24097.32
722.331	24221.16
722.674	24159.01
723.016	24081.27
723.359	24150.2
723.701	24181.61
724.044	24105.45
724.386	24060.03
724.729	24172.34
725.071	24099.13
725.413	24066.13
725.755	24010.32
726.097	24171.21
726.439	24024.1
726.782	23930.54
727.124	24128.96
727.465	24110.2
727.807	24085.79
728.149	24128.5
728.491	24103.87
728.833	24130.31
729.175	24167.37
729.516	24097.54
729.858	23987.94
730.199	24176.64
730.541	24192.91
730.882	24203.98
731.224	24201.27
731.565	24288.27
731.906	24243.08
732.248	24323.08
732.589	24312.45
732.93	24194.72
733.271	24359.68
733.612	24318.1
733.953	24457.53
734.294	24202.4
734.635	24396.29
734.976	24547.25
735.317	24449.17
735.658	24461.15
735.999	24530.75
736.339	24567.59
736.68	24686.23
737.021	24716.06
737.361	24601.26
737.702	24879.44
738.042	24782.95
738.383	24914.47
738.723	25001.93
739.063	24891.42
739.404	25054.81
739.744	25182.26
740.084	25172.32
740.424	25220.9
740.764	25312.65
741.104	25479.65
741.444	25400.56
741.784	25391.75
742.124	25562.14
742.464	25679.88
742.804	25822.47
743.143	25725.52
743.483	25963.71
743.823	25976.14
744.162	26071.96
744.502	26195.34
744.841	26356.47
745.181	26451.38
745.52	26563.24
745.86	26734.99
746.199	26721.43
746.538	26903.57
746.877	27162.77
747.216	27243.45
747.556	27358.02
747.895	27503.1
748.234	27621.07
748.573	27669.65
748.911	27837.56
749.25	28036.2
749.589	28182.86
749.928	28366.58
750.267	28489.52
750.605	28595.51
750.944	28780.59
751.283	28863.29
751.621	29305.99
751.96	29244.53
752.298	29362.94
752.636	29565.88
752.975	29674.12
753.313	29892.19
753.651	30196.82
753.989	30238.63
754.327	30524.95
754.666	30438.85
755.004	30861.21
755.342	31053.07
755.679	31290.12
756.017	31270.69
756.355	31594.52
756.693	31741.19
757.031	31972.59
757.368	32015.08
757.706	32210.55
758.044	32403.99
758.381	32586.59
758.719	32791.33
759.056	33057.08
759.394	33046.91
759.731	33045.56
760.068	33258.66
760.405	33539.56
760.743	33412.78
761.08	33925.31
761.417	33846.21
761.754	34068.13
762.091	34146.09
762.428	34269.03
762.765	34207.11
763.102	34493.66
763.438	34614.56
763.775	34527.33
764.112	34768.22
764.449	34861.78
764.785	34963.25
765.122	34930.25
765.458	34846.19
765.795	35049.57
766.131	35303.8
766.467	35208.89
766.804	35138.61
767.14	35214.54
767.476	35317.36
767.812	35377.47
768.148	35465.83
768.485	35466.51
768.821	35290.47
769.157	35374.76
769.492	35384.03
769.828	35599.16
770.164	35345.61
770.5	35345.84
770.836	35400.3
771.171	35374.99
771.507	35371.37
771.842	35211.6
772.178	35268.32
772.513	35342.9
772.849	35287.76
773.184	35314.65
773.519	35323.46
773.855	35196.01
774.19	35232.39
774.525	34997.6
774.86	35058.84
775.195	35153.07
775.53	34907.43
775.865	34813.87
776.2	34757.15
776.535	34590.38
776.87	34585.86
777.205	34480.32
777.539	34420.89
777.874	34598.96
778.209	34343.38
778.543	34384.05
778.878	34060.67
779.212	34197.62
779.547	33990.39
779.881	33928.02
780.215	33773.22
780.55	33972.09
780.884	33642.38
781.218	33611.19
781.552	33721.02
781.886	33620.68
782.22	33384.53
782.554	33310.86
782.888	33116.52
783.222	33083.3
783.556	32939.57
783.889	32898.22
784.223	32806.92
784.557	32762.18
784.89	32790.88
785.224	32586.59
785.557	32393.6
785.891	32526.7
786.224	32321.28
786.558	32314.28
786.891	32261.62
787.224	32019.14
787.557	31942.54
787.891	32010.56
788.224	31766.72
788.557	31755.65
788.89	31587.97
789.223	31555.2
789.556	31382.32
789.888	31446.05
790.221	31248.99
790.554	31055.1
790.887	31126.96
791.219	30993.86
791.552	30934.43
791.884	30637.49
792.217	30804.71
792.549	30713.87
792.882	30527.66
793.214	30542.57
793.546	30471.39
793.879	30303.03
794.211	30024.17
794.543	30226.2
794.875	30081.57
795.207	30066.65
795.539	29900.33
795.871	29923.38
796.203	29768.13
796.535	29541.69
796.867	29627.12
797.198	29395.26
797.53	29438.87
797.862	29198.2
798.193	29395.26
798.525	29054.7
798.856	29360.91
799.188	28717.76
799.519	28821.04
799.85	28677.08
800.182	28709.63
800.513	28830.75
800.844	28448.62
801.175	28674.83
801.506	28585.79
801.837	28468.5
802.168	28362.52
802.499	28418.56
802.83	28174.95
803.161	28088.63
803.491	28092.92
803.822	28162.97
804.153	27876.88
804.483	27755.08
804.814	27683.89
805.145	27756.43
805.475	27692.7
805.805	27600.5
806.136	27600.05
806.466	27395.76
806.796	27346.95
807.126	27265.6
807.457	27246.16
807.787	27291.13
808.117	27271.25
808.447	27172.04
808.777	27222.21
809.107	26982.67
809.436	26879.62
809.766	26892.27
810.096	26806.63
810.426	26781.54
810.755	26917.81
811.085	26599.63
811.414	26685.5
811.744	26582.45
812.073	26590.36
812.403	26459.06
812.732	26189.92
813.061	26429.69
813.39	26264.49
813.719	26299.29
814.049	26268.11
814.378	26226.53
814.707	26085.06
815.036	26065.85
815.365	25827.67
815.693	25784.51
816.022	25705.19
816.351	25726.43
816.68	25550.84
817.008	25637.62
817.337	25429.94
817.665	25468.58
817.994	25541.57
818.322	25486.66
818.651	25426.32
818.979	25356.95
819.307	25447.11
819.636	25369.6
819.964	25184.97
820.292	25290.28
820.62	25183.62
820.948	25234.92
821.276	25367.57
821.604	25201.47
821.932	25410.28
822.259	25215.71
822.587	25241.92
822.915	25157.18
823.243	25227.23
823.57	25174.8
823.898	25361.01
824.225	25229.27
824.553	25184.3
824.88	25225.88
825.207	25255.48
825.535	25107.24
825.862	25407.34
826.189	25171.87
826.516	25268.59
826.843	25291.64
827.17	25329.15
827.497	25407.57
827.824	25196.27
828.151	25429.03
828.478	25205.54
828.805	25378.87
829.131	25324.4
829.458	25359.21
829.785	25140.68
830.111	25219.1
830.438	25386.55
830.764	25283.95
831.09	25299.55
831.417	25274.46
831.743	25378.19
832.069	25284.18
832.395	25212.77
832.722	25256.38
833.048	25189.49
833.374	25280.11
833.7	25086.67
834.026	25316.72
834.351	25330.73
834.677	25259.55
835.003	25307.23
835.329	25200.11
835.654	25161.7
835.98	25125.99
836.306	25131.64
836.631	24997.63
836.956	25191.98
837.282	25182.49
837.607	25001.02
837.932	25050.51
838.258	25045.99
838.583	24904.08
838.908	24864.53
839.233	24981.36
839.558	24779.11
839.883	24802.16
840.208	24683.74
840.533	24687.59
840.858	24716.74
841.182	24759.22
841.507	24659.56
841.832	24588.38
842.156	24456.18
842.481	24484.65
842.805	24449.63
843.13	24416.86
843.454	24347.48
843.778	24305.22
844.103	24247.37
844.427	24204.66
844.751	24150.42
845.075	24178.67
845.399	24048.05
845.723	23846.7
846.047	23873.37
846.371	23685.13
846.695	23736.42
847.019	23671.57
847.343	23555.64
847.666	23391.12
847.99	23351.58
848.313	23315.87
848.637	23237.68
848.96	23217.79
849.284	23161.98
849.607	22998.59
849.931	22964.69
850.254	22749.56
850.577	22690.12
850.9	22523.8
851.223	22517.25
851.546	22537.13
851.869	22343.92
852.192	22458.94
852.515	22164.04
852.838	22111.83
853.161	22083.59
853.483	21970.37
853.806	21924.72
854.129	21837.26
854.451	21773.09
854.774	21609.25
855.096	21473.66
855.419	21517.27
855.741	21440.44
856.063	21309.14
856.385	21330.16
856.708	21249.48
857.03	21099.88
857.352	21130.39
857.674	21174.23
857.996	20946.44
858.318	20894.69
858.64	20855.14
858.961	20811.53
859.283	20659.22
859.605	20668.93
859.926	20637.3
860.248	20662.15
860.57	20480.01
860.891	20591.42
861.212	20476.17
861.534	20294.25
861.855	20328.83
862.176	20286.12
862.498	20363.18
862.819	20367.02
863.14	20210.41
863.461	20128.61
863.782	20063.75
864.103	20065.79
864.424	20076.18
864.745	20100.36
865.065	19929.52
865.386	19910.08
865.707	19923.87
866.027	19893.36
866.348	19806.81
866.668	19809.52
866.989	19786.7
867.309	19593.71
867.63	19647.72
867.95	19736.98
868.27	19559.81
868.59	19584.44
868.91	19570.43
869.23	19502.86
869.55	19401.17
869.87	19468.06
870.19	19472.58
870.51	19336.77
870.83	19396.88
871.15	19337.67
871.469	19213.38
871.789	19280.72
872.109	19295.86
872.428	19189.65
872.748	19189.65
873.067	19161.85
873.386	19153.95
873.706	19155.08
874.025	19099.94
874.344	19042.31
874.663	18969.32
874.982	18991.46
875.301	18890.22
875.62	18788.08
875.939	18951.92
876.258	18844.12
876.577	18699.27
876.896	18802.77
877.214	18662.43
877.533	18768.42
877.852	18755.76
878.17	18659.04
878.489	18619.5
878.807	18527.3
879.125	18547.86
879.444	18504.02
879.762	18532.04
880.08	18464.7
880.398	18408.88
880.716	18409.56
881.034	18308.09
881.352	18283.23
881.67	18219.96
881.988	18159.4
882.306	18197.59
882.624	18161.66
882.941	18062
883.259	18119.17
883.577	18025.39
883.894	18039.17
884.212	17886.41
884.529	17828.56
884.846	17824.04
885.164	17778.16
885.481	17800.31
885.798	17781.33
886.115	17628.79
886.432	17714.44
886.75	17666.98
887.067	17751.27
887.383	17566.19
887.7	17594.89
888.017	17331.62
888.334	17302.02
888.651	17353.77
888.967	17310.15
889.284	17190.61
889.6	17173.66
889.917	17135.02
890.233	17141.8
890.55	17135.02
890.866	17058.63
891.182	16983.38
891.498	16860.22
891.815	16765.99
892.131	16778.41
892.447	16796.04
892.763	16643.28
893.079	16664.97
893.395	16698.19
893.71	16716.72
894.026	16556.27
894.342	16523.28
894.657	16340.01
894.973	16399.22
895.289	16350.4
895.604	16361.7
895.92	16221.59
896.235	16214.81
896.55	16199.45
896.865	16108.15
897.181	16031.99
897.496	15991.09
897.811	15981.83
898.126	15927.82
898.441	15839
898.756	15790.42
899.071	15715.84
899.386	15771.21
899.7	15596.07
900.015	15509.97
900.33	15336.64
900.644	15360.6
900.959	15299.58
901.273	15287.61
901.588	15244.9
901.902	15092.13
902.216	15183.43
902.531	15061.17
902.845	14945.92
903.159	14991.12
903.473	14893.04
903.787	14857.79
904.101	14739.15
904.415	14765.13
904.729	14737.79
905.042	14600.84
905.356	14596.78
905.67	14557.46
905.984	14462.32
906.297	14396.78
906.611	14336.67
906.924	14284.92
907.237	14241.08
907.551	14150.91
907.864	14141.65
908.177	14125.83
908.491	14042.89
908.804	13959.28
909.117	13840.64
909.43	13794.99
909.743	13803.13
910.056	13729.46
910.368	13730.13
910.681	13679.06
910.994	13534.66
911.307	13503.25
911.619	13408.56
911.932	13437.71
912.244	13261.22
912.557	13331.5
912.869	13207.44
913.181	13163.14
913.494	13118.4
913.806	13042.02
914.118	12998.18
914.43	12980.32
914.742	12908.46
915.054	12802.7
915.366	12777.84
915.678	12676.83
915.99	12629.15
916.302	12626.21
916.613	12534.01
916.925	12498.08
917.236	12501.01
917.548	12312.54
917.859	12457.4
918.171	12305.99
918.482	12169.27
918.794	12212.66
919.105	12161.59
919.416	12091.53
919.727	12134.02
920.038	12055.15
920.349	11915.72
920.66	11887.02
920.971	11831.43
921.282	11838.88
921.593	11720.47
921.903	11658.55
922.214	11639.34
922.525	11612.9
922.835	11534.48
923.146	11468.72
923.456	11482.06
923.767	11389.4
924.077	11434.6
924.387	11349.18
924.697	11288.16
925.008	11240.93
925.318	11158
925.628	11145.57
925.938	11094.95
926.248	11027.83
926.558	10952.35
926.867	10955.29
927.177	10885.91
927.487	10822.87
927.796	10789.65
928.106	10823.09
928.416	10708.07
928.725	10705.81
929.034	10604.11
929.344	10609.31
929.653	10569.31
929.962	10510.11
930.271	10498.35
930.581	10325.93
930.89	10416.55
931.199	10242.77
931.508	10263.11
931.817	10243.9
932.125	10225.14
932.434	10157.12
932.743	10083.22
933.051	10023.56
933.36	9981.76
933.669	9982.89
933.977	9968.42
934.286	9877.81
934.594	9850.24
934.902	9903.79
935.21	9816.56
935.519	9737.7
935.827	9731.37
936.135	9594.42
936.443	9568.43
936.751	9546.74
937.059	9500.87
937.367	9482.79
937.674	9442.34
937.982	9412.28
938.29	9432.85
938.597	9348.33
938.905	9356.46
939.213	9169.12
939.52	9230.59
939.827	9191.04
940.135	9156.69
940.442	9070.37
940.749	9045.06
941.056	9027.88
941.363	8939.52
941.67	8971.39
941.977	8906.08
942.284	8837.15
942.591	8841.9
942.898	8755.12
943.205	8702.24
943.511	8701.34
943.818	8636.93
944.125	8632.64
944.431	8562.81
944.738	8527.56
945.044	8534.56
945.35	8481.46
945.657	8418.41
945.963	8355.59
946.269	8373.21
946.575	8333.21
946.881	8257.96
947.187	8258.86
947.493	8189.49
947.799	8132.54
948.105	8123.28
948.41	8040.34
948.716	8090.73
949.022	8047.34
949.327	7990.85
949.633	7914.24
949.938	7942.49
950.244	7923.28
950.549	7814.58
950.854	7726.68
951.16	7820.01
951.465	7736.17
951.77	7718.09
952.075	7662.04
952.38	7634.25
952.685	7586.57
952.99	7499.11
953.294	7558.32
953.599	7488.49
953.904	7446.91
954.209	7379.57
954.513	7408.72
954.818	7366.91
955.122	7344.31
955.426	7323.75
955.731	7268.38
956.035	7176.86
956.339	7154.71
956.643	7224.09
956.948	7142.51
957.252	7063.42
957.556	7062.96
957.86	7053.47
958.163	7048.05
958.467	7024.77
958.771	6953.59
959.075	6911.56
959.378	6862.07
959.682	6879.47
959.985	6797.43
960.289	6756.76
960.592	6724.89
960.896	6748.85
961.199	6731.22
961.502	6731.9
961.805	6683.54
962.108	6625.69
962.411	6553.82
962.714	6521.96
963.017	6518.57
963.32	6500.49
963.623	6450.32
963.926	6423.66
964.228	6376.88
964.531	6408.74
964.833	6425.01
965.136	6336.2
965.438	6240.16
965.741	6227.96
966.043	6227.96
966.345	6165.59
966.648	6247.17
966.95	6138.47
967.252	6105.48
967.554	6111.12
967.856	6126.04
968.158	6060.96
968.46	6034.74
968.761	5998.13
969.063	5962.65
969.365	5905.48
969.666	5898.93
969.968	5841.53
970.269	5818.7
970.571	5820.74
970.872	5801.98
971.174	5710.46
971.475	5761.98
971.776	5709.55
972.077	5641.76
972.378	5613.74
972.679	5659.16
972.98	5612.83
973.281	5596.79
973.582	5576.22
973.883	5536
974.183	5525.15
974.484	5492.84
974.785	5448.09
975.085	5431.59
975.386	5399.96
975.686	5351.37
975.986	5399.96
976.287	5345.5
976.587	5292.39
976.887	5304.59
977.187	5264.37
977.487	5245.16
977.787	5189.57
978.087	5182.56
978.387	5192.28
978.687	5140.98
978.987	5111.6
979.286	5109.12
979.586	5120.64
979.885	5036.8
980.185	5024.6
980.484	4971.95
980.784	4989.35
981.083	4994.32
981.382	4981.21
981.682	4969.69
981.981	4860.54
982.28	4897.82
982.579	4831.38
982.878	4873.64
983.177	4827.09
983.475	4776.24
983.774	4741.22
984.073	4729.01
984.372	4676.59
984.67	4665.06
984.969	4693.99
985.267	4619.19
985.566	4626.19
985.864	4618.06
986.162	4552.52
986.461	4522.92
986.759	4550.71
987.057	4521.34
987.355	4482.01
987.653	4479.76
987.951	4444.28
988.249	4413.09
988.547	4397.5
988.844	4392.75
989.142	4358.18
989.44	4328.35
989.737	4296.03
990.035	4264.62
990.332	4281.34
990.63	4265.07
990.927	4250.83
991.224	4230.5
991.521	4195.24
991.819	4184.17
992.116	4195.92
992.413	4103.72
992.71	4134.68
993.006	4103.49
993.303	4054.91
993.6	4041.35
993.897	4056.49
994.193	4035.47
994.49	3967
994.787	3972.88
995.083	3941.92
995.379	3955.02
995.676	3936.72
995.972	3927
996.268	3909.37
996.565	3832.54
996.861	3852.43
997.157	3845.42
997.453	3795.25
997.749	3704.86
998.044	3740.11
998.34	3763.16
998.636	3692.21
998.932	3667.8
999.227	3702.6
999.523	3658.76
999.818	3685.2
1000.114	3607.69
1000.409	3586.67
1000.704	3549.16
1001	3566.56
1001.295	3554.58
1001.59	3500.35
1001.885	3456.73
1002.18	3478.2
1002.475	3437.07
1002.77	3456.96
1003.065	3403.85
1003.359	3430.29
1003.654	3364.08
1003.949	3361.37
1004.243	3342.84
1004.538	3315.94
1004.832	3306.45
1005.127	3278.43
1005.421	3235.95
1005.715	3221.48
1006.009	3250.41
1006.304	3212.67
1006.598	3181.71
1006.892	3144.87
1007.186	3142.39
1007.48	3114.37
1007.773	3116.63
1008.067	3083.18
1008.361	3034.82
1008.655	3051.54
1008.948	3003.64
1009.242	2983.07
1009.535	2986.24
1009.829	2971.09
1010.122	2936.52
1010.415	2940.36
1010.708	2930.19
1011.001	2904.43
1011.295	2907.14
1011.588	2854.26
1011.881	2833.24
1012.173	2858.55
1012.466	2820.14
1012.759	2800.48
1013.052	2781.72
1013.344	2764.77
1013.637	2753.92
1013.93	2716.64
1014.222	2714.15
1014.514	2694.49
1014.807	2688.62
1015.099	2663.31
1015.391	2650.65
1015.683	2606.58
1015.976	2598.45
1016.268	2601.84
1016.56	2514.16
1016.851	2563.65
1017.143	2541.95
1017.435	2530.88
1017.727	2508.51
1018.018	2462.63
1018.31	2478.23
1018.602	2462.86
1018.893	2443.42
1019.185	2396.87
1019.476	2422.41
1019.767	2380.6
1020.058	2373.6
1020.35	2358.23
1020.641	2342.41
1020.932	2311
1021.223	2280.94
1021.514	2268.51
1021.804	2215.86
1022.095	2257.21
1022.386	2249.98
1022.677	2205.01
1022.967	2204.79
1023.258	2191.45
1023.548	2156.88
1023.839	2111.91
1024.129	2122.75
1024.419	2136.99
1024.709	2108.52
1025	2078.91
1025.29	2071
1025.58	2072.13
1025.87	2033.94
1026.16	2035.07
1026.449	2023.1
1026.739	2005.7
1027.029	2021.29
1027.319	1983.32
1027.608	1988.52
1027.898	1992.81
1028.187	1927.73
1028.477	1906.94
1028.766	1908.98
1029.055	1921.18
1029.344	1866.04
1029.634	1883.44
1029.923	1861.29
1030.212	1845.47
1030.501	1816.77
1030.79	1795.53
1031.078	1768.64
1031.367	1795.98
1031.656	1750.34
1031.945	1738.36
1032.233	1763.22
1032.522	1733.39
1032.81	1723.44
1033.099	1700.85
1033.387	1694.97
1033.675	1692.03
1033.963	1676.66
1034.251	1661.75
1034.54	1650.9
1034.828	1644.35
1035.116	1638.93
1035.403	1598.7
1035.691	1603.22
1035.979	1593.73
1036.267	1567.97
1036.554	1544.01
1036.842	1550.79
1037.129	1554.86
1037.417	1517.12
1037.704	1523.9
1037.992	1513.05
1038.279	1513.51
1038.566	1497.01
1038.853	1497.01
1039.14	1497.01
