Data from 14-4516_FLMS001491_008.txt Node
Date: Thu Apr 19 16:47:11 BST 2018
User: hsy
Spectrometer: FLMS00149
Trigger mode: 0
Integration Time (sec): 1.000000E-2
Scans to average: 10
Electric dark correction enabled: true
Nonlinearity correction enabled: false
Boxcar width: 0
XAxis mode: Wavelengths
Number of Pixels in Spectrum: 2048
>>>>>Begin Spectral Data<<<<<
341.393	7.05
341.776	7.05
342.16	7.05
342.543	-61.42
342.927	-53.29
343.31	-56.91
343.693	-78.15
344.077	-58.49
344.46	-58.26
344.843	-60.97
345.226	-49
345.61	-27.08
345.993	-25.72
346.376	-3.57
346.759	5.47
347.142	26.93
347.525	58.8
347.908	40.27
348.291	80.49
348.674	96.99
349.057	109.19
349.44	130.21
349.823	152.81
350.206	174.5
350.588	232.35
350.971	247.72
351.354	242.97
351.737	260.37
352.119	273.71
352.502	310.54
352.884	289.53
353.267	303.09
353.65	333.82
354.032	317.55
354.414	333.82
354.797	342.63
355.179	376.76
355.562	371.11
355.944	351.45
356.326	355.06
356.709	374.72
357.091	353.48
357.473	386.92
357.855	400.71
358.238	384.67
358.62	372.01
359.002	370.88
359.384	379.92
359.766	378.79
360.148	381.28
360.53	360.26
360.912	361.16
361.294	386.47
361.676	370.88
362.057	371.56
362.439	358.68
362.821	380.82
363.203	380.6
363.584	365.91
363.966	361.16
364.348	373.37
364.729	369.07
365.111	368.17
365.493	363.42
365.874	350.32
366.256	354.84
366.637	358.68
367.019	360.94
367.4	378.56
367.781	358.45
368.163	359.58
368.544	365
368.925	375.63
369.306	365.46
369.688	352.58
370.069	372.46
370.45	360.03
370.831	372.46
371.212	353.25
371.593	360.94
371.974	373.59
372.355	369.3
372.736	377.21
373.117	356.87
373.498	378.34
373.879	363.65
374.26	364.78
374.641	363.42
375.021	370.65
375.402	375.17
375.783	385.12
376.163	377.43
376.544	382.63
376.925	393.48
377.305	386.7
377.686	389.86
378.066	385.12
378.447	383.08
378.827	397.55
379.208	388.05
379.588	405
379.968	388.05
380.349	406.81
380.729	433.03
381.109	408.39
381.489	420.6
381.87	417.43
382.25	414.72
382.63	398.68
383.01	420.6
383.39	416.3
383.77	448.62
384.15	431.44
384.53	422.86
384.91	433.48
385.29	447.04
385.67	438
386.049	453.14
386.429	439.8
386.809	435.06
387.189	456.3
387.568	448.84
387.948	445.23
388.328	468.96
388.707	469.18
389.087	467.15
389.466	477.54
389.846	457.43
390.225	498.11
390.605	477.54
390.984	478.22
391.363	487.94
391.743	509.41
392.122	492.68
392.501	502.85
392.881	502.18
393.26	495.4
393.639	524.77
394.018	514.38
394.397	527.03
394.776	538.11
395.155	525.68
395.534	539.92
395.913	523.64
396.292	524.32
396.671	545.34
397.05	561.16
397.429	559.58
397.808	560.25
398.186	569.29
398.565	561.84
398.944	569.74
399.323	576.07
399.701	570.87
400.08	597.99
400.458	566.58
400.837	619.01
401.215	620.82
401.594	602.29
401.972	602.51
402.351	614.49
402.729	637.99
403.107	616.52
403.486	658.33
403.864	639.12
404.242	639.8
404.62	657.88
404.999	655.17
405.377	685
405.755	673.7
406.133	671.89
406.511	699.91
406.889	722.06
407.267	721.15
407.645	744.66
408.023	746.92
408.401	767.03
408.779	770.87
409.156	785.11
409.534	783.75
409.912	824.65
410.29	830.3
410.667	841.83
411.045	869.4
411.422	875.73
411.8	861.71
412.178	908.04
412.555	894.93
412.933	908.72
413.31	950.53
413.687	917.76
414.065	951.2
414.442	950.3
414.819	986.46
415.197	1018.55
415.574	995.95
415.951	1039.34
416.328	1034.37
416.705	1047.25
417.082	1044.76
417.46	1074.36
417.837	1114.82
418.214	1113.01
418.591	1109.84
418.967	1129.5
419.344	1122.05
419.721	1131.31
420.098	1158.66
420.475	1196.4
420.852	1180.12
421.228	1200.69
421.605	1203.85
421.982	1241.14
422.358	1247.24
422.735	1241.59
423.111	1272.1
423.488	1305.09
423.864	1314.13
424.241	1320.46
424.617	1322.72
424.994	1341.48
425.37	1352.1
425.746	1369.05
426.123	1378.99
426.499	1416.73
426.875	1429.16
427.251	1449.5
427.627	1488.59
428.003	1525.88
428.379	1534.92
428.756	1493.79
429.132	1541.02
429.507	1577.18
429.883	1578.31
430.259	1615.14
430.635	1611.53
431.011	1648.36
431.387	1683.16
431.763	1727.23
432.138	1717.51
432.514	1756.61
432.89	1768.36
433.265	1801.12
433.641	1824.4
434.016	1854
434.392	1886.32
434.767	1906.66
435.143	1902.14
435.518	1966.77
435.894	1960.89
436.269	1971.29
436.644	2042.7
437.02	2027.11
437.395	2041.57
437.77	2092.19
438.145	2144.84
438.52	2156.6
438.895	2185.07
439.271	2152.98
439.646	2246.31
440.021	2240.21
440.395	2250.6
440.77	2203.83
441.145	2292.64
441.52	2344.16
441.895	2310.26
442.27	2334.44
442.645	2355.23
443.019	2408.79
443.394	2413.99
443.769	2452.18
444.143	2424.16
444.518	2452.63
444.892	2466.64
445.267	2474.1
445.641	2500.32
446.016	2538.28
446.39	2531.5
446.764	2567.21
447.139	2539.64
447.513	2584.61
447.887	2620.99
448.262	2637.49
448.636	2653.76
449.01	2699.41
449.384	2715.68
449.758	2716.13
450.132	2752.96
450.506	2785.05
450.88	2804.49
451.254	2823.7
451.628	2848.1
452.002	2857.82
452.376	2917.25
452.75	2936.91
453.123	2989.12
453.497	3002.9
453.871	3034.09
454.244	3115.44
454.618	3149.56
454.992	3205.61
455.365	3196.57
455.739	3275.44
456.112	3296.45
456.486	3344.14
456.859	3366.51
457.232	3452.61
457.606	3417.13
457.979	3528.31
458.352	3570.57
458.725	3607.63
459.099	3638.82
459.472	3712.04
459.845	3765.82
460.218	3783.22
460.591	3888.98
460.964	3907.28
461.337	3989.99
461.71	4029.77
462.083	4081.52
462.456	4084.45
462.829	4088.97
463.201	4202.42
463.574	4207.84
463.947	4275.18
464.32	4331
464.692	4356.54
465.065	4438.34
465.438	4452.35
465.81	4560.83
466.183	4595.4
466.555	4695.29
466.928	4726.7
467.3	4666.13
467.672	4786.58
468.045	4898.67
468.417	4865.9
468.789	4919.24
469.161	4989.52
469.534	5103.64
469.906	5128.95
470.278	5215.72
470.65	5312.67
471.022	5353.8
471.394	5474.25
471.766	5446.9
472.138	5562.16
472.51	5717.41
472.882	5803.96
473.253	5815.26
473.625	5906.33
473.997	6033.1
474.369	6047.34
474.74	6116.94
475.112	6258.18
475.484	6298.18
475.855	6454.34
476.227	6539.98
476.598	6692.52
476.97	6748.34
477.341	6907.66
477.713	6997.15
478.084	7100.19
478.455	7301.55
478.827	7249.57
479.198	7479.17
479.569	7575.66
479.94	7764.58
480.311	7847.75
480.682	7977.91
481.053	8169.09
481.424	8341.74
481.795	8422.65
482.166	8542.42
482.537	8684.56
482.908	8885.46
483.279	8932.46
483.65	9163.42
484.021	9346.69
484.391	9452.9
484.762	9545.55
485.133	9755.27
485.503	9868.26
485.874	10062.83
486.244	10127.69
486.615	10387.11
486.985	10559.76
487.356	10709.82
487.726	10830.94
488.097	11082.24
488.467	11179.86
488.837	11412.4
489.207	11504.15
489.578	11676.8
489.948	11875.21
490.318	12124.24
490.688	12111.36
491.058	12388.19
491.428	12625.02
491.798	12651.46
492.168	13004.9
492.538	13113.37
492.908	13228.17
493.278	13485.56
493.648	13518.11
494.017	13733.92
494.387	13939.34
494.757	14067.24
495.126	14235.15
495.496	14406.67
495.866	14615.48
496.235	14681.46
496.605	14809.37
496.974	14912.64
497.344	15177.5
497.713	15283.26
498.082	15271.73
498.452	15573.19
498.821	15668.78
499.19	15814.54
499.559	16035.1
499.928	16083.91
500.298	16266.28
500.667	16449.78
501.036	16499.27
501.405	16573.62
501.774	16634.63
502.143	16958.01
502.512	16993.72
502.88	17160.04
503.249	17262.64
503.618	17405.46
503.987	17535.17
504.356	17704.89
504.724	17778.33
505.093	17964.77
505.462	18014.03
505.83	18106.68
506.199	18355.72
506.567	18498.54
506.936	18490.63
507.304	18840.9
507.672	18830.51
508.041	18974.01
508.409	19153.44
508.777	19289.93
509.145	19498.51
509.514	19386.88
509.882	19663.48
510.25	19715
510.618	19913.19
510.986	19880.2
511.354	20119.06
511.722	20274.09
512.09	20554.76
512.458	20402.22
512.826	20630.23
513.193	20650.8
513.561	20868.42
513.929	21010.11
514.297	21172.59
514.664	21238.58
515.032	21271.8
515.4	21603.09
515.767	21660.49
516.135	21753.59
516.502	21535.75
516.869	21868.85
517.237	22078.11
517.604	22008.05
517.972	22366.46
518.339	22527.13
518.706	22588.83
519.073	22558.55
519.44	22654.14
519.808	22954.47
520.175	22972.55
520.542	23254.57
520.909	23348.36
521.276	23499.09
521.643	23685.75
522.009	23661.34
522.376	23910.37
522.743	23933.2
523.11	24291.61
523.477	24421.1
523.843	24451.38
524.21	24711.48
524.577	24863.34
524.943	24970.01
525.31	24888.2
525.676	25258.81
526.043	25408.87
526.409	25533.38
526.776	25759.59
527.142	25715.75
527.508	25921.85
527.874	26049.3
528.241	26151.9
528.607	26199.58
528.973	26416.52
529.339	26417.2
529.705	26818.09
530.071	26830.98
530.437	26948.26
530.803	27043.4
531.169	27103.96
531.535	27136.73
531.901	27236.39
532.267	27321.58
532.632	27561.35
532.998	27528.81
533.364	27600.9
533.73	27640.67
534.095	27813.77
534.461	27785.53
534.826	27909.14
535.192	27809.71
535.557	28023.26
535.923	27982.81
536.288	27991.85
536.653	28112.75
537.019	27989.81
537.384	28118.4
537.749	28281.33
538.114	28230.94
538.479	28198.4
538.845	28275.91
539.21	28118.85
539.575	28240.43
539.94	28265.29
540.305	28449.92
540.67	28361.33
541.034	28300.99
541.399	28334.44
541.764	28246.53
542.129	28270.03
542.494	28446.75
542.858	28503.93
543.223	28311.39
543.587	28360.2
543.952	28338.96
544.316	28366.08
544.681	28309.58
545.045	28395.23
545.41	28413.98
545.774	28385.06
546.138	28461.67
546.503	28498.5
546.867	28397.71
547.231	28427.54
547.595	28521.55
547.959	28491.04
548.324	28378.05
548.688	28199.53
549.052	28369.24
549.416	28348.22
549.779	28195.69
550.143	28291.73
550.507	28369.92
550.871	28477.49
551.235	28243.82
551.599	28584.15
551.962	28399.97
552.326	28432.97
552.689	28460.54
553.053	28075.69
553.417	28214.67
553.78	28548.67
554.143	28507.54
554.507	28346.64
554.87	28529.69
555.234	28656.92
555.597	28316.81
555.96	28463.93
556.323	28458.05
556.686	28397.49
557.05	28594.09
557.413	28517.94
557.776	28472.97
558.139	28671.38
558.502	28722.23
558.865	28572.4
559.228	28756.57
559.59	28737.59
559.953	28678.61
560.316	28937.13
560.679	28783.01
561.041	28958.83
561.404	28983.46
561.767	29198.6
562.129	28956.57
562.492	29145.26
562.854	29191.37
563.217	29124.7
563.579	29113.63
563.941	29386.84
564.304	29414.18
564.666	29517.46
565.028	29397.46
565.39	29485.82
565.753	29561.07
566.115	29524.46
566.477	29757.68
566.839	29794.74
567.201	29924.68
567.563	30020.72
567.925	29921.74
568.287	29982.08
568.648	30035.86
569.01	30190.66
569.372	30299.36
569.734	30232.92
570.095	30435.17
570.457	30553.14
570.819	30539.58
571.18	30512.01
571.542	30733.92
571.903	30827.25
572.265	30773.02
572.626	30931.21
572.987	30871.1
573.349	31051.43
573.71	31072.67
574.071	31160.13
574.432	31276.06
574.794	31400.57
575.155	31353.79
575.516	31364.87
575.877	31445.32
576.238	31537.97
576.599	31535.94
576.96	31662.71
577.32	31645.99
577.681	31688.93
578.042	31910.84
578.403	31784.07
578.763	31767.79
579.124	31690.28
579.485	31912.2
579.845	31961.24
580.206	31948.58
580.566	31953.55
580.927	32026.54
581.287	32115.13
581.648	31996.72
582.008	32214.34
582.368	32157.16
582.728	32163.26
583.089	32049.82
583.449	32131.17
583.809	32121.46
584.169	32311.96
584.529	32164.17
584.889	32347.89
585.249	32230.38
585.609	32133.43
585.969	32355.12
586.329	32307.89
586.688	32333.66
587.048	32295.92
587.408	32372.98
587.768	32293.2
588.127	32443.48
588.487	32299.31
588.846	32509.92
589.206	32204.85
589.565	32188.12
589.925	32431.73
590.284	32341.11
590.643	32334.11
591.003	32372.3
591.362	32534.33
591.721	32448
592.08	32406.2
592.44	32590.15
592.799	32471.73
593.158	32445.74
593.517	32482.13
593.876	32615.46
594.235	32642.8
594.593	32569.81
594.952	32601.9
595.311	32593.76
595.67	32620.65
596.029	32818.16
596.387	32785.4
596.746	32951.49
597.104	32660.65
597.463	32638.96
597.822	32726.19
598.18	32769.8
598.538	32710.82
598.897	32944.26
599.255	32692.97
599.613	33083.69
599.972	32894.77
600.33	32946.97
600.688	32905.84
601.046	32923.47
601.404	33286.62
601.762	33094.09
602.12	33189.45
602.478	33250.02
602.836	33235.1
603.194	33010.25
603.552	33175.22
603.91	33022.45
604.268	33169.11
604.625	33184.48
604.983	33376.34
605.341	33088.21
605.698	33326.62
606.056	33483.46
606.413	33385.61
606.771	33622.66
607.128	33422.67
607.485	33347.19
607.843	33525.94
608.2	33689.33
608.557	33763.67
608.914	33663.79
609.272	33859.94
609.629	33900.17
609.986	33920.96
610.343	33921.18
610.7	34217.67
611.057	34004.57
611.414	34018.58
611.771	34129.31
612.127	34228.75
612.484	34175.87
612.841	34367.27
613.198	34266.03
613.554	34317.33
613.911	34584.22
614.267	34466.71
614.624	34543.99
614.98	34651.79
615.337	34722.97
615.693	34729.3
616.05	34825.57
616.406	34897.2
616.762	34736.53
617.118	34843.87
617.475	34844.1
617.831	35038.9
618.187	35041.83
618.543	35145.33
618.899	35372.45
619.255	35136.75
619.611	35167.03
619.967	35287.93
620.323	35316.4
620.678	35345.1
621.034	35215.39
621.39	35339
621.746	35258.55
622.101	35707.35
622.457	35303.97
622.812	35565.66
623.168	35453.35
623.523	35599.78
623.879	35706.22
624.234	35481.14
624.589	35593.91
624.945	35736.5
625.3	35612.67
625.655	35696.5
626.01	35756.16
626.365	35674.13
626.72	35692.89
627.075	35600.69
627.43	35661.25
627.785	35663.96
628.14	35606.34
628.495	35617.86
628.85	35760.91
629.205	35602.04
629.559	35789.84
629.914	35595.94
630.269	35619.9
630.623	35521.37
630.978	35539.22
631.332	35680.91
631.687	35636.39
632.041	35341.49
632.396	35486.79
632.75	35443.86
633.104	35411.77
633.459	35197.53
633.813	35393.01
634.167	35224.2
634.521	35299.68
634.875	35244.09
635.229	35168.38
635.583	35044.77
635.937	35092.45
636.291	34945.79
636.645	34968.61
636.999	34871.44
637.352	34972.23
637.706	34849.07
638.06	34983.53
638.413	34816.53
638.767	34728.62
639.121	34772.69
639.474	34584.9
639.828	34707.38
640.181	34639.13
640.534	34685.46
640.888	34643.2
641.241	34406.14
641.594	34527.5
641.947	34733.37
642.301	34499.25
642.654	34636.87
643.007	34466.03
643.36	34508.29
643.713	34360.27
644.066	34563.2
644.419	34317.33
644.771	34118.69
645.124	33591.93
645.477	33761.41
645.83	33578.59
646.182	33485.72
646.535	33454.98
646.888	33505.6
647.24	33517.35
647.593	33557.8
647.945	33556.22
648.298	33362.78
648.65	33273.07
649.002	33133.18
649.355	33078.95
649.707	33084.82
650.059	33014.99
650.411	33467.86
650.763	33647.07
651.115	34194.17
651.467	33928.87
651.819	34236.66
652.171	33976.55
652.523	33941.75
652.875	34129.99
653.227	33879.6
653.578	34110.56
653.93	34079.37
654.282	34007.96
654.633	34033.05
654.985	34021.52
655.337	34004.12
655.688	34048.64
656.039	34089.32
656.391	33821.3
656.742	34037.79
657.094	33916.21
657.445	34137
657.796	34133.38
658.147	34112.59
658.498	34058.58
658.849	34302.19
659.2	34249.31
659.551	34062.88
659.902	34378.8
660.253	34127.51
660.604	34225.81
660.955	34279.37
661.306	34391.45
661.656	34170.22
662.007	34210.44
662.358	34402.75
662.708	34375.41
663.059	34301.06
663.409	34162.76
663.76	34337.44
664.11	34475.52
664.461	34481.17
664.811	34526.37
665.161	34522.52
665.511	34486.82
665.862	34573.14
666.212	34690.66
666.562	34723.65
666.912	34486.82
667.262	34504.45
667.612	34503.99
667.962	34518
668.312	34487.27
668.662	34651.11
669.011	34405.24
669.361	34517.78
669.711	34515.74
670.06	34404.34
670.41	34261.51
670.76	34448.85
671.109	34506.48
671.459	34508.29
671.808	34385.8
672.157	34507.61
672.507	34288.63
672.856	34318.01
673.205	34366.14
673.554	34442.07
673.904	34338.8
674.253	34449.08
674.602	34293.15
674.951	33830.34
675.3	33707.4
675.649	34236.2
675.998	34201.85
676.346	34178.58
676.695	34290.67
677.044	33949.43
677.393	34050.67
677.741	34252.93
678.09	34119.15
678.438	33837.57
678.787	34043.22
679.135	33995.76
679.484	33772.71
679.832	33897.46
680.181	33732.71
680.529	33691.59
680.877	33651.36
681.225	33721.64
681.573	33838.93
681.922	33762.32
682.27	33588.76
682.618	33543.79
682.966	33405.49
683.314	33400.07
683.661	33354.42
684.009	33227.19
684.357	33129.57
684.705	33122.79
685.053	33009.12
685.4	32845.73
685.748	32803.25
686.095	32825.39
686.443	32654.78
686.79	32574.78
687.138	32668.11
687.485	32502.24
687.832	32397.61
688.18	32438.51
688.527	32172.76
688.874	32179.08
689.221	32109.71
689.568	31978.41
689.915	31912.2
690.262	32001.23
690.609	31736.16
690.956	31623.62
691.303	31510.4
691.65	31508.37
691.997	31288.26
692.344	31185.66
692.69	31157.64
693.037	31047.14
693.383	30833.81
693.73	30811.89
694.077	30716.07
694.423	30535.28
694.769	30564.89
695.116	30441.73
695.462	30244.9
695.808	30190.21
696.155	30155.41
696.501	29837
696.847	30044.9
697.193	29705.7
697.539	29712.26
697.885	29450.34
698.231	29250.12
698.577	29299.61
698.923	29282.66
699.269	29027.3
699.614	28978.94
699.96	28688.55
700.306	28694.66
700.651	28655.11
700.997	28392.06
701.342	28479.07
701.688	28379.41
702.033	28167.89
702.379	28127.21
702.724	28061.45
703.069	28096.03
703.415	27669.15
703.76	27729.93
704.105	27580.79
704.45	27475.48
704.795	27477.51
705.14	27276.39
705.485	27299.21
705.83	27030.52
706.175	27108.71
706.52	27075.26
706.865	26933.8
707.209	26740.13
707.554	26760.92
707.899	26669.85
708.243	26496.52
708.588	26531.1
708.932	26337.65
709.277	26438.44
709.621	26314.6
709.966	26087.04
710.31	26141.28
710.654	25964.33
710.998	26012.92
711.342	26057.21
711.687	25909.64
712.031	25873.26
712.375	25655.86
712.719	25682.98
713.063	25649.76
713.407	25626.26
713.75	25549.88
714.094	25548.75
714.438	25497.9
714.782	25492.71
715.125	25325.48
715.469	25568.86
715.812	25285.03
716.156	25154.64
716.499	25202.77
716.843	25320.05
717.186	25189.66
717.53	25192.6
717.873	25319.6
718.216	25216.78
718.559	25150.79
718.902	24988.54
719.246	25049.55
719.589	25061.3
719.932	24965.04
720.275	25080.06
720.617	25083.68
720.96	24913.74
721.303	24928.65
721.646	24911.03
721.989	24868.32
722.331	24919.16
722.674	24934.75
723.016	24924.81
723.359	24823.8
723.701	24915.77
724.044	24781.99
724.386	24703.57
724.729	24850.01
725.071	24884.36
725.413	24882.78
725.755	24754.87
726.097	24765.94
726.439	24648.43
726.782	24743.12
727.124	24825.83
727.465	24765.72
727.807	24718.49
728.149	24867.19
728.491	24702.67
728.833	24850.24
729.175	24818.15
729.516	24792.16
729.858	24734.99
730.199	24859.95
730.541	24783.35
730.882	24753.06
731.224	24844.81
731.565	24873.74
731.906	24968.65
732.248	25004.13
732.589	24887.52
732.93	24871.25
733.271	24920.07
733.612	24937.01
733.953	25129.33
734.294	25044.58
734.635	25146.95
734.976	25165.03
735.317	25182.66
735.658	25231.47
735.999	25120.74
736.339	25128.42
736.68	25311.02
737.021	25416.1
737.361	25257.91
737.702	25480.5
738.042	25400.5
738.383	25492.03
738.723	25598.92
739.063	25506.49
739.404	25696.32
739.744	25701.51
740.084	25805.92
740.424	25901.73
740.764	25802.53
741.104	25953.26
741.444	26011.79
741.784	26012.01
742.124	26094.72
742.464	26278.45
742.804	26336.53
743.143	26291.1
743.483	26493.13
743.823	26506.24
744.162	26610.19
744.502	26735.16
744.841	26841.82
745.181	26966.79
745.52	26967.92
745.86	27134.92
746.199	27233
746.538	27268.03
746.877	27533.56
747.216	27623.04
747.556	27716.38
747.895	27875.47
748.234	28026.42
748.573	28164.95
748.911	28203.14
749.25	28464.83
749.589	28484.49
749.928	28873.18
750.267	28952.73
750.605	29044.25
750.944	29244.7
751.283	29293.74
751.621	29594.97
751.96	29686.95
752.298	30008.29
752.636	29995.86
752.975	30153.6
753.313	30265.01
753.651	30673.81
753.989	30602.4
754.327	30801.27
754.666	30916.52
755.004	31142.05
755.342	31362.38
755.679	31622.26
756.017	31517.41
756.355	31928.02
756.693	32072.19
757.031	32419.3
757.368	32314.22
757.706	32607.55
758.044	32666.3
758.381	32876.69
758.719	32946.97
759.056	33299.05
759.394	33311.26
759.731	33211.6
760.068	33401.88
760.405	33619.05
760.743	33780.17
761.08	34031.01
761.417	34126.38
761.754	34234.17
762.091	34233.49
762.428	34362.3
762.765	34329.99
763.102	34674.84
763.438	34719.13
763.775	34694.27
764.112	34839.35
764.449	35018.78
764.785	34951.89
765.122	35055.39
765.458	35074.37
765.795	35209.96
766.131	35469.17
766.467	35428.04
766.804	35387.59
767.14	35270.98
767.476	35403.86
767.812	35448.38
768.148	35662.61
768.485	35576.28
768.821	35500.13
769.157	35595.04
769.492	35565.43
769.828	35629.16
770.164	35432.11
770.5	35545.32
770.836	35753.23
771.171	35668.48
771.507	35568.15
771.842	35477.75
772.178	35682.04
772.513	35607.02
772.849	35578.09
773.184	35502.16
773.519	35559.79
773.855	35341.49
774.19	35410.41
774.525	35259.68
774.86	35377.64
775.195	35324.76
775.53	35166.12
775.865	35052.23
776.2	34944.21
776.535	34896.75
776.87	34925.45
777.205	34645.46
777.539	34738.56
777.874	34768.85
778.209	34531.56
778.543	34576.08
778.878	34457.89
779.212	34456.09
779.547	34204.57
779.881	34388.52
780.215	34106.04
780.55	34174.29
780.884	33925.03
781.218	33945.36
781.552	33955.99
781.886	33763.45
782.22	33701.98
782.554	33545.38
782.888	33402.78
783.222	33357.58
783.556	33133.86
783.889	33223.8
784.223	32937.93
784.557	33026.29
784.89	33081.43
785.224	32813.64
785.557	32631.27
785.891	32631.95
786.224	32661.56
786.558	32540.88
786.891	32455.46
787.224	32290.72
787.557	32125.75
787.891	32137.28
788.224	31818.87
788.557	31888.47
788.89	31845.31
789.223	31803.95
789.556	31641.7
789.888	31601.47
790.221	31524.41
790.554	31352.21
790.887	31281.93
791.219	31168.26
791.552	31172.56
791.884	30989.28
792.217	30930.53
792.549	30928.27
792.882	30597.43
793.214	30540.26
793.546	30529.86
793.879	30409.86
794.211	30280.38
794.543	30416.42
794.875	30202.19
795.207	30200.6
795.539	30067.73
795.871	30173.49
796.203	29893.72
796.535	29698.92
796.867	29761.75
797.198	29568.53
797.53	29597.91
797.862	29471.81
798.193	29434.52
798.525	29249.22
798.856	29442.43
799.188	28954.31
799.519	28933.29
799.85	28867.53
800.182	28938.26
800.513	28999.51
800.844	28615.79
801.175	28855.55
801.506	28757.03
801.837	28617.37
802.168	28474.32
802.499	28484.72
802.83	28313.42
803.161	28217.15
803.491	28231.84
803.822	28211.05
804.153	28065.07
804.483	27804.51
804.814	27803.61
805.145	27765.19
805.475	27818.07
805.805	27735.81
806.136	27698.98
806.466	27664.85
806.796	27483.84
807.126	27442.26
807.457	27354.35
807.787	27474.12
808.117	27282.71
808.447	27160.68
808.777	27341.24
809.107	27047.01
809.436	26912.33
809.766	26974.25
810.096	26962.5
810.426	26739.45
810.755	26929.5
811.085	26788.04
811.414	26765.89
811.744	26590.08
812.073	26564.77
812.403	26440.93
812.732	26347.15
813.061	26513.02
813.39	26216.3
813.719	26273.93
814.049	26417.88
814.378	26239.58
814.707	26082.75
815.036	26092.46
815.365	25964.33
815.693	25908.06
816.022	25908.29
816.351	25779.25
816.68	25763.43
817.008	25772.25
817.337	25566.6
817.665	25574.96
817.994	25537.68
818.322	25736.54
818.651	25611.12
818.979	25364.12
819.307	25418.81
819.636	25377.23
819.964	25345.82
820.292	25438.47
820.62	25303.11
820.948	25288.19
821.276	25413.16
821.604	25250.45
821.932	25471.69
822.259	25449.09
822.587	25325.25
822.915	25324.12
823.243	25381.97
823.57	25155.54
823.898	25362.77
824.225	25402.54
824.553	25329.55
824.88	25332.48
825.207	25412.03
825.535	25285.93
825.862	25434.63
826.189	25334.29
826.516	25441.41
826.843	25491.8
827.17	25465.59
827.497	25498.58
827.824	25449.54
828.151	25508.52
828.478	25341.97
828.805	25593.95
829.131	25545.36
829.458	25528.41
829.785	25319.15
830.111	25473.27
830.438	25561.4
830.764	25502.65
831.09	25610.22
831.417	25432.14
831.743	25614.06
832.069	25477.56
832.395	25342.88
832.722	25359.83
833.048	25435.53
833.374	25496.55
833.7	25308.08
834.026	25408.19
834.351	25302.43
834.677	25446.15
835.003	25429.88
835.329	25337
835.654	25331.81
835.98	25245.48
836.306	25388.75
836.631	25097.69
836.956	25436.89
837.282	25267.17
837.607	25099.27
837.932	25193.73
838.258	25094.75
838.583	25130.91
838.908	25009.1
839.233	24993.28
839.558	24911.48
839.883	24992.38
840.208	24833.97
840.533	24948.31
840.858	24887.07
841.182	24849.56
841.507	24803.91
841.832	24717.13
842.156	24757.58
842.481	24714.42
842.805	24584.48
843.13	24490.47
843.454	24519.62
843.778	24388.33
844.103	24371.38
844.427	24276.24
844.751	24348.33
845.075	24207.09
845.399	24204.15
845.723	24013.65
846.047	24155.34
846.371	23975.46
846.695	23876.93
847.019	23804.84
847.343	23682.13
847.666	23624.28
847.99	23485.3
848.313	23316.49
848.637	23358.98
848.96	23319.43
849.284	23102.26
849.607	22991.3
849.931	22948.14
850.254	22863.4
850.577	22697.98
850.9	22543.86
851.223	22667.92
851.546	22439.68
851.869	22331.21
852.192	22511.99
852.515	22169.4
852.838	22040.59
853.161	22268.38
853.483	21886.25
853.806	21887.83
854.129	21941.61
854.451	21966.7
854.774	21660.72
855.096	21665.24
855.419	21521.06
855.741	21564
856.063	21492.13
856.385	21387.28
856.708	21324.68
857.03	21260.5
857.352	21184.12
857.674	21231.35
857.996	21032.71
858.318	20939.6
858.64	21103.67
858.961	20897.12
859.283	20850.34
859.605	20734.19
859.926	20683.57
860.248	20668.2
860.57	20556.79
860.891	20578.26
861.212	20511.82
861.534	20411.48
861.855	20396.34
862.176	20377.36
862.498	20419.62
862.819	20430.01
863.14	20290.36
863.461	20223.47
863.782	20146.86
864.103	20131.49
864.424	20054.66
864.745	20147.31
865.065	19976.69
865.386	19972.17
865.707	20064.6
866.027	19869.12
866.348	19942.57
866.668	19943.02
866.989	19782.12
867.309	19649.02
867.63	19686.3
867.95	19755.23
868.27	19671.16
868.59	19711.61
868.91	19545.29
869.23	19649.7
869.55	19493.54
869.87	19620.77
870.19	19508.68
870.51	19416.71
870.83	19417.84
871.15	19367.22
871.469	19353.21
871.789	19459.19
872.109	19276.82
872.428	19231.63
872.748	19310.04
873.067	19177.62
873.386	19275.92
873.706	19108.47
874.025	19020.11
874.344	19085.64
874.663	19119.31
874.982	19018.75
875.301	18934.01
875.62	18924.97
875.939	18775.14
876.258	18951.86
876.577	18833.45
876.896	18786.22
877.214	18762.71
877.533	18758.65
877.852	18788.93
878.17	18813.78
878.489	18712.77
878.807	18616.05
879.125	18601.36
879.444	18473
879.762	18498.77
880.08	18575.37
880.398	18434.59
880.716	18473
881.034	18403.17
881.352	18448.6
881.67	18337.41
881.988	18352.33
882.306	18228.72
882.624	18280.92
882.941	18171.54
883.259	18149.62
883.577	18141.94
883.894	18019
884.212	18034.82
884.529	17992.79
884.846	17889.06
885.164	17902.17
885.481	17786.24
885.798	17900.59
886.115	17659.47
886.432	17839.57
886.75	17708.5
887.067	17748.28
887.383	17605.68
887.7	17656.75
888.017	17552.8
888.334	17521.62
888.651	17415.4
888.967	17380.83
889.284	17260.15
889.6	17317.78
889.917	17194.84
890.233	17238.69
890.55	17162.08
890.866	17074.85
891.182	17088.63
891.498	17068.29
891.815	16885.93
892.131	16946.49
892.447	16849.99
892.763	16759.83
893.079	16710.79
893.395	16627.18
893.71	16639.38
894.026	16611.58
894.342	16601.19
894.657	16447.97
894.973	16469.21
895.289	16463.11
895.604	16409.33
895.92	16225.6
896.235	16255.89
896.55	16214.08
896.865	16174.08
897.181	16104.03
897.496	16047.98
897.811	15986.97
898.126	15901.32
898.441	15920.53
898.756	15805.95
899.071	15738.39
899.386	15836.69
899.7	15584.49
900.015	15536.36
900.33	15407.77
900.644	15380.88
900.959	15408.45
901.273	15314.89
901.588	15287.32
901.902	15249.13
902.216	15200.55
902.531	15096.14
902.845	15111.74
903.159	15013.43
903.473	14967.56
903.787	14889.37
904.101	14708.58
904.415	14908.58
904.729	14737.51
905.042	14630.17
905.356	14611.41
905.67	14700.22
905.984	14654.12
906.297	14570.96
906.611	14426.1
906.924	14322.15
907.237	14360.12
907.551	14295.71
907.864	14178.43
908.177	14164.64
908.491	14144.98
908.804	14077.86
909.117	13937.98
909.43	13878.77
909.743	13867.47
910.056	13868.83
910.368	13770.98
910.681	13688.95
910.994	13695.95
911.307	13553.13
911.619	13426.36
911.932	13502.06
912.244	13374.61
912.557	13404.89
912.869	13288.51
913.181	13272.46
913.494	13216.87
913.806	13076.31
914.118	13095.29
914.43	13094.84
914.742	13011.45
915.054	12924.9
915.366	12830.89
915.678	12817.33
915.99	12769.88
916.302	12736.2
916.613	12549.77
916.925	12632.7
917.236	12554.74
917.548	12564.91
917.859	12494.63
918.171	12433.39
918.482	12370.11
918.794	12281.53
919.105	12223.22
919.416	12105.03
919.727	12168.76
920.038	12136.9
920.349	12001.76
920.66	11927.41
920.971	11912.27
921.282	11914.98
921.593	11842.44
921.903	11677.7
922.214	11755.89
922.525	11700.07
922.835	11589.12
923.146	11517.93
923.456	11472.51
923.767	11423.02
924.077	11432.51
924.387	11489.91
924.697	11389.57
925.008	11232.74
925.318	11237.49
925.628	11231.84
925.938	11186.41
926.248	10997.72
926.558	11060.54
926.867	11021
927.177	10929.92
927.487	10924.27
927.796	10786.43
928.106	10796.82
928.416	10824.84
928.725	10719.99
929.034	10707.78
929.344	10734
929.653	10658.97
929.962	10599.54
930.271	10558.41
930.581	10482.03
930.89	10397.74
931.199	10377.17
931.508	10348.47
931.817	10305.08
932.125	10283.16
932.434	10198.42
932.743	10167.46
933.051	10113.67
933.36	10084.97
933.669	10019.44
933.977	9985.54
934.286	9991.19
934.594	9845.89
934.902	9880.91
935.21	9780.8
935.519	9728.37
935.827	9778.09
936.135	9708.49
936.443	9591.43
936.751	9588.49
937.059	9561.82
937.367	9439.79
937.674	9444.31
937.982	9446.35
938.29	9423.98
938.597	9371.77
938.905	9261.04
939.213	9346.46
939.52	9248.16
939.827	9210.87
940.135	9150.31
940.442	9111.22
940.749	9070.54
941.056	9114.83
941.363	8987.15
941.67	8988.73
941.977	9004.1
942.284	8910.77
942.591	8842.75
942.898	8776.08
943.205	8814.05
943.511	8738.34
943.818	8719.36
944.125	8630.32
944.431	8614.73
944.738	8587.39
945.044	8580.83
945.35	8489.76
945.657	8454.74
945.963	8402.08
946.269	8380.39
946.575	8317.34
946.881	8334.51
947.187	8289.32
947.493	8222.65
947.799	8229.43
948.105	8159.38
948.41	8124.35
948.716	8141.98
949.022	7990.57
949.327	8052.03
949.633	7927.07
949.938	7903.34
950.244	7924.58
950.549	7882.32
950.854	7792.83
951.16	7778.82
951.465	7735.66
951.77	7713.74
952.075	7664.02
952.38	7694.3
952.685	7671.71
952.99	7542.67
953.294	7564.36
953.599	7517.58
953.904	7488.21
954.209	7451.6
954.513	7496.34
954.818	7381.09
955.122	7377.02
955.426	7331.83
955.731	7257.25
956.035	7232.62
956.339	7206.63
956.643	7234.88
956.948	7150.81
957.252	7075.79
957.556	7117.14
957.86	7027.65
958.163	7026.3
958.467	7016.13
958.771	6984.94
959.075	6968.9
959.378	6899.97
959.682	6848.22
959.985	6802.12
960.289	6819.07
960.592	6740.2
960.896	6719.87
961.199	6685.29
961.502	6656.82
961.805	6595.35
962.108	6626.08
962.411	6633.77
962.714	6594.67
963.017	6576.82
963.32	6497.05
963.623	6498.63
963.926	6443.26
964.228	6432.42
964.531	6361.01
964.833	6370.04
965.136	6344.28
965.438	6332.08
965.741	6274.45
966.043	6258.18
966.345	6214.57
966.648	6208.47
966.95	6191.74
967.252	6138.41
967.554	6126.66
967.856	6055.7
968.158	6047.79
968.46	5988.13
968.761	5999.21
969.063	5983.39
969.365	5955.59
969.666	5946.33
969.968	5891.86
970.269	5806.44
970.571	5876.95
970.872	5787.69
971.174	5787.01
971.475	5753.34
971.776	5696.84
972.077	5722.15
972.378	5675.37
972.679	5661.81
972.98	5635.83
973.281	5623.17
973.582	5552.21
973.883	5599.9
974.183	5563.96
974.484	5518.32
974.785	5436.28
975.085	5508.15
975.386	5469.96
975.686	5421.82
975.986	5403.97
976.287	5402.61
976.587	5288.04
976.887	5347.02
977.187	5305.21
977.487	5265.89
977.787	5243.52
978.087	5222.05
978.387	5171.66
978.687	5147.93
978.987	5141.6
979.286	5098.21
979.586	5112.45
979.885	5090.98
980.185	5010.98
980.484	4991.1
980.784	5020.7
981.083	4924.88
981.382	4982.28
981.682	4951.32
981.981	4909.07
982.28	4887.37
982.579	4851.89
982.878	4857.54
983.177	4823.64
983.475	4797.88
983.774	4781.84
984.073	4754.04
984.372	4714.27
984.67	4735.96
984.969	4688.73
985.267	4681.5
985.566	4641.5
985.864	4604.67
986.162	4598.34
986.461	4584.1
986.759	4552.01
987.057	4493.48
987.355	4475.86
987.653	4460.04
987.951	4408.51
988.249	4400.83
988.547	4410.1
988.844	4444.45
989.142	4363.54
989.44	4294.39
989.737	4335.97
990.035	4333.94
990.332	4292.81
990.63	4255.98
990.927	4260.04
991.224	4225.92
991.521	4236.77
991.819	4247.61
992.116	4201.29
992.413	4119.03
992.71	4119.93
993.006	4071.12
993.303	4107.05
993.6	4100.5
993.897	4105.25
994.193	4051.01
994.49	4006.94
994.787	4007.39
995.083	3951.58
995.379	3954.29
995.676	3933.95
995.972	3913.84
996.268	3893.05
996.565	3873.39
996.861	3845.36
997.157	3831.58
997.453	3784.35
997.749	3752.94
998.044	3776.21
998.34	3759.49
998.636	3727.85
998.932	3708.42
999.227	3673.62
999.523	3685.6
999.818	3660.96
1000.114	3655.77
1000.409	3593.17
1000.704	3571.25
1001	3541.42
1001.295	3540.74
1001.59	3523.34
1001.885	3486.5
1002.18	3479.72
1002.475	3473.85
1002.77	3453.51
1003.065	3397.69
1003.359	3368.54
1003.654	3397.24
1003.949	3367.41
1004.243	3317.47
1004.538	3350.01
1004.832	3304.59
1005.127	3277.7
1005.421	3272.95
1005.715	3234.53
1006.009	3262.78
1006.304	3207.87
1006.598	3203.57
1006.892	3196.34
1007.186	3160.19
1007.48	3147.3
1007.773	3132.39
1008.067	3096.68
1008.361	3068.89
1008.655	3038.38
1008.948	3022.34
1009.242	3029.79
1009.535	2992.05
1009.829	2992.28
1010.122	2933.3
1010.415	2967.42
1010.708	2918.16
1011.001	2921.1
1011.295	2898.27
1011.588	2835.9
1011.881	2849.23
1012.173	2848.56
1012.466	2811.95
1012.759	2809.23
1013.052	2787.31
1013.344	2806.07
1013.637	2773.3
1013.93	2729.01
1014.222	2724.94
1014.514	2686.53
1014.807	2684.72
1015.099	2675.9
1015.391	2687.43
1015.683	2608.79
1015.976	2635.45
1016.268	2628.22
1016.56	2607.88
1016.851	2537.38
1017.143	2532.18
1017.435	2533.99
1017.727	2479.3
1018.018	2515
1018.31	2480.66
1018.602	2435.01
1018.893	2431.84
1019.185	2405.85
1019.476	2388.23
1019.767	2396.14
1020.058	2377.83
1020.35	2341.45
1020.641	2347.1
1020.932	2333.77
1021.223	2259.64
1021.514	2278.85
1021.804	2251.06
1022.095	2259.64
1022.386	2231.85
1022.677	2202.7
1022.967	2164.28
1023.258	2191.85
1023.548	2157.73
1023.839	2172.64
1024.129	2124.28
1024.419	2131.74
1024.709	2144.39
1025	2103.26
1025.29	2096.94
1025.58	2103.94
1025.87	2040.21
1026.16	2039.54
1026.449	2021.01
1026.739	2017.16
1027.029	2018.97
1027.319	1976.49
1027.608	1970.84
1027.898	1972.19
1028.187	1944.62
1028.477	1917.05
1028.766	1912.99
1029.055	1902.59
1029.344	1889.94
1029.634	1886.55
1029.923	1872.08
1030.212	1844.51
1030.501	1835.02
1030.79	1818.75
1031.078	1787.11
1031.367	1745.53
1031.656	1790.96
1031.945	1780.79
1032.233	1774.46
1032.522	1731.3
1032.81	1716.16
1033.099	1708.25
1033.387	1716.16
1033.675	1687.23
1033.963	1684.97
1034.251	1655.14
1034.54	1640.23
1034.828	1630.06
1035.116	1606.55
1035.403	1649.04
1035.691	1611.07
1035.979	1593.67
1036.267	1575.14
1036.554	1571.98
1036.842	1564.52
1037.129	1555.03
1037.417	1545.99
1037.704	1505.31
1037.992	1505.09
1038.279	1496.73
1038.566	1518.87
1038.853	1518.87
1039.14	1518.87
