Data from 14-4516_FLMS001491_003.txt Node
Date: Thu Apr 19 16:46:57 BST 2018
User: hsy
Spectrometer: FLMS00149
Trigger mode: 0
Integration Time (sec): 1.000000E-2
Scans to average: 10
Electric dark correction enabled: true
Nonlinearity correction enabled: false
Boxcar width: 0
XAxis mode: Wavelengths
Number of Pixels in Spectrum: 2048
>>>>>Begin Spectral Data<<<<<
341.393	-23.98
341.776	-23.98
342.16	-23.98
342.543	-68.05
342.927	-75.96
343.31	-75.05
343.693	-81.16
344.077	-69.18
344.46	-53.59
344.843	-38.67
345.226	-43.87
345.61	-43.87
345.993	-27.37
346.376	-2.29
346.759	14.66
347.142	35.45
347.525	26.86
347.908	67.99
348.291	69.8
348.674	87.88
349.057	132.4
349.44	135.11
349.823	145.05
350.206	156.8
350.588	238.84
350.971	253.75
351.354	244.49
351.737	256.24
352.119	277.03
352.502	283.35
352.884	323.35
353.267	300.08
353.65	354.76
354.032	328.78
354.414	347.08
354.797	368.32
355.179	342.79
355.562	355.22
355.944	348.21
356.326	376.91
356.709	386.4
357.091	386.85
357.473	369.45
357.855	386.18
358.238	383.92
358.62	399.51
359.002	384.37
359.384	386.18
359.766	369.23
360.148	390.7
360.53	367.19
360.912	387.76
361.294	362.67
361.676	364.71
362.057	360.64
362.439	362
362.821	357.48
363.203	361.09
363.584	358.83
363.966	367.42
364.348	375.78
364.729	352.73
365.111	351.6
365.493	343.24
365.874	351.37
366.256	378.04
366.637	359.51
367.019	332.84
367.4	354.76
367.781	342.56
368.163	341.66
368.544	372.39
368.925	352.05
369.306	363.8
369.688	366.06
370.069	373.07
370.45	355.67
370.831	378.04
371.212	374.2
371.593	364.71
371.974	363.8
372.355	350.7
372.736	378.94
373.117	364.03
373.498	362.9
373.879	386.4
374.26	353.41
374.641	364.48
375.021	370.13
375.402	381.88
375.783	376.23
376.163	392.05
376.544	370.36
376.925	394.99
377.305	388.66
377.686	386.85
378.066	385.5
378.447	394.76
378.827	380.07
379.208	401.54
379.588	397.48
379.968	400.41
380.349	399.28
380.729	382.79
381.109	397.48
381.489	407.42
381.87	409.45
382.25	410.13
382.63	407.87
383.01	412.84
383.39	402.67
383.77	424.82
384.15	421.2
384.53	423.24
384.91	414.2
385.29	432.28
385.67	435.44
386.049	440.86
386.429	433.86
386.809	428.21
387.189	446.97
387.568	451.71
387.948	459.62
388.328	448.32
388.707	463.69
389.087	437.7
389.466	461.65
389.846	483.57
390.225	473.63
390.605	466.4
390.984	468.66
391.363	476.57
391.743	498.72
392.122	486.96
392.501	507.76
392.881	478.83
393.26	482.44
393.639	522.22
394.018	489.45
394.397	498.49
394.776	533.97
395.155	512.95
395.534	505.04
395.913	508.21
396.292	524.93
396.671	523.8
397.05	523.57
397.429	558.83
397.808	558.83
398.186	550.92
398.565	522.22
398.944	547.53
399.323	566.74
399.701	571.48
400.08	577.81
400.458	578.71
400.837	562.67
401.215	590.24
401.594	590.24
401.972	618.71
402.351	613.51
402.729	601.76
403.107	644.02
403.486	636.34
403.864	636.11
404.242	638.15
404.62	661.42
404.999	660.52
405.377	669.78
405.755	657.13
406.133	687.64
406.511	694.87
406.889	710.01
407.267	710.01
407.645	708.65
408.023	735.32
408.401	737.13
408.779	721.99
409.156	757.24
409.534	754.08
409.912	783.91
410.29	790.46
410.667	789.78
411.045	837.69
411.422	815.32
411.8	846.28
412.178	867.29
412.555	866.84
412.933	887.41
413.31	927.4
413.687	929.66
414.065	935.77
414.442	927.4
414.819	974.18
415.197	984.8
415.574	983.22
415.951	999.49
416.328	990.68
416.705	1006.05
417.082	1001.3
417.46	1011.24
417.837	1023.9
418.214	1068.42
418.591	1067.29
418.967	1065.25
419.344	1091.47
419.721	1082.88
420.098	1079.72
420.475	1112.94
420.852	1129.89
421.228	1129.43
421.605	1147.51
421.982	1180.05
422.358	1182.31
422.735	1210.79
423.111	1218.24
423.488	1228.64
423.864	1211.92
424.241	1282.65
424.617	1281.75
424.994	1312.71
425.37	1285.36
425.746	1309.09
426.123	1337.11
426.499	1352.03
426.875	1378.47
427.251	1386.83
427.627	1414.62
428.003	1435.19
428.379	1429.09
428.756	1442.42
429.132	1499.59
429.507	1497.79
429.883	1498.46
430.259	1550.67
430.635	1545.69
431.011	1567.39
431.387	1596.09
431.763	1587.05
432.138	1623.21
432.514	1663.43
432.89	1669.76
433.265	1741.39
433.641	1736.88
434.016	1748.4
434.392	1782.52
434.767	1816.65
435.143	1822.97
435.518	1831.34
435.894	1858.68
436.269	1933.25
436.644	1930.54
437.02	1943.2
437.395	1962.18
437.77	1991.33
438.145	2034.27
438.52	2039.24
438.895	2060.03
439.271	2056.19
439.646	2127.6
440.021	2136.19
440.395	2182.29
440.77	2174.83
441.145	2175.73
441.52	2203.53
441.895	2225.22
442.27	2275.62
442.645	2260.25
443.019	2270.42
443.394	2309.06
443.769	2338.44
444.143	2314.94
444.518	2314.94
444.892	2324.66
445.267	2362.85
445.641	2420.25
446.016	2425.44
446.39	2437.2
446.764	2448.49
447.139	2421.15
447.513	2476.06
447.887	2471.09
448.262	2508.15
448.636	2490.3
449.01	2569.17
449.384	2545.67
449.758	2629.06
450.132	2623.86
450.506	2664.76
450.88	2672.67
451.254	2679.68
451.628	2732.56
452.002	2777.75
452.376	2785.66
452.75	2813.91
453.123	2830.86
453.497	2908.37
453.871	2875.83
454.244	2927.35
454.618	2956.96
454.992	3024.3
455.365	3083.05
455.739	3146.1
456.112	3124.86
456.486	3192.43
456.859	3196.95
457.232	3333.67
457.606	3309.26
457.979	3362.14
458.352	3399.2
458.725	3443.72
459.099	3492.54
459.472	3525.98
459.845	3581.8
460.218	3632.64
460.591	3655.69
460.964	3663.6
461.337	3734.79
461.71	3838.29
462.083	3854.33
462.456	3911.06
462.829	3930.49
463.201	3989.7
463.574	4005.06
463.947	4050.26
464.32	4107.21
464.692	4180.2
465.065	4222.01
465.438	4282.8
465.81	4347.65
466.183	4355.79
466.555	4428.33
466.928	4507.65
467.3	4469.23
467.672	4532.51
468.045	4655.89
468.417	4690.47
468.789	4715.78
469.161	4745.16
469.534	4806.63
469.906	4942.67
470.278	5008.2
470.65	5002.33
471.022	5100.85
471.394	5162.55
471.766	5273.51
472.138	5260.85
472.51	5383.33
472.882	5503.78
473.253	5498.58
473.625	5613.16
473.997	5748.75
474.369	5769.31
474.74	5869.2
475.112	5945.58
475.484	6041.39
475.855	6142.86
476.227	6260.6
476.598	6395.06
476.97	6383.76
477.341	6560.93
477.713	6681.38
478.084	6699.91
478.455	6952.11
478.827	6932.67
479.198	7171.76
479.569	7155.72
479.94	7384.64
480.311	7501.7
480.682	7594.57
481.053	7767.23
481.424	7917.96
481.795	8006.77
482.166	8114.56
482.537	8233.88
482.908	8416.7
483.279	8548.22
483.65	8710.7
484.021	8855.56
484.391	8952.5
484.762	9055.78
485.133	9222.78
485.503	9376.67
485.874	9596.78
486.244	9637.91
486.615	9909.09
486.985	9987.05
487.356	10203.55
487.726	10304.11
488.097	10546.59
488.467	10604.89
488.837	10884.66
489.207	11024.09
489.578	11215.04
489.948	11347.47
490.318	11514.02
490.688	11638.54
491.058	11815.25
491.428	12094.79
491.798	12172.31
492.168	12429.02
492.538	12479.87
492.908	12722.12
493.278	12976.13
493.648	13019.06
494.017	13176.12
494.387	13260.41
494.757	13483.91
495.126	13677.13
495.496	13723.23
495.866	13869.44
496.235	14118.02
496.605	14230.56
496.974	14324.34
497.344	14556.65
497.713	14715.52
498.082	14775.18
498.452	14931.1
498.821	15106.02
499.19	15161.16
499.559	15337.87
499.928	15449.06
500.298	15609.96
500.667	15795.71
501.036	15879.55
501.405	16073.9
501.774	16069.61
502.143	16256.49
502.512	16377.85
502.88	16634.79
503.249	16611.74
503.618	16757.5
503.987	16829.36
504.356	17071.39
504.724	17222.8
505.093	17253.08
505.462	17357.03
505.83	17527.65
506.199	17684.7
506.567	17919.27
506.936	17963.34
507.304	18176.67
507.672	18238.14
508.041	18278.36
508.409	18505.7
508.777	18677.9
509.145	18734.62
509.514	18709.31
509.882	19028.62
510.25	19035.4
510.618	19234.95
510.986	19226.81
511.354	19454.38
511.722	19627.48
512.09	19756.97
512.458	19736.85
512.826	19994.7
513.193	20057.07
513.561	20180.23
513.929	20261.81
514.297	20443.28
514.664	20505.65
515.032	20608.24
515.4	20878.29
515.767	20780.22
516.135	21045.75
516.502	20919.2
516.869	21255.91
517.237	21377.71
517.604	21233.99
517.972	21659.97
518.339	21659.29
518.706	21707.88
519.073	21956.23
519.44	21932.95
519.808	22216.11
520.175	22134.98
520.542	22432.38
520.909	22528.87
521.276	22556.21
521.643	22819.71
522.009	22864.91
522.376	23035.52
522.743	23077.78
523.11	23314.39
523.477	23493.82
523.843	23626.24
524.21	23803.19
524.577	23991.43
524.943	24089.51
525.31	24129.28
525.676	24287.47
526.043	24624.41
526.409	24639.78
526.776	24796.83
527.142	24876.83
527.508	24929.26
527.874	25036.83
528.241	25282.7
528.607	25247.67
528.973	25527.89
529.339	25476.82
529.705	25722.23
530.071	25804.72
530.437	25975.11
530.803	25823.47
531.169	26067.76
531.535	26006.07
531.901	26140.53
532.267	26142.34
532.632	26387.07
532.998	26373.06
533.364	26580.74
533.73	26526.28
534.095	26824.8
534.461	26764.69
534.826	26754.52
535.192	26875.42
535.557	26996.55
535.923	26904.58
536.288	26956.1
536.653	26909.77
537.019	26966.72
537.384	27007.85
537.749	27030.22
538.114	26977.57
538.479	27103.21
538.845	27033.84
539.21	26957.91
539.575	27020.05
539.94	27096.43
540.305	27229.09
540.67	27112.93
541.034	27187.73
541.399	27098.47
541.764	27165.36
542.129	27170.1
542.494	27207.39
542.858	27267.96
543.223	27000.39
543.587	27262.08
543.952	27077.68
544.316	27179.6
544.681	27005.82
545.045	27135.3
545.41	27261.4
545.774	26986.15
546.138	27045.59
546.503	27087.62
546.867	27022.54
547.231	27117.68
547.595	27079.03
547.959	27221.18
548.324	27077.68
548.688	27069.77
549.052	27060.5
549.416	27107.51
549.779	27049.66
550.143	27025.7
550.507	27064.57
550.871	27039.26
551.235	27064.34
551.599	27152.25
551.962	27155.87
552.326	26947.74
552.689	27186.15
553.053	26883.11
553.417	26990
553.78	27196.77
554.143	27148.86
554.507	27081.97
554.87	27124.91
555.234	27282.64
555.597	26924.01
555.96	27069.32
556.323	27108.19
556.686	27082.42
557.05	27161.07
557.413	27060.05
557.776	27059.83
558.139	27215.98
558.502	27076.77
558.865	27160.39
559.228	27293.94
559.59	27272.02
559.953	27266.15
560.316	27389.53
560.679	27232.25
561.041	27401.06
561.404	27491.45
561.767	27629.75
562.129	27564.44
562.492	27619.36
562.854	27634.5
563.217	27645.8
563.579	27755.85
563.941	27756.08
564.304	27859.58
564.666	27930.76
565.028	27870.43
565.39	28007.14
565.753	28223.86
566.115	28022.06
566.477	28182.73
566.839	28244.88
567.201	28305.44
567.563	28298.89
567.925	28421.37
568.287	28364.65
568.648	28484.65
569.01	28522.39
569.372	28707.24
569.734	28688.26
570.095	28659.78
570.457	28943.39
570.819	28860
571.18	28891.42
571.542	29051.41
571.903	29014.35
572.265	29180.22
572.626	29280.56
572.987	29034.69
573.349	29317.84
573.71	29316.04
574.071	29405.07
574.432	29401.91
574.794	29634.22
575.155	29461.34
575.516	29433.32
575.877	29633.77
576.238	29560.78
576.599	29690.94
576.96	29635.58
577.32	29719.87
577.681	29869.69
578.042	29844.16
578.403	29739.53
578.763	29785.4
579.124	29856.14
579.485	30043.48
579.845	30119.18
580.206	30049.8
580.566	30089.58
580.927	29972.97
581.287	30080.31
581.648	29987.66
582.008	30169.35
582.368	30134.77
582.728	30260.42
583.089	30159.4
583.449	30138.61
583.809	30217.93
584.169	30231.95
584.529	30190.82
584.889	30456.12
585.249	30259.52
585.609	30096.13
585.969	30296.35
586.329	30217.26
586.688	30280.08
587.048	30280.98
587.408	30201.44
587.768	30305.39
588.127	30223.13
588.487	30184.04
588.846	30554.87
589.206	30186.07
589.565	30204.6
589.925	30400.75
590.284	30283.7
590.643	30412.96
591.003	30328.67
591.362	30455.44
591.721	30434.88
592.08	30385.84
592.44	30571.15
592.799	30420.87
593.158	30526.17
593.517	30453.18
593.876	30523.24
594.235	30492.96
594.593	30321.43
594.952	30618.83
595.311	30442.56
595.67	30502.67
596.029	30747.64
596.387	30619.05
596.746	30753.51
597.104	30527.53
597.463	30438.27
597.822	30830.8
598.18	30631.03
598.538	30574.99
598.897	30788.54
599.255	30591.26
599.613	31010
599.972	30661.54
600.33	30734.53
600.688	30697.47
601.046	30831.03
601.404	30965.49
601.762	30976.56
602.12	31071.92
602.478	31145.14
602.836	31043
603.194	30838.26
603.552	31080.28
603.91	30942.89
604.268	31120.28
604.625	31010.23
604.983	31084.8
605.341	30928.42
605.698	31181.98
606.056	31276.44
606.413	31121.64
606.771	31269.43
607.128	31303.56
607.485	31170.9
607.843	31255.65
608.2	31371.8
608.557	31401.41
608.914	31223.56
609.272	31522.76
609.629	31660.83
609.986	31766.37
610.343	31619.25
610.7	31840.04
611.057	31773.15
611.414	31763.88
611.771	31880.94
612.127	32013.14
612.484	31981.96
612.841	32064.67
613.198	31970.88
613.554	31933.6
613.911	32265.34
614.267	32211.33
614.624	32195.06
614.98	32301.5
615.337	32488.16
615.693	32418.78
616.05	32458.33
616.406	32677.08
616.762	32477.31
617.118	32554.14
617.475	32507.59
617.831	32780.13
618.187	32797.53
618.543	32816.96
618.899	32887.24
619.255	32762.5
619.611	32826
619.967	33077.97
620.323	33056.96
620.678	32974.7
621.034	32959.78
621.39	32969.95
621.746	32917.07
622.101	33361.81
622.457	32990.97
622.812	33216.73
623.168	33301.92
623.523	33314.8
623.879	33380.34
624.234	33133.56
624.589	33282.49
624.945	33278.64
625.3	33505.08
625.655	33282.26
626.01	33410.84
626.365	33487.68
626.72	33404.74
627.075	33356.16
627.43	33481.58
627.785	33323.84
628.14	33449.26
628.495	33432.31
628.85	33262.15
629.205	33144.19
629.559	33467.79
629.914	33229.15
630.269	33294.69
630.623	33136.28
630.978	33036.17
631.332	33285.65
631.687	33200
632.041	33128.37
632.396	33131.53
632.75	33045.43
633.104	33081.14
633.459	32910.97
633.813	33026.22
634.167	32881.59
634.521	32964.98
634.875	32931.08
635.229	32882.5
635.583	32823.52
635.937	32715.95
636.291	32861.48
636.645	32764.99
636.999	32524.31
637.352	32761.37
637.706	32614.26
638.06	32643.63
638.413	32674.59
638.767	32452
639.121	32634.14
639.474	32366.58
639.828	32521.15
640.181	32335.39
640.534	32416.29
640.888	32293.13
641.241	32166.81
641.594	32273.25
641.947	32358.67
642.301	32142.18
642.654	32163.87
643.007	32165.91
643.36	32235.06
643.713	32172.23
644.066	32245.23
644.419	32105.12
644.771	31809.3
645.124	31498.13
645.477	31535.19
645.83	31380.84
646.182	31312.14
646.535	31374.06
646.888	31435.53
647.24	31326.83
647.593	31524.11
647.945	31402.99
648.298	31238.02
648.65	31226.04
649.002	31028.76
649.355	31241.86
649.707	30898.14
650.059	31005.94
650.411	31424.68
650.763	31580.38
651.115	32119.13
651.467	32063.08
651.819	31954.61
652.171	31912.58
652.523	31861.28
652.875	31859.47
653.227	31830.55
653.578	32111.22
653.93	32038.68
654.282	31985.35
654.633	31809.3
654.985	32097.43
655.337	32099.47
655.688	32128.84
656.039	32156.19
656.391	31778.8
656.742	31991.45
657.094	32011.56
657.445	32005.23
657.796	32206.81
658.147	31996.19
658.498	32068.51
658.849	32132.91
659.2	31941.05
659.551	31901.96
659.902	32146.92
660.253	32120.03
660.604	32096.53
660.955	32099.69
661.306	32320.03
661.656	32186.02
662.007	32131.33
662.358	32316.86
662.708	32383.75
663.059	32191.44
663.409	32091.33
663.76	32352.57
664.11	32303.08
664.461	32402.74
664.811	32536.52
665.161	32412.23
665.511	32437.31
665.862	32452.45
666.212	32517.99
666.562	32490.19
666.912	32438.89
667.262	32359.12
667.612	32441.6
667.962	32481.83
668.312	32398.89
668.662	32478.44
669.011	32490.64
669.361	32391.89
669.711	32301.04
670.06	32451.1
670.41	32311.21
670.76	32224.66
671.109	32412.23
671.459	32346.24
671.808	32340.82
672.157	32424.43
672.507	32248.16
672.856	32299.46
673.205	32397.09
673.554	32266.24
673.904	32192.12
674.253	32496.29
674.602	32283.87
674.951	31874.16
675.3	31762.98
675.649	32310.08
675.998	32104.44
676.346	32199.58
676.695	32266.02
677.044	32034.16
677.393	32066.7
677.741	32123.19
678.09	31987.15
678.438	31888.85
678.787	32003.2
679.135	31940.15
679.484	31855.86
679.832	31906.93
680.181	31785.8
680.529	31850.66
680.877	31640.95
681.225	31628.52
681.573	31841.17
681.922	31577.67
682.27	31522.31
682.618	31493.15
682.966	31385.14
683.314	31307.62
683.661	31270.34
684.009	31223.56
684.357	31180.85
684.705	31072.38
685.053	31034.64
685.4	30852.49
685.748	30909.89
686.095	30807.52
686.443	30644.36
686.79	30586.29
687.138	30644.59
687.485	30532.5
687.832	30290.93
688.18	30429.23
688.527	30280.53
688.874	30146.07
689.221	30189.46
689.568	29947.66
689.915	29901.56
690.262	29918.28
690.609	29820.2
690.956	29615.01
691.303	29532.3
691.65	29486.43
691.997	29345.87
692.344	29196.04
692.69	29080.79
693.037	29155.14
693.383	28854.58
693.73	28990.17
694.077	28848.25
694.423	28803.73
694.769	28570.29
695.116	28523.74
695.462	28441.03
695.808	28293.24
696.155	28330.75
696.501	28020.7
696.847	28108.84
697.193	27893.7
697.539	27756.08
697.885	27662.52
698.231	27539.13
698.577	27391.34
698.923	27533.71
699.269	27225.24
699.614	27154.74
699.96	27009.88
700.306	26919.72
700.651	26872.03
700.997	26564.02
701.342	26650.8
701.688	26549.78
702.033	26421.2
702.379	26357.24
702.724	26204.48
703.069	26213.29
703.415	25950.93
703.76	25946.41
704.105	25849.24
704.45	25855.56
704.795	25699.18
705.14	25603.14
705.485	25514.1
705.83	25342.81
706.175	25536.02
706.52	25231.4
706.865	25209.48
707.209	25147.56
707.554	25075.92
707.899	24934.01
708.243	24864.18
708.588	24888.58
708.932	24626.22
709.277	24759.09
709.621	24583.73
709.966	24424.41
710.31	24384.87
710.654	24328.37
710.998	24238.43
711.342	24374.92
711.687	24189.39
712.031	24132.67
712.375	23988.49
712.719	24095.84
713.063	23887.93
713.407	24080.92
713.75	23931.77
714.094	23831.89
714.438	23866.46
714.782	23888.38
715.125	23736.75
715.469	23837.31
715.812	23706.02
716.156	23638.9
716.499	23617.43
716.843	23667.37
717.186	23540.37
717.53	23566.58
717.873	23587.15
718.216	23544.66
718.559	23450.88
718.902	23467.38
719.246	23564.32
719.589	23429.86
719.932	23365.69
720.275	23481.39
720.617	23452.24
720.96	23351
721.303	23385.12
721.646	23406.81
721.989	23238.46
722.331	23420.37
722.674	23292.24
723.016	23397.1
723.359	23247.04
723.701	23393.03
724.044	23209.98
724.386	23204.56
724.729	23339.02
725.071	23373.59
725.413	23386.25
725.755	23289.08
726.097	23294.27
726.439	23193.94
726.782	23243.43
727.124	23371.79
727.465	23296.08
727.807	23211.34
728.149	23336.99
728.491	23353.71
728.833	23309.19
729.175	23331.56
729.516	23358
729.858	23306.48
730.199	23460.82
730.541	23420.82
730.882	23363.2
731.224	23563.19
731.565	23405.91
731.906	23429.86
732.248	23569.3
732.589	23478.22
732.93	23480.94
733.271	23571.56
733.612	23617.2
733.953	23715.73
734.294	23640.48
734.635	23536.3
734.976	23751.21
735.317	23706.92
735.658	23619.24
735.999	23730.2
736.339	23722.06
736.68	23856.97
737.021	23853.58
737.361	23773.81
737.702	24057.19
738.042	23867.37
738.383	23928.16
738.723	24159.56
739.063	24101.94
739.404	24334.47
739.744	24324.53
740.084	24353.68
740.424	24434.58
740.764	24333.34
741.104	24644.07
741.444	24486.79
741.784	24507.12
742.124	24787.12
742.464	24788.25
742.804	24971.52
743.143	24945.98
743.483	25091.97
743.823	25136.71
744.162	25206.09
744.502	25330.38
744.841	25359.53
745.181	25637.26
745.52	25626.19
745.86	25743.7
746.199	25830.48
746.538	26007.88
746.877	26305.27
747.216	26365.38
747.556	26439.95
747.895	26608.76
748.234	26736.22
748.573	26793.17
748.911	26875.42
749.25	27061.18
749.589	27143.89
749.928	27506.59
750.267	27609.87
750.605	27667.72
750.944	27991.55
751.283	28022.51
751.621	28296.85
751.96	28323.07
752.298	28592.67
752.636	28715.6
752.975	28863.17
753.313	29034.24
753.651	29475.58
753.989	29446.2
754.327	29700.66
754.666	29602.13
755.004	30036.7
755.342	30219.97
755.679	30545.38
756.017	30455.89
756.355	30868.31
756.693	30862.44
757.031	31231.69
757.368	31255.42
757.706	31511.01
758.044	31619.03
758.381	31846.37
758.719	31976.08
759.056	32181.27
759.394	32334.71
759.731	32180.59
760.068	32523.18
760.405	32634.59
760.743	32876.4
761.08	33000.91
761.417	33091.53
761.754	33179.89
762.091	33441.8
762.428	33355.25
762.765	33389.38
763.102	33700.78
763.438	33806.31
763.775	33706.88
764.112	33975.35
764.449	34079.3
764.785	34296.7
765.122	34209.24
765.458	34251.73
765.795	34327.88
766.131	34465.96
766.467	34526.07
766.804	34459.86
767.14	34467.09
767.476	34685.39
767.812	34723.8
768.148	34818.72
768.485	34766.06
768.821	34693.75
769.157	34627.54
769.492	34717.93
769.828	34878.83
770.164	34652.85
770.5	34609.23
770.836	34735.78
771.171	34758.61
771.507	34732.84
771.842	34615.11
772.178	34710.02
772.513	34668.66
772.849	34656.46
773.184	34798.15
773.519	34750.7
773.855	34504.38
774.19	34531.95
774.525	34491.04
774.86	34410.14
775.195	34438.84
775.53	34505.73
775.865	34192.29
776.2	34133.09
776.535	33938.97
776.87	34135.8
777.205	33907.1
777.539	33939.87
777.874	34071.62
778.209	33780.1
778.543	33876.14
778.878	33685.19
779.212	33594.57
779.547	33410.84
779.881	33555.25
780.215	33348.02
780.55	33468.92
780.884	33164.07
781.218	33103.96
781.552	33328.36
781.886	32975.6
782.22	33078.2
782.554	32843.85
782.888	32675.95
783.222	32535.61
783.556	32482.51
783.889	32419.01
784.223	32273.93
784.557	32244.55
784.89	32287.03
785.224	32086.81
785.557	32042.52
785.891	32032.12
786.224	31882.07
786.558	31930.21
786.891	31729.08
787.224	31500.39
787.557	31382.88
787.891	31315.98
788.224	31179.49
788.557	31222.2
788.89	31243.44
789.223	31036.44
789.556	30977.69
789.888	30894.98
790.221	30720.07
790.554	30654.76
790.887	30645.27
791.219	30559.39
791.552	30581.31
791.884	30419.28
792.217	30264.94
792.549	30211.61
792.882	29951.27
793.214	29966.19
793.546	29946.75
793.879	29746.76
794.211	29589.02
794.543	29791.05
794.875	29722.58
795.207	29719.42
795.539	29533.21
795.871	29579.98
796.203	29461.57
796.535	29169.6
796.867	29224.51
797.198	28927.57
797.53	29076.27
797.862	28838.31
798.193	28841.93
798.525	28673.34
798.856	28784.07
799.188	28334.59
799.519	28426.57
799.85	28509.96
800.182	28299.11
800.513	28460.69
800.844	28042.17
801.175	28293.24
801.506	28190.19
801.837	27987.26
802.168	27861.16
802.499	27956.52
802.83	27760.82
803.161	27648.28
803.491	27692.58
803.822	27675.85
804.153	27422.75
804.483	27386.6
804.814	27209.88
805.145	27409.65
805.475	27296.66
805.805	27164.68
806.136	27162.65
806.466	26973.95
806.796	27016.66
807.126	26853.28
807.457	26865.48
807.787	26821.19
808.117	26758.14
808.447	26727.86
808.777	26807.63
809.107	26604.24
809.436	26361.31
809.766	26427.3
810.096	26445.83
810.426	26254.65
810.755	26311.6
811.085	26219.4
811.414	26250.13
811.744	26019.63
812.073	26075.22
812.403	25977.59
812.732	25820.31
813.061	26087.87
813.39	25753.19
813.719	25830.25
814.049	25904.6
814.378	25773.98
814.707	25606.98
815.036	25714.78
815.365	25397.04
815.693	25442.24
816.022	25381.9
816.351	25308.01
816.68	25205.64
817.008	25287.22
817.337	25106.88
817.665	25133.32
817.994	25169.93
818.322	25182.13
818.651	24961.12
818.979	25016.72
819.307	25026.66
819.636	24826.89
819.964	24826.89
820.292	24900.11
820.62	24812.2
820.948	24833.67
821.276	24930.62
821.604	24796.16
821.932	24932.65
822.259	24877.96
822.587	24778.98
822.915	24758.42
823.243	24927
823.57	24715.71
823.898	24872.31
824.225	24747.12
824.553	24889.71
824.88	24749.15
825.207	24903.5
825.535	24696.05
825.862	24960.22
826.189	24878.41
826.516	24998.18
826.843	25071.4
827.17	25021.23
827.497	24967.9
827.824	24978.98
828.151	25033.89
828.478	24828.47
828.805	25072.98
829.131	25010.84
829.458	25007.9
829.785	24800.22
830.111	24941.46
830.438	25034.12
830.764	24949.82
831.09	24968.35
831.417	24873.89
831.743	25022.14
832.069	25041.8
832.395	24919.99
832.722	24960.45
833.048	24881.58
833.374	24856.04
833.7	24788.25
834.026	25028.47
834.351	24920.9
834.677	24871.18
835.003	24927.9
835.329	24920.9
835.654	24828.47
835.98	24700.79
836.306	24834.12
836.631	24706.67
836.956	24843.39
837.282	24878.19
837.607	24720.68
837.932	24680.9
838.258	24692.43
838.583	24623.28
838.908	24522.26
839.233	24605.2
839.558	24451.31
839.883	24385.09
840.208	24324.08
840.533	24513.45
840.858	24419.22
841.182	24420.12
841.507	24397.3
841.832	24226.45
842.156	24262.61
842.481	24309.84
842.805	24134.25
843.13	24075.5
843.454	24008.38
843.778	23982.84
844.103	23968.38
844.427	23884.77
844.751	23729.07
845.075	23817.42
845.399	23768.39
845.723	23740.14
846.047	23590.31
846.371	23472.8
846.695	23423.31
847.019	23372.24
847.343	23168.63
847.666	23111.45
847.99	23038.24
848.313	22876.88
848.637	22907.84
848.96	22861.07
849.284	22859.71
849.607	22589.43
849.931	22660.62
850.254	22444.58
850.577	22275.54
850.9	22110.12
851.223	22153.97
851.546	22199.39
851.869	21839.62
852.192	22160.74
852.515	21851.83
852.838	21700.87
853.161	21749.23
853.483	21490.48
853.806	21619.29
854.129	21576.13
854.451	21377.49
854.774	21389.69
855.096	21360.77
855.419	21251.16
855.741	21159.87
856.063	20991.06
856.385	21029.93
856.708	20955.13
857.03	20852.53
857.352	20746.77
857.674	20759.43
857.996	20634.46
858.318	20557.17
858.64	20608.47
858.961	20660.45
859.283	20481.24
859.605	20407.57
859.926	20498.42
860.248	20336.84
860.57	20280.34
860.891	20266.78
861.212	20187.92
861.534	20074.02
861.855	20015.72
862.176	20052.55
862.498	20105.88
862.819	19977.07
863.14	19941.59
863.461	19881.26
863.782	19873.35
864.103	19882.16
864.424	19803.52
864.745	19799.23
865.065	19605.11
865.386	19679.23
865.707	19674.03
866.027	19635.39
866.348	19532.57
866.668	19559.01
866.989	19485.79
867.309	19389.52
867.63	19458.67
867.95	19446.01
868.27	19280.59
868.59	19423.87
868.91	19323.98
869.23	19285.11
869.55	19144.1
869.87	19206.92
870.19	19131.9
870.51	19179.58
870.83	19218.22
871.15	19024.33
871.469	19029.08
871.789	19072.01
872.109	19026.36
872.428	18967.61
872.748	18965.35
873.067	18956.31
873.386	18978.23
873.706	18930.77
874.025	18741.63
874.344	18714.73
874.663	18839.25
874.982	18697.79
875.301	18632.7
875.62	18639.48
875.939	18547.73
876.258	18666.6
876.577	18555.42
876.896	18526.94
877.214	18479.03
877.533	18509.99
877.852	18456.44
878.17	18400.39
878.489	18436.1
878.807	18330.11
879.125	18317.91
879.444	18288.3
879.762	18168.53
880.08	18337.12
880.398	18162.43
880.716	18059.84
881.034	18136.9
881.352	18085.82
881.67	17980.29
881.988	18009.89
882.306	17947.3
882.624	17908.65
882.941	17890.12
883.259	17807.41
883.577	17898.26
883.894	17757.24
884.212	17590.47
884.529	17726.74
884.846	17514.54
885.164	17610.36
885.481	17640.41
885.798	17498.04
886.115	17462.79
886.432	17500.53
886.75	17460.53
887.067	17397.25
887.383	17357.93
887.7	17323.58
888.017	17121.33
888.334	17157.71
888.651	17089.69
888.967	17112.29
889.284	17068.68
889.6	16937.15
889.917	16955.01
890.233	16965.18
890.55	16952.29
890.866	16760.66
891.182	16794.56
891.498	16733.77
891.815	16570.38
892.131	16540.55
892.447	16511.63
892.763	16501.01
893.079	16519.99
893.395	16489.71
893.71	16387.34
894.026	16254.46
894.342	16238.87
894.657	16155.93
894.973	16184.18
895.289	16168.13
895.604	16073
895.92	16028.48
896.235	15999.1
896.55	15887.24
896.865	15829.61
897.181	15766.34
897.496	15923.85
897.811	15716.62
898.126	15609.28
898.441	15599.79
898.756	15545.78
899.071	15567.92
899.386	15477.76
899.7	15353.92
900.015	15284.32
900.33	15123.42
900.644	15131.1
900.959	15128.84
901.273	15081.16
901.588	15077.99
901.902	15027.6
902.216	14939.47
902.531	14846.81
902.845	14780.83
903.159	14746.7
903.473	14675.29
903.787	14656.31
904.101	14605.24
904.415	14569.53
904.729	14531.57
905.042	14466.71
905.356	14341.29
905.67	14316.43
905.984	14375.86
906.297	14304.68
906.611	14125.02
906.924	14141.29
907.237	14100.84
907.551	14057
907.864	14017.68
908.177	13940.17
908.491	13885.93
908.804	13720.29
909.117	13668.09
909.43	13650.91
909.743	13629.9
910.056	13598.48
910.368	13573.63
910.681	13443.01
910.994	13436.45
911.307	13342.45
911.619	13267.42
911.932	13317.36
912.244	13157.59
912.557	13124.6
912.869	13008.44
913.181	13016.13
913.494	13039.85
913.806	12900.42
914.118	12815.45
914.43	12800.77
914.742	12761.9
915.054	12682.35
915.366	12684.16
915.678	12608.45
915.99	12547.44
916.302	12495.46
916.613	12409.59
916.925	12410.04
917.236	12334.56
917.548	12286.88
917.859	12288.24
918.171	12141.8
918.482	12050.5
918.794	12021.12
919.105	12051.18
919.416	11995.14
919.727	11857.97
920.038	11885.76
920.349	11801.47
920.66	11752.88
920.971	11761.92
921.282	11711.3
921.593	11595.37
921.903	11555.15
922.214	11588.37
922.525	11477.41
922.835	11478.77
923.146	11392.89
923.456	11294.14
923.767	11277.42
924.077	11251.65
924.387	11212.56
924.697	11155.61
925.008	11167.81
925.318	11041.94
925.628	11083.97
925.938	11037.65
926.248	10916.97
926.558	10867.93
926.867	10821.38
927.177	10798.56
927.487	10737.54
927.796	10623.87
928.106	10670.2
928.416	10595.17
928.725	10582.97
929.034	10551.56
929.344	10471.56
929.653	10460.71
929.962	10354.28
930.271	10329.87
930.581	10315.86
930.89	10238.57
931.199	10219.59
931.508	10192.92
931.817	10170.78
932.125	9999.93
932.434	10016.21
932.743	9981.18
933.051	9909.99
933.36	9917.45
933.669	9774.4
933.977	9779.15
934.286	9710.22
934.594	9694.63
934.902	9652.15
935.21	9632.26
935.519	9653.28
935.827	9576.9
936.135	9544.81
936.443	9403.34
936.751	9421.87
937.059	9432.27
937.367	9318.37
937.674	9303.68
937.982	9266.17
938.29	9222.78
938.597	9244.02
938.905	9142.78
939.213	9129.22
939.52	9039.06
939.827	9098.04
940.135	9027.31
940.442	8954.09
940.749	8948.21
941.056	8951.37
941.363	8851.94
941.67	8810.14
941.977	8810.36
942.284	8642.23
942.591	8705.51
942.898	8748.89
943.205	8634.77
943.511	8615.79
943.818	8614.89
944.125	8452.63
944.431	8437.49
944.738	8451.95
945.044	8371.05
945.35	8337.83
945.657	8308
945.963	8319.3
946.269	8263.48
946.575	8272.3
946.881	8157.72
947.187	8190.49
947.493	8105.3
947.799	8028.24
948.105	7982.59
948.41	7941.23
948.716	7960.89
949.022	7930.61
949.327	7830.95
949.633	7792.31
949.938	7779.88
950.244	7766.32
950.549	7712.99
950.854	7648.58
951.16	7704.85
951.465	7648.81
951.77	7653.33
952.075	7607.23
952.38	7543.05
952.685	7466.67
952.99	7405.2
953.294	7461.47
953.599	7400.68
953.904	7344.19
954.209	7352.32
954.513	7331.08
954.818	7296.05
955.122	7260.35
955.426	7211.08
955.731	7133.34
956.035	7146.45
956.339	7065.55
956.643	7068.03
956.948	6961.6
957.252	7031.43
957.556	7000.24
957.86	6979.68
958.163	6985.55
958.467	6897.64
958.771	6877.98
959.075	6894.25
959.378	6760.02
959.682	6772.22
959.985	6727.7
960.289	6709.85
960.592	6642.06
960.896	6621.04
961.199	6576.97
961.502	6574.94
961.805	6565
962.108	6498.56
962.411	6533.13
962.714	6451.78
963.017	6445.45
963.32	6429.41
963.623	6421.95
963.926	6358.45
964.228	6308.51
964.531	6259.24
964.833	6281.61
965.136	6203.2
965.438	6214.5
965.741	6161.62
966.043	6197.1
966.345	6053.6
966.648	6061.96
966.95	6067.16
967.252	6041.39
967.554	6062.19
967.856	6000.27
968.158	5965.69
968.46	5974.96
968.761	5888.4
969.063	5870.78
969.365	5872.13
969.666	5873.94
969.968	5770.89
970.269	5728.18
970.571	5744.68
970.872	5715.75
971.174	5655.87
971.475	5658.13
971.776	5691.12
972.077	5666.26
972.378	5578.36
972.679	5558.47
972.98	5584.01
973.281	5506.04
973.582	5529.09
973.883	5485.03
974.183	5459.94
974.484	5413.61
974.785	5367.29
975.085	5401.41
975.386	5364.58
975.686	5292.49
975.986	5294.52
976.287	5299.72
976.587	5240.96
976.887	5240.74
977.187	5225.6
977.487	5239.61
977.787	5166.39
978.087	5121.87
978.387	5070.8
978.687	5121.19
978.987	5078.48
979.286	5066.73
979.586	5046.17
979.885	4939.95
980.185	4957.13
980.484	4871.26
980.784	4923.23
981.083	4896.79
981.382	4862.44
981.682	4855.21
981.981	4822.67
982.28	4828.09
982.579	4785.61
982.878	4816.79
983.177	4713.97
983.475	4721.2
983.774	4644.37
984.073	4720.75
984.372	4626.52
984.67	4635.1
984.969	4626.52
985.267	4582.9
985.566	4563.47
985.864	4553.52
986.162	4521.89
986.461	4484.15
986.759	4468.78
987.057	4419.74
987.355	4404.38
987.653	4401.44
987.951	4443.02
988.249	4407.77
988.547	4367.31
988.844	4351.04
989.142	4319.41
989.44	4308.11
989.737	4247.32
990.035	4202.12
990.332	4252.74
990.63	4223.59
990.927	4137.49
991.224	4198.96
991.521	4139.3
991.819	4121.67
992.116	4116.7
992.413	4088.68
992.71	4068.57
993.006	4044.39
993.303	4016.82
993.6	4068.57
993.897	4001
994.193	3994.44
994.49	3927.78
994.787	3886.2
995.083	3906.08
995.379	3895.69
995.676	3846.42
995.972	3870.15
996.268	3844.16
996.565	3784.96
996.861	3829.25
997.157	3814.79
997.453	3746.77
997.749	3688.91
998.044	3727.56
998.34	3666.77
998.636	3678.07
998.932	3663.6
999.227	3621.35
999.523	3629.71
999.818	3568.24
1000.114	3579.54
1000.409	3529.82
1000.704	3535.47
1001	3472.65
1001.295	3464.29
1001.59	3478.07
1001.885	3479.65
1002.18	3408.24
1002.475	3393.1
1002.77	3439.43
1003.065	3409.15
1003.359	3357.4
1003.654	3356.27
1003.949	3302.71
1004.243	3275.59
1004.538	3257.74
1004.832	3276.72
1005.127	3253.22
1005.421	3201.02
1005.715	3210.06
1006.009	3214.35
1006.304	3142.49
1006.598	3121.02
1006.892	3098.2
1007.186	3105.65
1007.48	3097.07
1007.773	3063.85
1008.067	3037.18
1008.361	3038.76
1008.655	3016.84
1008.948	2989.72
1009.242	2993.79
1009.535	2958.09
1009.829	2975.26
1010.122	2900.23
1010.415	2922.15
1010.708	2889.84
1011.001	2843.74
1011.295	2857.07
1011.588	2838.09
1011.881	2798.77
1012.173	2775.27
1012.466	2770.97
1012.759	2751.31
1013.052	2771.42
1013.344	2737.53
1013.637	2733.23
1013.93	2715.83
1014.222	2707.25
1014.514	2662.27
1014.807	2643.97
1015.099	2631.31
1015.391	2631.77
1015.683	2599.9
1015.976	2554.03
1016.268	2547.25
1016.56	2579.79
1016.851	2523.52
1017.143	2512.9
1017.435	2510.64
1017.727	2487.14
1018.018	2456.18
1018.31	2442.17
1018.602	2463.64
1018.893	2419.57
1019.185	2377.76
1019.476	2383.86
1019.767	2346.58
1020.058	2358.78
1020.35	2325.79
1020.641	2274.71
1020.932	2284.21
1021.223	2283.3
1021.514	2275.17
1021.804	2252.34
1022.095	2221.16
1022.386	2219.57
1022.677	2165.34
1022.967	2170.54
1023.258	2180.93
1023.548	2156.3
1023.839	2154.49
1024.129	2133.47
1024.419	2110.42
1024.709	2083.76
1025	2073.59
1025.29	2065
1025.58	2042.18
1025.87	1997.43
1026.16	2004.21
1026.449	1990.43
1026.739	2002.4
1027.029	1978.68
1027.319	1960.6
1027.608	1927.6
1027.898	1947.49
1028.187	1919.24
1028.477	1903.88
1028.766	1874.72
1029.055	1871.33
1029.344	1859.81
1029.634	1865.01
1029.923	1835.4
1030.212	1832.01
1030.501	1798.34
1030.79	1769.19
1031.078	1780.94
1031.367	1782.3
1031.656	1751.11
1031.945	1741.85
1032.233	1747.04
1032.522	1717.67
1032.81	1709.98
1033.099	1684
1033.387	1737.1
1033.675	1683.54
1033.963	1665.69
1034.251	1649.19
1034.54	1644.9
1034.828	1646.26
1035.116	1608.52
1035.403	1593.6
1035.691	1592.92
1035.979	1593.38
1036.267	1547.73
1036.554	1558.12
1036.842	1536.88
1037.129	1558.12
1037.417	1557.9
1037.704	1541.85
1037.992	1483.32
1038.279	1483.1
1038.566	1472.48
1038.853	1472.48
1039.14	1472.48
