Data from 142_FLMS001491_009.txt Node
Date: Thu Apr 19 16:09:17 BST 2018
User: hsy
Spectrometer: FLMS00149
Trigger mode: 0
Integration Time (sec): 1.000000E-2
Scans to average: 10
Electric dark correction enabled: true
Nonlinearity correction enabled: false
Boxcar width: 0
XAxis mode: Wavelengths
Number of Pixels in Spectrum: 2048
>>>>>Begin Spectral Data<<<<<
341.393	-21.79
341.776	-21.79
342.16	-21.79
342.543	-65.86
342.927	-75.13
343.31	-78.29
343.693	-66.99
344.077	-66.09
344.46	-84.84
344.843	-57.05
345.226	-37.61
345.61	-19.08
345.993	-12.98
346.376	10.07
346.759	12.1
347.142	31.31
347.525	46.23
347.908	48.49
348.291	71.31
348.674	76.96
349.057	126.45
349.44	132.1
349.823	129.62
350.206	159.9
350.588	245.54
350.971	256.62
351.354	279.89
351.737	260.46
352.119	293.23
352.502	315.6
352.884	306.79
353.267	337.29
353.65	345.43
354.032	347.91
354.414	358.76
354.797	360.12
355.179	377.97
355.562	361.25
355.944	378.42
356.326	387.24
356.709	390.4
357.091	362.6
357.473	385.88
357.855	391.3
358.238	382.72
358.62	387.46
359.002	397.4
359.384	384.75
359.766	380.46
360.148	375.26
360.53	411.87
360.912	385.65
361.294	388.59
361.676	385.88
362.057	396.95
362.439	395.14
362.821	392.21
363.203	383.62
363.584	396.27
363.966	384.07
364.348	395.37
364.729	379.55
365.111	379.55
365.493	381.59
365.874	373.9
366.256	382.94
366.637	390.4
367.019	345.65
367.4	354.69
367.781	372.32
368.163	386.78
368.544	376.61
368.925	367.58
369.306	382.26
369.688	375.48
370.069	362.38
370.45	374.35
370.831	392.66
371.212	369.83
371.593	378.65
371.974	380.46
372.355	377.97
372.736	397.4
373.117	378.42
373.498	392.43
373.879	400.79
374.26	387.69
374.641	405.31
375.021	392.21
375.402	411.64
375.783	412.09
376.163	409.16
376.544	379.33
376.925	391.3
377.305	405.31
377.686	400.57
378.066	389.5
378.447	408.48
378.827	423.39
379.208	402.83
379.588	406.67
379.968	411.64
380.349	411.42
380.729	415.48
381.109	413.45
381.489	422.04
381.87	414.13
382.25	446.44
382.63	440.12
383.01	435.14
383.39	420.91
383.77	462.04
384.15	436.73
384.53	433.79
384.91	467.23
385.29	462.04
385.67	438.31
386.049	474.69
386.429	459.32
386.809	455.26
387.189	453.22
387.568	465.88
387.948	457.52
388.328	455.71
388.707	446.22
389.087	480.34
389.466	475.59
389.846	466.33
390.225	488.25
390.605	480.11
390.984	495.03
391.363	487.12
391.743	510.17
392.122	535.48
392.501	508.81
392.881	499.32
393.26	519.66
393.639	496.39
394.018	507.23
394.397	517.4
394.776	538.42
395.155	530.96
395.534	527.34
395.913	548.59
396.292	540.23
396.671	526.89
397.05	528.25
397.429	549.49
397.808	565.08
398.186	572.09
398.565	555.37
398.944	581.81
399.323	555.82
399.701	564.86
400.08	554.46
400.458	575.71
400.837	560.11
401.215	585.87
401.594	550.62
401.972	570.28
402.351	576.16
402.729	598.53
403.107	597.63
403.486	604.63
403.864	601.24
404.242	593.33
404.62	607.79
404.999	619.77
405.377	617.51
405.755	636.27
406.133	664.29
406.511	627.91
406.889	664.97
407.267	645.08
407.645	635.59
408.023	683.05
408.401	680.11
408.779	696.61
409.156	693.22
409.534	699.09
409.912	712.65
410.29	681.01
410.667	711.29
411.045	699.32
411.422	714.91
411.8	751.29
412.178	738.64
412.555	753.33
412.933	768.02
413.31	769.37
413.687	780.45
414.065	787
414.442	784.51
414.819	820.44
415.197	822.48
415.574	811.18
415.951	850.27
416.328	826.77
416.705	824.29
417.082	818.64
417.46	835.59
417.837	847.56
418.214	874.91
418.591	894.11
418.967	894.57
419.344	890.73
419.721	899.09
420.098	873.55
420.475	914.45
420.852	911.29
421.228	912.65
421.605	904.51
421.982	934.34
422.358	937.05
422.735	937.73
423.111	958.07
423.488	971.18
423.864	956.03
424.241	993.1
424.617	987.45
424.994	975.92
425.37	1005.3
425.746	1002.36
426.123	1035.35
426.499	1000.1
426.875	1031.29
427.251	1031.51
427.627	1094.34
428.003	1067.22
428.379	1065.64
428.756	1115.8
429.132	1087.56
429.507	1120.78
429.883	1133.2
430.259	1120.55
430.635	1144.05
431.011	1148.35
431.387	1164.16
431.763	1175.46
432.138	1204.39
432.514	1204.39
432.89	1213.65
433.265	1224.95
433.641	1267.44
434.016	1244.84
434.392	1259.98
434.767	1269.02
435.143	1287.78
435.518	1310.6
435.894	1295.23
436.269	1332.75
436.644	1336.36
437.02	1348.11
437.395	1358.74
437.77	1384.5
438.145	1392.86
438.52	1431.05
438.895	1406.87
439.271	1431.28
439.646	1457.49
440.021	1485.96
440.395	1445.51
440.77	1463.14
441.145	1443.93
441.52	1499.07
441.895	1478.28
442.27	1491.16
442.645	1490.48
443.019	1518.51
443.394	1538.17
443.769	1522.8
444.143	1546.3
444.518	1558.28
444.892	1562.12
445.267	1533.19
445.641	1570.93
446.016	1584.94
446.39	1589.69
446.764	1627.2
447.139	1596.24
447.513	1625.4
447.887	1649.12
448.262	1630.37
448.636	1645.06
449.01	1668.11
449.384	1665.62
449.758	1669.91
450.132	1676.24
450.506	1731.38
450.88	1737.03
451.254	1720.76
451.628	1756.47
452.002	1778.84
452.376	1783.81
452.75	1831.27
453.123	1838.72
453.497	1836.91
453.871	1847.31
454.244	1874.2
454.618	1915.11
454.992	1924.37
455.365	1907.87
455.739	1986.97
456.112	2022.9
456.486	2020.19
456.859	2045.95
457.232	2079.17
457.606	2091.82
457.979	2077.36
458.352	2138.83
458.725	2154.87
459.099	2169.34
459.472	2217.7
459.845	2216.79
460.218	2256.56
460.591	2296.79
460.964	2287.3
461.337	2328.43
461.71	2387.18
462.083	2423.34
462.456	2434.19
462.829	2436.67
463.201	2458.14
463.574	2496.11
463.947	2494.07
464.32	2537.01
464.692	2554.41
465.065	2604.58
465.438	2616.78
465.81	2675.09
466.183	2633.05
466.555	2692.94
466.928	2729.77
467.3	2742.88
467.672	2805.25
468.045	2824.01
468.417	2840.73
468.789	2879.15
469.161	2876.44
469.534	2930.22
469.906	2959.6
470.278	3007.05
470.65	3042.31
471.022	3091.35
471.394	3155.3
471.766	3188.29
472.138	3233.94
472.51	3273.94
472.882	3339.7
473.253	3349.42
473.625	3431.68
473.997	3482.52
474.369	3463.99
474.74	3531.56
475.112	3593.25
475.484	3643.42
475.855	3707.37
476.227	3772.91
476.598	3850.2
476.97	3837.99
477.341	3951.66
477.713	4012.68
478.084	4028.04
478.455	4166.35
478.827	4224.65
479.198	4344.65
479.569	4348.04
479.94	4462.83
480.311	4566.11
480.682	4623.96
481.053	4709.16
481.424	4784.86
481.795	4807.23
482.166	4995.25
482.537	4995.93
482.908	5161.12
483.279	5233.44
483.65	5278.18
484.021	5482.47
484.391	5515.24
484.762	5602.01
485.133	5629.36
485.503	5762.01
485.874	5923.81
486.244	5987.99
486.615	6157.71
486.985	6245.39
487.356	6363.12
487.726	6435.21
488.097	6618.71
488.467	6752.94
488.837	6790.23
489.207	6943.67
489.578	7140.73
489.948	7244.46
490.318	7359.93
490.688	7448.97
491.058	7677.21
491.428	7780.71
491.798	7890.32
492.168	8156.3
492.538	8163.3
492.908	8366.23
493.278	8577.53
493.648	8702.72
494.017	8870.85
494.387	8912.21
494.757	9168.02
495.126	9238.53
495.496	9411.86
495.866	9589.48
496.235	9669.93
496.605	9920.54
496.974	10078.73
497.344	10193.76
497.713	10379.52
498.082	10531.83
498.452	10629
498.821	10853.18
499.19	10919.39
499.559	11168.65
499.928	11392.6
500.298	11502.65
500.667	11708.07
501.036	11855.63
501.405	12044.1
501.774	12150.09
502.143	12354.83
502.512	12589.4
502.88	12734.48
503.249	12899.45
503.618	13086.11
503.987	13231.64
504.356	13459.43
504.724	13604.52
505.093	13770.84
505.462	13901.23
505.83	14137.83
506.199	14328.11
506.567	14589.57
506.936	14657.37
507.304	14955.89
507.672	15049.22
508.041	15271.82
508.409	15419.16
508.777	15618.02
509.145	15924.91
509.514	15995.64
509.882	16238.34
510.25	16325.35
510.618	16507.04
510.986	16619.35
511.354	16940.7
511.722	17182.95
512.09	17343.4
512.458	17356.51
512.826	17632.66
513.193	17762.82
513.561	17924.85
513.929	18099.09
514.297	18255.92
514.664	18421.34
515.032	18596.47
515.4	18850.25
515.767	18998.95
516.135	19124.82
516.502	19089.34
516.869	19508.54
517.237	19665.15
517.604	19673.51
517.972	19935.2
518.339	20131.58
518.706	20283.21
519.073	20367.95
519.44	20535.86
519.808	20932.23
520.175	20831.67
520.542	21178.33
520.909	21294.48
521.276	21544.42
521.643	21776.5
522.009	21888.37
522.376	22112.99
522.743	22294.91
523.11	22497.84
523.477	22825.74
523.843	22912.52
524.21	23104.15
524.577	23415.1
524.943	23617.81
525.31	23632.73
525.676	23906.17
526.043	24145.93
526.409	24170.79
526.776	24559.48
527.142	24654.17
527.508	24766.26
527.874	25057.55
528.241	25243.31
528.607	25443.3
528.973	25663.41
529.339	25728.72
529.705	26018.2
530.071	26261.58
530.437	26454.12
530.803	26575.7
531.169	26786.54
531.535	26769.59
531.901	27112.86
532.267	27177.94
532.632	27325.96
532.998	27439.18
533.364	27634.88
533.73	27775.44
534.095	27973.4
534.461	28043.91
534.826	28183.11
535.192	28305.15
535.557	28589.43
535.923	28619.04
536.288	28762.53
536.653	28924.11
537.019	28815.87
537.384	29093.6
537.749	29079.14
538.114	29266.48
538.479	29314.16
538.845	29411.56
539.21	29598.22
539.575	29623.3
539.94	29790.3
540.305	30030.98
540.67	29955.95
541.034	30043.63
541.399	30198.2
541.764	30326.34
542.129	30331.98
542.494	30491.53
542.858	30574.24
543.223	30767.23
543.587	30769.94
543.952	30884.06
544.316	31018.97
544.681	30969.48
545.045	31093.77
545.41	31319.76
545.774	31228.68
546.138	31313.65
546.503	31546.87
546.867	31564.27
547.231	31800.87
547.595	31739.86
547.959	31814.43
548.324	31987.31
548.688	32096.01
549.052	32249.9
549.416	32145.72
549.779	32376.45
550.143	32425.94
550.507	32713.39
550.871	32806.27
551.235	32670
551.599	33004.46
551.962	33048.98
552.326	33191.57
552.689	33257.78
553.053	32958.36
553.417	33200.38
553.78	33605.8
554.143	33642.41
554.507	33759.92
554.87	33847.6
555.234	34251.88
555.597	33869.07
555.96	34228.15
556.323	34345.66
556.686	34467.47
557.05	34631.31
557.413	34654.36
557.776	34759.21
558.139	35087.34
558.502	35036.95
558.865	35080.33
559.228	35511.96
559.59	35481.68
559.953	35612.75
560.316	35997.82
560.679	35981.78
561.041	36122.34
561.404	36390.36
561.767	36644.59
562.129	36559.84
562.492	36914.86
562.854	36952.83
563.217	36841.87
563.579	37143.78
563.941	37490.21
564.304	37570.89
564.666	37921.84
565.028	37827.38
565.39	37966.13
565.753	38296.3
566.115	38356.18
566.477	38412.45
566.839	38703.97
567.201	38918.65
567.563	38886.34
567.925	39232.99
568.287	39295.37
568.648	39451.52
569.01	39646.77
569.372	39897.16
569.734	39946.42
570.095	40210.14
570.457	40439.52
570.819	40556.8
571.18	40468.22
571.542	40926.28
571.903	41053.96
572.265	41180.97
572.626	41408.53
572.987	41295.31
573.349	41699.14
573.71	41797.67
574.071	42056.42
574.432	42361.73
574.794	42658.44
575.155	42550.65
575.516	42600.36
575.877	42782.96
576.238	42985.89
576.599	43070.41
576.96	43274.24
577.32	43417.97
577.681	43592.2
578.042	43874.45
578.403	43942.93
578.763	43984.73
579.124	44292.75
579.485	44512.4
579.845	44699.97
580.206	44615.45
580.566	44898.83
580.927	45015.89
581.287	45257.92
581.648	45288.88
582.008	45464.69
582.368	45706.5
582.728	45931.8
583.089	45851.35
583.449	46148.07
583.809	46255.86
584.169	46635.74
584.529	46598.68
584.889	47068.72
585.249	46987.82
585.609	47059.45
585.969	47354.36
586.329	47396.62
586.688	47764.52
587.048	47702.6
587.408	48073.89
587.768	48166.32
588.127	48372.19
588.487	48558.85
588.846	48837.71
589.206	48856.02
589.565	49000.87
589.925	49333.07
590.284	49536.23
590.643	49687.63
591.003	49820.51
591.362	50180.05
591.721	50362.64
592.08	50414.39
592.44	50710.66
592.799	50814.38
593.158	50947.04
593.517	51113.13
593.876	51406.69
594.235	51467.47
594.593	51567.13
594.952	51809.16
595.311	51972.77
595.67	51987.91
596.029	52445.53
596.387	52574.11
596.746	52886.65
597.104	52662.92
597.463	52844.84
597.822	53270.14
598.18	53212.29
598.538	53363.47
598.897	53613.41
599.255	53608.89
599.613	54095.65
599.972	53899.27
600.33	54139.72
600.688	54134.52
601.046	54351.47
601.404	54674.62
601.762	54732.02
602.12	54903.77
602.478	55079.13
602.836	55240.93
603.194	55110.99
603.552	55351.44
603.91	55381.27
604.268	55610.19
604.625	55648.16
604.983	55931.31
605.341	55828.26
605.698	56131.31
606.056	56330.17
606.413	56198.2
606.771	56499.66
607.128	56556.15
607.485	56533.33
607.843	56680.44
608.2	56871.63
608.557	56979.42
608.914	56990.94
609.272	57197.04
609.629	57311.16
609.986	57483.81
610.343	57443.14
610.7	57693.07
611.057	57749.34
611.414	57756.57
611.771	57903.46
612.127	57984.37
612.484	58079.73
612.841	58175.77
613.198	58194.53
613.554	58231.36
613.911	58430.46
614.267	58470.23
614.624	58494.86
614.98	58644.46
615.337	58850.33
615.693	58847.85
616.05	58879.03
616.406	58986.6
616.762	58978.46
617.118	59014.17
617.475	59067.05
617.831	59221.85
618.187	59266.14
618.543	59335.06
618.899	59502.97
619.255	59501.16
619.611	59518.34
619.967	59601.72
620.323	59727.37
620.678	59627.71
621.034	59653.7
621.39	59767.82
621.746	59741.16
622.101	60054.14
622.457	59849.4
622.812	60007.81
623.168	60050.07
623.523	59999.91
623.879	60151.77
624.234	60011.88
624.589	60119.68
624.945	60114.7
625.3	60187.47
625.655	60209.84
626.01	60204.42
626.365	60253.46
626.72	60217.3
627.075	60221.82
627.43	60256.4
627.785	60288.49
628.14	60293.46
628.495	60328.94
628.85	60333
629.205	60293.01
629.559	60372.33
629.914	60331.65
630.269	60352.66
630.623	60282.38
630.978	60252.55
631.332	60390.86
631.687	60361.25
632.041	60290.29
632.396	60377.75
632.75	60319.9
633.104	60369.39
633.459	60208.49
633.813	60182.27
634.167	60230.86
634.521	60183.18
634.875	60241.93
635.229	60131.2
635.583	60099.56
635.937	60136.62
636.291	60116.29
636.645	60119.45
636.999	59980.02
637.352	60152.67
637.706	59969.17
638.06	60110.19
638.413	59948.38
638.767	59939.34
639.121	59910.19
639.474	59836.97
639.828	59780.02
640.181	59810.08
640.534	59904.77
640.888	59726.01
641.241	59646.69
641.594	59662.51
641.947	59720.36
642.301	59679.46
642.654	59720.14
643.007	59623.64
643.36	59670.87
643.713	59628.39
644.066	59748.16
644.419	59559.24
644.771	59333.03
645.124	59038.35
645.477	58987.28
645.83	58959.03
646.182	58862.76
646.535	58894.85
646.888	58899.6
647.24	58749.54
647.593	58888.75
647.945	58764.01
648.298	58714.06
648.65	58653.73
649.002	58572.37
649.355	58543.67
649.707	58500.96
650.059	58531.7
650.411	58732.37
650.763	58905.7
651.115	59257.33
651.467	59081.96
651.819	59077.22
652.171	59020.95
652.523	58937.56
652.875	59010.78
653.227	58864.34
653.578	59039.7
653.93	58983.66
654.282	58886.04
654.633	58793.84
654.985	58934.4
655.337	58838.58
655.688	58832.03
656.039	58939.82
656.391	58636.33
656.742	58691.01
657.094	58658.92
657.445	58702.31
657.796	58783.21
658.147	58567.4
658.498	58751.8
658.849	58690.34
659.2	58603.56
659.551	58592.71
659.902	58782.31
660.253	58523.56
660.604	58630.9
660.955	58507.74
661.306	58616.89
661.656	58440.17
662.007	58522.88
662.358	58564.91
662.708	58511.58
663.059	58522.43
663.409	58392.04
663.76	58541.41
664.11	58471.13
664.461	58507.06
664.811	58512.71
665.161	58503.45
665.511	58395.88
665.862	58468.87
666.212	58477.01
666.562	58510
666.912	58406.73
667.262	58432.94
667.612	58439.95
667.962	58407.63
668.312	58323.79
668.662	58434.52
669.011	58444.01
669.361	58385.48
669.711	58438.59
670.06	58316.33
670.41	58356.56
670.76	58280.18
671.109	58419.16
671.459	58373.73
671.808	58351.36
672.157	58457.12
672.507	58175.09
672.856	58260.06
673.205	58291.48
673.554	58343.45
673.904	58210.8
674.253	58403.34
674.602	58190.46
674.951	58009.68
675.3	57837.7
675.649	58268.88
675.998	58206.28
676.346	58250.8
676.695	58243.79
677.044	58097.36
677.393	58188.88
677.741	58126.73
678.09	58089.45
678.438	58058.94
678.787	58152.04
679.135	58171.7
679.484	57936
679.832	58027.98
680.181	57990.24
680.529	58017.13
680.877	57919.73
681.225	57861.43
681.573	58149.11
681.922	57914.76
682.27	57810.36
682.618	57874.76
682.966	57840.19
683.314	57808.55
683.661	57717.03
684.009	57679.51
684.357	57659.85
684.705	57584.15
685.053	57601.78
685.4	57575.11
685.748	57532.85
686.095	57527.43
686.443	57434.55
686.79	57405.17
687.138	57454.44
687.485	57438.84
687.832	57364.27
688.18	57367.88
688.527	57135.57
688.874	57260.09
689.221	57244.72
689.568	57010.15
689.915	57010.15
690.262	57063.03
690.609	57008.8
690.956	56828.01
691.303	56917.95
691.65	56852.19
691.997	56770.61
692.344	56729.48
692.69	56612.42
693.037	56661.91
693.383	56481.13
693.73	56538.53
694.077	56381.92
694.423	56369.49
694.769	56278.65
695.116	56326.1
695.462	56174.24
695.808	56073
696.155	56113
696.501	55931.09
696.847	56009.73
697.193	55702.84
697.539	55826
697.885	55690.87
698.231	55552.56
698.577	55557.54
698.923	55528.16
699.269	55436.64
699.614	55290.88
699.96	55203.65
700.306	55241.84
700.651	55119.81
700.997	55121.62
701.342	55061.5
701.688	55023.54
702.033	54966.82
702.379	54873.26
702.724	54752.36
703.069	54819.48
703.415	54503.55
703.76	54509.65
704.105	54443.44
704.45	54364.35
704.795	54342.88
705.14	54158.03
705.485	54149.89
705.83	53970.01
706.175	54078.71
706.52	53972.04
706.865	53899.5
707.209	53847.75
707.554	53666.96
707.899	53714.42
708.243	53646.85
708.588	53552.84
708.932	53460.87
709.277	53514.65
709.621	53267.2
709.966	53160.99
710.31	53177.49
710.654	52973.65
710.998	53153.53
711.342	53115.57
711.687	52935.23
712.031	52917.15
712.375	52704.28
712.719	52714
713.063	52694.56
713.407	52782.92
713.75	52612.76
714.094	52549.93
714.438	52407.79
714.782	52490.95
715.125	52264.52
715.469	52476.26
715.812	52174.8
716.156	52074.01
716.499	52031.75
716.843	52106.1
717.186	52024.07
717.53	52127.34
717.873	52000.57
718.216	51974.58
718.559	51923.96
718.902	51590.64
719.246	51677.86
719.589	51578.43
719.932	51465.44
720.275	51525.33
720.617	51492.78
720.96	51431.54
721.303	51383.18
721.646	51432.45
721.989	51107.48
722.331	51241.04
722.674	51073.36
723.016	51084.66
723.359	50846.93
723.701	51018.22
724.044	50944.1
724.386	50717.89
724.729	50857.77
725.071	50849.19
725.413	50734.39
725.755	50589.31
726.097	50547.5
726.439	50372.59
726.782	50473.15
727.124	50606.48
727.465	50467.5
727.807	50274.29
728.149	50398.58
728.491	50199.03
728.833	50295.98
729.175	50298.24
729.516	50060.28
729.858	50018.47
730.199	50019.83
730.541	49980.06
730.882	49861.41
731.224	49910.23
731.565	49780.51
731.906	49780.29
732.248	49836.1
732.589	49581.2
732.93	49520.41
733.271	49600.63
733.612	49482.89
733.953	49575.55
734.294	49469.11
734.635	49312.5
734.976	49370.13
735.317	49249.45
735.658	49191.15
735.999	49102.11
736.339	49134.2
736.68	49092.62
737.021	49010.82
737.361	48884.27
737.702	49212.84
738.042	48918.39
738.383	48963.59
738.723	48961.33
739.063	48900.31
739.404	48790.03
739.744	48779.41
740.084	48654.67
740.424	48762.23
740.764	48594.1
741.104	48758.39
741.444	48547.1
741.784	48430.49
742.124	48431.85
742.464	48420.32
742.804	48376.71
743.143	48284.73
743.483	48336.94
743.823	48144.85
744.162	48223.04
744.502	48233.44
744.841	47954.12
745.181	48174.23
745.52	47918.64
745.86	47947.57
746.199	47906.89
746.538	47783.28
746.877	47950.96
747.216	47801.58
747.556	47804.75
747.895	47685.43
748.234	47675.26
748.573	47618.54
748.911	47460.57
749.25	47411.31
749.589	47334.25
749.928	47387.13
750.267	47413.57
750.605	47239.79
750.944	47068.95
751.283	47045.22
751.621	47183.75
751.96	46921.83
752.298	46877.09
752.636	46973.81
752.975	46736.75
753.313	46713.7
753.651	46961.83
753.989	46503.99
754.327	46536.08
754.666	46388.06
755.004	46414.05
755.342	46298.34
755.679	46248.63
756.017	45888.64
756.355	46059.26
756.693	45887.28
757.031	46209.53
757.368	45810.67
757.706	45762.99
758.044	45572.71
758.381	45624.24
758.719	45419.95
759.056	45418.14
759.394	45236.23
759.731	44969.79
760.068	44888.66
760.405	44915.78
760.743	44626.07
761.08	44884.6
761.417	44574.77
761.754	44361.9
762.091	44398.28
762.428	44079.42
762.765	43993.55
763.102	44027.67
763.438	43872.19
763.775	43763.95
764.112	43615.03
764.449	43531.19
764.785	43478.31
765.122	43186.79
765.458	43046.68
765.795	42919
766.131	43166.9
766.467	42842.39
766.804	42514.04
767.14	42465
767.476	42188.17
767.812	42071.79
768.148	42123.54
768.485	41766.26
768.821	41706.38
769.157	41561.75
769.492	41527.62
769.828	41501.86
770.164	41250.12
770.5	41021.42
770.836	41122.89
771.171	40907.53
771.507	40649.45
771.842	40533.52
772.178	40460.53
772.513	40420.08
772.849	40185.74
773.184	40196.36
773.519	39995.46
773.855	39786.65
774.19	39756.82
774.525	39595.47
774.86	39489.48
775.195	39355.7
775.53	39213.33
775.865	38953
776.2	38761.37
776.535	38564.99
776.87	38517.53
777.205	38302.17
777.539	38181.5
777.874	38191.67
778.209	37836.65
778.543	37962.52
778.878	37618.12
779.212	37551.23
779.547	37346.49
779.881	37424.91
780.215	37035.76
780.55	37104.91
780.884	36718.94
781.218	36753.06
781.552	36786.73
781.886	36578.6
782.22	36309
782.554	36152.62
782.888	36011.61
783.222	35736.14
783.556	35687.32
783.889	35628.34
784.223	35428.57
784.557	35314.45
784.89	35402.36
785.224	35119.66
785.557	34845.31
785.891	34777.74
786.224	34775.26
786.558	34619.1
786.891	34562.38
787.224	34234.03
787.557	34143.64
787.891	34167.14
788.224	33991.1
788.557	33890.99
788.89	33873.13
789.223	33740.93
789.556	33520.38
789.888	33485.8
790.221	33415.52
790.554	33071.57
790.887	33122.19
791.219	32949.77
791.552	32775.54
791.884	32703
792.217	32611.25
792.549	32580.29
792.882	32289.45
793.214	32201.77
793.546	32167.87
793.879	31945.73
794.211	31886.97
794.543	31872.96
794.875	31792.74
795.207	31733.3
795.539	31568.34
795.871	31592.52
796.203	31350.04
796.535	31091.51
796.867	31241.79
797.198	31013.55
797.53	30839.99
797.862	30746.89
798.193	30793.22
798.525	30685.2
798.856	30755.02
799.188	30315.49
799.519	30242.04
799.85	30192.33
800.182	30141.26
800.513	30217.19
800.844	29680.48
801.175	30019.9
801.506	29976.97
801.837	29724.32
802.168	29705.79
802.499	29649.07
802.83	29460.14
803.161	29386.93
803.491	29329.53
803.822	29377.43
804.153	29146.48
804.483	28940.61
804.814	28673.05
805.145	28849.54
805.475	28786.49
805.805	28714.17
806.136	28741.07
806.466	28565.25
806.796	28451.13
807.126	28289.1
807.457	28179.95
807.787	28362.32
808.117	28244.13
808.447	27994.65
808.777	28167.3
809.107	27929.79
809.436	27802.33
809.766	27877.13
810.096	27807.08
810.426	27551.72
810.755	27689.79
811.085	27505.84
811.414	27531.15
811.744	27341.56
812.073	27417.94
812.403	27266.75
812.732	27014.56
813.061	27268.11
813.39	27017.72
813.719	26919.87
814.049	27066.53
814.378	26917.84
814.707	26698.86
815.036	26797.39
815.365	26551.07
815.693	26490.28
816.022	26602.14
816.351	26335.03
816.68	26288.48
817.008	26372.32
817.337	26063.4
817.665	26165.99
817.994	26081.48
818.322	26272.2
818.651	25950.86
818.979	25877.64
819.307	25941.82
819.636	25952.44
819.964	25814.82
820.292	25814.36
820.62	25700.69
820.948	25763.29
821.276	25858.88
821.604	25763.52
821.932	25843.52
822.259	25704.08
822.587	25587.02
822.915	25651.66
823.243	25693.91
823.57	25649.62
823.898	25705.44
824.225	25666.57
824.553	25553.81
824.88	25674.03
825.207	25675.61
825.535	25629.28
825.862	25691.65
826.189	25646.46
826.516	25721.03
826.843	25830.63
827.17	25782.5
827.497	25679
827.824	25656.4
828.151	25828.6
828.478	25658.44
828.805	25735.04
829.131	25719.45
829.458	25663.86
829.785	25566.23
830.111	25503.41
830.438	25693.69
830.764	25575.27
831.09	25648.27
831.417	25545.44
831.743	25769.39
832.069	25643.52
832.395	25496.86
832.722	25636.97
833.048	25459.8
833.374	25634.48
833.7	25449.4
834.026	25504.77
834.351	25490.08
834.677	25519
835.003	25487.59
835.329	25414.6
835.654	25392.23
835.98	25242.4
836.306	25378.22
836.631	25192.69
836.956	25497.99
837.282	25306.13
837.607	25215.74
837.932	25184.1
838.258	25171.22
838.583	25257.77
838.908	25102.52
839.233	25101.16
839.558	24958.79
839.883	24935.52
840.208	24821.85
840.533	24914.95
840.858	24859.59
841.182	24861.17
841.507	24793.83
841.832	24751.11
842.156	24681.96
842.481	24747.95
842.805	24530.78
843.13	24532.14
843.454	24570.55
843.778	24293.5
844.103	24375.31
844.427	24280.84
844.751	24347.51
845.075	24361.75
845.399	24349.09
845.723	24034.3
846.047	24052.15
846.371	23853.96
846.695	23812.61
847.019	23695.1
847.343	23575.1
847.666	23571.03
847.99	23434.54
848.313	23273.19
848.637	23369
848.96	23252.85
849.284	23150.48
849.607	22972.86
849.931	22938.51
850.254	22816.02
850.577	22621.68
850.9	22602.47
851.223	22570.38
851.546	22414
851.869	22270.5
852.192	22464.62
852.515	22222.37
852.838	22037.97
853.161	22140.11
853.483	21847.46
853.806	21993.45
854.129	21855.37
854.451	21820.57
854.774	21605.21
855.096	21597.53
855.419	21487.02
855.741	21476.62
856.063	21391.66
856.385	21383.29
856.708	21178.1
857.03	21167.71
857.352	21131.32
857.674	21147.59
857.996	20997.77
858.318	20905.11
858.64	20846.81
858.961	20812.01
859.283	20813.59
859.605	20637.78
859.926	20691.79
860.248	20598.91
860.57	20595.97
860.891	20548.51
861.212	20417.67
861.534	20415.18
861.855	20250.89
862.176	20274.62
862.498	20301.06
862.819	20224
863.14	20184.68
863.461	20171.12
863.782	20073.05
864.103	20097
864.424	19972.26
864.745	20068.98
865.065	19900.17
865.386	19828.08
865.707	19863.79
866.027	19866.27
866.348	19771.13
866.668	19711.02
866.989	19688.2
867.309	19593.74
867.63	19628.31
867.95	19684.13
868.27	19452.72
868.59	19631.25
868.91	19494.53
869.23	19527.07
869.55	19341.77
869.87	19421.31
870.19	19326.17
870.51	19381.54
870.83	19395.32
871.15	19196.01
871.469	19158.49
871.789	19190.13
872.109	19212.96
872.428	19096.12
872.748	19161.66
873.067	19178.38
873.386	19069
873.706	19027.42
874.025	18902.68
874.344	18856.35
874.663	18890.03
874.982	18945.62
875.301	18857.94
875.62	18710.37
875.939	18754.66
876.258	18769.13
876.577	18638.06
876.896	18659.52
877.214	18541.33
877.533	18558.74
877.852	18606.42
878.17	18564.16
878.489	18642.57
878.807	18483.26
879.125	18498.85
879.444	18443.48
879.762	18377.5
880.08	18423.37
880.398	18292.08
880.716	18366.65
881.034	18203.49
881.352	18357.38
881.67	18261.34
881.988	18289.36
882.306	18085.3
882.624	18202.81
882.941	18049.14
883.259	17998.07
883.577	17927.79
883.894	17925.76
884.212	17883.95
884.529	17879.21
884.846	17840.79
885.164	17754.01
885.481	17725.54
885.798	17757.63
886.115	17595.82
886.432	17552.43
886.75	17580.23
887.067	17663.39
887.383	17541.81
887.7	17579.78
888.017	17298.43
888.334	17347.69
888.651	17247.58
888.967	17227.24
889.284	17112.9
889.6	17129.39
889.917	17076.06
890.233	17118.77
890.55	17069.73
890.866	17003.52
891.182	16993.8
891.498	16883.52
891.815	16843.98
892.131	16736.18
892.447	16779.35
892.763	16737.77
893.079	16638.33
893.395	16593.59
893.71	16506.59
894.026	16560.82
894.342	16512.01
894.657	16317.89
894.973	16304.56
895.289	16260.26
895.604	16229.3
895.92	16110.21
896.235	16065.92
896.55	16055.98
896.865	15978.69
897.181	15996.09
897.496	15966.26
897.811	15907.73
898.126	15878.35
898.441	15838.81
898.756	15752.03
899.071	15672.48
899.386	15536.22
899.7	15451.92
900.015	15367.63
900.33	15303.23
900.644	15357.24
900.959	15301.65
901.273	15155.21
901.588	15256.9
901.902	15129.67
902.216	15078.6
902.531	15030.24
902.845	14971.03
903.159	14939.4
903.473	14926.51
903.787	14773.98
904.101	14758.38
904.415	14724.03
904.729	14627.09
905.042	14603.81
905.356	14579.18
905.67	14460.54
905.984	14411.73
906.297	14446.98
906.611	14330.6
906.924	14220.54
907.237	14281.56
907.551	14188
907.864	14171.51
908.177	14200.21
908.491	13998.4
908.804	13914.11
909.117	13919.99
909.43	13765.41
909.743	13732.2
910.056	13672.54
910.368	13723.38
910.681	13574.91
910.994	13610.39
911.307	13447.91
911.619	13345.31
911.932	13401.81
912.244	13319.78
912.557	13271.87
912.869	13199.78
913.181	13177.41
913.494	13126.34
913.806	13071.87
914.118	12921.37
914.43	12913.01
914.742	12861.03
915.054	12798.89
915.366	12833.91
915.678	12755.72
915.99	12689.51
916.302	12645.44
916.613	12526.13
916.925	12604.77
917.236	12466.24
917.548	12407.03
917.859	12395.06
918.171	12314.61
918.482	12295.4
918.794	12267.6
919.105	12178.56
919.416	12042.07
919.727	12096.08
920.038	12028.74
920.349	11881.85
920.66	11941.51
920.971	11846.37
921.282	11820.83
921.593	11742.87
921.903	11632.82
922.214	11653.61
922.525	11586.26
922.835	11525.7
923.146	11512.59
923.456	11353.05
923.767	11357.79
924.077	11429.66
924.387	11344.69
924.697	11218.82
925.008	11221.3
925.318	11179.49
925.628	11141.08
925.938	11106.73
926.248	11032.38
926.558	10890.91
926.867	10845.72
927.177	10851.14
927.487	10767.3
927.796	10726.85
928.106	10771.82
928.416	10679.85
928.725	10698.83
929.034	10610.47
929.344	10575.44
929.653	10470.81
929.962	10378.16
930.271	10436.91
930.581	10415.9
930.89	10357.59
931.199	10253.64
931.508	10268.11
931.817	10227.65
932.125	10171.84
932.434	10091.16
932.743	10037.15
933.051	10038.06
933.36	9914.22
933.669	9859.08
933.977	9824.5
934.286	9822.02
934.594	9840.32
934.902	9807.55
935.21	9666.54
935.519	9679.42
935.827	9643.72
936.135	9598.97
936.443	9523.27
936.751	9467.45
937.059	9402.14
937.367	9443.72
937.674	9409.37
937.982	9297.28
938.29	9368.47
938.597	9282.37
938.905	9188.13
939.213	9092.54
939.52	9124.63
939.827	9157.85
940.135	9043.73
940.442	8995.6
940.749	8986.78
941.056	8987.01
941.363	8848.48
941.67	8851.19
941.977	8845.09
942.284	8803.51
942.591	8801.93
942.898	8708.82
943.205	8684.87
943.511	8616.4
943.818	8639.67
944.125	8489.85
944.431	8505.89
944.738	8537.3
945.044	8429.06
945.35	8404.88
945.657	8309.74
945.963	8343.64
946.269	8293.24
946.575	8283.75
946.881	8173.92
947.187	8170.53
947.493	8128.05
947.799	8081.5
948.105	8050.31
948.41	8006.24
948.716	8004.89
949.022	7945.45
949.327	7897.77
949.633	7832.46
949.938	7815.29
950.244	7832.46
950.549	7780.26
950.854	7742.97
951.16	7726.25
951.465	7619.59
951.77	7652.58
952.075	7602.87
952.38	7584.79
952.685	7554.28
952.99	7480.61
953.294	7500.72
953.599	7391.35
953.904	7433.83
954.209	7339.82
954.513	7330.78
954.818	7312.03
955.122	7226.83
955.426	7315.41
955.731	7265.92
956.035	7194.06
956.339	7155.42
956.643	7160.62
956.948	7026.16
957.252	7030.22
957.556	7015.08
957.86	7004.24
958.163	6952.03
958.467	6950.45
958.771	6943.22
959.075	6863.68
959.378	6803.79
959.682	6800.63
959.985	6793.17
960.289	6717.92
960.592	6661.87
960.896	6654.87
961.199	6673.85
961.502	6618.03
961.805	6601.08
962.108	6507.53
962.411	6574.42
962.714	6506.4
963.017	6432.5
963.32	6443.8
963.623	6420.52
963.926	6406.74
964.228	6356.12
964.531	6304.82
964.833	6302.33
965.136	6258.95
965.438	6197.03
965.741	6165.61
966.043	6228.44
966.345	6180.08
966.648	6117.48
966.95	6133.75
967.252	6032.06
967.554	6056.92
967.856	6059.4
968.158	6001.78
968.46	5984.15
968.761	5900.08
969.063	5899.86
969.365	5897.15
969.666	5855.79
969.968	5784.38
970.269	5788.9
970.571	5757.72
970.872	5769.01
971.174	5665.06
971.475	5709.36
971.776	5658.28
972.077	5645.85
972.378	5598.4
972.679	5630.94
972.98	5573.09
973.281	5495.8
973.582	5502.58
973.883	5502.13
974.183	5487.44
974.484	5471.4
974.785	5415.13
975.085	5410.15
975.386	5449.7
975.686	5347.56
975.986	5277.05
976.287	5303.49
976.587	5253.55
976.887	5249.03
977.187	5279.54
977.487	5155.25
977.787	5163.83
978.087	5154.34
978.387	5169.26
978.687	5116.6
978.987	5073.21
979.286	5015.36
979.586	4997.06
979.885	4931.52
980.185	4950.51
980.484	4944.63
980.784	4940.79
981.083	4860.11
981.382	4862.6
981.682	4872.77
981.981	4856.5
982.28	4851.75
982.579	4797.06
982.878	4752.77
983.177	4732.21
983.475	4719.1
983.774	4668.03
984.073	4690.4
984.372	4661.93
984.67	4659.44
984.969	4637.29
985.267	4623.96
985.566	4552.1
985.864	4559.33
986.162	4555.26
986.461	4512.78
986.759	4517.3
987.057	4494.92
987.355	4434.59
987.653	4423.51
987.951	4366.79
988.249	4361.37
988.547	4405.89
988.844	4372.44
989.142	4339.22
989.44	4283.63
989.737	4289.05
990.035	4205.44
990.332	4182.39
990.63	4200.47
990.927	4194.14
991.224	4233.69
991.521	4160.24
991.819	4184.42
992.116	4156.63
992.413	4098.78
992.71	4042.51
993.006	4043.41
993.303	4026.24
993.6	4043.64
993.897	3981.04
994.193	3974.94
994.49	3941.04
994.787	3906.01
995.083	3880.7
995.379	3903.08
995.676	3841.38
995.972	3884.09
996.268	3861.49
996.565	3830.08
996.861	3774.49
997.157	3769.97
997.453	3759.12
997.749	3749.41
998.044	3699.92
998.34	3720.03
998.636	3679.8
998.932	3691.78
999.227	3654.72
999.523	3593.48
999.818	3591.22
1000.114	3572.24
1000.409	3557.55
1000.704	3560.94
1001	3487.04
1001.295	3546.25
1001.59	3476.87
1001.885	3467.61
1002.18	3429.64
1002.475	3423.99
1002.77	3386.7
1003.065	3383.99
1003.359	3347.16
1003.654	3351.23
1003.949	3347.38
1004.243	3305.12
1004.538	3292.24
1004.832	3292.02
1005.127	3251.12
1005.421	3246.6
1005.715	3221.96
1006.009	3214.96
1006.304	3169.99
1006.598	3173.15
1006.892	3161.4
1007.186	3124.11
1007.48	3061.52
1007.773	3067.62
1008.067	3062.19
1008.361	3059.48
1008.655	2983.55
1008.948	2987.62
1009.242	2981.29
1009.535	2960.05
1009.829	2955.53
1010.122	2907.4
1010.415	2918.92
1010.708	2857
1011.001	2899.26
1011.295	2863.1
1011.588	2836.44
1011.881	2810
1012.173	2813.61
1012.466	2791.47
1012.759	2772.26
1013.052	2770.22
1013.344	2745.14
1013.637	2718.47
1013.93	2697.01
1014.222	2694.97
1014.514	2647.29
1014.807	2664.69
1015.099	2610.68
1015.391	2626.05
1015.683	2617.91
1015.976	2581.75
1016.268	2601.19
1016.56	2539.95
1016.851	2527.07
1017.143	2533.39
1017.435	2489.1
1017.727	2469.89
1018.018	2476.67
1018.31	2492.94
1018.602	2463.11
1018.893	2392.61
1019.185	2408.43
1019.476	2399.61
1019.767	2377.24
1020.058	2353.96
1020.35	2316
1020.641	2334.08
1020.932	2297.69
1021.223	2303.12
1021.514	2272.84
1021.804	2260.86
1022.095	2230.35
1022.386	2242.78
1022.677	2219.73
1022.967	2185.61
1023.258	2153.74
1023.548	2157.81
1023.839	2134.53
1024.129	2131.37
1024.419	2125.04
1024.709	2087.08
1025	2087.3
1025.29	2050.69
1025.58	2043.92
1025.87	2051.37
1026.16	2020.41
1026.449	2007.98
1026.739	2002.79
1027.029	1992.17
1027.319	1962.79
1027.608	1966.86
1027.898	1930.25
1028.187	1923.47
1028.477	1908.78
1028.766	1896.35
1029.055	1872.17
1029.344	1873.52
1029.634	1876.69
1029.923	1838.72
1030.212	1863.13
1030.501	1816.8
1030.79	1796.01
1031.078	1779.52
1031.367	1777.93
1031.656	1763.47
1031.945	1725.05
1032.233	1732.28
1032.522	1709.01
1032.81	1722.34
1033.099	1709.23
1033.387	1717.82
1033.675	1677.37
1033.963	1664.94
1034.251	1652.97
1034.54	1646.19
1034.828	1646.86
1035.116	1592.4
1035.403	1625.62
1035.691	1613.19
1035.979	1571.84
1036.267	1585.62
1036.554	1572.52
1036.842	1559.18
1037.129	1550.14
1037.417	1517.83
1037.704	1511.05
1037.992	1500.65
1038.279	1504.95
1038.566	1466.76
1038.853	1466.76
1039.14	1466.76
