Data from 142_FLMS001491_006.txt Node
Date: Thu Apr 19 16:09:09 BST 2018
User: hsy
Spectrometer: FLMS00149
Trigger mode: 0
Integration Time (sec): 1.000000E-2
Scans to average: 10
Electric dark correction enabled: true
Nonlinearity correction enabled: false
Boxcar width: 0
XAxis mode: Wavelengths
Number of Pixels in Spectrum: 2048
>>>>>Begin Spectral Data<<<<<
341.393	-0.59
341.776	-0.59
342.16	-0.59
342.543	-33.81
342.927	-56.64
343.31	-71.33
343.693	-70.87
344.077	-61.16
344.46	-62.51
344.843	-48.5
345.226	-45.11
345.61	-30.42
345.993	-25.45
346.376	-8.5
346.759	20.88
347.142	3.47
347.525	54.55
347.908	64.04
348.291	63.36
348.674	85.96
349.057	131.61
349.44	149.23
349.823	148.56
350.206	186.97
350.588	237.59
350.971	247.99
351.354	257.48
351.737	304.26
352.119	292.51
352.502	316.91
352.884	327.53
353.267	329.79
353.65	344.26
354.032	354.88
354.414	361.66
354.797	353.97
355.179	360.98
355.562	349.45
355.944	369.57
356.326	362.79
356.709	371.83
357.091	373.18
357.473	392.62
357.855	393.75
358.238	393.52
358.62	383.58
359.002	393.52
359.384	380.64
359.766	400.53
360.148	374.99
360.53	403.46
360.912	403.01
361.294	395.78
361.676	408.89
362.057	392.16
362.439	391.26
362.821	398.94
363.203	394.42
363.584	376.35
363.966	388.32
364.348	362.34
364.729	381.09
365.111	405.27
365.493	365.27
365.874	380.64
366.256	389
366.637	360.3
367.019	354.43
367.4	393.52
367.781	391.26
368.163	386.29
368.544	387.87
368.925	371.37
369.306	385.84
369.688	377.93
370.069	382
370.45	373.41
370.831	363.01
371.212	409.11
371.593	395.1
371.974	375.67
372.355	373.63
372.736	371.15
373.117	403.01
373.498	384.48
373.879	402.11
374.26	401.43
374.641	372.5
375.021	393.29
375.402	413.63
375.783	400.98
376.163	425.61
376.544	413.86
376.925	406.18
377.305	419.06
377.686	414.99
378.066	395.1
378.447	414.31
378.827	410.24
379.208	421.32
379.588	422.67
379.968	412.28
380.349	431.26
380.729	430.58
381.109	432.16
381.489	424.71
381.87	440.3
382.25	443.69
382.63	439.17
383.01	422.9
383.39	443.24
383.77	438.94
384.15	446.17
384.53	467.64
384.91	453.18
385.29	473.07
385.67	455.44
386.049	489.79
386.429	476.23
386.809	469.9
387.189	465.84
387.568	461.99
387.948	478.49
388.328	456.8
388.707	480.52
389.087	478.49
389.466	478.72
389.846	510.13
390.225	498.38
390.605	496.12
390.984	504.03
391.363	487.08
391.743	507.19
392.122	516.46
392.501	530.01
392.881	532.05
393.26	532.27
393.639	524.14
394.018	540.18
394.397	534.31
394.776	511.71
395.155	551.48
395.534	538.38
395.913	532.27
396.292	525.72
396.671	546.06
397.05	536.12
397.429	547.87
397.808	549.45
398.186	578.37
398.565	562.78
398.944	573.4
399.323	565.27
399.701	551.48
400.08	567.53
400.458	583.35
400.837	566.85
401.215	592.16
401.594	606.62
401.972	603.91
402.351	600.75
402.729	628.54
403.107	610.01
403.486	607.98
403.864	610.69
404.242	629.45
404.62	626.51
404.999	620.18
405.377	634.87
405.755	638.26
406.133	652.5
406.511	643.91
406.889	654.08
407.267	658.6
407.645	675.32
408.023	691.59
408.401	666.28
408.779	686.62
409.156	735.88
409.534	713.96
409.912	726.17
410.29	718.71
410.667	748.09
411.045	735.66
411.422	724.81
411.8	765.26
412.178	763.23
412.555	779.27
412.933	792.83
413.31	795.54
413.687	836.67
414.065	800.06
414.442	814.75
414.819	803.23
415.197	811.36
415.574	838.25
415.951	827.41
416.328	840.29
416.705	854.75
417.082	862.43
417.46	867.41
417.837	885.26
418.214	871.25
418.591	879.16
418.967	907.41
419.344	901.76
419.721	888.87
420.098	924.35
420.475	955.99
420.852	944.92
421.228	937.01
421.605	940.4
421.982	956.44
422.358	973.62
422.735	979.72
423.111	955.99
423.488	989.89
423.864	975.88
424.241	1000.51
424.617	1022.43
424.994	1006.84
425.37	1015.88
425.746	1017.01
426.123	1045.26
426.499	1056.1
426.875	1083.45
427.251	1057.68
427.627	1067.85
428.003	1112.15
428.379	1104.91
428.756	1094.75
429.132	1120.96
429.507	1144.91
429.883	1142.43
430.259	1168.19
430.635	1165.7
431.011	1187.4
431.387	1154.86
431.763	1193.73
432.138	1195.31
432.514	1242.76
432.89	1285.93
433.265	1275.76
433.641	1273.72
434.016	1294.51
434.392	1297.23
434.767	1329.77
435.143	1334.29
435.518	1329.09
435.894	1366.38
436.269	1365.25
436.644	1388.3
437.02	1410.44
437.395	1386.94
437.77	1421.29
438.145	1425.36
438.52	1457
438.895	1471.23
439.271	1446.6
439.646	1450.67
440.021	1473.49
440.395	1510.78
440.77	1505.81
441.145	1503.77
441.52	1517.33
441.895	1499.03
442.27	1552.13
442.645	1530.21
443.019	1544
443.394	1551.23
443.769	1564.56
444.143	1583.77
444.518	1588.52
444.892	1601.85
445.267	1602.53
445.641	1620.38
446.016	1641.17
446.39	1625.8
446.764	1641.17
447.139	1630.55
447.513	1651.11
447.887	1676.88
448.262	1655.18
448.636	1713.94
449.01	1699.02
449.384	1727.5
449.758	1727.27
450.132	1746.03
450.506	1760.04
450.88	1766.59
451.254	1768.4
451.628	1816.53
452.002	1828.29
452.376	1824.22
452.75	1875.97
453.123	1861.05
453.497	1893.14
453.871	1917.55
454.244	1966.59
454.618	1950.09
454.992	2001.84
455.365	1999.81
455.739	2023.53
456.112	2038.45
456.486	2079.35
456.859	2095.85
457.232	2153.7
457.606	2127.94
457.979	2186.47
458.352	2211.55
458.725	2201.61
459.099	2231.89
459.472	2265.56
459.845	2319.57
460.218	2294.94
460.591	2343.75
460.964	2396.18
461.337	2391.21
461.71	2449.96
462.083	2459.23
462.456	2467.59
462.829	2513.46
463.201	2517.31
463.574	2537.19
463.947	2599.11
464.32	2606.57
464.692	2602.5
465.065	2668.04
465.438	2682.05
465.81	2743.74
466.183	2755.04
466.555	2785.55
466.928	2828.03
467.3	2813.34
467.672	2873.46
468.045	2906.22
468.417	2937.18
468.789	2920.69
469.161	3002.27
469.534	3018.76
469.906	3086.56
470.278	3130.62
470.65	3129.49
471.022	3221.92
471.394	3231.41
471.766	3257.4
472.138	3291.52
472.51	3382.82
472.882	3419.43
473.253	3444.29
473.625	3482.93
473.997	3598.86
474.369	3609.26
474.74	3635.24
475.112	3698.29
475.484	3716.15
475.855	3772.87
476.227	3899.19
476.598	3918.17
476.97	4001.11
477.341	4062.12
477.713	4146.64
478.084	4231.39
478.455	4332.63
478.827	4355.68
479.198	4474.32
479.569	4489.01
479.94	4590.25
480.311	4637.25
480.682	4722.67
481.053	4838.6
481.424	4976.23
481.795	5023.91
482.166	5072.04
482.537	5169.67
482.908	5218.03
483.279	5362.66
483.65	5476.78
484.021	5585.7
484.391	5686.04
484.762	5739.59
485.133	5822.76
485.503	5940.04
485.874	6078.79
486.244	6135.74
486.615	6299.35
486.985	6441.72
487.356	6543.42
487.726	6599.23
488.097	6799
488.467	6877.87
488.837	7030.86
489.207	7158.09
489.578	7316.5
489.948	7469.04
490.318	7665.65
490.688	7681.69
491.058	7887.11
491.428	8037.84
491.798	8091.4
492.168	8358.51
492.538	8437.6
492.908	8616.13
493.278	8746.3
493.648	8907.87
494.017	9039.17
494.387	9210.92
494.757	9297.02
495.126	9456.11
495.496	9615.2
495.866	9723.44
496.235	9967.05
496.605	10139.93
496.974	10278.23
497.344	10410.43
497.713	10593.48
498.082	10797.77
498.452	10923.64
498.821	11110.75
499.19	11152.33
499.559	11402.5
499.928	11626.67
500.298	11748.48
500.667	11963.39
501.036	12011.52
501.405	12171.52
501.774	12406.76
502.143	12579.19
502.512	12752.74
502.88	12966.98
503.249	13030.02
503.618	13356.8
503.987	13428.21
504.356	13630.23
504.724	13753.85
505.093	13882.43
505.462	14168.75
505.83	14257.56
506.199	14466.37
506.567	14762.86
506.936	14850.54
507.304	15122.62
507.672	15209.85
508.041	15392
508.409	15528.26
508.777	15837.86
509.145	16028.82
509.514	16043.05
509.882	16389.71
510.25	16310.62
510.618	16640.55
510.986	16737.05
511.354	16953.99
511.722	17265.39
512.09	17414.54
512.458	17321.21
512.826	17661.77
513.193	17813.4
513.561	17853.85
513.929	18019.27
514.297	18308.76
514.664	18453.16
515.032	18586.71
515.4	18785.13
515.767	18989.42
516.135	19111.45
516.502	19112.58
516.869	19469.63
517.237	19590.53
517.604	19669.62
517.972	19944.42
518.339	20077.52
518.706	20087.24
519.073	20282.72
519.44	20458.98
519.808	20858.52
520.175	20797.28
520.542	21136.48
520.909	21298.96
521.276	21408.11
521.643	21618.73
522.009	21774.88
522.376	22018.94
522.743	22095.32
523.11	22393.85
523.477	22650.34
523.843	22773.5
524.21	23128.97
524.577	23247.16
524.943	23380.94
525.31	23542.97
525.676	23794.04
526.043	23958.1
526.409	24184.99
526.776	24391.31
527.142	24537.07
527.508	24736.16
527.874	25005.3
528.241	25135.02
528.607	25231.96
528.973	25620.43
529.339	25509.24
529.705	25900.87
530.071	26154.43
530.437	26310.13
530.803	26463.34
531.169	26601.19
531.535	26732.94
531.901	26849.32
532.267	27027.85
532.632	27331.57
532.998	27261.74
533.364	27577.21
533.73	27468.74
534.095	27800.03
534.461	27992.8
534.826	28005.45
535.192	28052.23
535.557	28425.78
535.923	28423.07
536.288	28608.6
536.653	28746.9
537.019	28784.86
537.384	28960.23
537.749	28967.91
538.114	29200.9
538.479	29190.28
538.845	29336.04
539.21	29303.04
539.575	29524.51
539.94	29642.7
540.305	29878.17
540.67	29807.89
541.034	29904.61
541.399	30051.05
541.764	30088.11
542.129	30226.18
542.494	30398.16
542.858	30482.22
543.223	30447.19
543.587	30717.47
543.952	30658.71
544.316	30737.36
544.681	30700.52
545.045	30997.01
545.41	31126.5
545.774	31058.7
546.138	31237
546.503	31385.93
546.867	31476.09
547.231	31668.4
547.595	31771.23
547.959	31760.38
548.324	31702.98
548.688	31912.01
549.052	31986.36
549.416	32004.89
549.779	31976.19
550.143	32160.82
550.507	32357.65
550.871	32493.69
551.235	32459.34
551.599	32734.82
551.962	32854.59
552.326	33024.75
552.689	33083.28
553.053	32759.68
553.417	33108.37
553.78	33343.61
554.143	33453.22
554.507	33530.95
554.87	33698.41
555.234	33909.02
555.597	33707.9
555.96	33943.15
556.323	34148.57
556.686	34226.3
557.05	34462.46
557.413	34484.6
557.776	34579.51
558.139	34746.29
558.502	34864.03
558.865	34930.24
559.228	35194.87
559.59	35277.12
559.953	35304.24
560.316	35694.97
560.679	35659.71
561.041	35988.74
561.404	36219.7
561.767	36205.23
562.129	36331.11
562.492	36597.54
562.854	36662.62
563.217	36685
563.579	36746.46
563.941	37086.34
564.304	37204.53
564.666	37487.46
565.028	37560.68
565.39	37700.56
565.753	37957.73
566.115	37948.92
566.477	38215.8
566.839	38308.68
567.201	38658.73
567.563	38575.79
567.925	38971.04
568.287	38912.28
568.648	39150.47
569.01	39295.1
569.372	39817.34
569.734	39577.35
570.095	39956.77
570.457	40102.53
570.819	40309.53
571.18	40238.12
571.542	40607.15
571.903	40583.2
572.265	40750.43
572.626	40999.91
572.987	41190.64
573.349	41349.73
573.71	41620.46
574.071	41801.92
574.432	41947.46
574.794	42294.34
575.155	42293.44
575.516	42297.5
575.877	42614.33
576.238	42458.18
576.599	42928.9
576.96	42980.65
577.32	43179.74
577.681	43359.17
578.042	43606.17
578.403	43701.08
578.763	43871.93
579.124	43946.27
579.485	44371.12
579.845	44593.94
580.206	44472.81
580.566	44695.86
580.927	44888.85
581.287	45161.38
581.648	45114.38
582.008	45579.68
582.368	45503.3
582.728	45751.2
583.089	45898.76
583.449	46166.33
583.809	46153.45
584.169	46461.46
584.529	46579.2
584.889	46973.09
585.249	46930.15
585.609	46913.65
585.969	47479.06
586.329	47545.73
586.688	47669.11
587.048	47856.68
587.408	47979.16
587.768	48101.19
588.127	48233.84
588.487	48601.97
588.846	49009.64
589.206	48853.72
589.565	49112.92
589.925	49437.65
590.284	49491.44
590.643	49731.21
591.003	49956.29
591.362	50287.58
591.721	50467.01
592.08	50517.17
592.44	50831.97
592.799	50956.71
593.158	51112.87
593.517	51213.65
593.876	51575.45
594.235	51529.13
594.593	51759.4
594.952	51904.48
595.311	52047.53
595.67	52309.22
596.029	52603.67
596.387	52747.17
596.746	52890.45
597.104	52859.49
597.463	53081.4
597.822	53332.02
598.18	53324.78
598.538	53490.66
598.897	53834.83
599.255	53798.22
599.613	54317.75
599.972	54195.72
600.33	54320.24
600.688	54444.98
601.046	54611.53
601.404	54918.19
601.762	54874.57
602.12	55196.83
602.478	55218.75
602.836	55338.29
603.194	55264.17
603.552	55587.1
603.91	55613.54
604.268	55716.59
604.625	55802.91
604.983	56060.53
605.341	56011.95
605.698	56271.15
606.056	56432.27
606.413	56435.89
606.771	56684.02
607.128	56763.56
607.485	56769.21
607.843	56883.79
608.2	57049.88
608.557	57272.48
608.914	57185.47
609.272	57470.66
609.629	57555.41
609.986	57671.79
610.343	57718.79
610.7	57972.8
611.057	57889.64
611.414	57949.3
611.771	58194.26
612.127	58190.65
612.484	58331.43
612.841	58440.13
613.198	58383.41
613.554	58423.41
613.911	58617.07
614.267	58644.87
614.624	58732.33
614.98	58873.56
615.337	59013.9
615.693	58975.26
616.05	59058.19
616.406	59204.18
616.762	59220.9
617.118	59295.25
617.475	59271.75
617.831	59378.86
618.187	59505.86
618.543	59569.82
618.899	59693.43
619.255	59647.33
619.611	59650.49
619.967	59814.11
620.323	59949.47
620.678	59789.7
621.034	59899.75
621.39	59878.51
621.746	59903.82
622.101	60239.63
622.457	59986.08
622.812	60133.87
623.168	60222.91
623.523	60235.56
623.879	60293.87
624.234	60216.35
624.589	60309.23
624.945	60337.26
625.3	60415.45
625.655	60424.94
626.01	60493.86
626.365	60496.35
626.72	60358.27
627.075	60440.98
627.43	60427.2
627.785	60479.85
628.14	60512.17
628.495	60586.51
628.85	60603.01
629.205	60542.22
629.559	60617.02
629.914	60534.54
630.269	60547.19
630.623	60414.77
630.978	60436.91
631.332	60581.54
631.687	60581.09
632.041	60514.88
632.396	60563.46
632.75	60486.18
633.104	60548.32
633.459	60426.97
633.813	60509.45
634.167	60389.46
634.521	60488.66
634.875	60444.6
635.229	60356.92
635.583	60333.87
635.937	60292.51
636.291	60324.15
636.645	60289.35
636.999	60184.04
637.352	60242.79
637.706	60125.28
638.06	60217.71
638.413	60147.88
638.767	60068.56
639.121	60146.3
639.474	60082.57
639.828	60112.18
640.181	59954.67
640.534	60017.94
640.888	60006.19
641.241	59866.53
641.594	59888
641.947	59968.45
642.301	59879.87
642.654	59885.29
643.007	59838.96
643.36	59905.18
643.713	59873.54
644.066	59918.74
644.419	59736.14
644.771	59496.83
645.124	59318.75
645.477	59267.23
645.83	59153.11
646.182	59139.32
646.535	59092.54
646.888	59153.33
647.24	58989.95
647.593	59153.56
647.945	59034.46
648.298	58985.2
648.65	58810.97
649.002	58776.39
649.355	58749.95
649.707	58711.54
650.059	58716.96
650.411	59051.64
650.763	59088.93
651.115	59406.88
651.467	59299.77
651.819	59352.42
652.171	59261.8
652.523	59125.99
652.875	59258.41
653.227	59140
653.578	59333.89
653.93	59216.61
654.282	59094.8
654.633	59045.54
654.985	59144.52
655.337	59161.02
655.688	59101.36
656.039	59116.04
656.391	58882.15
656.742	59002.83
657.094	58902.26
657.445	58995.6
657.796	58976.39
658.147	58938.87
658.498	58914.69
658.849	58948.82
659.2	58921.02
659.551	58761.93
659.902	58968.93
660.253	58814.58
660.604	58964.41
660.955	58736.85
661.306	58880.34
661.656	58809.61
662.007	58844.64
662.358	58769.61
662.708	58822.27
663.059	58788.37
663.409	58668.6
663.76	58873.11
664.11	58749.27
664.461	58771.42
664.811	58748.82
665.161	58774.58
665.511	58683.51
665.862	58674.25
666.212	58688.71
666.562	58759.67
666.912	58642.84
667.262	58665.21
667.612	58605.32
667.962	58677.19
668.312	58559
668.662	58752.21
669.011	58714.7
669.361	58660.92
669.711	58631.99
670.06	58576.62
670.41	58583.4
670.76	58548.38
671.109	58633.8
671.459	58586.34
671.808	58575.04
672.157	58567.36
672.507	58486.68
672.856	58507.02
673.205	58542.5
673.554	58533.23
673.904	58507.47
674.253	58631.54
674.602	58424.09
674.951	58184.77
675.3	58068.84
675.649	58497.53
675.998	58427.93
676.346	58466.8
676.695	58462.73
677.044	58303.86
677.393	58421.15
677.741	58510.41
678.09	58397.87
678.438	58343.86
678.787	58390.19
679.135	58394.26
679.484	58249.85
679.832	58281.49
680.181	58298.89
680.529	58233.81
680.877	58221.38
681.225	58152.23
681.573	58320.81
681.922	58201.04
682.27	58113.13
682.618	58140.02
682.966	58083.98
683.314	58067.48
683.661	58079.01
684.009	58010.08
684.357	57976.87
684.705	57877.66
685.053	57923.99
685.4	57841.95
685.748	57748.62
686.095	57732.8
686.443	57595.86
686.79	57637.89
687.138	57730.09
687.485	57659.81
687.832	57514.96
688.18	57545.92
688.527	57493.71
688.874	57471.79
689.221	57462.75
689.568	57337.79
689.915	57250.33
690.262	57297.56
690.609	57215.3
690.956	57089.21
691.303	57161.07
691.65	57136.44
691.997	56977.8
692.344	56888.76
692.69	56821.42
693.037	56926.72
693.383	56685.37
693.73	56793.62
694.077	56598.14
694.423	56607.86
694.769	56596.11
695.116	56487.87
695.462	56455.55
695.808	56330.13
696.155	56428.66
696.501	56226.63
696.847	56300.98
697.193	56082.23
697.539	56174.88
697.885	55945.05
698.231	55966.52
698.577	55946.41
698.923	55884.72
699.269	55674.78
699.614	55570.38
699.96	55533.77
700.306	55595.91
700.651	55430.04
700.997	55382.58
701.342	55321.34
701.688	55302.13
702.033	55252.19
702.379	55202.7
702.724	55023.27
703.069	55132.19
703.415	54855.37
703.76	54888.59
704.105	54867.57
704.45	54777.63
704.795	54735.59
705.14	54642.49
705.485	54600.91
705.83	54370.63
706.175	54452.66
706.52	54305.32
706.865	54200.02
707.209	54240.92
707.554	54034.6
707.899	54177.87
708.243	53998.89
708.588	53976.29
708.932	53819.91
709.277	53856.75
709.621	53680.26
709.966	53547.83
710.31	53599.13
710.654	53417.21
710.998	53411.34
711.342	53506.47
711.687	53414.95
712.031	53158.01
712.375	53118.46
712.719	53047.73
713.063	53006.15
713.407	53166.82
713.75	52931.12
714.094	52984.45
714.438	52840.05
714.782	52758.7
715.125	52597.57
715.469	52852.48
715.812	52531.81
716.156	52536.1
716.499	52466.95
716.843	52437.35
717.186	52273.96
717.53	52481.42
717.873	52377.01
718.216	52238.26
718.559	52202.55
718.902	51959.4
719.246	52009.56
719.589	51923.92
719.932	51852.05
720.275	51943.8
720.617	51807.08
720.96	51751.94
721.303	51811.6
721.646	51807.99
721.989	51566.19
722.331	51590.82
722.674	51482.57
723.016	51452.52
723.359	51309.02
723.701	51471.27
724.044	51190.15
724.386	51204.16
724.729	51219.08
725.071	51211.85
725.413	51136.59
725.755	50965.98
726.097	50821.35
726.439	50837.62
726.782	50802.36
727.124	50912.42
727.465	50802.59
727.807	50649.37
728.149	50725.3
728.491	50527.34
728.833	50593.33
729.175	50536.16
729.516	50454.35
729.858	50413
730.199	50573.22
730.541	50399.44
730.882	50219.1
731.224	50298.42
731.565	50146.79
731.906	50163.29
732.248	50216.17
732.589	50089.16
732.93	50022.05
733.271	49963.06
733.612	49909.28
733.953	49998.09
734.294	49784.99
734.635	49719.68
734.976	49823.63
735.317	49770.3
735.658	49610.53
735.999	49470.87
736.339	49594.26
736.68	49551.1
737.021	49593.13
737.361	49306.81
737.702	49607.82
738.042	49260.03
738.383	49371.44
738.723	49398.56
739.063	49207.38
739.404	49353.14
739.744	49236.3
740.084	49109.53
740.424	49202.63
740.764	49056.42
741.104	49103.43
741.444	49007.16
741.784	48875.18
742.124	49004.67
742.464	48933.94
742.804	48774.17
743.143	48766.49
743.483	48837.44
743.823	48624.57
744.162	48675.19
744.502	48613.72
744.841	48418.7
745.181	48702.31
745.52	48363.56
745.86	48347.74
746.199	48450.34
746.538	48259.83
746.877	48350.68
747.216	48300.28
747.556	48131.47
747.895	48203.11
748.234	48065.26
748.573	48018.48
748.911	47934.42
749.25	47916.56
749.589	47681.77
749.928	47747.08
750.267	47732.84
750.605	47642.22
750.944	47712.05
751.283	47542.79
751.621	47627.31
751.96	47372.85
752.298	47328.33
752.636	47416.69
752.975	47205.4
753.313	47078.62
753.651	47317.48
753.989	47032.75
754.327	46931.05
754.666	46709.82
755.004	46793.88
755.342	46877.27
755.679	46706.65
756.017	46293.1
756.355	46527.9
756.693	46476.15
757.031	46394.8
757.368	46072.32
757.706	46165.88
758.044	45888.82
758.381	45965.66
758.719	45885.21
759.056	45699.22
759.394	45725.21
759.731	45400.25
760.068	45343.53
760.405	45364.09
760.743	45148.05
761.08	45228.5
761.417	45103.98
761.754	45029.64
762.091	44948.73
762.428	44678.91
762.765	44496.54
763.102	44530.44
763.438	44389.88
763.775	44179.71
764.112	44115.08
764.449	44002.09
764.785	43942.88
765.122	43643.46
765.458	43566.62
765.795	43601.65
766.131	43541.54
766.467	43395.78
766.804	43010.93
767.14	42832.86
767.476	42718.06
767.812	42639.87
768.148	42690.04
768.485	42504.5
768.821	42217.05
769.157	42172.54
769.492	42052.31
769.828	41884.86
770.164	41630.4
770.5	41424.31
770.836	41539.11
771.171	41446.23
771.507	41262.28
771.842	40869.07
772.178	40920.59
772.513	40651.9
772.849	40580.94
773.184	40607.83
773.519	40550.2
773.855	40304.11
774.19	40174.85
774.525	39989.99
774.86	39927.4
775.195	39769.43
775.53	39548.88
775.865	39371.93
776.2	39128.77
776.535	38834.77
776.87	38908.21
777.205	38710.93
777.539	38597.26
777.874	38552.52
778.209	38324.05
778.543	38243.82
778.878	38011.97
779.212	38091.96
779.547	37688.59
779.881	37849.71
780.215	37503.96
780.55	37639.32
780.884	37172.44
781.218	37146
781.552	37169.73
781.886	36923.63
782.22	36723.86
782.554	36509.41
782.888	36282.97
783.222	36236.87
783.556	36110.55
783.889	35949.42
784.223	35746.49
784.557	35725.93
784.89	35768.41
785.224	35637.11
785.557	35299.95
785.891	35235.77
786.224	35198.71
786.558	35088.65
786.891	34919.17
787.224	34622
787.557	34720.98
787.891	34445.73
788.224	34258.84
788.557	34346.75
788.89	34254.55
789.223	34124.16
789.556	33844.62
789.888	33836.94
790.221	33744.96
790.554	33487.34
790.887	33587.22
791.219	33428.81
791.552	33386.33
791.884	33097.07
792.217	32935.04
792.549	32881.48
792.882	32612.79
793.214	32595.16
793.546	32668.6
793.879	32432.45
794.211	32352.91
794.543	32377.54
794.875	32169.86
795.207	32111.56
795.539	32143.65
795.871	32001.96
796.203	31935.52
796.535	31689.2
796.867	31664.79
797.198	31503.89
797.53	31376.89
797.862	31189.1
798.193	31281.75
798.525	31076.56
798.856	31147.51
799.188	30759.73
799.519	30680.63
799.85	30493.75
800.182	30485.84
800.513	30608.55
800.844	30221.66
801.175	30312.51
801.506	30395.22
801.837	30232.51
802.168	29982.57
802.499	30138.95
802.83	29858.51
803.161	29758.17
803.491	29647.44
803.822	29795.23
804.153	29514.34
804.483	29470.5
804.814	29189.37
805.145	29353.66
805.475	29101.47
805.805	29074.8
806.136	29089.94
806.466	28830.51
806.796	28817.86
807.126	28831.64
807.457	28669.16
807.787	28687.92
808.117	28536.74
808.447	28445.21
808.777	28537.64
809.107	28230.3
809.436	28115.96
809.766	28158.44
810.096	28157.31
810.426	27965.23
810.755	28088.16
811.085	27901.27
811.414	28005
811.744	27755.51
812.073	27768.62
812.403	27487.5
812.732	27417.89
813.061	27561.17
813.39	27175.64
813.719	27199.6
814.049	27473.94
814.378	27238.01
814.707	27093.16
815.036	27100.62
815.365	27056.77
815.693	26815.42
816.022	26823.11
816.351	26662.43
816.68	26580.85
817.008	26624.02
817.337	26449.33
817.665	26399.62
817.994	26427.64
818.322	26518.48
818.651	26374.08
818.979	26283.24
819.307	26399.16
819.636	26148.1
819.964	26021.1
820.292	26176.57
820.62	26078.5
820.948	26085.73
821.276	26095.22
821.604	26064.48
821.932	26192.62
822.259	26128.21
822.587	26161.2
822.915	25928.67
823.243	26101.55
823.57	25864.49
823.898	26156.69
824.225	26004.15
824.553	25876.24
824.88	26040.08
825.207	25973.87
825.535	25972.28
825.862	26028.1
826.189	25880.76
826.516	26116.91
826.843	26102.9
827.17	26146.74
827.497	26060.64
827.824	26052.73
828.151	26047.31
828.478	25931.15
828.805	26099.29
829.131	26000.53
829.458	25940.65
829.785	25824.49
830.111	25873.75
830.438	26116.91
830.764	25989.68
831.09	25915.56
831.417	25896.13
831.743	25958.27
832.069	25841.67
832.395	25869.69
832.722	26008.21
833.048	25759.63
833.374	25950.59
833.7	25735
834.026	25750.59
834.351	25689.58
834.677	25850.93
835.003	25853.42
835.329	25648.68
835.654	25618.62
835.98	25527.55
836.306	25645.29
836.631	25520.77
836.956	25685.74
837.282	25643.93
837.607	25556.93
837.932	25542.69
838.258	25393.09
838.583	25426.53
838.908	25341.11
839.233	25379.98
839.558	25260.21
839.883	25282.36
840.208	25071.29
840.533	25225.64
840.858	25236.71
841.182	25243.71
841.507	25084.85
841.832	24974.57
842.156	25035.58
842.481	24959.65
842.805	24865.42
843.13	24818.42
843.454	24832.65
843.778	24593.11
844.103	24626.78
844.427	24586.56
844.751	24568.03
845.075	24566.44
845.399	24436.96
845.723	24374.81
846.047	24268.83
846.371	24236.28
846.695	24066.8
847.019	24067.7
847.343	23880.13
847.666	23751.55
847.99	23643.76
848.313	23599.69
848.637	23644.89
848.96	23524.89
849.284	23429.3
849.607	23284.44
849.931	23225.01
850.254	23102.53
850.577	22949.99
850.9	22779.82
851.223	22844.68
851.546	22724.23
851.869	22598.13
852.192	22736.89
852.515	22404.47
852.838	22370.34
853.161	22375.32
853.483	22211.93
853.806	22167.86
854.129	22133.74
854.451	21990.02
854.774	21981.65
855.096	21900.98
855.419	21836.57
855.741	21755.9
856.063	21674.54
856.385	21541.67
856.708	21542.8
857.03	21456.02
857.352	21417.37
857.674	21362.69
857.996	21260.99
858.318	21109.36
858.64	21165.86
858.961	21002.47
859.283	21102.13
859.605	20960.21
859.926	20965.86
860.248	20894.9
860.57	20836.15
860.891	20863.72
861.212	20786.2
861.534	20609.26
861.855	20631.86
862.176	20658.98
862.498	20576.04
862.819	20540.34
863.14	20410.85
863.461	20433.22
863.782	20347.35
864.103	20382.15
864.424	20325.43
864.745	20258.31
865.065	20068.94
865.386	20108.26
865.707	20057.18
866.027	20073.68
866.348	20028.48
866.668	19995.94
866.989	20001.37
867.309	19828.94
867.63	20028.71
867.95	19978.32
868.27	19754.82
868.59	19862.61
868.91	19781.71
869.23	19623.3
869.55	19616.52
869.87	19616.07
870.19	19629.4
870.51	19567.93
870.83	19497.43
871.15	19514.37
871.469	19442.96
871.789	19502.4
872.109	19499.23
872.428	19319.58
872.748	19434.15
873.067	19377.43
873.386	19341.27
873.706	19334.94
874.025	19247.94
874.344	19219.24
874.663	19264.89
874.982	19131.33
875.301	19144.44
875.62	19001.39
875.939	19078
876.258	19054.5
876.577	18893.37
876.896	18995.52
877.214	18865.35
877.533	18981.96
877.852	18912.81
878.17	18903.32
878.489	18890.21
878.807	18694.28
879.125	18800.72
879.444	18753.04
879.762	18706.49
880.08	18720.72
880.398	18555.53
880.716	18535.87
881.034	18503.78
881.352	18579.48
881.67	18441.63
881.988	18444.8
882.306	18370
882.624	18391.01
882.941	18344.46
883.259	18276.67
883.577	18207.97
883.894	18214.07
884.212	18169.78
884.529	18066.95
884.846	17954.41
885.164	17968.43
885.481	17942.66
885.798	17982.21
886.115	17808.88
886.432	17933.85
886.75	17833.74
887.067	17871.71
887.383	17665.16
887.7	17752.61
888.017	17572.96
888.334	17530.47
888.651	17455.22
888.967	17464.26
889.284	17395.11
889.6	17365.5
889.917	17375.45
890.233	17301.1
890.55	17254.32
890.866	17175.45
891.182	17065.62
891.498	17249.8
891.815	17004.61
892.131	16953.54
892.447	16996.7
892.763	16859.53
893.079	16855.23
893.395	16786.76
893.71	16762.81
894.026	16656.82
894.342	16724.39
894.657	16533.21
894.973	16501.8
895.289	16504.96
895.604	16496.37
895.92	16477.62
896.235	16364.63
896.55	16314.46
896.865	16263.84
897.181	16185.42
897.496	16224.74
897.811	15983.62
898.126	16020.91
898.441	15998.76
898.756	15893.9
899.071	15874.02
899.386	15914.24
899.7	15754.25
900.015	15687.13
900.33	15587.25
900.644	15579.34
900.959	15580.24
901.273	15454.59
901.588	15390.87
901.902	15339.79
902.216	15336.86
902.531	15238.78
902.845	15153.36
903.159	15044.89
903.473	14995.62
903.787	14920.37
904.101	14932.8
904.415	14884.44
904.729	14902.74
905.042	14764.89
905.356	14737.32
905.67	14744.78
905.984	14767.15
906.297	14683.09
906.611	14517.67
906.924	14535.07
907.237	14489.42
907.551	14380.72
907.864	14346.6
908.177	14278.81
908.491	14249.2
908.804	14177.79
909.117	14027.96
909.43	13947.51
909.743	13938.02
910.056	13932.83
910.368	13878.14
910.681	13813.73
910.994	13723.57
911.307	13701.42
911.619	13540.52
911.932	13553.85
912.244	13435.89
912.557	13508.2
912.869	13448.77
913.181	13351.6
913.494	13320.19
913.806	13200.87
914.118	13144.37
914.43	13121.1
914.742	13105.28
915.054	12979.63
915.366	12863.02
915.678	12901.21
915.99	12882.46
916.302	12813.08
916.613	12601.56
916.925	12713.65
917.236	12660.77
917.548	12543.48
917.859	12495.58
918.171	12525.86
918.482	12373.32
918.794	12381
919.105	12401.79
919.416	12238.63
919.727	12176.26
920.038	12125.19
920.349	12046.77
920.66	12003.16
920.971	12113.89
921.282	12071.41
921.593	11858.53
921.903	11869.38
922.214	11807.68
922.525	11739.21
922.835	11738.99
923.146	11602.72
923.456	11609.72
923.767	11624.41
924.077	11593
924.387	11496.96
924.697	11448.15
925.008	11363.63
925.318	11303.52
925.628	11292.67
925.938	11222.16
926.248	11146.46
926.558	11089.51
926.867	11038.89
927.177	11012.9
927.487	10889.29
927.796	10922.28
928.106	10928.84
928.416	10838.67
928.725	10791.21
929.034	10740.37
929.344	10742.85
929.653	10685.23
929.962	10586.7
930.271	10574.04
930.581	10473.26
930.89	10509.86
931.199	10396.87
931.508	10353.71
931.817	10393.71
932.125	10274.16
932.434	10282.3
932.743	10119.59
933.051	10123.43
933.36	10116.65
933.669	10007.28
933.977	10019.48
934.286	9994.4
934.594	10011.57
934.902	9878.7
935.21	9855.64
935.519	9791.01
935.827	9793.27
936.135	9713.28
936.443	9624.46
936.751	9602.09
937.059	9598.25
937.367	9520.74
937.674	9525.71
937.982	9515.77
938.29	9403.45
938.597	9464.69
938.905	9324.36
939.213	9296.11
939.52	9244.36
939.827	9296.34
940.135	9223.57
940.442	9212.72
940.749	9156
941.056	9130.92
941.363	9009.34
941.67	8997.59
941.977	8968.44
942.284	8882.56
942.591	8821.1
942.898	8791.72
943.205	8833.98
943.511	8798.5
943.818	8738.16
944.125	8746.75
944.431	8609.12
944.738	8600.76
945.044	8598.5
945.35	8495.23
945.657	8445.74
945.963	8439.41
946.269	8372.07
946.575	8391.73
946.881	8347.21
947.187	8340.66
947.493	8226.54
947.799	8203.26
948.105	8162.13
948.41	8089.59
948.716	8090.49
949.022	8032.64
949.327	8102.7
949.633	7984.51
949.938	7929.14
950.244	7920.78
950.549	7889.37
950.854	7867
951.16	7735.47
951.465	7729.15
951.77	7740.45
952.075	7681.69
952.38	7692.09
952.685	7598.08
952.99	7558.08
953.294	7592.88
953.599	7541.58
953.904	7503.39
954.209	7470.4
954.513	7412.09
954.818	7376.61
955.122	7344.07
955.426	7358.31
955.731	7270.18
956.035	7263.17
956.339	7247.58
956.643	7141.14
956.948	7151.76
957.252	7133.23
957.556	7144.53
957.86	7059.79
958.163	7064.53
958.467	6956.29
958.771	6990.18
959.075	6980.69
959.378	6894.37
959.682	6898.21
959.985	6810.53
960.289	6847.81
960.592	6775.5
960.896	6770.98
961.199	6756.29
961.502	6754.03
961.805	6683.98
962.108	6660.7
962.411	6622.96
962.714	6606.01
963.017	6541.83
963.32	6543.42
963.623	6490.54
963.926	6468.16
964.228	6461.16
964.531	6449.86
964.833	6393.14
965.136	6362.18
965.438	6274.72
965.741	6272.24
966.043	6206.02
966.345	6223.88
966.648	6239.24
966.95	6181.17
967.252	6152.47
967.554	6095.97
967.856	6087.38
968.158	6037.67
968.46	6031.79
968.761	5996.09
969.063	6005.35
969.365	5936.43
969.666	5952.02
969.968	5901.4
970.269	5861.4
970.571	5893.26
970.872	5828.63
971.174	5779.82
971.475	5755.41
971.776	5730.1
972.077	5680.61
972.378	5686.49
972.679	5691.91
972.98	5661.18
973.281	5629.77
973.582	5614.4
973.883	5588.64
974.183	5541.18
974.484	5552.71
974.785	5453.5
975.085	5454.4
975.386	5448.53
975.686	5400.85
975.986	5370.34
976.287	5340.74
976.587	5323.33
976.887	5293.5
977.187	5284.01
977.487	5236.11
977.787	5285.14
978.087	5234.3
978.387	5197.24
978.687	5179.84
978.987	5121.98
979.286	5114.75
979.586	5096
979.885	5051.03
980.185	5033.85
980.484	5045.6
980.784	4991.59
981.083	4996.34
981.382	4991.14
981.682	4971.71
981.981	4990.01
982.28	4890.13
982.579	4853.29
982.878	4858.04
983.177	4845.83
983.475	4836.57
983.774	4772.16
984.073	4714.54
984.372	4741.43
984.67	4709.57
984.969	4687.87
985.267	4729
985.566	4695.33
985.864	4596.8
986.162	4648.32
986.461	4594.31
986.759	4587.99
987.057	4545.28
987.355	4538.5
987.653	4456.46
987.951	4503.24
988.249	4450.59
988.547	4451.49
988.844	4386.64
989.142	4401.32
989.44	4381.44
989.737	4334.89
990.035	4362
990.332	4319.97
990.63	4290.82
990.927	4297.6
991.224	4266.41
991.521	4217.37
991.819	4195.91
992.116	4153.87
992.413	4192.29
992.71	4155.68
993.006	4111.39
993.303	4116.36
993.6	4096.25
993.897	4083.37
994.193	4062.8
994.49	4007.66
994.787	3997.04
995.083	3944.39
995.379	3943.03
995.676	3942.13
995.972	3900.1
996.268	3874.11
996.565	3866.65
996.861	3849.48
997.157	3823.04
997.453	3802.24
997.749	3818.97
998.044	3738.07
998.34	3735.58
998.636	3743.72
998.932	3679.31
999.227	3659.2
999.523	3624.85
999.818	3644.28
1000.114	3607
1000.409	3609.48
1000.704	3566.32
1001	3554.34
1001.295	3534.91
1001.59	3510.05
1001.885	3527.68
1002.18	3479.09
1002.475	3477.96
1002.77	3467.79
1003.065	3451.75
1003.359	3441.35
1003.654	3420.11
1003.949	3384.18
1004.243	3360.22
1004.538	3339.66
1004.832	3343.95
1005.127	3330.39
1005.421	3253.78
1005.715	3242.94
1006.009	3239.77
1006.304	3214.69
1006.598	3174.01
1006.892	3181.92
1007.186	3135.6
1007.48	3157.29
1007.773	3132.66
1008.067	3098.53
1008.361	3054.92
1008.655	3066.44
1008.948	3004.75
1009.242	3033
1009.535	2997.29
1009.829	2985.77
1010.122	2935.83
1010.415	2922.72
1010.708	2926.34
1011.001	2912.1
1011.295	2881.36
1011.588	2856.51
1011.881	2849.28
1012.173	2857.18
1012.466	2828.26
1012.759	2828.71
1013.052	2805.66
1013.344	2786.45
1013.637	2739
1013.93	2771.54
1014.222	2727.7
1014.514	2710.07
1014.807	2696.29
1015.099	2667.36
1015.391	2657.87
1015.683	2621.26
1015.976	2616.51
1016.268	2558.21
1016.56	2574.93
1016.851	2592.11
1017.143	2548.94
1017.435	2531.32
1017.727	2514.14
1018.018	2544.42
1018.31	2450.64
1018.602	2458.1
1018.893	2438.66
1019.185	2416.07
1019.476	2387.82
1019.767	2414.71
1020.058	2347.82
1020.35	2356.86
1020.641	2351.66
1020.932	2357.99
1021.223	2325.67
1021.514	2295.39
1021.804	2256.97
1022.095	2278.44
1022.386	2267.82
1022.677	2195.96
1022.967	2235.28
1023.258	2202.96
1023.548	2187.82
1023.839	2163.42
1024.129	2144.89
1024.419	2139.69
1024.709	2127.26
1025	2115.28
1025.29	2089.97
1025.58	2078.45
1025.87	2079.8
1026.16	2059.24
1026.449	2019.47
1026.739	2025.12
1027.029	2018.79
1027.319	1983.08
1027.608	1950.77
1027.898	1959.58
1028.187	1943.76
1028.477	1952.35
1028.766	1927.72
1029.055	1885.68
1029.344	1899.02
1029.634	1903.54
1029.923	1878.91
1030.212	1893.82
1030.501	1832.13
1030.79	1805.91
1031.078	1831.9
1031.367	1817.21
1031.656	1769.53
1031.945	1771.79
1032.233	1754.39
1032.522	1712.13
1032.81	1753.03
1033.099	1719.36
1033.387	1695.18
1033.675	1692.47
1033.963	1665.35
1034.251	1671
1034.54	1663.77
1034.828	1630.55
1035.116	1636.43
1035.403	1606.6
1035.691	1595.97
1035.979	1628.74
1036.267	1588.29
1036.554	1550.55
1036.842	1570.66
1037.129	1546.03
1037.417	1545.81
1037.704	1500.61
1037.992	1520.72
1038.279	1523.66
1038.566	1490.22
1038.853	1490.22
1039.14	1490.22
