Data from 142_FLMS001491_003.txt Node
Date: Thu Apr 19 16:09:00 BST 2018
User: hsy
Spectrometer: FLMS00149
Trigger mode: 0
Integration Time (sec): 1.000000E-2
Scans to average: 10
Electric dark correction enabled: true
Nonlinearity correction enabled: false
Boxcar width: 0
XAxis mode: Wavelengths
Number of Pixels in Spectrum: 2048
>>>>>Begin Spectral Data<<<<<
341.393	3.12
341.776	3.12
342.16	3.12
342.543	-64
342.927	-82.3
343.31	-51.11
343.693	-74.16
344.077	-66.48
344.46	-43.43
344.843	-46.37
345.226	-45.46
345.61	-39.36
345.993	-26.71
346.376	-11.57
346.759	0.86
347.142	25.95
347.525	41.54
347.908	63.68
348.291	65.27
348.674	93.97
349.057	113.4
349.44	140.07
349.823	136
350.206	167.18
350.588	244.47
350.971	239.05
351.354	259.39
351.737	270.91
352.119	281.08
352.502	302.55
352.884	308.42
353.267	307.29
353.65	329.44
354.032	339.61
354.414	339.84
354.797	345.94
355.179	342.77
355.562	375.09
355.944	371.93
356.326	389.33
356.709	379.83
357.091	375.31
357.473	384.35
357.855	380.96
358.238	384.35
358.62	370.8
359.002	383.9
359.384	410.12
359.766	401.08
360.148	377.35
360.53	371.7
360.912	359.27
361.294	373.96
361.676	383
362.057	373.28
362.439	387.52
362.821	386.16
363.203	357.01
363.584	366.28
363.966	366.28
364.348	382.32
364.729	369.44
365.111	359.72
365.493	368.31
365.874	372.15
366.256	369.21
366.637	358.59
367.019	380.74
367.4	377.35
367.781	363.56
368.163	371.25
368.544	368.76
368.925	376.22
369.306	378.25
369.688	359.72
370.069	379.83
370.45	384.81
370.831	380.74
371.212	379.83
371.593	383
371.974	383.9
372.355	396.11
372.736	388.87
373.117	380.74
373.498	380.06
373.879	356.33
374.26	384.81
374.641	383.45
375.021	385.48
375.402	381.64
375.783	390.23
376.163	415.09
376.544	401.53
376.925	378.93
377.305	371.25
377.686	403.56
378.066	406.05
378.447	403.79
378.827	408.99
379.208	406.27
379.588	387.52
379.968	417.35
380.349	398.37
380.729	401.98
381.109	418.7
381.489	411.02
381.87	430.23
382.25	439.04
382.63	408.76
383.01	404.47
383.39	420.29
383.77	428.19
384.15	438.59
384.53	458.7
384.91	425.48
385.29	420.96
385.67	471.58
386.049	434.3
386.429	446.73
386.809	448.53
387.189	440.85
387.568	457.35
387.948	451.25
388.328	463.22
388.707	476.78
389.087	463.9
389.466	467.52
389.846	464.8
390.225	476.33
390.605	493.73
390.984	509.55
391.363	467.97
391.743	500.74
392.122	501.41
392.501	492.6
392.881	507.29
393.26	478.36
393.639	525.82
394.018	491.24
394.397	513.39
394.776	511.36
395.155	524.92
395.534	516.55
395.913	517.91
396.292	522.66
396.671	526.5
397.05	518.59
397.429	533.05
397.808	540.96
398.186	533.73
398.565	542.32
398.944	529.89
399.323	547.06
399.701	566.72
400.08	544.12
400.458	585.03
400.837	581.19
401.215	574.41
401.594	572.37
401.972	568.53
402.351	588.87
402.729	580.28
403.107	578.7
403.486	587.51
403.864	595.42
404.242	585.7
404.62	607.17
404.999	611.69
405.377	612.82
405.755	627.51
406.133	643.33
406.511	620.51
406.889	638.58
407.267	647.17
407.645	638.13
408.023	658.25
408.401	640.84
408.779	643.78
409.156	681.3
409.534	674.97
409.912	688.08
410.29	681.75
410.667	690.79
411.045	712.26
411.422	721.75
411.8	714.29
412.178	727.62
412.555	760.62
412.933	752.03
413.31	748.64
413.687	770.78
414.065	760.84
414.442	759.94
414.819	800.61
415.197	788.19
415.574	779.15
415.951	807.39
416.328	806.26
416.705	798.81
417.082	816.21
417.46	820.05
417.837	825.25
418.214	826.83
418.591	831.8
418.967	857.56
419.344	856.88
419.721	863.21
420.098	862.53
420.475	873.83
420.852	869.77
421.228	889.88
421.605	898.01
421.982	882.65
422.358	926.94
422.735	901.85
423.111	895.53
423.488	936.88
423.864	928.29
424.241	923.1
424.617	949.31
424.994	962.19
425.37	977.56
425.746	987.95
426.123	981.63
426.499	980.27
426.875	991.34
427.251	1041.29
427.627	1041.74
428.003	1032.7
428.379	1035.18
428.756	1048.07
429.132	1073.38
429.507	1084.67
429.883	1077.9
430.259	1091
430.635	1112.92
431.011	1109.08
431.387	1140.27
431.763	1155.41
432.138	1154.28
432.514	1176.2
432.89	1166.93
433.265	1194.28
433.641	1228.85
434.016	1228.4
434.392	1240.83
434.767	1274.73
435.143	1239.7
435.518	1259.36
435.894	1291.9
436.269	1281.73
436.644	1273.14
437.02	1305.46
437.395	1350.66
437.77	1340.04
438.145	1358.79
438.52	1353.82
438.895	1368.51
439.271	1341.62
439.646	1361.05
440.021	1400.37
440.395	1399.47
440.77	1384.33
441.145	1441.73
441.52	1420.03
441.895	1449.41
442.27	1458.68
442.645	1450.09
443.019	1470.2
443.394	1484.44
443.769	1491.22
444.143	1498.9
444.518	1499.35
444.892	1523.99
445.267	1500.71
445.641	1509.52
446.016	1495.74
446.39	1535.51
446.764	1565.79
447.139	1540.48
447.513	1566.7
447.887	1580.26
448.262	1580.03
448.636	1583.42
449.01	1600.82
449.384	1616.64
449.758	1643.76
450.132	1656.64
450.506	1632.01
450.88	1650.08
451.254	1686.01
451.628	1707.71
452.002	1719.91
452.376	1722.4
452.75	1743.41
453.123	1742.74
453.497	1794.49
453.871	1781.15
454.244	1787.48
454.618	1826.58
454.992	1876.97
455.365	1858.67
455.739	1904.31
456.112	1938.21
456.486	1910.42
456.859	1950.87
457.232	1987.7
457.606	1987.02
457.979	2021.15
458.352	2064.54
458.725	2059.79
459.099	2107.7
459.472	2139.79
459.845	2155.38
460.218	2190.63
460.591	2219.11
460.964	2219.33
461.337	2245.77
461.71	2257.98
462.083	2287.36
462.456	2354.02
462.829	2336.39
463.201	2367.58
463.574	2377.3
463.947	2414.13
464.32	2433.34
464.692	2490.74
465.065	2461.14
465.438	2494.81
465.81	2558.08
466.183	2562.15
466.555	2586.78
466.928	2646.44
467.3	2639.44
467.672	2651.64
468.045	2765.53
468.417	2748.81
468.789	2726.21
469.161	2778.64
469.534	2869.26
469.906	2852.54
470.278	2897.51
470.65	2924.17
471.022	3000.56
471.394	3018.18
471.766	3070.16
472.138	3099.76
472.51	3179.08
472.882	3189.7
473.253	3166.65
473.625	3270.15
473.997	3338.4
474.369	3374.33
474.74	3434.9
475.112	3484.16
475.484	3503.37
475.855	3584.95
476.227	3608
476.598	3705.85
476.97	3726.19
477.341	3811.61
477.713	3881.89
478.084	3935.22
478.455	3996.46
478.827	4067.65
479.198	4162.11
479.569	4175.44
479.94	4262.22
480.311	4314.87
480.682	4423.12
481.053	4540.86
481.424	4653.17
481.795	4716.22
482.166	4748.53
482.537	4835.54
482.908	4945.36
483.279	5032.14
483.65	5188.07
484.021	5292.25
484.391	5310.33
484.762	5404.34
485.133	5466.93
485.503	5541.51
485.874	5741.28
486.244	5826.7
486.615	5935.39
486.985	6030.31
487.356	6144.2
487.726	6244.09
488.097	6369.96
488.467	6465.55
488.837	6627.35
489.207	6756.39
489.578	6884.75
489.948	7000
490.318	7165.42
490.688	7234.12
491.058	7417.84
491.428	7518.86
491.798	7674.11
492.168	7854.67
492.538	7967.21
492.908	8193.19
493.278	8296.69
493.648	8352.73
494.017	8581.88
494.387	8761.54
494.757	8900.97
495.126	8994.52
495.496	9125.14
495.866	9324.68
496.235	9486.26
496.605	9749.53
496.974	9799.7
497.344	10048.28
497.713	10167.83
498.082	10316.07
498.452	10509.29
498.821	10618.21
499.19	10741.37
499.559	11026.79
499.928	11144.52
500.298	11304.52
500.667	11485.98
501.036	11517.39
501.405	11815.01
501.774	11935.69
502.143	12129.13
502.512	12289.8
502.88	12568.44
503.249	12641.66
503.618	12849.34
503.987	12977.24
504.356	13177.69
504.724	13364.13
505.093	13566.38
505.462	13727.51
505.83	13894.28
506.199	14154.16
506.567	14383.53
506.936	14408.62
507.304	14628.05
507.672	14873.46
508.041	14972.67
508.409	15193.46
508.777	15369.72
509.145	15636.38
509.514	15672.31
509.882	15875.92
510.25	15990.05
510.618	16250.83
510.986	16386.65
511.354	16578.73
511.722	16759.06
512.09	16924.71
512.458	16931.26
512.826	17375.55
513.193	17389.78
513.561	17646.5
513.929	17812.6
514.297	17925.81
514.664	18132.81
515.032	18377.55
515.4	18521.96
515.767	18717.43
516.135	18764.89
516.502	18765.79
516.869	19135.5
517.237	19335.95
517.604	19356.28
517.972	19658.88
518.339	19789.72
518.706	19947.23
519.073	19956.72
519.44	20200.56
519.808	20517.84
520.175	20512.86
520.542	20774.78
520.909	21010.7
521.276	21064.94
521.643	21373.86
522.009	21510.13
522.376	21652.04
522.743	21820.17
523.11	22165.93
523.477	22387.84
523.843	22451.34
524.21	22802.3
524.577	22906.47
524.943	23112.34
525.31	23290.19
525.676	23639.11
526.043	23844.53
526.409	23937.63
526.776	24162.03
527.142	24161.81
527.508	24437.06
527.874	24756.82
528.241	24787.55
528.607	24901.45
528.973	25234.1
529.339	25296.47
529.705	25595.67
530.071	25841.76
530.437	25950.24
530.803	26161.08
531.169	26203.34
531.535	26322.66
531.901	26583.21
532.267	26701.85
532.632	27062.75
532.998	27019.36
533.364	27263.87
533.73	27340.48
534.095	27646.01
534.461	27652.11
534.826	27796.97
535.192	27915.83
535.557	28154.02
535.923	28119.67
536.288	28272.21
536.653	28479.21
537.019	28393.11
537.384	28638.53
537.749	28772.76
538.114	28826.32
538.479	28737.28
538.845	29111.73
539.21	28948.57
539.575	29284.39
539.94	29243.26
540.305	29432.63
540.67	29605.51
541.034	29645.96
541.399	29761.43
541.764	29784.49
542.129	29830.13
542.494	30002.56
542.858	30174.31
543.223	30138.6
543.587	30318.26
543.952	30351.48
544.316	30542.43
544.681	30452.94
545.045	30652.48
545.41	30889.99
545.774	30770.67
546.138	30940.16
546.503	30998.46
546.867	31185.35
547.231	31360.49
547.595	31214.96
547.959	31504.44
548.324	31392.35
548.688	31728.39
549.052	31702.85
549.416	31796.64
549.779	31851.1
550.143	31983.3
550.507	32183.07
550.871	32235.49
551.235	32181.26
551.599	32634.13
551.962	32657.86
552.326	32712.77
552.689	32905.53
553.053	32711.19
553.417	32752.77
553.78	33088.58
554.143	33110.5
554.507	33205.19
554.87	33453.54
555.234	33712.74
555.597	33419.42
555.96	33680.65
556.323	33831.84
556.686	33923.81
557.05	34151.6
557.413	34166.74
557.776	34248.55
558.139	34562.66
558.502	34524.93
558.865	34624.13
559.228	34883.79
559.59	34943.45
559.953	35102.76
560.316	35571.68
560.679	35461.17
561.041	35688.28
561.404	35863.87
561.767	36076.07
562.129	36007.6
562.492	36413.69
562.854	36519.68
563.217	36475.38
563.579	36592.67
563.941	36957.63
564.304	36984.3
564.666	37333.89
565.028	37321.69
565.39	37443.27
565.753	37677.61
566.115	37769.81
566.477	37956.02
566.839	38169.12
567.201	38474.88
567.563	38278.05
567.925	38710.13
568.287	38781.08
568.648	38789.45
569.01	39240.96
569.372	39413.61
569.734	39511.24
570.095	39797.78
570.457	39969.98
570.819	40027.38
571.18	40052.01
571.542	40342.17
571.903	40501.72
572.265	40596.63
572.626	40756.63
572.987	40886.11
573.349	41158.2
573.71	41337.63
574.071	41503.5
574.432	41780.1
574.794	42046.76
575.155	42091.73
575.516	42052.19
575.877	42342.57
576.238	42423.25
576.599	42563.81
576.96	42800.19
577.32	43031.14
577.681	43103.68
578.042	43410.12
578.403	43497.34
578.763	43534.86
579.124	43668.87
579.485	44131.68
579.845	44203.54
580.206	44099.82
580.566	44315.4
580.927	44555.17
581.287	44706.13
581.648	44803.75
582.008	45134.82
582.368	45307.01
582.728	45510.85
583.089	45577.97
583.449	45673.11
583.809	45863.16
584.169	46187.22
584.529	46202.81
584.889	46648.22
585.249	46586.53
585.609	46508.57
585.969	46975.45
586.329	47054.99
586.688	47410.46
587.048	47418.37
587.408	47623.56
587.768	47742.43
588.127	47981.52
588.487	48267.62
588.846	48495.63
589.206	48414.5
589.565	48549.19
589.925	49151.66
590.284	49090.64
590.643	49392.56
591.003	49535.38
591.362	49936.95
591.721	49890.17
592.08	50135.36
592.44	50450.38
592.799	50468.01
593.158	50665.74
593.517	50853.76
593.876	51033.87
594.235	51225.28
594.593	51284.94
594.952	51508.43
595.311	51607.87
595.67	51825.04
596.029	52114.52
596.387	52278.13
596.746	52512.48
597.104	52519.93
597.463	52611.68
597.822	52867.72
598.18	52881.96
598.538	53053.7
598.897	53358.78
599.255	53236.07
599.613	53811.2
599.972	53670.86
600.33	53831.08
600.688	53936.17
601.046	54173
601.404	54478.98
601.762	54399.66
602.12	54543.38
602.478	54707.45
602.836	54826.31
603.194	54782.7
603.552	54963.26
603.91	55040.09
604.268	55184.27
604.625	55249.35
604.983	55551.72
605.341	55493.41
605.698	55771.82
606.056	55966.62
606.413	55949.45
606.771	56167.07
607.128	56231.25
607.485	56247.29
607.843	56345.59
608.2	56500.62
608.557	56663.78
608.914	56672.59
609.272	56910.1
609.629	57049.76
609.986	57183.54
610.343	57202.52
610.7	57413.82
611.057	57340.82
611.414	57388.05
611.771	57552.12
612.127	57772.45
612.484	57780.36
612.841	57883.41
613.198	57836.4
613.554	57901.49
613.911	58076.85
614.267	58082.72
614.624	58163.85
614.98	58321.59
615.337	58585.31
615.693	58510.28
616.05	58568.14
616.406	58674.12
616.762	58730.16
617.118	58782.37
617.475	58803.61
617.831	58938.97
618.187	59025.98
618.543	59042.02
618.899	59188.23
619.255	59175.8
619.611	59182.36
619.967	59300.77
620.323	59430.49
620.678	59392.97
621.034	59365.63
621.39	59371.73
621.746	59413.76
622.101	59711.16
622.457	59599.29
622.812	59649.01
623.168	59722
623.523	59725.84
623.879	59857.37
624.234	59647.2
624.589	59818.95
624.945	59769.91
625.3	59850.14
625.655	59866.63
626.01	59906.41
626.365	59967.65
626.72	59920.64
627.075	59958.61
627.43	59966.29
627.785	59968.32
628.14	59986.63
628.495	60052.84
628.85	60030.47
629.205	59984.14
629.559	60088.1
629.914	59938.72
630.269	59979.85
630.623	59944.14
630.978	59863.02
631.332	60050.58
631.687	60014.88
632.041	59995.22
632.396	59992.73
632.75	59973.07
633.104	59985.05
633.459	59894.43
633.813	59897.82
634.167	59887.87
634.521	59954.09
634.875	59922
635.229	59855.78
635.583	59773.75
635.937	59764.94
636.291	59826.63
636.645	59753.41
636.999	59689.69
637.352	59722.46
637.706	59603.14
638.06	59741.66
638.413	59638.62
638.767	59578.05
639.121	59621.89
639.474	59566.3
639.828	59506.64
640.181	59526.75
640.534	59657.15
640.888	59539.64
641.241	59329.02
641.594	59447.89
641.947	59435.46
642.301	59319.3
642.654	59391.84
643.007	59319.3
643.36	59396.14
643.713	59344.84
644.066	59409.92
644.419	59183.26
644.771	58996.82
645.124	58731.97
645.477	58688.13
645.83	58597.96
646.182	58587.34
646.535	58516.84
646.888	58549.6
647.24	58470.51
647.593	58565.88
647.945	58545.76
648.298	58463.73
648.65	58318.2
649.002	58236.17
649.355	58243.17
649.707	58220.8
650.059	58229.39
650.411	58573.56
650.763	58624.63
651.115	59056.71
651.467	58834.34
651.819	58851.74
652.171	58769.26
652.523	58698.3
652.875	58743.5
653.227	58600.9
653.578	58858.07
653.93	58639.55
654.282	58548.7
654.633	58555.48
654.985	58632.99
655.337	58576.5
655.688	58616.72
656.039	58579.43
656.391	58402.72
656.742	58453.79
657.094	58452.88
657.445	58441.81
657.796	58458.76
658.147	58314.13
658.498	58476.61
658.849	58490.17
659.2	58404.52
659.551	58302.15
659.902	58448.36
660.253	58291.53
660.604	58419.21
660.955	58223.06
661.306	58345.09
661.656	58304.19
662.007	58284.07
662.358	58334.69
662.708	58350.06
663.059	58188.71
663.409	58082.95
663.76	58269.16
664.11	58200.91
664.461	58276.39
664.811	58237.75
665.161	58216.73
665.511	58121.14
665.862	58116.62
666.212	58179.44
666.562	58211.76
666.912	58176.73
667.262	58089.96
667.612	58096.51
667.962	58169.5
668.312	58004.53
668.662	58169.73
669.011	58172.89
669.361	58090.18
669.711	58098.09
670.06	58080.92
670.41	58024.19
670.76	58031.65
671.109	58117.98
671.459	58042.05
671.808	57991.43
672.157	58059.22
672.507	57932.45
672.856	57855.39
673.205	57928.83
673.554	57973.35
673.904	57870.07
674.253	58043.18
674.602	57926.34
674.951	57573.81
675.3	57402.06
675.649	57948.94
675.998	57864.42
676.346	57878.44
676.695	57963.18
677.044	57794.14
677.393	57810.87
677.741	57917.08
678.09	57809.74
678.438	57715.73
678.787	57819.23
679.135	57762.51
679.484	57655.62
679.832	57726.58
680.181	57648.61
680.529	57638.89
680.877	57610.65
681.225	57613.81
681.573	57819.91
681.922	57613.58
682.27	57456.75
682.618	57558.67
682.966	57415.4
683.314	57423.76
683.661	57513.7
684.009	57349.18
684.357	57351.22
684.705	57339.92
685.053	57315.51
685.4	57182.86
685.748	57134.27
686.095	57251.33
686.443	57065.12
686.79	57093.15
687.138	57154.39
687.485	57125.91
687.832	56927.05
688.18	57117.33
688.527	56950.78
688.874	57005.24
689.221	56953.04
689.568	56772.25
689.915	56735.64
690.262	56841.17
690.609	56690.9
690.956	56563.67
691.303	56596.89
691.65	56514.63
691.997	56489.32
692.344	56411.13
692.69	56339.72
693.037	56365.03
693.383	56226.5
693.73	56223.34
694.077	56078.94
694.423	56123.91
694.769	55998.49
695.116	56026.96
695.462	55865.16
695.808	55823.35
696.155	55965.04
696.501	55671.49
696.847	55755.33
697.193	55550.81
697.539	55568.67
697.885	55371.61
698.231	55421.1
698.577	55360.31
698.923	55352.63
699.269	55093.42
699.614	55055.69
699.96	55003.48
700.306	55023.37
700.651	54908.12
700.997	54813.88
701.342	54791.74
701.688	54767.11
702.033	54641.01
702.379	54707.22
702.724	54498.19
703.069	54573.89
703.415	54273.33
703.76	54251.86
704.105	54237.63
704.45	54246.67
704.795	54124.64
705.14	53957.86
705.485	53992.44
705.83	53730.3
706.175	53909.27
706.52	53772.78
706.865	53697.75
707.209	53677.87
707.554	53503.64
707.899	53521.04
708.243	53428.16
708.588	53336.86
708.932	53218.45
709.277	53264.77
709.621	53040.37
709.966	52942.07
710.31	52985.46
710.654	52732.58
710.998	52831.79
711.342	52876.99
711.687	52721.96
712.031	52682.19
712.375	52512.93
712.719	52523.1
713.063	52295.08
713.407	52545.02
713.75	52383.67
714.094	52327.4
714.438	52308.86
714.782	52208.08
715.125	51977.35
715.469	52155.65
715.812	51942.55
716.156	51831.14
716.499	51803.34
716.843	51882.89
717.186	51586.62
717.53	51821.42
717.873	51721.76
718.216	51673.4
718.559	51456.46
718.902	51322.22
719.246	51321.09
719.589	51188.89
719.932	51051.27
720.275	51236.8
720.617	51169.69
720.96	51088.56
721.303	51123.59
721.646	51080.2
721.989	50869.58
722.331	50946.41
722.674	50867.32
723.016	50767.66
723.359	50686.99
723.701	50744.84
724.044	50613.77
724.386	50408.8
724.729	50457.16
725.071	50535.8
725.413	50459.2
725.755	50379.88
726.097	50132.88
726.439	50059.88
726.782	50111.63
727.124	50313.44
727.465	50063.27
727.807	50028.92
728.149	49943.96
728.491	49895.14
728.833	49935.82
729.175	49830.29
729.516	49733.79
729.858	49668.03
730.199	49952.77
730.541	49703.96
730.882	49546.9
731.224	49691.53
731.565	49502.84
731.906	49487.92
732.248	49529.05
732.589	49213.13
732.93	49341.94
733.271	49367.47
733.612	49272.33
733.953	49160.25
734.294	49140.81
734.635	49044.09
734.976	49188.27
735.317	48958.44
735.658	49017.88
735.999	48760.03
736.339	48846.36
736.68	48804.1
737.021	48783.99
737.361	48652.69
737.702	48827.37
738.042	48686.36
738.383	48697.21
738.723	48722.97
739.063	48504.67
739.404	48652.69
739.744	48560.94
740.084	48377.67
740.424	48422.87
740.764	48236.88
741.104	48431
741.444	48121.86
741.784	48045.25
742.124	48214.96
742.464	48085.7
742.804	48073.72
743.143	47992.59
743.483	48058.36
743.823	47741.75
744.162	47832.6
744.502	47955.53
744.841	47675.99
745.181	47855.42
745.52	47690.68
745.86	47786.27
746.199	47598.93
746.538	47507.64
746.877	47647.97
747.216	47515.54
747.556	47333.63
747.895	47528.2
748.234	47334.08
748.573	47371.59
748.911	47271.26
749.25	47270.35
749.589	47046.63
749.928	47122.11
750.267	46991.04
750.605	46962.56
750.944	46857.93
751.283	46573.2
751.621	46859.06
751.96	46586.76
752.298	46421.79
752.636	46607.09
752.975	46520.99
753.313	46356.03
753.651	46567.32
753.989	46224.96
754.327	46336.59
754.666	45873.55
755.004	46069.93
755.342	46066.32
755.679	46049.82
756.017	45806.89
756.355	45953.1
756.693	45678.98
757.031	45733.67
757.368	45444.86
757.706	45440.34
758.044	45360.8
758.381	45378.65
758.719	45194.25
759.056	45019.11
759.394	45001.49
759.731	44764.66
760.068	44738.22
760.405	44680.82
760.743	44492.8
761.08	44559.92
761.417	44285.57
761.754	44383.65
762.091	44150.44
762.428	43891.46
762.765	43629.77
763.102	43853.04
763.438	43735.98
763.775	43298.71
764.112	43344.35
764.449	43428.19
764.785	43238.59
765.122	43000.63
765.458	42902.56
765.795	42804.26
766.131	42770.81
766.467	42561.32
766.804	42316.59
767.14	42236.14
767.476	42100.55
767.812	41956.37
768.148	41985.75
768.485	41809.03
768.821	41493.56
769.157	41498.08
769.492	41275.93
769.828	41135.37
770.164	40812.22
770.5	40771.09
770.836	40723.18
771.171	40767.7
771.507	40609.06
771.842	40321.38
772.178	40248.16
772.513	40005.23
772.849	40036.19
773.184	39889.3
773.519	39751.68
773.855	39506.94
774.19	39566.6
774.525	39374.97
774.86	39235.99
775.195	39144.92
775.53	38845.72
775.865	38625.16
776.2	38502.22
776.535	38237.37
776.87	38273.3
777.205	38026.53
777.539	37785.18
777.874	38053.42
778.209	37610.95
778.543	37609.82
778.878	37419.09
779.212	37441.01
779.547	37147
779.881	37267.9
780.215	36967.35
780.55	36958.31
780.884	36526.68
781.218	36358.55
781.552	36655.04
781.886	36266.12
782.22	35968.28
782.554	36233.81
782.888	35784.1
783.222	35663.2
783.556	35554.95
783.889	35361.51
784.223	35188.18
784.557	35092.82
784.89	35260.5
785.224	34911.58
785.557	34670.68
785.891	34646.5
786.224	34646.73
786.558	34504.59
786.891	34354.99
787.224	34083.58
787.557	33914.32
787.891	33975.11
788.224	33738.05
788.557	33742.57
788.89	33649.02
789.223	33499.19
789.556	33256.94
789.888	33358.85
790.221	33066.21
790.554	32883.39
790.887	32839.55
791.219	32733.79
791.552	32618.99
791.884	32467.8
792.217	32467.35
792.549	32362.72
792.882	31985.33
793.214	32022.17
793.546	32001.6
793.879	31823.3
794.211	31572.23
794.543	31729.07
794.875	31474.61
795.207	31546.25
795.539	31409.75
795.871	31438
796.203	31221.28
796.535	31094.73
796.867	31006.15
797.198	30750.56
797.53	30744.23
797.862	30527.52
798.193	30467.18
798.525	30383.34
798.856	30421.98
799.188	30142.89
799.519	30033.07
799.85	29961.43
800.182	29789.91
800.513	30048.21
800.844	29683.47
801.175	29791.26
801.506	29755.11
801.837	29483.7
802.168	29416.59
802.499	29400.31
802.83	29173.88
803.161	29031.28
803.491	29071.51
803.822	29209.81
804.153	28935.69
804.483	28639.66
804.814	28627.45
805.145	28591.97
805.475	28571.18
805.805	28388.36
806.136	28593.1
806.466	28350.85
806.796	28363.73
807.126	28050.07
807.457	28069.05
807.787	28102.72
808.117	28046
808.447	27856.63
808.777	28058.88
809.107	27635.62
809.436	27602.62
809.766	27521.27
810.096	27546.8
810.426	27414.38
810.755	27511.1
811.085	27328.96
811.414	27308.62
811.744	27135.52
812.073	27111.11
812.403	27069.08
812.732	26930.77
813.061	26991.56
813.39	26808.74
813.719	26792.47
814.049	26977.33
814.378	26783.43
814.707	26503.67
815.036	26679.48
815.365	26385.48
815.693	26269.32
816.022	26341.64
816.351	26100.74
816.68	26158.14
817.008	26109.1
817.337	25920.18
817.665	25989.33
817.994	25916.56
818.322	26058.71
818.651	25805.15
818.979	25760.41
819.307	25752.73
819.636	25613.52
819.964	25628.89
820.292	25696.91
820.62	25490.13
820.948	25638.38
821.276	25625.95
821.604	25562.45
821.932	25723.35
822.259	25553.86
822.587	25644.93
822.915	25537.37
823.243	25481.77
823.57	25348.67
823.898	25557.03
824.225	25503.47
824.553	25438.38
824.88	25472.28
825.207	25528.1
825.535	25416.24
825.862	25521.09
826.189	25397.26
826.516	25636.12
826.843	25661.88
827.17	25640.64
827.497	25521.09
827.824	25559.29
828.151	25552.96
828.478	25383.02
828.805	25599.96
829.131	25591.38
829.458	25478.61
829.785	25443.36
830.111	25421.66
830.438	25543.69
830.764	25572.17
831.09	25510.7
831.417	25384.37
831.743	25524.71
832.069	25318.61
832.395	25353.42
832.722	25357.26
833.048	25370.82
833.374	25448.33
833.7	25384.15
834.026	25358.84
834.351	25277.94
834.677	25289.69
835.003	25369.91
835.329	25343.7
835.654	25180.76
835.98	25109.58
836.306	25314.77
836.631	25090.37
836.956	25251.27
837.282	25233.64
837.607	25071.16
837.932	25084.72
838.258	25042.24
838.583	24849.93
838.908	24891.28
839.233	24886.76
839.558	24834.56
839.883	24751.4
840.208	24680.44
840.533	24757.5
840.858	24494.68
841.182	24641.12
841.507	24621.91
841.832	24504.4
842.156	24637.5
842.481	24533.55
842.805	24458.3
843.13	24323.16
843.454	24319.09
843.778	24090.4
844.103	24181.92
844.427	24225.31
844.751	24153.9
845.075	24070.74
845.399	23939.22
845.723	23894.47
846.047	23987.35
846.371	23761.37
846.695	23595.95
847.019	23593.46
847.343	23422.62
847.666	23409.96
847.99	23182.85
848.313	23217.65
848.637	23210.87
848.96	23092.68
849.284	23083.42
849.607	22854.95
849.931	22854.72
850.254	22619.48
850.577	22539.48
850.9	22344
851.223	22354.17
851.546	22352.36
851.869	22247.96
852.192	22248.19
852.515	22110.34
852.838	21949.89
853.161	21908.53
853.483	21786.5
853.806	21773.85
854.129	21776.11
854.451	21627.41
854.774	21540.63
855.096	21514.42
855.419	21443.46
855.741	21466.96
856.063	21248.21
856.385	21203.69
856.708	21103.58
857.03	21090.02
857.352	21065.62
857.674	21130.02
857.996	20885.06
858.318	20805.96
858.64	20820.43
858.961	20605.07
859.283	20711.73
859.605	20568.91
859.926	20608.23
860.248	20506.54
860.57	20384.96
860.891	20416.6
861.212	20336.37
861.534	20370.27
861.855	20145.19
862.176	20303.83
862.498	20283.04
862.819	20278.52
863.14	20170.95
863.461	20050.05
863.782	19994.69
864.103	20036.27
864.424	19945.65
864.745	19993.1
865.065	19871.98
865.386	19744.52
865.707	19892.54
866.027	19770.74
866.348	19669.04
866.668	19699.33
866.989	19600.57
867.309	19549.95
867.63	19476.73
867.95	19564.41
868.27	19397.87
868.59	19480.58
868.91	19330.97
869.23	19319.45
869.55	19279.68
869.87	19353.35
870.19	19258.89
870.51	19186.8
870.83	19274.25
871.15	19109.74
871.469	19070.87
871.789	19150.19
872.109	19041.72
872.428	19043.3
872.748	19122.17
873.067	19018.89
873.386	19055.95
873.706	18930.99
874.025	18835.62
874.344	18734.83
874.663	18918.78
874.982	18849.86
875.301	18838.33
875.62	18738.45
875.939	18630.43
876.258	18690.09
876.577	18564.89
876.896	18575.74
877.214	18501.39
877.533	18477.66
877.852	18538.45
878.17	18556.53
878.489	18454.16
878.807	18402.19
879.125	18466.82
879.444	18353.6
879.762	18271.34
880.08	18324
880.398	18230.21
880.716	18239.25
881.034	18096.66
881.352	18133.72
881.67	18092.82
881.988	18175.75
882.306	18021.86
882.624	18000.16
882.941	17934.85
883.259	17917.9
883.577	17817.57
883.894	17813.5
884.212	17778.93
884.529	17744.35
884.846	17773.5
885.164	17619.61
885.481	17599.27
885.798	17686.27
886.115	17446.73
886.432	17498.25
886.75	17449.44
887.067	17461.42
887.383	17425.71
887.7	17351.14
888.017	17276.57
888.334	17293.51
888.651	17374.19
888.967	17129.22
889.284	17019.62
889.6	17021.2
889.917	16940.76
890.233	16943.01
890.55	16895.11
890.866	16844.26
891.182	16926.52
891.498	16815.56
891.815	16779.63
892.131	16613.31
892.447	16670.48
892.763	16468.45
893.079	16503.48
893.395	16480.43
893.71	16456.25
894.026	16380.54
894.342	16359.3
894.657	16164.96
894.973	16271.85
895.289	16195.69
895.604	16166.54
895.92	16029.59
896.235	15968.13
896.55	15949.59
896.865	15966.32
897.181	15860.78
897.496	15871.4
897.811	15767.23
898.126	15629.83
898.441	15680.68
898.756	15721.35
899.071	15531.07
899.386	15623.73
899.7	15404.75
900.015	15312.32
900.33	15302.61
900.644	15230.52
900.959	15274.36
901.273	15108.49
901.588	15151.2
901.902	15019.68
902.216	15001.37
902.531	14936.51
902.845	14874.82
903.159	14823.52
903.473	14830.98
903.787	14661.94
904.101	14649.06
904.415	14567.48
904.729	14602.96
905.042	14534.49
905.356	14383.08
905.67	14441.16
905.984	14381.05
906.297	14331.56
906.611	14223.76
906.924	14207.72
907.237	14185.8
907.551	14087.27
907.864	14059.47
908.177	14030.78
908.491	13999.14
908.804	13964.34
909.117	13847.05
909.43	13738.13
909.743	13650.22
910.056	13729.77
910.368	13620.39
910.681	13574.97
910.994	13537.91
911.307	13469.21
911.619	13315.31
911.932	13317.57
912.244	13250
912.557	13250.91
912.869	13154.41
913.181	13146.05
913.494	13132.04
913.806	12988.99
914.118	12903.12
914.43	12947.19
914.742	12895.21
915.054	12742.9
915.366	12812.95
915.678	12678.95
915.99	12634.2
916.302	12604.82
916.613	12590.59
916.925	12460.65
917.236	12527.54
917.548	12292.06
917.859	12375.23
918.171	12322.35
918.482	12147.43
918.794	12170.03
919.105	12095.23
919.416	12059.3
919.727	12028.79
920.038	11934.79
920.349	11955.12
920.66	11863.37
920.971	11803.94
921.282	11852.98
921.593	11691.4
921.903	11636.26
922.214	11602.59
922.525	11551.74
922.835	11457.74
923.146	11441.46
923.456	11409.83
923.767	11356.27
924.077	11297.06
924.387	11276.05
924.697	11159.66
925.008	11092.77
925.318	11058.88
925.628	11027.69
925.938	11029.27
926.248	10860.01
926.558	10863.4
926.867	10916.96
927.177	10810.52
927.487	10757.87
927.796	10622.96
928.106	10740.69
928.416	10679
928.725	10510.64
929.034	10518.33
929.344	10554.48
929.653	10482.17
929.962	10379.8
930.271	10326.69
930.581	10320.14
930.89	10213.02
931.199	10218.22
931.508	10112.01
931.817	10098.45
932.125	10106.36
932.434	9954.27
932.743	9928.28
933.051	9980.03
933.36	9891.22
933.669	9790.89
933.977	9811.68
934.286	9674.28
934.594	9749.31
934.902	9690.55
935.21	9672.92
935.519	9564
935.827	9594.96
936.135	9580.72
936.443	9440.39
936.751	9435.64
937.059	9495.08
937.367	9309.54
937.674	9378.92
937.982	9315.64
938.29	9224.12
938.597	9175.76
938.905	9126.5
939.213	9060.28
939.52	8976.9
939.827	9035.65
940.135	9018.93
940.442	8924.24
940.749	8947.97
941.056	8939.16
941.363	8765.15
941.67	8793.62
941.977	8718.15
942.284	8677.92
942.591	8675.44
942.898	8659.84
943.205	8621.2
943.511	8562.9
943.818	8592.27
944.125	8506.85
944.431	8449
944.738	8454.2
945.044	8390.47
945.35	8339.63
945.657	8326.07
945.963	8316.12
946.269	8170.82
946.575	8197.03
946.881	8173.75
947.187	8137.6
947.493	8126.98
947.799	8104.6
948.105	8063.25
948.41	7893.54
948.716	7873.42
949.022	7911.39
949.327	7873.2
949.633	7787.1
949.938	7764.27
950.244	7820.09
950.549	7790.49
950.854	7678.63
951.16	7616.71
951.465	7608.35
951.77	7604.28
952.075	7542.58
952.38	7554.11
952.685	7488.12
952.99	7413.1
953.294	7402.25
953.599	7387.11
953.904	7307.79
954.209	7335.58
954.513	7298.52
954.818	7252.2
955.122	7265.3
955.426	7200.67
955.731	7182.82
956.035	7148.92
956.339	7191.41
956.643	7107.57
956.948	7074.12
957.252	7052.88
957.556	6995.93
957.86	6921.58
958.163	6923.39
958.467	6917.74
958.771	6851.98
959.075	6874.13
959.378	6802.26
959.682	6783.06
959.985	6706.9
960.289	6686.34
960.592	6686.11
960.896	6630.74
961.199	6603.85
961.502	6569.95
961.805	6536.28
962.108	6452.67
962.411	6514.59
962.714	6411.09
963.017	6426.46
963.32	6448.6
963.623	6353.69
963.926	6371.77
964.228	6333.58
964.531	6321.6
964.833	6340.58
965.136	6241.38
965.438	6198.44
965.741	6178.1
966.043	6156.63
966.345	6119.12
966.648	6094.03
966.95	6092.45
967.252	6068.95
967.554	6007.48
967.856	6026.47
968.158	5930.88
968.46	5918.67
968.761	5902.18
969.063	5888.16
969.365	5815.62
969.666	5848.17
969.968	5755.06
970.269	5736.98
970.571	5775.85
970.872	5743.54
971.174	5660.6
971.475	5624.44
971.776	5625.8
972.077	5627.38
972.378	5591.22
972.679	5603.88
972.98	5579.02
973.281	5515.97
973.582	5493.82
973.883	5419.7
974.183	5393.71
974.484	5376.77
974.785	5306.94
975.085	5338.57
975.386	5321.63
975.686	5285.69
975.986	5311.68
976.287	5266.71
976.587	5188.97
976.887	5250.22
977.187	5204.57
977.487	5175.87
977.787	5121.86
978.087	5115.98
978.387	5115.76
978.687	5080.5
978.987	4989.2
979.286	4981.52
979.586	5002.09
979.885	4948.08
980.185	4952.14
980.484	4913.73
980.784	4938.13
981.083	4938.36
981.382	4898.81
981.682	4861.98
981.981	4827.63
982.28	4780.17
982.579	4770.45
982.878	4729.32
983.177	4753.5
983.475	4711.47
983.774	4708.53
984.073	4610.68
984.372	4662.66
984.67	4598.48
984.969	4619.27
985.267	4610.46
985.566	4580.63
985.864	4572.27
986.162	4535.43
986.461	4499.95
986.759	4461.99
987.057	4444.59
987.355	4416.34
987.653	4390.8
987.951	4358.04
988.249	4365.04
988.547	4320.97
988.844	4353.74
989.142	4314.87
989.44	4241.65
989.737	4270.35
990.035	4212.28
990.332	4192.16
990.63	4211.15
990.927	4196.68
991.224	4188.32
991.521	4155.55
991.819	4117.82
992.116	4088.44
992.413	4102.67
992.71	4020.87
993.006	4003.02
993.303	3991.94
993.6	3986.97
993.897	3963.92
994.193	3931.15
994.49	3908.56
994.787	3887.77
995.083	3894.09
995.379	3864.26
995.676	3881.66
995.972	3864.71
996.268	3809.12
996.565	3811.16
996.861	3760.76
997.157	3769.58
997.453	3716.92
997.749	3743.59
998.044	3711.27
998.34	3669.01
998.636	3641.22
998.932	3647.55
999.227	3599.41
999.523	3563.48
999.818	3580.65
1000.114	3577.94
1000.409	3547.89
1000.704	3504.05
1001	3499.98
1001.295	3500.88
1001.59	3410.26
1001.885	3422.47
1002.18	3443.93
1002.475	3379.53
1002.77	3412.98
1003.065	3337.95
1003.359	3360.55
1003.654	3382.02
1003.949	3302.92
1004.243	3300.44
1004.538	3261.11
1004.832	3250.72
1005.127	3237.84
1005.421	3197.84
1005.715	3226.77
1006.009	3169.82
1006.304	3154
1006.598	3116.26
1006.892	3126.2
1007.186	3098.63
1007.48	3082.81
1007.773	3097.96
1008.067	3043.49
1008.361	3010.5
1008.655	2996.71
1008.948	2977.28
1009.242	2970.5
1009.535	2953.55
1009.829	2923.04
1010.122	2927.34
1010.415	2873.55
1010.708	2904.97
1011.001	2811.18
1011.295	2864.97
1011.588	2846.44
1011.881	2793.33
1012.173	2786.1
1012.466	2760.56
1012.759	2780.22
1013.052	2770.51
1013.344	2732.09
1013.637	2715.37
1013.93	2704.75
1014.222	2669.72
1014.514	2657.74
1014.807	2650.51
1015.099	2607.57
1015.391	2629.94
1015.683	2597.4
1015.976	2599.66
1016.268	2551.53
1016.56	2539.55
1016.851	2527.57
1017.143	2498.65
1017.435	2502.72
1017.727	2453
1018.018	2466.79
1018.31	2441.93
1018.602	2398.54
1018.893	2424.53
1019.185	2409.61
1019.476	2372.78
1019.767	2342.72
1020.058	2344.75
1020.35	2323.51
1020.641	2320.12
1020.932	2289.16
1021.223	2281.25
1021.514	2260.69
1021.804	2229.5
1022.095	2205.55
1022.386	2212.33
1022.677	2228.15
1022.967	2191.76
1023.258	2144.53
1023.548	2178.66
1023.839	2141.37
1024.129	2133.01
1024.419	2088.04
1024.709	2096.63
1025	2044.2
1025.29	2060.02
1025.58	2026.57
1025.87	2049.85
1026.16	2016.85
1026.449	2033.35
1026.739	1987.02
1027.029	1974.82
1027.319	1954.93
1027.608	1943.41
1027.898	1939.79
1028.187	1927.82
1028.477	1921.26
1028.766	1911.55
1029.055	1871.32
1029.344	1868.38
1029.634	1864.09
1029.923	1829.51
1030.212	1819.12
1030.501	1810.98
1030.79	1787.93
1031.078	1781.38
1031.367	1751.32
1031.656	1735.28
1031.945	1734.83
1032.233	1760.82
1032.522	1736.41
1032.81	1675.17
1033.099	1660.7
1033.387	1679.24
1033.675	1694.83
1033.963	1640.59
1034.251	1640.59
1034.54	1646.24
1034.828	1625.9
1035.116	1615.73
1035.403	1599.24
1035.691	1585.23
1035.979	1578
1036.267	1543.42
1036.554	1553.59
1036.842	1547.49
1037.129	1538.67
1037.417	1516.3
1037.704	1514.27
1037.992	1519.47
1038.279	1478.11
1038.566	1462.29
1038.853	1462.29
1039.14	1462.29
