Data from 142_FLMS001491_004.txt Node
Date: Thu Apr 19 16:09:04 BST 2018
User: hsy
Spectrometer: FLMS00149
Trigger mode: 0
Integration Time (sec): 1.000000E-2
Scans to average: 10
Electric dark correction enabled: true
Nonlinearity correction enabled: false
Boxcar width: 0
XAxis mode: Wavelengths
Number of Pixels in Spectrum: 2048
>>>>>Begin Spectral Data<<<<<
341.393	-4.58
341.776	-4.58
342.16	-4.58
342.543	-61.52
342.927	-68.3
343.31	-63.56
343.693	-79.15
344.077	-82.99
344.46	-64.91
344.843	-51.13
345.226	-37.8
345.61	-34.63
345.993	-9.32
346.376	-14.75
346.759	26.16
347.142	28.42
347.525	44.46
347.908	55.99
348.291	79.04
348.674	96.44
349.057	107.74
349.44	124.91
349.823	147.96
350.206	187.51
350.588	235.87
350.971	232.93
351.354	269.09
351.737	285.13
352.119	292.14
352.502	306.83
352.884	325.58
353.267	340.5
353.65	319.26
354.032	356.32
354.414	348.41
354.797	323.32
355.179	350.67
355.562	361.06
355.944	359.48
356.326	372.14
356.709	386.6
357.091	385.7
357.473	375.53
357.855	383.21
358.238	364
358.62	383.21
359.002	395.41
359.384	398.8
359.766	387.28
360.148	384.34
360.53	399.26
360.912	385.47
361.294	382.76
361.676	372.59
362.057	392.25
362.439	380.72
362.821	391.35
363.203	372.59
363.584	377.79
363.966	380.72
364.348	377.56
364.729	383.21
365.111	385.47
365.493	364.91
365.874	384.11
366.256	394.96
366.637	354.96
367.019	372.59
367.4	367.17
367.781	354.96
368.163	375.3
368.544	366.49
368.925	371.23
369.306	359.48
369.688	363.32
370.069	364
370.45	385.7
370.831	380.5
371.212	372.36
371.593	383.21
371.974	387.28
372.355	375.07
372.736	389.76
373.117	394.28
373.498	381.85
373.879	377.11
374.26	376.2
374.641	393.38
375.021	349.09
375.402	399.48
375.783	378.24
376.163	429.08
376.544	392.93
376.925	396.77
377.305	393.38
377.686	400.61
378.066	396.09
378.447	401.06
378.827	396.09
379.208	418.24
379.588	418.92
379.968	414.4
380.349	397
380.729	411.91
381.109	413.94
381.489	417.11
381.87	436.77
382.25	439.48
382.63	424.11
383.01	418.46
383.39	430.89
383.77	430.21
384.15	439.71
384.53	429.99
384.91	427.95
385.29	429.99
385.67	428.63
386.049	445.36
386.429	448.75
386.809	458.46
387.189	452.59
387.568	471.12
387.948	474.51
388.328	459.59
388.707	481.06
389.087	459.14
389.466	459.82
389.846	466.37
390.225	484.22
390.605	480.38
390.984	474.06
391.363	502.98
391.743	492.81
392.122	493.49
392.501	498.24
392.881	519.48
393.26	519.48
393.639	503.89
394.018	511.79
394.397	517.9
394.776	515.64
395.155	529.42
395.534	533.94
395.913	520.16
396.292	551.79
396.671	522.87
397.05	536.2
397.429	524.45
397.808	543.21
398.186	537.78
398.565	539.59
398.944	554.05
399.323	549.76
399.701	532.81
400.08	549.99
400.458	571
400.837	572.58
401.215	551.57
401.594	543.21
401.972	559.93
402.351	580.04
402.729	585.24
403.107	584.56
403.486	607.61
403.864	594.28
404.242	576.88
404.62	617.33
404.999	613.26
405.377	637.21
405.755	616.88
406.133	645.12
406.511	625.92
406.889	620.49
407.267	628.4
407.645	618.68
408.023	633.37
408.401	633.37
408.779	645.12
409.156	674.95
409.534	705.46
409.912	676.54
410.29	712.47
410.667	714.73
411.045	692.58
411.422	726.25
411.8	735.97
412.178	741.84
412.555	750.88
412.933	731.68
413.31	762.18
413.687	750.66
414.065	769.41
414.442	801.28
414.819	783.43
415.197	805.12
415.574	784.78
415.951	826.36
416.328	800.83
416.705	835.85
417.082	821.62
417.46	828.62
417.837	840.15
418.214	823.88
418.591	874.27
418.967	833.37
419.344	850.99
419.721	863.2
420.098	872.91
420.475	900.03
420.852	898.45
421.228	890.32
421.605	891.9
421.982	916.53
422.358	898
422.735	921.95
423.111	927.83
423.488	925.34
423.864	923.76
424.241	967.38
424.617	981.61
424.994	974.16
425.37	960.37
425.746	968.51
426.123	975.29
426.499	996.75
426.875	993.14
427.251	1016.19
427.627	1027.04
428.003	1028.62
428.379	1055.73
428.756	1042.18
429.132	1054.61
429.507	1084.66
429.883	1093.93
430.259	1093.47
430.635	1125.11
431.011	1143.87
431.387	1160.82
431.763	1113.59
432.138	1134.6
432.514	1152
432.89	1175.51
433.265	1210.76
433.641	1228.84
434.016	1230.42
434.392	1242.85
434.767	1269.51
435.143	1236.97
435.518	1241.49
435.894	1295.05
436.269	1302.06
436.644	1288.95
437.02	1293.92
437.395	1332.79
437.77	1342.06
438.145	1349.06
438.52	1351.09
438.895	1360.81
439.271	1331.43
439.646	1396.29
440.021	1428.15
440.395	1406.91
440.77	1418.21
441.145	1431.09
441.52	1443.07
441.895	1441.04
442.27	1454.82
442.645	1461.83
443.019	1466.8
443.394	1461.6
443.769	1481.71
444.143	1473.35
444.518	1525.1
444.892	1518.32
445.267	1507.25
445.641	1511.99
446.016	1536.17
446.39	1545.89
446.764	1561.48
447.139	1561.03
447.513	1548.15
447.887	1587.02
448.262	1577.53
448.636	1587.47
449.01	1592.67
449.384	1622.95
449.758	1617.3
450.132	1650.52
450.506	1642.84
450.88	1672.67
451.254	1683.29
451.628	1705.89
452.002	1717.19
452.376	1717.41
452.75	1732.33
453.123	1763.29
453.497	1771.87
453.871	1769.61
454.244	1811.87
454.618	1855.71
454.992	1846.67
455.365	1875.37
455.739	1901.14
456.112	1951.08
456.486	1945.2
456.859	1982.04
457.232	2009.38
457.606	2031.08
457.979	2040.34
458.352	2051.19
458.725	2087.8
459.099	2118.76
459.472	2130.06
459.845	2126.44
460.218	2195.14
460.591	2226.78
460.964	2196.04
461.337	2235.14
461.71	2268.81
462.083	2307.23
462.456	2323.95
462.829	2312.65
463.201	2381.8
463.574	2361.92
463.947	2391.29
464.32	2423.16
464.692	2445.53
465.065	2516.71
465.438	2531.63
465.81	2557.39
466.183	2515.81
466.555	2603.26
466.928	2646.2
467.3	2618.63
467.672	2658.86
468.045	2762.36
468.417	2695.69
468.789	2726.88
469.161	2759.42
469.534	2824.28
469.906	2875.57
470.278	2892.3
470.65	2900.66
471.022	2964.16
471.394	2986.31
471.766	3020.66
472.138	3091.61
472.51	3132.97
472.882	3154.89
473.253	3176.36
473.625	3273.76
473.997	3327.31
474.369	3337.48
474.74	3385.17
475.112	3456.12
475.484	3477.37
475.855	3576.57
476.227	3622.22
476.598	3678.04
476.97	3663.58
477.341	3810.01
477.713	3844.36
478.084	3869.9
478.455	3986.51
478.827	3996
479.198	4169.55
479.569	4205.26
479.94	4269.66
480.311	4353.05
480.682	4425.14
481.053	4527.06
481.424	4625.81
481.795	4677.79
482.166	4750.1
482.537	4817.9
482.908	4909.19
483.279	4979.93
483.65	5138.79
484.021	5235.51
484.391	5325.45
484.762	5372.23
485.133	5426.24
485.503	5555.96
485.874	5674.6
486.244	5729.51
486.615	5891.31
486.985	5972.67
487.356	6130.18
487.726	6221.02
488.097	6398.87
488.467	6464.18
488.837	6614.46
489.207	6722.48
489.578	6864.4
489.948	6925.64
490.318	7138.29
490.688	7218.06
491.058	7392.52
491.428	7504.83
491.798	7624.83
492.168	7838.16
492.538	7935.55
492.908	8171.48
493.278	8271.59
493.648	8399.95
494.017	8568.08
494.387	8716.32
494.757	8865.47
495.126	9048.75
495.496	9158.12
495.866	9359.25
496.235	9461.16
496.605	9586.36
496.974	9799.91
497.344	9945.67
497.713	10066.12
498.082	10145.67
498.452	10402.61
498.821	10557.41
499.19	10657.52
499.559	10916.04
499.928	11062.93
500.298	11178.18
500.667	11419.98
501.036	11533.65
501.405	11695.23
501.774	11856.81
502.143	12049.34
502.512	12233.52
502.88	12487.52
503.249	12578.6
503.618	12697.91
503.987	12959.6
504.356	13088.86
504.724	13238.47
505.093	13430.32
505.462	13620.6
505.83	13760.49
506.199	13922.97
506.567	14215.84
506.936	14305.78
507.304	14584.87
507.672	14615.38
508.041	14835.71
508.409	14985.99
508.777	15292.42
509.145	15432.76
509.514	15496.26
509.882	15778.96
510.25	15863.71
510.618	16122.68
510.986	16213.3
511.354	16313.86
511.722	16659.39
512.09	16841.99
512.458	16816.9
512.826	17027.97
513.193	17182.77
513.561	17382.09
513.929	17489.88
514.297	17740.27
514.664	17909.3
515.032	18073.59
515.4	18316.3
515.767	18365.34
516.135	18478.55
516.502	18574.82
516.869	18960.12
517.237	19108.37
517.604	19101.14
517.972	19464.29
518.339	19471.52
518.706	19611.41
519.073	19872.19
519.44	19888.01
519.808	20142.24
520.175	20244.16
520.542	20523.02
520.909	20729.79
521.276	20729.12
521.643	21103.57
522.009	21169.33
522.376	21361.64
522.743	21522.99
523.11	21862.87
523.477	22023.32
523.843	22191.68
524.21	22489.07
524.577	22560.48
524.943	22801.83
525.31	22943.97
525.676	23179.9
526.043	23379.22
526.409	23649.49
526.776	23812.88
527.142	23990.27
527.508	24066.2
527.874	24289.93
528.241	24507.55
528.607	24693.31
528.973	24920.19
529.339	24996.57
529.705	25207.42
530.071	25406.73
530.437	25682.43
530.803	25759.04
531.169	25899.83
531.535	25985.02
531.901	26206.71
532.267	26274.96
532.632	26387.05
532.998	26614.61
533.364	26868.39
533.73	26888.73
534.095	27283.75
534.461	27199
534.826	27405.78
535.192	27484.64
535.557	27737.75
535.923	27694.58
536.288	27819.78
536.653	28006.89
537.019	28088.24
537.384	28211.86
537.749	28363.94
538.114	28416.37
538.479	28428.12
538.845	28561.45
539.21	28506.09
539.575	28697.95
539.94	28935.68
540.305	29125.28
540.67	29096.58
541.034	29270.13
541.399	29334.09
541.764	29414.54
542.129	29582.89
542.494	29596.45
542.858	29729.11
543.223	29756.9
543.587	30000.74
543.952	29944.24
544.316	30065.14
544.681	30177.68
545.045	30126.38
545.41	30367.05
545.774	30343.78
546.138	30375.87
546.503	30623.32
546.867	30593.72
547.231	30761.17
547.595	30933.14
547.959	31040.71
548.324	30987.83
548.688	31136.07
549.052	31320.02
549.416	31231.44
549.779	31315.28
550.143	31428.5
550.507	31571.54
550.871	31696.96
551.235	31649.05
551.599	31949.39
551.962	31990.74
552.326	32079.78
552.689	32280.68
553.053	32105.54
553.417	32280.9
553.78	32549.14
554.143	32571.97
554.507	32719.76
554.87	32842.24
555.234	33125.4
555.597	32994.33
555.96	33134.67
556.323	33240.65
556.686	33297.37
557.05	33596.12
557.413	33570.36
557.776	33767.64
558.139	34020.52
558.502	33993.17
558.865	34034.3
559.228	34425.03
559.59	34354.97
559.953	34506.83
560.316	34754.06
560.679	34808.75
561.041	35030.21
561.404	35160.83
561.767	35498.9
562.129	35393.59
562.492	35690.08
562.854	35756.74
563.217	35876.97
563.579	35861.6
563.941	36198.09
564.304	36322.83
564.666	36661.13
565.028	36655.93
565.39	36913.78
565.753	36953.55
566.115	37108.8
566.477	37179.08
566.839	37502.01
567.201	37853.64
567.563	37802.34
567.925	38060.86
568.287	38072.84
568.648	38329.11
569.01	38530.68
569.372	38803.67
569.734	38716.44
570.095	39064.91
570.457	39212.7
570.819	39248.63
571.18	39350.32
571.542	39726.81
571.903	39719.13
572.265	39950.98
572.626	40210.19
572.987	40254.48
573.349	40458.99
573.71	40705.99
574.071	40903.5
574.432	41061.69
574.794	41306.43
575.155	41457.16
575.516	41382.58
575.877	41724.5
576.238	41622.58
576.599	42029.12
576.96	42051.72
577.32	42277.93
577.681	42385.95
578.042	42781.87
578.403	42766.95
578.763	42827.29
579.124	42994.52
579.485	43459.14
579.845	43590.44
580.206	43589.08
580.566	43691
580.927	43830.2
581.287	44251.66
581.648	44076.3
582.008	44595.16
582.368	44627.47
582.728	44838.99
583.089	45043.96
583.449	45230.62
583.809	45459.31
584.169	45681.23
584.529	45756.48
584.889	46247.99
585.249	46206.86
585.609	46105.85
585.969	46557.82
586.329	46655.21
586.688	47050.46
587.048	47169.32
587.408	47307.63
587.768	47569.31
588.127	47813.83
588.487	47969.53
588.846	48415.39
589.206	48162.97
589.565	48512.57
589.925	48910.3
590.284	48945.1
590.643	49129.95
591.003	49356.16
591.362	49820.55
591.721	49826.88
592.08	50021.91
592.44	50390.03
592.799	50423.7
593.158	50665.5
593.517	50585.96
593.876	51037.7
594.235	51146.85
594.593	51365.6
594.952	51605.59
595.311	51666.38
595.67	51849.65
596.029	52264.11
596.387	52327.16
596.746	52602.18
597.104	52533.7
597.463	52698.67
597.822	52997.65
598.18	52964.43
598.538	53195.15
598.897	53532.55
599.255	53466.33
599.613	53943.16
599.972	53804.86
600.33	54056.15
600.688	54111.97
601.046	54303.37
601.404	54597.38
601.762	54577.04
602.12	54797.82
602.478	54957.82
602.836	55113.52
603.194	55040.76
603.552	55151.71
603.91	55280.98
604.268	55468.09
604.625	55641.19
604.983	55780.62
605.341	55746.95
605.698	56023.1
606.056	56198.92
606.413	56135.42
606.771	56482.53
607.128	56476.65
607.485	56546.48
607.843	56584.22
608.2	56762.97
608.557	56947.6
608.914	56946.47
609.272	57114.83
609.629	57317.08
609.986	57399.79
610.343	57420.81
610.7	57649.28
611.057	57721.82
611.414	57683.17
611.771	57835.71
612.127	58012.88
612.484	58021.24
612.841	58157.51
613.198	58130.62
613.554	58172.65
613.911	58387.11
614.267	58455.36
614.624	58512.3
614.98	58640.66
615.337	58873.88
615.693	58823.03
616.05	58884.72
616.406	58962.46
616.762	58977.83
617.118	59018.96
617.475	59107.54
617.831	59262.79
618.187	59292.62
618.543	59332.85
618.899	59465.05
619.255	59526.06
619.611	59480.87
619.967	59656.91
620.323	59750.01
620.678	59626.17
621.034	59677.47
621.39	59702.55
621.746	59765.83
622.101	60007.86
622.457	59857.8
622.812	59941.64
623.168	59962.89
623.523	60008.31
623.879	60183.9
624.234	60042.88
624.589	60105.48
624.945	60122.88
625.3	60224.57
625.655	60210.34
626.01	60256.89
626.365	60270
626.72	60208.53
627.075	60256.44
627.43	60227.51
627.785	60291.69
628.14	60322.88
628.495	60306.61
628.85	60376.66
629.205	60280.17
629.559	60389.54
629.914	60293.27
630.269	60329.2
630.623	60269.77
630.978	60222.99
631.332	60391.8
631.687	60348.41
632.041	60267.06
632.396	60334.85
632.75	60303.22
633.104	60357
633.459	60205.14
633.813	60239.26
634.167	60193.62
634.521	60212.37
634.875	60237.68
635.229	60211.47
635.583	60108.42
635.937	60108.42
636.291	60124.69
636.645	60093.96
636.999	60024.13
637.352	60088.31
637.706	59930.12
638.06	60109.1
638.413	59940.29
638.767	59936.45
639.121	59923.79
639.474	59816.9
639.828	59865.94
640.181	59883.34
640.534	59919.05
640.888	59747.3
641.241	59663.69
641.594	59703.68
641.947	59807.18
642.301	59652.84
642.654	59714.53
643.007	59661.65
643.36	59695.78
643.713	59639.73
644.066	59744.14
644.419	59519.96
644.771	59313.19
645.124	59098.95
645.477	59035.68
645.83	58928.34
646.182	58956.13
646.535	58914.33
646.888	58934.67
647.24	58841.11
647.593	59064.38
647.945	58857.15
648.298	58784.16
648.65	58703.48
649.002	58645.41
649.355	58598.63
649.707	58505.52
650.059	58533.32
650.411	58856.93
650.763	58951.39
651.115	59335.11
651.467	59186.18
651.819	59170.37
652.171	59118.62
652.523	59024.38
652.875	59082.68
653.227	58907.77
653.578	59131.5
653.93	59053.08
654.282	58873.88
654.633	58923.82
654.985	58945.29
655.337	58938.28
655.688	58900.99
656.039	58940.99
656.391	58754.1
656.742	58746.42
657.094	58739.64
657.445	58803.14
657.796	58763.82
658.147	58733.77
658.498	58698.97
658.849	58696.48
659.2	58632.53
659.551	58607.22
659.902	58719.53
660.253	58557.73
660.604	58637.27
660.955	58570.15
661.306	58663.49
661.656	58598.18
662.007	58574.9
662.358	58566.54
662.708	58571.51
663.059	58531.29
663.409	58377.17
663.76	58567.44
664.11	58537.61
664.461	58555.01
664.811	58524.05
665.161	58531.29
665.511	58464.85
665.862	58481.34
666.212	58470.27
666.562	58548.69
666.912	58475.02
667.262	58417.16
667.612	58474.11
667.962	58412.42
668.312	58348.24
668.662	58523.15
669.011	58443.38
669.361	58373.1
669.711	58382.14
670.06	58292.65
670.41	58296.04
670.76	58294
671.109	58396.83
671.459	58296.49
671.808	58308.69
672.157	58384.85
672.507	58138.75
672.856	58192.54
673.205	58261.46
673.554	58214.46
673.904	58200.22
674.253	58364.06
674.602	58214.23
674.951	57951.87
675.3	57807.01
675.649	58204.51
675.998	58247.45
676.346	58113.22
676.695	58249.26
677.044	58063.73
677.393	58130.62
677.741	58225.76
678.09	58052.2
678.438	58047.46
678.787	58119.09
679.135	58048.81
679.484	57991.19
679.832	58062.6
680.181	58003.62
680.529	58029.38
680.877	57874.35
681.225	57939.66
681.573	58143.27
681.922	57873.45
682.27	57871.42
682.618	57842.04
682.966	57777.86
683.314	57821.25
683.661	57837.29
684.009	57707.8
684.357	57625.32
684.705	57546
685.053	57644.98
685.4	57567.02
685.748	57577.19
686.095	57537.64
686.443	57391.65
686.79	57467.81
687.138	57541.93
687.485	57476.17
687.832	57319.34
688.18	57428.94
688.527	57326.8
688.874	57338.55
689.221	57281.83
689.568	57191.43
689.915	57111.44
690.262	57203.41
690.609	57151.44
690.956	56993.93
691.303	57001.38
691.65	56960.93
691.997	56844.55
692.344	56687.72
692.69	56756.19
693.037	56765.68
693.383	56513.94
693.73	56618.12
694.077	56485.92
694.423	56534.28
694.769	56452.24
695.116	56408.63
695.462	56238.92
695.808	56223.78
696.155	56239.82
696.501	56105.59
696.847	56020.17
697.193	55885.48
697.539	55992.6
697.885	55747.63
698.231	55736.78
698.577	55755.09
698.923	55702.21
699.269	55506.28
699.614	55508.99
699.96	55384.02
700.306	55425.15
700.651	55344.03
700.997	55277.59
701.342	55044.82
701.688	55058.61
702.033	55062.68
702.379	55013.86
702.724	54925.28
703.069	54936.35
703.415	54633.99
703.76	54657.04
704.105	54656.36
704.45	54564.84
704.795	54484.16
705.14	54389.7
705.485	54426.76
705.83	54151.97
706.175	54336.59
706.52	54122.36
706.865	54103.15
707.209	53958.75
707.554	53989.71
707.899	53990.39
708.243	53744.29
708.588	53705.65
708.932	53604.41
709.277	53682.15
709.621	53517.18
709.966	53367.58
710.31	53392.21
710.654	53162.39
710.998	53278.54
711.342	53370.74
711.687	53179.56
712.031	53024.76
712.375	53013.69
712.719	52917.65
713.063	52845.11
713.407	53056.85
713.75	52786.8
714.094	52708.16
714.438	52590.43
714.782	52585.45
715.125	52325.35
715.469	52515.17
715.812	52374.61
716.156	52217.33
716.499	52336.42
716.843	52314.05
717.186	52062.08
717.53	52289.87
717.873	52165.35
718.216	52128.97
718.559	52058.46
718.902	51717.45
719.246	51903.89
719.589	51707.51
719.932	51702.31
720.275	51641.52
720.617	51636.55
720.96	51566.05
721.303	51579.6
721.646	51488.53
721.989	51372.38
722.331	51392.04
722.674	51327.18
723.016	51374.41
723.359	51183.68
723.701	51225.04
724.044	51098.71
724.386	50888.32
724.729	51007.87
725.071	51042.9
725.413	50992.28
725.755	50877.02
726.097	50683.13
726.439	50529.01
726.782	50597.71
727.124	50762.9
727.465	50642.68
727.807	50432.52
728.149	50533.98
728.491	50420.76
728.833	50472.06
729.175	50400.43
729.516	50276.59
729.858	50303.03
730.199	50291.28
730.541	50200.66
730.882	50112.75
731.224	50268.23
731.565	49993.43
731.906	50034.79
732.248	50018.97
732.589	49747.34
732.93	49714.57
733.271	49858.07
733.612	49829.82
733.953	49714.12
734.294	49649.03
734.635	49496.5
734.976	49695.81
735.317	49509.15
735.658	49396.16
735.999	49344.86
736.339	49403.84
736.68	49391.19
737.021	49363.84
737.361	49254.47
737.702	49496.04
738.042	49216.5
738.383	49224.19
738.723	49185.32
739.063	48985.32
739.404	49086.11
739.744	49144.87
740.084	48965.44
740.424	49008.37
740.764	48920.01
741.104	49020.58
741.444	48699.45
741.784	48568.61
742.124	48828.04
742.464	48690.64
742.804	48647.7
743.143	48541.27
743.483	48612.45
743.823	48304.44
744.162	48398.44
744.502	48404.77
744.841	48271.67
745.181	48359.12
745.52	48214.95
745.86	48253.82
746.199	48172.24
746.538	47953.03
746.877	48134.72
747.216	48010.43
747.556	48039.13
747.895	48039.13
748.234	47889.76
748.573	47783.32
748.911	47714.85
749.25	47704
749.589	47434.85
749.928	47638.01
750.267	47581.74
750.605	47563.44
750.944	47451.58
751.283	47332.48
751.621	47463.78
751.96	47175.65
752.298	47163
752.636	47141.08
752.975	46972.04
753.313	46885.04
753.651	47013.4
753.989	46893.17
754.327	46876
754.666	46483.92
755.004	46693.41
755.342	46570.02
755.679	46563.92
756.017	46223.59
756.355	46398.27
756.693	46257.94
757.031	46323.47
757.368	46062.69
757.706	45954.89
758.044	45834.22
758.381	45766.88
758.719	45631.74
759.056	45743.37
759.394	45483.49
759.731	45241.47
760.068	45138.87
760.405	45300.9
760.743	45073.79
761.08	45045.54
761.417	44764.87
761.754	44653.01
762.091	44595.83
762.428	44598.32
762.765	44306.8
763.102	44261.6
763.438	44205.79
763.775	43848.51
764.112	43929.86
764.449	43790.66
764.785	43636.76
765.122	43556.76
765.458	43343.44
765.795	43214.63
766.131	43285.36
766.467	43080.17
766.804	42881.3
767.14	42707.97
767.476	42651.03
767.812	42639.5
768.148	42424.36
768.485	42411.48
768.821	42123.81
769.157	41957.03
769.492	41859.86
769.828	41771.5
770.164	41440.89
770.5	41477.27
770.836	41429.81
771.171	41198.63
771.507	41002.48
771.842	40727.91
772.178	40825.08
772.513	40627.12
772.849	40364.98
773.184	40423.51
773.519	40285.89
773.855	39979.91
774.19	40021.49
774.525	39814.94
774.86	39669.86
775.195	39511
775.53	39446.14
775.865	39201.85
776.2	38894.97
776.535	38843.89
776.87	38770.45
777.205	38520.06
777.539	38528.87
777.874	38484.81
778.209	38184.93
778.543	38231.03
778.878	37884.15
779.212	37979.74
779.547	37650.03
779.881	37592.18
780.215	37348.79
780.55	37453.42
780.884	37043.26
781.218	37047.78
781.552	37187.21
781.886	36841.69
782.22	36564.18
782.554	36390.4
782.888	36159.22
783.222	36238.54
783.556	35874.48
783.889	35805.1
784.223	35514.04
784.557	35638.33
784.89	35602.85
785.224	35424.77
785.557	35097.78
785.891	35121.05
786.224	35059.13
786.558	34972.81
786.891	34678.81
787.224	34562.42
787.557	34322.43
787.891	34392.49
788.224	34248.99
788.557	34246.95
788.89	34096
789.223	33986.17
789.556	33816.23
789.888	33701.88
790.221	33471.38
790.554	33397.48
790.887	33376.24
791.219	33061.67
791.552	33074.55
791.884	33008.34
792.217	32921.56
792.549	32690.61
792.882	32491.52
793.214	32506.43
793.546	32519.99
793.879	32119.32
794.211	31972.44
794.543	32109.61
794.875	32129.49
795.207	31962.49
795.539	31883.85
795.871	31814.93
796.203	31626
796.535	31365.9
796.867	31395.95
797.198	31227.82
797.53	30993.7
797.862	30837.1
798.193	31002.52
798.525	30726.37
798.856	30804.56
799.188	30521.4
799.519	30386.72
799.85	30340.39
800.182	30316.43
800.513	30367.51
800.844	29918.25
801.175	30180.84
801.506	30080.96
801.837	29914.41
802.168	29785.83
802.499	29835.77
802.83	29575.21
803.161	29520.3
803.491	29507.87
803.822	29476.91
804.153	29254.54
804.483	28956.24
804.814	29031.04
805.145	29092.51
805.475	28959.63
805.805	28923.48
806.136	28789.02
806.466	28785.63
806.796	28731.84
807.126	28458.63
807.457	28316.94
807.787	28424.05
808.117	28312.65
808.447	28171.63
808.777	28348.8
809.107	27939.1
809.436	28014.35
809.766	27891.64
810.096	27881.24
810.426	27808.93
810.755	27726.67
811.085	27765.54
811.414	27658.2
811.744	27706.79
812.073	27449.17
812.403	27431.99
812.732	27342.5
813.061	27453.91
813.39	27198.32
813.719	27085.56
814.049	27302.95
814.378	27093.69
814.707	26883.53
815.036	27019.57
815.365	26723.08
815.693	26628.4
816.022	26645.57
816.351	26545.69
816.68	26391.34
817.008	26582.3
817.337	26206.94
817.665	26255.07
817.994	26317.22
818.322	26285.13
818.651	26228.86
818.979	26107.05
819.307	26187.05
819.636	26147.05
819.964	25940.28
820.292	26057.11
820.62	25948.87
820.948	25964.91
821.276	26102.53
821.604	25978.02
821.932	26047.39
822.259	25858.92
822.587	25874.74
822.915	25795.88
823.243	25864.57
823.57	25802.65
823.898	25962.2
824.225	25797.01
824.553	25791.81
824.88	25879.04
825.207	26026.38
825.535	25837.68
825.862	25919.04
826.189	25759.94
826.516	26114.74
826.843	25967.85
827.17	25976.89
827.497	25912.03
827.824	25894.86
828.151	25936.89
828.478	25817.12
828.805	26011.01
829.131	25902.09
829.458	25859.38
829.785	25644.01
830.111	25776.89
830.438	25949.09
830.764	25851.02
831.09	25876.55
831.417	25736.22
831.743	25872.94
832.069	25871.58
832.395	25780.51
832.722	25880.39
833.048	25747.06
833.374	25751.58
833.7	25721.08
834.026	25741.87
834.351	25661.42
834.677	25662.55
835.003	25687.4
835.329	25666.61
835.654	25591.36
835.98	25404.25
836.306	25703
836.631	25495.77
836.956	25602.21
837.282	25530.8
837.607	25448.31
837.932	25503.23
838.258	25386.85
838.583	25352.27
838.908	25277.92
839.233	25425.49
839.558	25138.04
839.883	25082.67
840.208	25058.72
840.533	25129.9
840.858	25069.11
841.182	24984.15
841.507	25000.42
841.832	24843.13
842.156	24863.92
842.481	24943.47
842.805	24739.18
843.13	24729.69
843.454	24705.28
843.778	24663.25
844.103	24713.64
844.427	24593.87
844.751	24597.49
845.075	24541.9
845.399	24247.89
845.723	24331.96
846.047	24290.83
846.371	24162.47
846.695	24052.87
847.019	23944.85
847.343	23802.26
847.666	23801.58
847.99	23582.83
848.313	23403.85
848.637	23563.17
848.96	23385.32
849.284	23411.98
849.607	23177.41
849.931	23150.75
850.254	23080.24
850.577	22762.06
850.9	22761.15
851.223	22792.56
851.546	22646.13
851.869	22429.64
852.192	22662.17
852.515	22312.58
852.838	22237.1
853.161	22114.62
853.483	22190.77
853.806	22032.81
854.129	22006.6
854.451	22021.74
854.774	21767.73
855.096	21776.32
855.419	21618.36
855.741	21591.69
856.063	21546.72
856.385	21415.65
856.708	21352.15
857.03	21386.27
857.352	21323.9
857.674	21232.61
857.996	21289.1
858.318	21013.18
858.64	21032.16
858.961	20984.25
859.283	20832.84
859.605	20858.83
859.926	20939.28
860.248	20775.89
860.57	20688.21
860.891	20798.27
861.212	20590.81
861.534	20546.52
861.855	20428.78
862.176	20476.24
862.498	20587.42
862.819	20434.21
863.14	20380.2
863.461	20365.96
863.782	20313.76
864.103	20278.51
864.424	20033.99
864.745	20122.35
865.065	20091.39
865.386	20064.5
865.707	20044.16
866.027	20068.57
866.348	19937.72
866.668	19932.53
866.989	19797.84
867.309	19794
867.63	19674
867.95	19931.4
868.27	19720.1
868.59	19687.11
868.91	19709.26
869.23	19488.24
869.55	19560.11
869.87	19659.31
870.19	19519.88
870.51	19487.11
870.83	19413.67
871.15	19286.89
871.469	19308.36
871.789	19387
872.109	19325.31
872.428	19236.95
872.748	19282.37
873.067	19199.44
873.386	19235.6
873.706	19186.11
874.025	19063.62
874.344	18966.45
874.663	19044.64
874.982	18985.21
875.301	19022.72
875.62	18893.68
875.939	18803.52
876.258	18932.1
876.577	18788.83
876.896	18699.56
877.214	18777.08
877.533	18808.94
877.852	18681.49
878.17	18767.36
878.489	18709.06
878.807	18700.24
879.125	18701.15
879.444	18569.17
879.762	18532.79
880.08	18583.86
880.398	18487.82
880.716	18442.17
881.034	18395.39
881.352	18427.48
881.67	18405.11
881.988	18360.59
882.306	18270.2
882.624	18237.43
882.941	18176.41
883.259	18082.63
883.577	18066.14
883.894	18116.3
884.212	18026.81
884.529	18008.06
884.846	17950.43
885.164	17864.78
885.481	17837.44
885.798	17911.79
886.115	17731
886.432	17764.45
886.75	17683.09
887.067	17839.93
887.383	17629.54
887.7	17554.28
888.017	17545.92
888.334	17576.88
888.651	17390.9
888.967	17347.51
889.284	17250.34
889.6	17221.86
889.917	17226.16
890.233	17140.06
890.55	17231.35
890.866	17159.49
891.182	17108.19
891.498	17020.06
891.815	16922.21
892.131	16908.88
892.447	16827.07
892.763	16870.46
893.079	16680.41
893.395	16675.21
893.71	16670.01
894.026	16594.99
894.342	16597.47
894.657	16511.83
894.973	16519.28
895.289	16354.77
895.604	16364.26
895.92	16197.71
896.235	16217.37
896.55	16205.85
896.865	16164.49
897.181	16024.15
897.496	16113.64
897.811	16035.68
898.126	15959.75
898.441	15908.23
898.756	15902.12
899.071	15788.68
899.386	15754.78
899.7	15694.9
900.015	15478.41
900.33	15547.33
900.644	15428.24
900.959	15459.65
901.273	15363.83
901.588	15275.7
901.902	15244.74
902.216	15239.09
902.531	15251.52
902.845	15095.14
903.159	15004.52
903.473	14952.77
903.787	14929.72
904.101	14875.94
904.415	14849.04
904.729	14741.93
905.042	14731.76
905.356	14687.01
905.67	14593.01
905.984	14613.8
906.297	14536.51
906.611	14466.46
906.924	14424.87
907.237	14302.62
907.551	14363.18
907.864	14249.06
908.177	14275.05
908.491	14127.48
908.804	14080.48
909.117	14019.69
909.43	13915.51
909.743	13828.05
910.056	13852.91
910.368	13765.23
910.681	13721.39
910.994	13661.51
911.307	13624.44
911.619	13440.04
911.932	13562.3
912.244	13399.82
912.557	13453.6
912.869	13243.66
913.181	13267.17
913.494	13230.1
913.806	13159.15
914.118	13126.38
914.43	13017.91
914.742	13040.28
915.054	12941.75
915.366	12940.62
915.678	12845.03
915.99	12804.8
916.302	12745.6
916.613	12681.19
916.925	12657.92
917.236	12644.13
917.548	12479.84
917.859	12549.22
918.171	12403.23
918.482	12327.75
918.794	12322.33
919.105	12170.24
919.416	12128.66
919.727	12164.37
920.038	12011.38
920.349	11994.66
920.66	11970.48
920.971	11966.18
921.282	11941.78
921.593	11817.71
921.903	11784.04
922.214	11720.54
922.525	11702.46
922.835	11688.45
923.146	11551.73
923.456	11471.73
923.767	11453.43
924.077	11429.25
924.387	11412.98
924.697	11356.03
925.008	11226.54
925.318	11233.09
925.628	11203.04
925.938	11186.54
926.248	11047.79
926.558	11010.28
926.867	10961.46
927.177	10878.75
927.487	10864.06
927.796	10762.37
928.106	10820.22
928.416	10744.29
928.725	10733.9
929.034	10724.63
929.344	10676.5
929.653	10520.8
929.962	10559.67
930.271	10438.09
930.581	10438.77
930.89	10353.34
931.199	10295.49
931.508	10260.01
931.817	10263.18
932.125	10236.74
932.434	10192.22
932.743	10050.75
933.051	9992.68
933.36	9962.62
933.669	9910.42
933.977	9885.11
934.286	9868.61
934.594	9810.76
934.902	9761.95
935.21	9683.98
935.519	9725.11
935.827	9702.29
936.135	9622.97
936.443	9537.32
936.751	9483.76
937.059	9513.37
937.367	9380.94
937.674	9473.14
937.982	9374.61
938.29	9336.2
938.597	9431.56
938.905	9185.46
939.213	9138.01
939.52	9166.48
939.827	9187.72
940.135	9109.08
940.442	9009.88
940.749	9033.15
941.056	9012.36
941.363	8972.36
941.67	8887.85
941.977	8914.06
942.284	8750.45
942.591	8784.12
942.898	8697.34
943.205	8760.39
943.511	8671.81
943.818	8731.01
944.125	8516.1
944.431	8568.76
944.738	8564.46
945.044	8493.05
945.35	8445.15
945.657	8420.97
945.963	8370.34
946.269	8323.34
946.575	8264.81
946.881	8250.35
947.187	8237.47
947.493	8228.2
947.799	8194.76
948.105	8080.86
948.41	8140.29
948.716	8018.72
949.022	8006.74
949.327	7987.53
949.633	7935.1
949.938	7873.86
950.244	7877.7
950.549	7793.64
950.854	7826.18
951.16	7769.91
951.465	7667.09
951.77	7707.09
952.075	7737.14
952.38	7605.62
952.685	7620.53
952.99	7590.25
953.294	7514.32
953.599	7484.04
953.904	7369.02
954.209	7393.42
954.513	7367.66
954.818	7396.81
955.122	7347.09
955.426	7317.27
955.731	7306.64
956.035	7238.85
956.339	7202.24
956.643	7232.97
956.948	7127.21
957.252	7048.57
957.556	7065.52
957.86	6974.68
958.163	7040.89
958.467	6973.77
958.771	6960.21
959.075	6941
959.378	6850.38
959.682	6926.09
959.985	6841.57
960.289	6752.08
960.592	6734.68
960.896	6698.52
961.199	6680.45
961.502	6700.78
961.805	6633.89
962.108	6587.34
962.411	6555.25
962.714	6532.2
963.017	6515.48
963.32	6494.01
963.623	6430.28
963.926	6383.28
964.228	6389.83
964.531	6329.27
964.833	6338.53
965.136	6301.92
965.438	6320.46
965.741	6244.98
966.043	6249.95
966.345	6198.2
966.648	6169.05
966.95	6135.38
967.252	6091.08
967.554	6032.33
967.856	6079.78
968.158	6000.46
968.46	5992.33
968.761	5964.31
969.063	5918.21
969.365	5945.78
969.666	5852.67
969.968	5894.48
970.269	5868.72
970.571	5791.88
970.872	5736.74
971.174	5715.5
971.475	5749.17
971.776	5686.57
972.077	5714.14
972.378	5660.59
972.679	5634.37
972.98	5592.11
973.281	5584.2
973.582	5560.02
973.883	5535.84
974.183	5555.96
974.484	5480.25
974.785	5441.16
975.085	5412.68
975.386	5388.73
975.686	5401.16
975.986	5362.74
976.287	5306.7
976.587	5282.52
976.887	5212.91
977.187	5252.69
977.487	5275.06
977.787	5201.39
978.087	5170.43
978.387	5148.06
978.687	5156.64
978.987	5076.65
979.286	5100.83
979.586	5081.62
979.885	5068.06
980.185	5027.61
980.484	5013.15
980.784	4974.73
981.083	4917.33
981.382	4933.6
981.682	4908.52
981.981	4888.4
982.28	4876.2
982.579	4807.05
982.878	4845.01
983.177	4824.22
983.475	4803.43
983.774	4732.47
984.073	4724.34
984.372	4708.52
984.67	4713.72
984.969	4721.4
985.267	4635.53
985.566	4619.48
985.864	4604.12
986.162	4568.18
986.461	4527.96
986.759	4498.58
987.057	4503.33
987.355	4437.34
987.653	4455.65
987.951	4443.44
988.249	4449.54
988.547	4410.45
988.844	4341.3
989.142	4342.43
989.44	4318.25
989.737	4312.82
990.035	4277.57
990.332	4254.07
990.63	4248.19
990.927	4217.91
991.224	4212.71
991.521	4203.22
991.819	4177.46
992.116	4141.76
992.413	4155.31
992.71	4133.39
993.006	4069.89
993.303	4048.65
993.6	4052.72
993.897	4045.94
994.193	3977.47
994.49	3988.09
994.787	3958.94
995.083	3928.65
995.379	3954.42
995.676	3930.46
995.972	3898.82
996.268	3857.7
996.565	3850.69
996.861	3831.48
997.157	3817.92
997.453	3776.79
997.749	3753.07
998.044	3729.56
998.34	3712.39
998.636	3647.53
998.932	3654.31
999.227	3627.42
999.523	3658.38
999.818	3592.84
1000.114	3599.85
1000.409	3624.48
1000.704	3568.66
1001	3556.23
1001.295	3512.62
1001.59	3487.54
1001.885	3511.72
1002.18	3492.96
1002.475	3458.16
1002.77	3426.52
1003.065	3404.6
1003.359	3414.32
1003.654	3394.43
1003.949	3349.46
1004.243	3349.91
1004.538	3304.26
1004.832	3317.82
1005.127	3308.78
1005.421	3256.81
1005.715	3231.27
1006.009	3250.71
1006.304	3169.8
1006.598	3172.52
1006.892	3136.81
1007.186	3120.31
1007.48	3118.51
1007.773	3087.32
1008.067	3061.56
1008.361	3028.56
1008.655	3065.17
1008.948	3004.38
1009.242	2976.59
1009.535	2960.32
1009.829	2961.9
1010.122	2953.76
1010.415	2899.08
1010.708	2936.36
1011.001	2914.22
1011.295	2874.22
1011.588	2869.7
1011.881	2838.51
1012.173	2820.21
1012.466	2814.78
1012.759	2804.84
1013.052	2802.81
1013.344	2776.59
1013.637	2737.05
1013.93	2715.8
1014.222	2717.61
1014.514	2669.48
1014.807	2672.64
1015.099	2663.6
1015.391	2617.28
1015.683	2628.35
1015.976	2600.78
1016.268	2585.41
1016.56	2596.94
1016.851	2521.46
1017.143	2513.32
1017.435	2504.28
1017.727	2461.57
1018.018	2493.44
1018.31	2476.71
1018.602	2474.91
1018.893	2432.87
1019.185	2399.43
1019.476	2379.99
1019.767	2384.97
1020.058	2352.2
1020.35	2363.72
1020.641	2310.39
1020.932	2323.05
1021.223	2326.21
1021.514	2290.96
1021.804	2253.44
1022.095	2254.12
1022.386	2248.7
1022.677	2198.3
1022.967	2217.74
1023.258	2181.58
1023.548	2166.21
1023.839	2153.33
1024.129	2125.99
1024.419	2134.35
1024.709	2117.63
1025	2109.27
1025.29	2091.41
1025.58	2015.94
1025.87	2070.17
1026.16	2023.62
1026.449	2017.97
1026.739	1988.82
1027.029	1987.46
1027.319	1968.71
1027.608	1971.64
1027.898	1920.57
1028.187	1926.45
1028.477	1928.03
1028.766	1919.44
1029.055	1875.83
1029.344	1888.26
1029.634	1855.26
1029.923	1846.45
1030.212	1850.74
1030.501	1803.06
1030.79	1832.66
1031.078	1818.43
1031.367	1802.16
1031.656	1776.39
1031.945	1740.24
1032.233	1762.61
1032.522	1739.78
1032.81	1740.01
1033.099	1705.89
1033.387	1695.04
1033.675	1691.88
1033.963	1695.04
1034.251	1665.21
1034.54	1675.38
1034.828	1644.19
1035.116	1628.83
1035.403	1611.88
1035.691	1589.28
1035.979	1557.19
1036.267	1596.51
1036.554	1582.5
1036.842	1570.52
1037.129	1568.26
1037.417	1515.38
1037.704	1500.24
1037.992	1495.95
1038.279	1488.04
1038.566	1465.67
1038.853	1465.67
1039.14	1465.67
