Data from 142_FLMS001491_002.txt Node
Date: Thu Apr 19 16:08:54 BST 2018
User: hsy
Spectrometer: FLMS00149
Trigger mode: 0
Integration Time (sec): 1.000000E-2
Scans to average: 10
Electric dark correction enabled: true
Nonlinearity correction enabled: false
Boxcar width: 0
XAxis mode: Wavelengths
Number of Pixels in Spectrum: 2048
>>>>>Begin Spectral Data<<<<<
341.393	-17.71
341.776	-17.71
342.16	-17.71
342.543	-57.94
342.927	-73.08
343.31	-64.94
343.693	-76.24
344.077	-64.72
344.46	-57.26
344.843	-52.96
345.226	-33.3
345.61	-41.67
345.993	-15
346.376	-15.68
346.759	1.27
347.142	51.21
347.525	60.93
347.908	46.92
348.291	77.88
348.674	71.55
349.057	112
349.44	130.31
349.823	142.74
350.206	180.02
350.588	242.85
350.971	274.26
351.354	263.86
351.737	276.97
352.119	298.44
352.502	287.14
352.884	298.21
353.267	316.52
353.65	340.02
354.032	322.84
354.414	352
354.797	367.36
355.179	355.16
355.562	382.96
355.944	371.66
356.326	373.69
356.709	379.11
357.091	383.86
357.473	394.48
357.855	384.09
358.238	406.46
358.62	395.61
359.002	402.62
359.384	394.03
359.766	404.2
360.148	385.22
360.53	381.6
360.912	373.92
361.294	393.58
361.676	376.85
362.057	384.09
362.439	391.09
362.821	387.48
363.203	383.86
363.584	356.74
363.966	374.37
364.348	388.83
364.729	372.79
365.111	386.12
365.493	361.04
365.874	379.11
366.256	389.51
366.637	368.27
367.019	378.44
367.4	366.91
367.781	376.63
368.163	362.39
368.544	373.46
368.925	383.41
369.306	394.03
369.688	362.17
370.069	381.6
370.45	387.02
370.831	404.65
371.212	390.64
371.593	377.98
371.974	389.51
372.355	379.57
372.736	418.89
373.117	392.9
373.498	399
373.879	403.29
374.26	380.47
374.641	401.94
375.021	380.02
375.402	402.84
375.783	396.74
376.163	426.34
376.544	376.63
376.925	408.72
377.305	441.03
377.686	397.19
378.066	413.01
378.447	411.66
378.827	426.8
379.208	425.21
379.588	416.18
379.968	416.63
380.349	410.53
380.729	417.76
381.109	430.41
381.489	418.21
381.87	409.4
382.25	434.48
382.63	433.58
383.01	438.55
383.39	438.1
383.77	426.34
384.15	447.59
384.53	419.11
384.91	457.76
385.29	458.43
385.67	465.21
386.049	470.64
386.429	443.07
386.809	452.33
387.189	450.3
387.568	451.43
387.948	477.64
388.328	473.8
388.707	457.98
389.087	463.86
389.466	471.09
389.846	487.59
390.225	495.5
390.605	471.32
390.984	487.13
391.363	492.78
391.743	489.85
392.122	512.44
392.501	512.9
392.881	507.47
393.26	483.74
393.639	488.49
394.018	512.44
394.397	518.09
394.776	530.52
395.155	532.56
395.534	530.97
395.913	510.41
396.292	525.55
396.671	535.04
397.05	547.92
397.429	528.94
397.808	536.85
398.186	541.6
398.565	549.51
398.944	542.95
399.323	543.18
399.701	555.83
400.08	558.09
400.458	561.26
400.837	570.07
401.215	589.73
401.594	571.43
401.972	586.57
402.351	582.5
402.729	586.11
403.107	579.34
403.486	614.81
403.864	613.91
404.242	596.28
404.62	588.15
404.999	624.53
405.377	616.85
405.755	633.8
406.133	633.57
406.511	614.14
406.889	643.29
407.267	687.13
407.645	647.36
408.023	661.14
408.401	654.14
408.779	656.62
409.156	691.2
409.534	676.06
409.912	688.48
410.29	700.24
410.667	697.3
411.045	718.31
411.422	723.51
411.8	743.17
412.178	714.25
412.555	742.72
412.933	753.79
413.31	755.38
413.687	766.67
414.065	779.56
414.442	775.94
414.819	782.27
415.197	802.61
415.574	794.24
415.951	820.46
416.328	803.28
416.705	806.67
417.082	824.07
417.46	847.12
417.837	853
418.214	863.85
418.591	861.36
418.967	864.98
419.344	859.1
419.721	865.66
420.098	877.86
420.475	876.28
420.852	899.1
421.228	919.89
421.605	898.42
421.982	910.63
422.358	919.67
422.735	929.83
423.111	948.82
423.488	962.6
423.864	936.61
424.241	969.61
424.617	958.31
424.994	977.29
425.37	978.42
425.746	975.71
426.123	989.04
426.499	1012.32
426.875	1013.45
427.251	1016.61
427.627	1038.76
428.003	1036.05
428.379	1074.46
428.756	1057.06
429.132	1065.65
429.507	1097.29
429.883	1098.19
430.259	1099.32
430.635	1103.39
431.011	1113.78
431.387	1150.39
431.763	1143.84
432.138	1160.11
432.514	1170.05
432.89	1189.26
433.265	1233.78
433.641	1191.52
434.016	1227.68
434.392	1252.76
434.767	1261.8
435.143	1255.7
435.518	1258.64
435.894	1299.09
436.269	1294.8
436.644	1321.46
437.02	1341.57
437.395	1336.15
437.77	1341.12
438.145	1353.55
438.52	1365.08
438.895	1375.02
439.271	1362.82
439.646	1411.86
440.021	1423.38
440.395	1427.45
440.77	1408.92
441.145	1426.09
441.52	1451.18
441.895	1455.02
442.27	1448.92
442.645	1454.34
443.019	1446.43
443.394	1500.89
443.769	1506.32
444.143	1472.64
444.518	1501.57
444.892	1496.83
445.267	1528.91
445.641	1527.33
446.016	1549.48
446.39	1556.26
446.764	1564.62
447.139	1557.84
447.513	1576.6
447.887	1577.05
448.262	1580.44
448.636	1623.38
449.01	1608.69
449.384	1614.34
449.758	1655.24
450.132	1652.3
450.506	1685.97
450.88	1688.91
451.254	1693.88
451.628	1718.74
452.002	1723.71
452.376	1762.13
452.75	1746.08
453.123	1750.83
453.497	1787.66
453.871	1810.94
454.244	1836.93
454.618	1841.45
454.992	1852.75
455.365	1910.15
455.739	1941.11
456.112	1926.87
456.486	1967.77
456.859	1962.12
457.232	2018.85
457.606	2023.36
457.979	2074.21
458.352	2083.25
458.725	2108.56
459.099	2118.5
459.472	2146.75
459.845	2151.95
460.218	2174.77
460.591	2244.38
460.964	2240.08
461.337	2247.99
461.71	2281.66
462.083	2306.07
462.456	2340.87
462.829	2335.67
463.201	2385.62
463.574	2411.6
463.947	2449.34
464.32	2481.21
464.692	2484.6
465.065	2522.56
465.438	2527.53
465.81	2554.88
466.183	2577.02
466.555	2668.09
466.928	2670.81
467.3	2647.08
467.672	2684.36
468.045	2736.57
468.417	2752.61
468.789	2756.45
469.161	2800.29
469.534	2843.68
469.906	2880.07
470.278	2916
470.65	2905.83
471.022	2995.32
471.394	3052.49
471.766	3050.46
472.138	3116.9
472.51	3141.3
472.882	3205.03
473.253	3279.38
473.625	3305.82
473.997	3341.52
474.369	3376.32
474.74	3400.96
475.112	3477.11
475.484	3526.6
475.855	3588.97
476.227	3661.51
476.598	3726.14
476.97	3764.11
477.341	3827.16
477.713	3910.09
478.084	3871.68
478.455	4018.79
478.827	4066.93
479.198	4178.79
479.569	4184.21
479.94	4339.69
480.311	4416.07
480.682	4485
481.053	4562.96
481.424	4624.2
481.795	4703.52
482.166	4801.6
482.537	4881.37
482.908	4964.08
483.279	5045.21
483.65	5154.36
484.021	5319.1
484.391	5353.45
484.762	5384.86
485.133	5515.48
485.503	5593.21
485.874	5673.89
486.244	5787.33
486.615	5995.69
486.985	6032.3
487.356	6154.56
487.726	6302.12
488.097	6465.06
488.467	6467.99
488.837	6635
489.207	6759.06
489.578	6908.89
489.948	7031.37
490.318	7185.72
490.688	7244.02
491.058	7474.29
491.428	7593.84
491.798	7762.87
492.168	7900.5
492.538	8053.49
492.908	8213.94
493.278	8392.24
493.648	8362.41
494.017	8616.86
494.387	8823.86
494.757	8862.28
495.126	9088.94
495.496	9160.13
495.866	9413.45
496.235	9530.29
496.605	9703.39
496.974	9796.04
497.344	10011.18
497.713	10177.05
498.082	10311.51
498.452	10552.41
498.821	10749.69
499.19	10761.21
499.559	11042.79
499.928	11206.4
500.298	11391.71
500.667	11551.25
501.036	11665.15
501.405	11802.99
501.774	12023.78
502.143	12242.98
502.512	12386.48
502.88	12518
503.249	12659.7
503.618	12925.68
503.987	13079.57
504.356	13246.8
504.724	13461.26
505.093	13597.07
505.462	13802.94
505.83	13989.6
506.199	14195.02
506.567	14440.89
506.936	14594.79
507.304	14786.42
507.672	14996.58
508.041	15084.04
508.409	15373.52
508.777	15515.89
509.145	15767.64
509.514	15858.03
509.882	16071.13
510.25	16282.65
510.618	16398.58
510.986	16615.3
511.354	16756.54
511.722	17044.44
512.09	17247.6
512.458	17248.73
512.826	17555.16
513.193	17582.73
513.561	17874.02
513.929	17929.39
514.297	18161.25
514.664	18377.51
515.032	18529.15
515.4	18787.44
515.767	18893.66
516.135	19102.92
516.502	19097.27
516.869	19414.55
517.237	19594.65
517.604	19587.65
517.972	19971.59
518.339	20021.76
518.706	20299.49
519.073	20276.9
519.44	20515.76
519.808	20790.33
520.175	20854.06
520.542	21206.14
520.909	21381.5
521.276	21388.96
521.643	21713.02
522.009	21851.09
522.376	21983.52
522.743	22226.68
523.11	22429.61
523.477	22681.13
523.843	22843.61
524.21	23167.89
524.577	23369.92
524.943	23509.13
525.31	23550.93
525.676	23886.29
526.043	24111.6
526.409	24213.52
526.776	24616.22
527.142	24657.12
527.508	24869.77
527.874	25092.59
528.241	25122.42
528.607	25392.92
528.973	25634.04
529.339	25641.5
529.705	25961.04
530.071	26308.83
530.437	26476.73
530.803	26444.64
531.169	26673.56
531.535	26797.18
531.901	26885.54
532.267	27067.9
532.632	27213.21
532.998	27427.22
533.364	27574.11
533.73	27654.1
534.095	27888
534.461	27996.92
534.826	28077.37
535.192	28215.67
535.557	28476.91
535.923	28603
536.288	28679.61
536.653	28821.08
537.019	28841.19
537.384	29055.2
537.749	29086.16
538.114	29199.15
538.479	29196.89
538.845	29482.53
539.21	29441.4
539.575	29531.34
539.94	29770.21
540.305	29901.28
540.67	29930.2
541.034	30024.66
541.399	30138.33
541.764	30274.6
542.129	30299.01
542.494	30387.59
542.858	30536.74
543.223	30488.61
543.587	30735.83
543.952	30672.56
544.316	30911.42
544.681	30852.66
545.045	31105.09
545.41	31176.5
545.774	31241.81
546.138	31230.28
546.503	31440.22
546.867	31623.49
547.231	31730.15
547.595	31778.06
547.959	31817.16
548.324	31946.87
548.688	32057.6
549.052	32203.81
549.416	32049.92
549.779	32153.19
550.143	32408.55
550.507	32391.15
550.871	32623.69
551.235	32606.74
551.599	32873.4
551.962	32925.38
552.326	32974.19
552.689	33030.23
553.053	32982.1
553.417	33257.57
553.78	33569.65
554.143	33574.63
554.507	33806.71
554.87	33770.1
555.234	34114.27
555.597	33868.63
555.96	34040.83
556.323	34244.21
556.686	34339.58
557.05	34665.44
557.413	34652.56
557.776	34647.37
558.139	34973.46
558.502	35080.57
558.865	35029.05
559.228	35231.76
559.59	35521.24
559.953	35442.83
560.316	35782.93
560.679	35915.81
561.041	35975.24
561.404	36286.87
561.767	36363.03
562.129	36346.98
562.492	36657.48
562.854	36911.26
563.217	36924.14
563.579	37016.34
563.941	37225.6
564.304	37362.77
564.666	37642.32
565.028	37613.84
565.39	37779.03
565.753	38061.29
566.115	38190.78
566.477	38412.46
566.839	38314.16
567.201	38885.45
567.563	38801.61
567.925	38960.92
568.287	39080.7
568.648	39170.41
569.01	39494.92
569.372	39792.32
569.734	39774.91
570.095	40013.55
570.457	40247.44
570.819	40306.65
571.18	40449.47
571.542	40695.34
571.903	40827.54
572.265	41008.78
572.626	41222.33
572.987	41262.56
573.349	41462.33
573.71	41714.52
574.071	41808.76
574.432	42151.35
574.794	42396.77
575.155	42348.63
575.516	42329.2
575.877	42632.47
576.238	42705.23
576.599	42999.91
576.96	43139.8
577.32	43300.25
577.681	43449.85
578.042	43659.11
578.403	43667.02
578.763	43775.71
579.124	44124.63
579.485	44407.79
579.845	44607.78
580.206	44404.85
580.566	44647.33
580.927	44961.22
581.287	45038.96
581.648	45012.97
582.008	45494.99
582.368	45735.44
582.728	45927.07
583.089	46011.59
583.449	46176.55
583.809	46439.6
584.169	46566.83
584.529	46616.54
584.889	47118
585.249	46998.68
585.609	47021.28
585.969	47487.03
586.329	47503.07
586.688	47876.17
587.048	47957.98
587.408	48095.37
587.768	48239.55
588.127	48490.84
588.487	48623.72
588.846	49075.24
589.206	48944.62
589.565	49207.66
589.925	49584.6
590.284	49559.74
590.643	49937.36
591.003	50086.73
591.362	50394.97
591.721	50446.95
592.08	50648.75
592.44	50994.51
592.799	51070.66
593.158	51178
593.517	51351.56
593.876	51718.56
594.235	51710.65
594.593	51874.94
594.952	52067.25
595.311	52266.79
595.67	52399.44
596.029	52629.94
596.387	52817.96
596.746	52994.68
597.104	52904.29
597.463	53256.37
597.822	53356.7
598.18	53382.47
598.538	53489.36
598.897	53903.58
599.255	53788.78
599.613	54330.01
599.972	54258.6
600.33	54372.5
600.688	54436.9
601.046	54660.17
601.404	54932.71
601.762	55012.48
602.12	55158.46
602.478	55303.77
602.836	55404.33
603.194	55362.75
603.552	55538.12
603.91	55589.41
604.268	55835.51
604.625	55783.76
604.983	56052.68
605.341	56001.61
605.698	56324.76
606.056	56508.71
606.413	56417.19
606.771	56708.48
607.128	56649.27
607.485	56711.19
607.843	56859.66
608.2	56964.07
608.557	57186.43
608.914	57170.62
609.272	57350.95
609.629	57518.18
609.986	57567.89
610.343	57625.07
610.7	57843.37
611.057	57833.87
611.414	57827.77
611.771	58075.9
612.127	58171.49
612.484	58271.15
612.841	58315.67
613.198	58274.32
613.554	58360.87
613.911	58621.65
614.267	58657.13
614.624	58622.55
614.98	58807.41
615.337	58951.36
615.693	58941.87
616.05	58994.3
616.406	59213.95
616.762	59117
617.118	59193.84
617.475	59173.5
617.831	59389.54
618.187	59411.91
618.543	59501.4
618.899	59663.66
619.255	59669.53
619.611	59625.24
619.967	59839.25
620.323	59932.35
620.678	59784.78
621.034	59814.16
621.39	59924.89
621.746	59982.07
622.101	60154.27
622.457	60038.11
622.812	60166.47
623.168	60189.97
623.523	60184.77
623.879	60248.95
624.234	60162.85
624.589	60263.87
624.945	60320.36
625.3	60309.52
625.655	60387.93
626.01	60380.02
626.365	60441.49
626.72	60390.87
627.075	60341.83
627.43	60402.39
627.785	60467.25
628.14	60431.09
628.495	60479.23
628.85	60509.28
629.205	60474.03
629.559	60558.1
629.914	60453.24
630.269	60458.21
630.623	60368.95
630.978	60347.71
631.332	60504.31
631.687	60518.32
632.041	60434.48
632.396	60559.23
632.75	60404.65
633.104	60412.56
633.459	60323.07
633.813	60395.62
634.167	60306.13
634.521	60345.67
634.875	60350.19
635.229	60336.18
635.583	60165.56
635.937	60215.96
636.291	60257.77
636.645	60236.07
636.999	60162.85
637.352	60240.37
637.706	60078.79
638.06	60191.78
638.413	60107.94
638.767	60054.61
639.121	60133.48
639.474	60022.97
639.828	60002.86
640.181	59992.24
640.534	60111.1
640.888	59921.28
641.241	59834.95
641.594	59842.86
641.947	59966.93
642.301	59845.57
642.654	59887.38
643.007	59864.78
643.36	59852.13
643.713	59812.58
644.066	59864.78
644.419	59648.52
644.771	59444
645.124	59186.38
645.477	59176.66
645.83	59128.76
646.182	59081.3
646.535	59104.12
646.888	59071.81
647.24	58994.07
647.593	59118.13
647.945	59013.73
648.298	59007.18
648.65	58879.5
649.002	58764.02
649.355	58757.92
649.707	58739.61
650.059	58675.21
650.411	58980.29
650.763	59080.85
651.115	59436.77
651.467	59383.44
651.819	59349.32
652.171	59238.81
652.523	59203.56
652.875	59225.93
653.227	59115.2
653.578	59253.72
653.93	59090.56
654.282	59056.22
654.633	59048.76
654.985	59056.89
655.337	59064.58
655.688	59047.63
656.039	59106.61
656.391	58880.63
656.742	58935.99
657.094	58951.36
657.445	58979.83
657.796	59016.89
658.147	58899.61
658.498	58919.04
658.849	58974.18
659.2	58878.82
659.551	58815.09
659.902	58976.9
660.253	58794.75
660.604	58833.62
660.955	58757.92
661.306	58834.98
661.656	58724.92
662.007	58723.57
662.358	58776
662.708	58726.28
663.059	58705.49
663.409	58608.77
663.76	58746.39
664.11	58710.69
664.461	58759.95
664.811	58757.47
665.161	58671.59
665.511	58679.05
665.862	58692.38
666.212	58669.33
666.562	58682.44
666.912	58704.36
667.262	58586.85
667.612	58580.52
667.962	58576.45
668.312	58516.34
668.662	58694.64
669.011	58586.85
669.361	58548.66
669.711	58609
670.06	58478.15
670.41	58525.83
670.76	58496
671.109	58593.63
671.459	58531.94
671.808	58517.02
672.157	58554.53
672.507	58372.84
672.856	58412.16
673.205	58439.06
673.554	58488.32
673.904	58377.59
674.253	58552.27
674.602	58424.82
674.951	58083.59
675.3	57996.81
675.649	58402
675.998	58353.64
676.346	58330.36
676.695	58363.58
677.044	58189.8
677.393	58300.08
677.741	58352.51
678.09	58286.52
678.438	58199.51
678.787	58243.13
679.135	58252.17
679.484	58109.35
679.832	58247.2
680.181	58077.03
680.529	58177.37
680.877	58072.74
681.225	58066.41
681.573	58202.9
681.922	58032.06
682.27	58060.54
682.618	58037.03
682.966	57932.4
683.314	57971.95
683.661	57993.19
684.009	57816.25
684.357	57779.64
684.705	57689.47
685.053	57794.1
685.4	57714.33
685.748	57635.91
686.095	57684.95
686.443	57547.78
686.79	57581.23
687.138	57662.35
687.485	57563.6
687.832	57509.59
688.18	57508.23
688.527	57399.54
688.874	57385.75
689.221	57386.2
689.568	57372.42
689.915	57202.03
690.262	57302.82
690.609	57267.79
690.956	57212.87
691.303	57147.34
691.65	57047.91
691.997	57011.98
692.344	56816.5
692.69	56927.68
693.037	56938.31
693.383	56688.37
693.73	56800.46
694.077	56598.88
694.423	56643.4
694.769	56518.66
695.116	56523.63
695.462	56401.82
695.808	56273.24
696.155	56340.13
696.501	56110.53
696.847	56250.64
697.193	56055.39
697.539	56110.3
697.885	55908.28
698.231	55865.34
698.577	55908.95
698.923	55817.2
699.269	55697.21
699.614	55574.73
699.96	55496.76
700.306	55536.08
700.651	55489.08
700.997	55275.07
701.342	55291.79
701.688	55188.52
702.033	55071.24
702.379	55135.41
702.724	55011.12
703.069	55010.67
703.415	54793.95
703.76	54761.87
704.105	54745.37
704.45	54690.91
704.795	54502.44
705.14	54478.71
705.485	54464.7
705.83	54314.65
706.175	54423.12
706.52	54269
706.865	54179.28
707.209	54092.28
707.554	54075.33
707.899	54056.57
708.243	53920.98
708.588	53906.52
708.932	53712.63
709.277	53755.79
709.621	53707.43
709.966	53480.99
710.31	53509.24
710.654	53292.07
710.998	53388.12
711.342	53348.79
711.687	53177.27
712.031	53198.06
712.375	53070.16
712.719	52988.35
713.063	52877.85
713.407	53140.89
713.75	52835.59
714.094	52883.95
714.438	52823.16
714.782	52606.44
715.125	52532.55
715.469	52775.25
715.812	52442.38
716.156	52326
716.499	52414.81
716.843	52492.77
717.186	52155.61
717.53	52359.89
717.873	52284.42
718.216	52191.54
718.559	52128.49
718.902	51801.49
719.246	51894.14
719.589	51847.37
719.932	51690.99
720.275	51745
720.617	51817.54
720.96	51667.48
721.303	51633.36
721.646	51693.25
721.989	51337.32
722.331	51519.01
722.674	51423.42
723.016	51407.83
723.359	51298.45
723.701	51325.12
724.044	51123.32
724.386	51007.61
724.729	51155.63
725.071	51116.09
725.413	50982.98
725.755	50918.12
726.097	50876.77
726.439	50720.16
726.782	50712.71
727.124	50880.39
727.465	50677.23
727.807	50614.18
728.149	50688.75
728.491	50507.97
728.833	50603.78
729.175	50478.14
729.516	50364.01
729.858	50441.53
730.199	50475.88
730.541	50380.51
730.882	50338.48
731.224	50179.16
731.565	50089.22
731.906	50058.94
732.248	50216
732.589	49960.64
732.93	49859.62
733.271	49917.02
733.612	49835.67
733.953	49981.65
734.294	49922.44
734.635	49710.7
734.976	49737.36
735.317	49591.38
735.658	49592.28
735.999	49400.88
736.339	49352.74
736.68	49492.4
737.021	49376.47
737.361	49286.75
737.702	49516.35
738.042	49277.49
738.383	49233.42
738.723	49281.11
739.063	49051.96
739.404	49250.82
739.744	49070.49
740.084	49017.61
740.424	49068.91
740.764	48916.37
741.104	49096.7
741.444	48862.36
741.784	48711.85
742.124	48844.51
742.464	48702.59
742.804	48698.97
743.143	48648.58
743.483	48692.19
743.823	48501.24
744.162	48489.04
744.502	48469.15
744.841	48370.62
745.181	48406.78
745.52	48199.78
745.86	48324.07
746.199	48206.33
746.538	48203.39
746.877	48183.73
747.216	48095.83
747.556	48018.09
747.895	48002.95
748.234	48024.87
748.573	47873.91
748.911	47788.94
749.25	47709.62
749.589	47642.05
749.928	47698.77
750.267	47724.99
750.605	47578.55
750.944	47468.95
751.283	47351.21
751.621	47490.19
751.96	47212.46
752.298	47209.52
752.636	47265.57
752.975	47096.53
753.313	46896.31
753.651	47089.52
753.989	46921.17
754.327	46931.79
754.666	46576.09
755.004	46701.96
755.342	46485.02
755.679	46579.93
756.017	46384.23
756.355	46474.85
756.693	46317.57
757.031	46466.04
757.368	45983.56
757.706	46086.39
758.044	45969.1
758.381	45960.97
758.719	45911.02
759.056	45706.51
759.394	45640.98
759.731	45356.69
760.068	45389.91
760.405	45240.53
760.743	45106.98
761.08	45144.72
761.417	44901.79
761.754	44797.16
762.091	44873.31
762.428	44605.75
762.765	44389.03
763.102	44530.95
763.438	44290.73
763.775	44052.77
764.112	44145.87
764.449	43933.68
764.785	43798.09
765.122	43654.13
765.458	43531.2
765.795	43336.63
766.131	43387.25
766.467	43279.23
766.804	42988.16
767.14	42802.18
767.476	42684.22
767.812	42608.96
768.148	42654.39
768.485	42448.74
768.821	42154.97
769.157	42040.17
769.492	41913.62
769.828	41818.02
770.164	41483.57
770.5	41427.75
770.836	41431.59
771.171	41185.27
771.507	41078.61
771.842	40798.84
772.178	40748.9
772.513	40748.67
772.849	40523.82
773.184	40491.51
773.519	40164.06
773.855	40152.76
774.19	40005.64
774.525	39860.34
774.86	39923.61
775.195	39717.29
775.53	39549.61
775.865	39257.19
776.2	39126.34
776.535	38887.03
776.87	38816.07
777.205	38623.31
777.539	38463.31
777.874	38504.67
778.209	38214.5
778.543	38236.2
778.878	38052.47
779.212	37913.49
779.547	37660.62
779.881	37750.79
780.215	37294.53
780.55	37472.15
780.884	37018.38
781.218	37233.74
781.552	37203.46
781.886	36878.95
782.22	36712.17
782.554	36458.17
782.888	36347.66
783.222	36239.64
783.556	36019.99
783.889	35960.1
784.223	35730.95
784.557	35616.61
784.89	35747.45
785.224	35429.04
785.557	35222.27
785.891	35170.74
786.224	35220.01
786.558	35101.82
786.891	34788.83
787.224	34556.97
787.557	34395.17
787.891	34524.21
788.224	34158.34
788.557	34263.2
788.89	34091
789.223	34077.89
789.556	33911.79
789.888	33843.09
790.221	33701.4
790.554	33478.58
790.887	33464.57
791.219	33246.72
791.552	33162.21
791.884	33028.43
792.217	32972.83
792.549	32729.9
792.882	32501.89
793.214	32489.46
793.546	32451.27
793.879	32382.57
794.211	32060.09
794.543	32180.31
794.875	32143.02
795.207	31897.16
795.539	31925.4
795.871	31961.56
796.203	31734
796.535	31521.8
796.867	31443.83
797.198	31296.04
797.53	31166.55
797.862	30921.36
798.193	31045.65
798.525	30897.63
798.856	30960.46
799.188	30521.6
799.519	30477.76
799.85	30365.9
800.182	30350.3
800.513	30482.05
800.844	30041.39
801.175	30273.47
801.506	30171.78
801.837	29912.58
802.168	29932.69
802.499	29837.1
802.83	29676.88
803.161	29397.33
803.491	29548.06
803.822	29623.09
804.153	29372.93
804.483	29240.73
804.814	29168.41
805.145	29138.13
805.475	29082.54
805.805	29058.13
806.136	28982.43
806.466	28792.6
806.796	28814.98
807.126	28685.04
807.457	28394.65
807.787	28502.44
808.117	28423.57
808.447	28372.95
808.777	28349.23
809.107	28097.71
809.436	28062.91
809.766	28062.23
810.096	28035.56
810.426	27753.99
810.755	27965.51
811.085	27666.08
811.414	27822.91
811.744	27662.46
812.073	27482.13
812.403	27503.15
812.732	27338.41
813.061	27489.81
813.39	27267.22
813.719	27205.75
814.049	27291.4
814.378	27376.82
814.707	26903.39
815.036	27086.43
815.365	26940.45
815.693	26746.33
816.022	26705.65
816.351	26697.97
816.68	26596.73
817.008	26655.03
817.337	26331.65
817.665	26314.48
817.994	26420.01
818.322	26621.81
818.651	26271.99
818.979	26208.72
819.307	26236.51
819.636	26055.5
819.964	26010.08
820.292	26102.28
820.62	26004.66
820.948	26023.86
821.276	26109.06
821.604	25861.16
821.932	26169.17
822.259	26002.62
822.587	25937.09
822.915	25833.13
823.243	25978.67
823.57	25916.3
823.898	25997.42
824.225	25836.52
824.553	25783.42
824.88	25866.58
825.207	26075.16
825.535	25803.98
825.862	25936.41
826.189	25905.9
826.516	26032.45
826.843	26012.34
827.17	26003.53
827.497	26015.5
827.824	26019.8
828.151	26084.43
828.478	25921.95
828.805	26062.28
829.131	25920.82
829.458	25937.09
829.785	25742.52
830.111	25892.34
830.438	25907.93
830.764	25899.35
831.09	25901.38
831.417	25816.86
831.743	25954.49
832.069	25774.83
832.395	25852.34
832.722	25868.84
833.048	25792.91
833.374	25810.99
833.7	25812.34
834.026	25778.67
834.351	25715.85
834.677	25799.69
835.003	25698.9
835.329	25723.08
835.654	25738.45
835.98	25471.34
836.306	25715.85
836.631	25505.46
836.956	25632.46
837.282	25601.5
837.607	25488.74
837.932	25385.46
838.258	25361.06
838.583	25357.67
838.908	25303.66
839.233	25423.88
839.558	25238.8
839.883	25258.23
840.208	25123.77
840.533	25083.32
840.858	25172.59
841.182	25166.94
841.507	25056.21
841.832	24953.38
842.156	24913.84
842.481	24999.48
842.805	24798.59
843.13	24772.37
843.454	24863.89
843.778	24734.86
844.103	24531.47
844.427	24672.26
844.751	24580.96
845.075	24529.21
845.399	24371.25
845.723	24322.89
846.047	24406.05
846.371	24026.4
846.695	23982.56
847.019	23952.05
847.343	23730.82
847.666	23800.42
847.99	23675.45
848.313	23668.22
848.637	23604.72
848.96	23452.41
849.284	23520.65
849.607	23148.46
849.931	23143.49
850.254	22927.67
850.577	22890.16
850.9	22778.98
851.223	22733.78
851.546	22673.22
851.869	22636.83
852.192	22657.85
852.515	22401.59
852.838	22297.18
853.161	22350.74
853.483	22106.45
853.806	22049.5
854.129	21967.47
854.451	22092.44
854.774	21891.32
855.096	21795.05
855.419	21801.15
855.741	21722.28
856.063	21605
856.385	21487.49
856.708	21520.93
857.03	21433.7
857.352	21361.16
857.674	21346.47
857.996	21313.03
858.318	21027.16
858.64	21150.09
858.961	20929.76
859.283	20892.47
859.605	20862.64
859.926	20949.19
860.248	20812.25
860.57	20791.23
860.891	20758.69
861.212	20713.95
861.534	20536.78
861.855	20520.51
862.176	20526.61
862.498	20570.9
862.819	20449.1
863.14	20426.27
863.461	20359.61
863.782	20312.83
864.103	20279.16
864.424	20166.39
864.745	20261.53
865.065	20119.61
865.386	20075.32
865.707	20031.7
866.027	20041.87
866.348	19942.44
866.668	20042.78
866.989	19841.65
867.309	19833.74
867.63	19838.49
867.95	19906.06
868.27	19710.81
868.59	19772.95
868.91	19626.97
869.23	19739.74
869.55	19527.31
869.87	19707.42
870.19	19556.01
870.51	19546.29
870.83	19575.22
871.15	19377.71
871.469	19380.87
871.789	19467.2
872.109	19521.66
872.428	19253.87
872.748	19345.62
873.067	19327.32
873.386	19280.31
873.706	19287.77
874.025	19189.02
874.344	19061.33
874.663	19156.02
874.982	19110.6
875.301	19019.53
875.62	18991.96
875.939	18907.67
876.258	18972.98
876.577	18795.58
876.896	18870.83
877.214	18875.58
877.533	18902.92
877.852	18801.45
878.17	18767.11
878.489	18757.39
878.807	18697.28
879.125	18752.64
879.444	18633.55
879.762	18571.63
880.08	18658.41
880.398	18470.16
880.716	18598.3
881.034	18516.49
881.352	18555.59
881.67	18452.99
881.988	18403.27
882.306	18459.77
882.624	18342.94
882.941	18242.15
883.259	18167.57
883.577	18215.71
883.894	18089.16
884.212	18063.4
884.529	18129.83
884.846	17980.69
885.164	17900.01
885.481	17941.59
885.798	17877.19
886.115	17711.09
886.432	17822.27
886.75	17767.13
887.067	17742.95
887.383	17688.72
887.7	17653.69
888.017	17519
888.334	17572.33
888.651	17416.63
888.967	17455.05
889.284	17391.1
889.6	17248.05
889.917	17226.81
890.233	17281.49
890.55	17220.48
890.866	17191.55
891.182	17147.71
891.498	17075.62
891.815	17021.39
892.131	16929.41
892.447	16919.02
892.763	16939.58
893.079	16733.03
893.395	16679.7
893.71	16660.49
894.026	16671.34
894.342	16596.32
894.657	16545.02
894.973	16453.49
895.289	16501.85
895.604	16354.51
895.92	16306.15
896.235	16242.65
896.55	16305.02
896.865	16182.54
897.181	16090.57
897.496	16103.9
897.811	16013.96
898.126	16020.28
898.441	15878.59
898.756	15903.9
899.071	15808.31
899.386	15811.25
899.7	15669.11
900.015	15590.69
900.33	15584.36
900.644	15478.15
900.959	15483.12
901.273	15402.67
901.588	15412.17
901.902	15279.06
902.216	15207.65
902.531	15223.7
902.845	15172.4
903.159	15030.25
903.473	15132.4
903.787	14904.16
904.101	14908.22
904.415	14891.73
904.729	14744.84
905.042	14794.33
905.356	14705.74
905.67	14708.91
905.984	14638.17
906.297	14520.21
906.611	14486.99
906.924	14428.24
907.237	14304.62
907.551	14339.2
907.864	14210.62
908.177	14164.97
908.491	14202.48
908.804	14106.89
909.117	14009.72
909.43	13893.79
909.743	13919.1
910.056	13922.04
910.368	13800.23
910.681	13696.5
910.994	13694.02
911.307	13580.8
911.619	13484.98
911.932	13545.32
912.244	13327.7
912.557	13457.87
912.869	13303.29
913.181	13256.74
913.494	13266.91
913.806	13199.79
914.118	13106.46
914.43	13092.9
914.742	13046.58
915.054	12946.02
915.366	12947.6
915.678	12826.02
915.99	12831.89
916.302	12748.05
916.613	12637.1
916.925	12776.98
917.236	12645.46
917.548	12565.23
917.859	12558
918.171	12459.02
918.482	12360.27
918.794	12367.95
919.105	12319.59
919.416	12171.8
919.727	12112.37
920.038	12139.71
920.349	12035.08
920.66	11985.14
920.971	11975.87
921.282	11937.23
921.593	11856.33
921.903	11782.2
922.214	11793.28
922.525	11761.87
922.835	11673.05
923.146	11512.15
923.456	11536.79
923.767	11515.32
924.077	11511.48
924.387	11404.81
924.697	11287.53
925.008	11367.07
925.318	11264.48
925.628	11212.05
925.938	11234.65
926.248	11088.89
926.558	11053.41
926.867	11076.23
927.177	10989.23
927.487	10855.9
927.796	10828.78
928.106	10857.26
928.416	10800.08
928.725	10783.13
929.034	10695.45
929.344	10724.15
929.653	10592.86
929.962	10537.04
930.271	10468.79
930.581	10449.36
930.89	10453.65
931.199	10365.74
931.508	10401
931.817	10357.83
932.125	10269.25
932.434	10236.93
932.743	10109.48
933.051	10092.53
933.36	10099.54
933.669	9990.39
933.977	9959.2
934.286	9897.06
934.594	9828.58
934.902	9854.57
935.21	9758.08
935.519	9743.84
935.827	9749.26
936.135	9624.07
936.443	9626.33
936.751	9573.22
937.059	9557.63
937.367	9465.66
937.674	9438.54
937.982	9447.8
938.29	9443.73
938.597	9378.2
938.905	9260.91
939.213	9281.03
939.52	9237.86
939.827	9215.94
940.135	9207.81
940.442	9121.71
940.749	9065.89
941.056	9115.16
941.363	9077.19
941.67	8941.83
941.977	8947.7
942.284	8873.58
942.591	8820.47
942.898	8760.59
943.205	8788.38
943.511	8733.47
943.818	8637.88
944.125	8712.23
944.431	8549.29
944.738	8575.96
945.044	8559.01
945.35	8516.53
945.657	8497.54
945.963	8394.27
946.269	8384.55
946.575	8367.83
946.881	8312.47
947.187	8307.04
947.493	8246.48
947.799	8205.35
948.105	8140.94
948.41	8102.98
948.716	8094.39
949.022	8077.67
949.327	8150.44
949.633	7930.1
949.938	7909.09
950.244	7966.03
950.549	7797.45
950.854	7792.93
951.16	7722.42
951.465	7748.41
951.77	7711.8
952.075	7687.17
952.38	7615.31
952.685	7620.73
952.99	7532.82
953.294	7596.1
953.599	7474.07
953.904	7426.84
954.209	7369.44
954.513	7363.34
954.818	7378.48
955.122	7394.3
955.426	7314.75
955.731	7329.44
956.035	7178.03
956.339	7233.85
956.643	7195.21
956.948	7073.63
957.252	7105.04
957.556	7067.75
957.86	7110.69
958.163	6988.88
958.467	7005.15
958.771	7045.61
959.075	6984.82
959.378	6926.96
959.682	6859.62
959.985	6832.5
960.289	6793.63
960.592	6798.61
960.896	6732.62
961.199	6731.94
961.502	6711.15
961.805	6653.75
962.108	6602.45
962.411	6566.75
962.714	6534.21
963.017	6524.94
963.32	6537.6
963.623	6528.56
963.926	6466.64
964.228	6409.69
964.531	6424.15
964.833	6393.87
965.136	6331.73
965.438	6344.61
965.741	6251.95
966.043	6263.25
966.345	6184.84
966.648	6159.3
966.95	6147.1
967.252	6158.4
967.554	6088.79
967.856	6074.11
968.158	5999.53
968.46	6031.17
968.761	6038.85
969.063	5962.47
969.365	5901.45
969.666	5902.36
969.968	5864.85
970.269	5835.92
970.571	5809.93
970.872	5768.8
971.174	5811.74
971.475	5755.24
971.776	5685.87
972.077	5649.03
972.378	5658.07
972.679	5625.3
972.98	5626.66
973.281	5590.73
973.582	5588.02
973.883	5550.28
974.183	5507.12
974.484	5505.99
974.785	5402.49
975.085	5481.13
975.386	5442.03
975.686	5382.82
975.986	5339.44
976.287	5330.4
976.587	5306.89
976.887	5313.67
977.187	5281.81
977.487	5279.55
977.787	5221.7
978.087	5191.19
978.387	5170.17
978.687	5137.41
978.987	5124.3
979.286	5102.15
979.586	5075.71
979.885	5063.28
980.185	4997.07
980.484	4968.37
980.784	4977.86
981.083	4943.74
981.382	4942.61
981.682	4941.03
981.981	4891.76
982.28	4874.59
982.579	4846.57
982.878	4844.99
983.177	4838.66
983.475	4804.76
983.774	4724.99
984.073	4710.07
984.372	4689.74
984.67	4714.14
984.969	4676.4
985.267	4663.97
985.566	4665.56
985.864	4589.85
986.162	4598.89
986.461	4573.81
986.759	4562.73
987.057	4515.28
987.355	4507.82
987.653	4495.62
987.951	4462.62
988.249	4430.76
988.547	4404.77
988.844	4385.56
989.142	4381.72
989.44	4348.95
989.737	4297.43
990.035	4282.97
990.332	4288.39
990.63	4211.1
990.927	4249.97
991.224	4252.46
991.521	4170.43
991.819	4195.96
992.116	4161.39
992.413	4153.25
992.71	4093.82
993.006	4139.92
993.303	4061.28
993.6	4079.81
993.897	4074.84
994.193	4033.93
994.49	4007.27
994.787	4000.94
995.083	3962.75
995.379	3932.69
995.676	3917.78
995.972	3896.54
996.268	3857.44
996.565	3813.37
996.861	3849.31
997.157	3804.11
997.453	3823.54
997.749	3796.65
998.044	3715.98
998.34	3733.38
998.636	3718.46
998.932	3719.14
999.227	3698.8
999.523	3681.4
999.818	3629.88
1000.114	3586.26
1000.409	3611.57
1000.704	3623.1
1001	3546.71
1001.295	3498.81
1001.59	3540.84
1001.885	3478.69
1002.18	3465.59
1002.475	3452.25
1002.77	3440.05
1003.065	3386.49
1003.359	3427.4
1003.654	3385.59
1003.949	3375.87
1004.243	3361.86
1004.538	3295.65
1004.832	3302.65
1005.127	3287.96
1005.421	3285.25
1005.715	3244.8
1006.009	3240.51
1006.304	3233.95
1006.598	3193.96
1006.892	3201.86
1007.186	3153.73
1007.48	3125.03
1007.773	3089.78
1008.067	3099.04
1008.361	3055.43
1008.655	3052.72
1008.948	3044.81
1009.242	2999.84
1009.535	3020.85
1009.829	3003.23
1010.122	2946.96
1010.415	2922.55
1010.708	2940.85
1011.001	2916.45
1011.295	2920.06
1011.588	2921.65
1011.881	2813.4
1012.173	2836
1012.466	2810.69
1012.759	2822.67
1013.052	2819.5
1013.344	2810.01
1013.637	2749.45
1013.93	2763.01
1014.222	2739.28
1014.514	2710.35
1014.807	2678.26
1015.099	2625.38
1015.391	2656.57
1015.683	2619.51
1015.976	2605.27
1016.268	2604.59
1016.56	2595.1
1016.851	2568.66
1017.143	2551.26
1017.435	2519.4
1017.727	2480.98
1018.018	2479.17
1018.31	2475.78
1018.602	2436.01
1018.893	2414.09
1019.185	2418.16
1019.476	2406.86
1019.767	2382.9
1020.058	2387.65
1020.35	2341.55
1020.641	2352.62
1020.932	2320.98
1021.223	2325.96
1021.514	2290.48
1021.804	2285.96
1022.095	2267.88
1022.386	2226.07
1022.677	2224.04
1022.967	2191.5
1023.258	2196.92
1023.548	2172.97
1023.839	2182.68
1024.129	2150.82
1024.419	2140.2
1024.709	2122.57
1025	2118.5
1025.29	2083.93
1025.58	2055.68
1025.87	2032.18
1026.16	2043.25
1026.449	2024.95
1026.739	1982.46
1027.029	2011.16
1027.319	2019.07
1027.608	2010.48
1027.898	1962.12
1028.187	1965.29
1028.477	1913.76
1028.766	1941.33
1029.055	1898.62
1029.344	1892.29
1029.634	1906.08
1029.923	1836.7
1030.212	1832.86
1030.501	1838.96
1030.79	1826.99
1031.078	1833.99
1031.367	1808.91
1031.656	1781.79
1031.945	1791.51
1032.233	1767.55
1032.522	1722.81
1032.81	1721.9
1033.099	1714.22
1033.387	1700.21
1033.675	1727.33
1033.963	1675.8
1034.251	1655.69
1034.54	1669.93
1034.828	1640.55
1035.116	1633.32
1035.403	1628.12
1035.691	1622.7
1035.979	1594.9
1036.267	1596.26
1036.554	1601.46
1036.842	1566.65
1037.129	1549.48
1037.417	1548.12
1037.704	1546.32
1037.992	1521.23
1038.279	1501.34
1038.566	1508.35
1038.853	1508.35
1039.14	1508.35
