Data from 142_FLMS001491_005.txt Node
Date: Thu Apr 19 16:09:07 BST 2018
User: hsy
Spectrometer: FLMS00149
Trigger mode: 0
Integration Time (sec): 1.000000E-2
Scans to average: 10
Electric dark correction enabled: true
Nonlinearity correction enabled: false
Boxcar width: 0
XAxis mode: Wavelengths
Number of Pixels in Spectrum: 2048
>>>>>Begin Spectral Data<<<<<
341.393	-30.68
341.776	-30.68
342.16	-30.68
342.543	-58.47
342.927	-57.12
343.31	-68.64
343.693	-90.56
344.077	-60.96
344.46	-52.37
344.843	-51.47
345.226	-57.12
345.61	0.06
345.993	-30.68
346.376	-6.72
346.759	-5.82
347.142	31.69
347.525	32.82
347.908	59.72
348.291	83.67
348.674	85.93
349.057	130.45
349.44	138.13
349.823	163.67
350.206	198.02
350.588	231.91
350.971	271.01
351.354	298.13
351.737	287.28
352.119	298.81
352.502	291.8
352.884	329.54
353.267	334.74
353.65	333.38
354.032	341.74
354.414	355.3
354.797	356.43
355.179	358.01
355.562	378.35
355.944	365.92
356.326	383.32
356.709	395.53
357.091	398.92
357.473	379.93
357.855	389.42
358.238	394.62
358.62	392.59
359.002	396.66
359.384	389.42
359.766	403.44
360.148	387.62
360.53	402.53
360.912	407.28
361.294	402.98
361.676	376.77
362.057	371.57
362.439	390.55
362.821	400.72
363.203	379.26
363.584	386.04
363.966	405.92
364.348	371.12
364.729	383.78
365.111	372.93
365.493	400.05
365.874	384
366.256	384.91
366.637	356.43
367.019	390.1
367.4	370.22
367.781	380.84
368.163	364.79
368.544	379.26
368.925	379.71
369.306	398.01
369.688	389.2
370.069	375.19
370.45	386.94
370.831	387.62
371.212	378.8
371.593	398.69
371.974	381.97
372.355	388.97
372.736	374.28
373.117	381.97
373.498	376.54
373.879	396.43
374.26	392.14
374.641	386.71
375.021	397.56
375.402	402.53
375.783	414.28
376.163	408.18
376.544	386.04
376.925	395.98
377.305	409.31
377.686	406.15
378.066	388.29
378.447	419.93
378.827	416.54
379.208	411.12
379.588	419.03
379.968	406.37
380.349	418.8
380.729	428.75
381.109	411.8
381.489	421.29
381.87	443.21
382.25	431.23
382.63	437.79
383.01	425.13
383.39	457.67
383.77	425.36
384.15	430.78
384.53	444.11
384.91	456.32
385.29	448.18
385.67	447.73
386.049	483.43
386.429	447.95
386.809	479.82
387.189	464.68
387.568	462.19
387.948	478.24
388.328	490.67
388.707	477.78
389.087	472.59
389.466	459.71
389.846	495.18
390.225	501.29
390.605	490.44
390.984	519.14
391.363	523.43
391.743	516.43
392.122	526.82
392.501	514.62
392.881	503.09
393.26	542.19
393.639	528.63
394.018	534.28
394.397	526.14
394.776	554.84
395.155	546.48
395.534	548.52
395.913	536.31
396.292	539.93
396.671	556.2
397.05	528.18
397.429	534.51
397.808	553.94
398.186	551.68
398.565	554.39
398.944	563.21
399.323	565.47
399.701	585.35
400.08	572.92
400.458	576.76
400.837	593.71
401.215	605.01
401.594	597.1
401.972	609.76
402.351	598.01
402.729	610.44
403.107	612.02
403.486	625.58
403.864	613.15
404.242	617.89
404.62	635.75
404.999	642.75
405.377	633.26
405.755	622.86
406.133	669.87
406.511	668.06
406.889	673.49
407.267	662.41
407.645	694.05
408.023	683.65
408.401	682.3
408.779	697.44
409.156	714.39
409.534	671.68
409.912	732.69
410.29	720.26
410.667	744.22
411.045	749.19
411.422	756.65
411.8	763.43
412.178	776.99
412.555	779.7
412.933	790.32
413.31	805.69
413.687	804.1
414.065	814.27
414.442	823.99
414.819	828.51
415.197	823.09
415.574	844.55
415.951	823.31
416.328	869.86
416.705	859.69
417.082	858.56
417.46	880.94
417.837	908.28
418.214	875.97
418.591	889.07
418.967	919.58
419.344	931.33
419.721	921.39
420.098	932.24
420.475	954.83
420.852	960.48
421.228	965.68
421.605	961.61
421.982	966.81
422.358	967.71
422.735	992.35
423.111	971.78
423.488	982.4
423.864	989.63
424.241	995.96
424.617	1009.52
424.994	1033.02
425.37	1011.56
425.746	1040.26
426.123	1045.68
426.499	1067.83
426.875	1073.93
427.251	1079.8
427.627	1120.25
428.003	1122.06
428.379	1129.97
428.756	1155.28
429.132	1149.63
429.507	1156.18
429.883	1139.01
430.259	1182.4
430.635	1180.82
431.011	1186.01
431.387	1187.37
431.763	1231.44
432.138	1234.37
432.514	1255.84
432.89	1243.87
433.265	1297.2
433.641	1298.33
434.016	1313.92
434.392	1341.49
434.767	1372.9
435.143	1339.91
435.518	1349.85
435.894	1383.07
436.269	1374.71
436.644	1416.52
437.02	1407.25
437.395	1446.35
437.77	1452.67
438.145	1433.69
438.52	1437.08
438.895	1495.38
439.271	1462.62
439.646	1517.3
440.021	1520.47
440.395	1518.66
440.77	1516.17
441.145	1526.12
441.52	1540.81
441.895	1557.53
442.27	1575.61
442.645	1562.05
443.019	1604.53
443.394	1615.16
443.769	1604.76
444.143	1572.22
444.518	1638.43
444.892	1603.4
445.267	1625.1
445.641	1679.79
446.016	1663.74
446.39	1668.94
446.764	1678.43
447.139	1690.18
447.513	1697.19
447.887	1711.42
448.262	1693.35
448.636	1725.66
449.01	1704.64
449.384	1733.12
449.758	1763.63
450.132	1779.67
450.506	1820.8
450.88	1826
451.254	1808.37
451.628	1840.69
452.002	1861.48
452.376	1874.58
452.75	1894.92
453.123	1879.33
453.497	1930.4
453.871	1959.1
454.244	1982.6
454.618	1970.63
454.992	2042.04
455.365	2030.06
455.739	2050.85
456.112	2122.94
456.486	2131.98
456.859	2112.54
457.232	2188.93
457.606	2189.38
457.979	2225.53
458.352	2268.92
458.725	2284.29
459.099	2299.21
459.472	2326.1
459.845	2390.5
460.218	2361.8
460.591	2395.25
460.964	2404.97
461.337	2436.38
461.71	2472.08
462.083	2522.02
462.456	2567.45
462.829	2559.09
463.201	2607.22
463.574	2605.19
463.947	2645.64
464.32	2673.43
464.692	2678.18
465.065	2688.57
465.438	2734.9
465.81	2752.98
466.183	2819.42
466.555	2819.87
466.928	2879.08
467.3	2892.18
467.672	2920.88
468.045	2989.81
468.417	2983.25
468.789	3028.23
469.161	3071.16
469.534	3087.88
469.906	3166.98
470.278	3151.61
470.65	3246.52
471.022	3238.62
471.394	3305.05
471.766	3291.04
472.138	3407.65
472.51	3457.82
472.882	3523.81
473.253	3529.46
473.625	3625.72
473.997	3669.34
474.369	3689.23
474.74	3693.97
475.112	3839.05
475.484	3832.72
475.855	3914.3
476.227	3956.56
476.598	4035.43
476.97	4116.33
477.341	4204.24
477.713	4213.96
478.084	4303.67
478.455	4417.57
478.827	4381.86
479.198	4537.56
479.569	4571.91
479.94	4741.85
480.311	4785.92
480.682	4841.96
481.053	4996.08
481.424	5054.16
481.795	5130.09
482.166	5208.06
482.537	5284.66
482.908	5430.87
483.279	5528.27
483.65	5615.5
484.021	5714.48
484.391	5863.41
484.762	5904.76
485.133	6013.46
485.503	6071.76
485.874	6265.65
486.244	6294.81
486.615	6470.85
486.985	6587.68
487.356	6728.69
487.726	6782.03
488.097	6996.26
488.467	7051.4
488.837	7260.2
489.207	7328
489.578	7545.39
489.948	7609.57
490.318	7767.08
490.688	7862.9
491.058	8064.7
491.428	8236.9
491.798	8321.65
492.168	8488.65
492.538	8635.99
492.908	8856.77
493.278	9008.86
493.648	9109.87
494.017	9242.07
494.387	9439.13
494.757	9570.88
495.126	9751.89
495.496	9883.19
495.866	10019.91
496.235	10165.21
496.605	10306.68
496.974	10474.81
497.344	10667.35
497.713	10873.89
498.082	11025.76
498.452	11211.29
498.821	11358.18
499.19	11465.52
499.559	11637.49
499.928	11879.07
500.298	11979.85
500.667	12165.16
501.036	12374.87
501.405	12552.49
501.774	12589.78
502.143	12932.82
502.512	12999.94
502.88	13222.76
503.249	13300.5
503.618	13519.93
503.987	13719.24
504.356	14013.02
504.724	14053.47
505.093	14313.13
505.462	14440.35
505.83	14543.4
506.199	14825.88
506.567	14967.57
506.936	15211.18
507.304	15424.28
507.672	15662.92
508.041	15688.46
508.409	15913.76
508.777	16164.38
509.145	16330.47
509.514	16508.1
509.882	16621.31
510.25	16797.58
510.618	17055.88
510.986	17123.45
511.354	17373.38
511.722	17597.56
512.09	17780.61
512.458	17829.87
512.826	18140.82
513.193	18159.13
513.561	18377.2
513.929	18555.05
514.297	18751.88
514.664	18873.46
515.032	19074.13
515.4	19296.27
515.767	19422.14
516.135	19575.14
516.502	19643.38
516.869	19918.4
517.237	20107.32
517.604	20114.78
517.972	20492.17
518.339	20575.11
518.706	20616.01
519.073	20879.96
519.44	20983.91
519.808	21238.59
520.175	21330.57
520.542	21633.39
520.909	21830.44
521.276	21909.31
521.643	22261.17
522.009	22370.32
522.376	22517.2
522.743	22716.3
523.11	23022.5
523.477	23292.78
523.843	23325.54
524.21	23606.44
524.577	23851.18
524.943	24059.08
525.31	24154.68
525.676	24581.56
526.043	24655.45
526.409	24766.41
526.776	25096.8
527.142	25184.03
527.508	25542.21
527.874	25628.54
528.241	25743.56
528.607	25872.37
528.973	26263.09
529.339	26264.9
529.705	26582.41
530.071	26809.07
530.437	26920.48
530.803	27159.12
531.169	27321.82
531.535	27367.47
531.901	27558.65
532.267	27634.13
532.632	27928.59
532.998	28054.91
533.364	28159.77
533.73	28327.9
534.095	28637.72
534.461	28556.37
534.826	28665.52
535.192	28975.79
535.557	29120.42
535.923	29342.79
536.288	29329
536.653	29527.64
537.019	29439.73
537.384	29689.45
537.749	29777.35
538.114	29884.92
538.479	29889.67
538.845	30138.47
539.21	30032.49
539.575	30244.23
539.94	30382.08
540.305	30513.6
540.67	30509.31
541.034	30538.01
541.399	30707.95
541.764	30820.26
542.129	31042.63
542.494	31023.65
542.858	31283.75
543.223	31221.38
543.587	31468.16
543.952	31449.85
544.316	31600.81
544.681	31495.27
545.045	31862.95
545.41	31871.08
545.774	31985.88
546.138	31920.12
546.503	32183.62
546.867	32025.43
547.231	32305.42
547.595	32419.32
547.959	32580.44
548.324	32698.18
548.688	32763.26
549.052	32748.12
549.416	32752.19
549.779	32843.49
550.143	32924.16
550.507	33103.59
550.871	33187.66
551.235	33239.63
551.599	33605.27
551.962	33641.88
552.326	33786.51
552.689	33827.87
553.053	33589.68
553.417	33777.25
553.78	34167.07
554.143	34244.35
554.507	34414.74
554.87	34502.43
555.234	34696.77
555.597	34452.71
555.96	34753.04
556.323	34849.76
556.686	34936.09
557.05	35275.97
557.413	35241.84
557.776	35236.42
558.139	35599.35
558.502	35528.84
558.865	35679.34
559.228	35971.99
559.59	36042.95
559.953	36115.72
560.316	36495.37
560.679	36529.04
561.041	36701.69
561.404	36893.78
561.767	37185.75
562.129	37189.36
562.492	37386.42
562.854	37434.55
563.217	37588.67
563.579	37644.72
563.941	37937.82
564.304	38114.53
564.666	38534.86
565.028	38376.45
565.39	38461.19
565.753	38868.41
566.115	38896.89
566.477	39143.89
566.839	39269.53
567.201	39468.17
567.563	39521.96
567.925	39897.54
568.287	40013.92
568.648	40067.93
569.01	40427.69
569.372	40574.58
569.734	40570.29
570.095	41071.52
570.457	41121.24
570.819	41190.16
571.18	41283.72
571.542	41660.66
571.903	41805.28
572.265	41911.95
572.626	42061.55
572.987	42170.02
573.349	42508.32
573.71	42610.01
574.071	42753.51
574.432	43055.87
574.794	43178.36
575.155	43263.55
575.516	43344.68
575.877	43651.11
576.238	43717.55
576.599	43930.2
576.96	43958.22
577.32	44166.8
577.681	44416.74
578.042	44690.18
578.403	44645.89
578.763	44789.16
579.124	44960
579.485	45446.32
579.845	45545.98
580.206	45589.82
580.566	45788.68
580.927	45836.59
581.287	46079.07
581.648	46124.27
582.008	46536.69
582.368	46571.26
582.728	46627.31
583.089	46782.33
583.449	46872.04
583.809	47129.66
584.169	47441.75
584.529	47450.79
584.889	47852.13
585.249	47811.68
585.609	47759.48
585.969	48203.76
586.329	48245.57
586.688	48621.6
587.048	48672.22
587.408	48829.96
587.768	49010.07
588.127	49270.4
588.487	49293.45
588.846	49777.28
589.206	49797.39
589.565	49814.57
589.925	50221.56
590.284	50278.06
590.643	50426.75
591.003	50686.86
591.362	51056.12
591.721	51072.84
592.08	51152.16
592.44	51532.94
592.799	51593.95
593.158	51756.21
593.517	51826.49
593.876	52142.41
594.235	52202.53
594.593	52294.05
594.952	52576.98
595.311	52633.25
595.67	52889.74
596.029	53131.99
596.387	53369.73
596.746	53515.26
597.104	53496.5
597.463	53592.32
597.822	53853.56
598.18	53932.42
598.538	54042.7
598.897	54416.48
599.255	54270.95
599.613	54639.3
599.972	54653.76
600.33	54843.36
600.688	54821.67
601.046	54994.54
601.404	55347.08
601.762	55335.78
602.12	55503.91
602.478	55675.65
602.836	55794.07
603.194	55703
603.552	55931.69
603.91	55926.72
604.268	56128.98
604.625	56168.98
604.983	56354.51
605.341	56376.2
605.698	56589.98
606.056	56794.27
606.413	56753.59
606.771	57056.86
607.128	57142.51
607.485	57119.46
607.843	57220.25
608.2	57440.13
608.557	57506.12
608.914	57537.07
609.272	57705.88
609.629	57867.69
609.986	57938.87
610.343	58035.59
610.7	58271.52
611.057	58246.89
611.414	58250.5
611.771	58453.89
612.127	58547.44
612.484	58640.32
612.841	58693.88
613.198	58624.05
613.554	58641
613.911	58923.25
614.267	58941.78
614.624	59060.2
614.98	59058.62
615.337	59300.87
615.693	59168.44
616.05	59330.7
616.406	59451.83
616.762	59433.97
617.118	59510.36
617.475	59512.62
617.831	59720.97
618.187	59787.64
618.543	59740.63
618.899	59915.09
619.255	59954.86
619.611	59895.2
619.967	60029.21
620.323	60185.82
620.678	60076.67
621.034	60061.53
621.39	60091.36
621.746	60169.1
622.101	60466.26
622.457	60296.55
622.812	60442.08
623.168	60466.94
623.523	60466.49
623.879	60567.96
624.234	60468.07
624.589	60598.01
624.945	60611.12
625.3	60666.26
625.655	60646.6
626.01	60698.8
626.365	60694.73
626.72	60704.68
627.075	60659.25
627.43	60686.37
627.785	60770.21
628.14	60762.3
628.495	60758.46
628.85	60833.49
629.205	60763.2
629.559	60806.37
629.914	60800.04
630.269	60780.83
630.623	60748.74
630.978	60622.42
631.332	60797.1
631.687	60771.57
632.041	60756.2
632.396	60755.07
632.75	60710.1
633.104	60845.24
633.459	60656.31
633.813	60715.3
634.167	60659.25
634.521	60672.59
634.875	60707.39
635.229	60552.81
635.583	60526.37
635.937	60526.37
636.291	60593.49
636.645	60580.61
636.999	60473.04
637.352	60502.87
637.706	60411.12
638.06	60477.56
638.413	60414.51
638.767	60353.72
639.121	60481.18
639.474	60308.75
639.828	60319.37
640.181	60346.49
640.534	60368.19
640.888	60326.61
641.241	60118.48
641.594	60206.61
641.947	60271.69
642.301	60160.73
642.654	60217.91
643.007	60062.88
643.36	60213.39
643.713	60071.02
644.066	60234.86
644.419	60049.55
644.771	59842.55
645.124	59577.47
645.477	59535.67
645.83	59406.86
646.182	59374.99
646.535	59363.47
646.888	59397.36
647.24	59292.96
647.593	59414.09
647.945	59342.68
648.298	59216.35
648.65	59169.12
649.002	59076.24
649.355	59123.25
649.707	59014.32
650.059	59003.48
650.411	59358.04
650.763	59456.12
651.115	59734.76
651.467	59643.23
651.819	59612.27
652.171	59597.36
652.523	59511.94
652.875	59534.99
653.227	59403.24
653.578	59654.08
653.93	59452.05
654.282	59424.48
654.633	59361.66
654.985	59409.79
655.337	59360.76
655.688	59357.14
656.039	59417.03
656.391	59246.86
656.742	59304.49
657.094	59331.83
657.445	59289.57
657.796	59284.83
658.147	59262
658.498	59254.77
658.849	59217.48
659.2	59206.18
659.551	59057.26
659.902	59251.38
660.253	59145.85
660.604	59191.27
660.955	59070.82
661.306	59163.02
661.656	59064.49
662.007	59107.2
662.358	59028.56
662.708	59060.42
663.059	58991.5
663.409	58878.06
663.76	58980.65
664.11	59082.8
664.461	59088.45
664.811	58992.63
665.161	58967.77
665.511	58894.1
665.862	58918.06
666.212	59013.19
666.562	59017.26
666.912	58879.19
667.262	58841
667.612	58909.69
667.962	58903.59
668.312	58890.49
668.662	58991.73
669.011	58894.78
669.361	58876.47
669.711	58880.09
670.06	58860.2
670.41	58799.41
670.76	58789.92
671.109	58879.41
671.459	58838.06
671.808	58852.29
672.157	58843.03
672.507	58753.99
672.856	58726.87
673.205	58796.25
673.554	58801.22
673.904	58665.86
674.253	58929.81
674.602	58705.41
674.951	58373.66
675.3	58298.64
675.649	58751.51
675.998	58652.75
676.346	58700.21
676.695	58722.81
677.044	58542.25
677.393	58624.96
677.741	58658.63
678.09	58590.83
678.438	58513.09
678.787	58586.31
679.135	58565.07
679.484	58376.83
679.832	58520.33
680.181	58450.95
680.529	58499.08
680.877	58422.25
681.225	58383.83
681.573	58566.65
681.922	58392.42
682.27	58365.98
682.618	58400.55
682.966	58327.34
683.314	58371.4
683.661	58311.07
684.009	58276.26
684.357	58192.65
684.705	58150.62
685.053	58258.19
685.4	58021.58
685.748	58005.54
686.095	58016.38
686.443	57937.97
686.79	57989.04
687.138	58054.8
687.485	58025.2
687.832	57889.83
688.18	57921.47
688.527	57842.15
688.874	57798.08
689.221	57782.27
689.568	57688.48
689.915	57578.43
690.262	57635.83
690.609	57538.43
690.956	57546.11
691.303	57494.14
691.65	57354.03
691.997	57337.53
692.344	57214.82
692.69	57229.29
693.037	57272.9
693.383	57001.04
693.73	57081.49
694.077	56960.37
694.423	57025.68
694.769	56898
695.116	56933.7
695.462	56735.06
695.808	56631.79
696.155	56809.86
696.501	56577.1
696.847	56575.29
697.193	56435.18
697.539	56502.53
697.885	56248.97
698.231	56222.31
698.577	56248.3
698.923	56267.73
699.269	56023.89
699.614	55935.53
699.96	55866.61
700.306	55868.87
700.651	55835.42
700.997	55678.14
701.342	55604.92
701.688	55570.8
702.033	55501.2
702.379	55549.33
702.724	55453.51
703.069	55459.84
703.415	55158.83
703.76	55156.12
704.105	55224.14
704.45	55091.49
704.795	54994.77
705.14	54902.57
705.485	54930.59
705.83	54717.71
706.175	54878.84
706.52	54809.69
706.865	54697.83
707.209	54577.6
707.554	54488.79
707.899	54526.08
708.243	54338.29
708.588	54281.57
708.932	54173.1
709.277	54228.46
709.621	54105.98
709.966	53899.2
710.31	54007.45
710.654	53877.28
710.998	53840.45
711.342	53845.42
711.687	53777.4
712.031	53729.27
712.375	53549.38
712.719	53540.57
713.063	53479.78
713.407	53676.39
713.75	53451.53
714.094	53386.9
714.438	53244.76
714.782	53207.92
715.125	53000.24
715.469	53268.26
715.812	53029.85
716.156	52983.75
716.499	52936.07
716.843	52967.25
717.186	52753.25
717.53	52899.46
717.873	52828.95
718.216	52757.54
718.559	52727.26
718.902	52413.37
719.246	52449.75
719.589	52367.04
719.932	52311.9
720.275	52333.14
720.617	52249.53
720.96	52253.6
721.303	52260.83
721.646	52204.11
721.989	52093.15
722.331	52049.76
722.674	51914.85
723.016	51976.99
723.359	51769.09
723.701	51957.33
724.044	51673.73
724.386	51555.09
724.729	51736.1
725.071	51725.25
725.413	51605.03
725.755	51626.04
726.097	51474.41
726.439	51384.69
726.782	51292.27
727.124	51434.18
727.465	51287.97
727.807	51172.04
728.149	51170.69
728.491	51083.91
728.833	51097.02
729.175	51094.08
729.516	51095.21
729.858	50899.06
730.199	51008.43
730.541	50906.74
730.882	50847.08
731.224	50788.78
731.565	50617.48
731.906	50610.03
732.248	50672.85
732.589	50445.28
732.93	50489.8
733.271	50377.71
733.612	50383.82
733.953	50498.39
734.294	50253.42
734.635	50190.83
734.976	50352.63
735.317	50228.34
735.658	50090.04
735.999	50095.24
736.339	50004.62
736.68	50051.85
737.021	50075.58
737.361	49930.95
737.702	50093.43
738.042	49930.5
738.383	49835.13
738.723	49967.1
739.063	49679.2
739.404	49938.4
739.744	49820.89
740.084	49677.85
740.424	49736.15
740.764	49554.01
741.104	49767.34
741.444	49554.46
741.784	49411.19
742.124	49464.52
742.464	49394.24
742.804	49341.81
743.143	49259.78
743.483	49231.08
743.823	49100.69
744.162	49166.45
744.502	49160.12
744.841	48942.95
745.181	49053.68
745.52	48928.04
745.86	48953.8
746.199	48937.75
746.538	48902.27
746.877	48943.63
747.216	48858.66
747.556	48843.52
747.895	48603.75
748.234	48630.42
748.573	48533.47
748.911	48346.81
749.25	48315.17
749.589	48241.05
749.928	48269.3
750.267	48336.19
750.605	48139.81
750.944	48078.34
751.283	48030.21
751.621	48251.22
751.96	47888.51
752.298	47987.04
752.636	47832.25
752.975	47781.17
753.313	47536.89
753.651	47858.46
753.989	47578.47
754.327	47630.22
754.666	47255.31
755.004	47516.1
755.342	47417.11
755.679	47261.64
756.017	47006.73
756.355	47147.97
756.693	46871.37
757.031	47067.29
757.368	46822.55
757.706	46848.32
758.044	46691.26
758.381	46675.21
758.719	46515.9
759.056	46511.15
759.394	46257.37
759.731	45913.2
760.068	45944.61
760.405	46041.11
760.743	45768.8
761.08	45739.42
761.417	45584.62
761.754	45600.89
762.091	45434.12
762.428	45263.5
762.765	45082.03
763.102	45260.34
763.438	44994.13
763.775	44766.56
764.112	44795.49
764.449	44749.61
764.785	44531.31
765.122	44350.98
765.458	44131.78
765.795	44055.4
766.131	44163.64
766.467	43965.23
766.804	43662.41
767.14	43409.76
767.476	43494.73
767.812	43389.88
768.148	43279.6
768.485	43116.21
768.821	42793.06
769.157	42623.79
769.492	42654.98
769.828	42561.88
770.164	42185.61
770.5	42222.9
770.836	42132.28
771.171	41904.94
771.507	41835.11
771.842	41549.25
772.178	41518.74
772.513	41498.85
772.849	41133.44
773.184	41089.6
773.519	41102.48
773.855	40831.3
774.19	40785.65
774.525	40653.45
774.86	40629.04
775.195	40402.61
775.53	40112.9
775.865	40029.96
776.2	39701.84
776.535	39589.98
776.87	39517.44
777.205	39281.06
777.539	39216.88
777.874	39106.37
778.209	38820.96
778.543	38978.92
778.878	38483.11
779.212	38640.85
779.547	38258.26
779.881	38392.72
780.215	38013.52
780.55	38106.85
780.884	37717.48
781.218	37714.55
781.552	37888.55
781.886	37449.69
782.22	37235.91
782.554	37186.65
782.888	36832.08
783.222	36746.89
783.556	36586.44
783.889	36486.78
784.223	36288.82
784.557	36281.59
784.89	36338.76
785.224	36009.28
785.557	35938.09
785.891	35668.95
786.224	35823.3
786.558	35640.48
786.891	35478.67
787.224	35117.78
787.557	35049.53
787.891	35103.31
788.224	34753.49
788.557	34764.11
788.89	34702.87
789.223	34667.39
789.556	34397.34
789.888	34391.47
790.221	34164.81
790.554	34121.19
790.887	34047.52
791.219	33979.73
791.552	33739.96
791.884	33615.67
792.217	33623.35
792.549	33316.92
792.882	33123.71
793.214	33157.6
793.546	33128
793.879	32913.32
794.211	32735.92
794.543	32831.28
794.875	32681.91
795.207	32631.29
795.539	32535.25
795.871	32419.32
796.203	32297.06
796.535	31999.44
796.867	32041.02
797.198	31842.84
797.53	31813.91
797.862	31620.92
798.193	31735.72
798.525	31387.93
798.856	31490.08
799.188	31116.75
799.519	31165.11
799.85	30971.45
800.182	30899.81
800.513	31071.1
800.844	30575.98
801.175	30837.44
801.506	30744.56
801.837	30513.38
802.168	30436.32
802.499	30423.44
802.83	30249.2
803.161	30073.39
803.491	29985.03
803.822	30123.33
804.153	29883.56
804.483	29863.23
804.814	29552.95
805.145	29646.06
805.475	29654.42
805.805	29401.54
806.136	29500.07
806.466	29427.76
806.796	29305.95
807.126	29031.38
807.457	28983.7
807.787	29080.42
808.117	28990.03
808.447	28833.65
808.777	28892.63
809.107	28579.42
809.436	28694.22
809.766	28590.27
810.096	28582.13
810.426	28406.99
810.755	28488.35
811.085	28264.85
811.414	28336.94
811.744	28084.52
812.073	28125.42
812.403	27924.52
812.732	27779.21
813.061	28059.43
813.39	27762.04
813.719	27689.95
814.049	27849.95
814.378	27702.83
814.707	27590.07
815.036	27536.51
815.365	27381.71
815.693	27257.64
816.022	27195.05
816.351	27184.2
816.68	26988.5
817.008	27075.05
817.337	26788.5
817.665	26925.22
817.994	26927.94
818.322	26974.71
818.651	26751.9
818.979	26577.21
819.307	26715.96
819.636	26659.47
819.964	26533.37
820.292	26569.3
820.62	26445.24
820.948	26565.91
821.276	26485.46
821.604	26450.43
821.932	26585.12
822.259	26448.4
822.587	26391.45
822.915	26393.26
823.243	26484.56
823.57	26262.42
823.898	26534.27
824.225	26314.62
824.553	26358.01
824.88	26508.74
825.207	26552.8
825.535	26334.73
825.862	26439.36
826.189	26351.91
826.516	26408.63
826.843	26518
827.17	26532.24
827.497	26438.91
827.824	26382.19
828.151	26492.02
828.478	26372.02
828.805	26408.18
829.131	26472.81
829.458	26508.74
829.785	26278.46
830.111	26242.76
830.438	26460.38
830.764	26319.14
831.09	26520.94
831.417	26289.08
831.743	26400.49
832.069	26367.5
832.395	26360.04
832.722	26336.77
833.048	26161.85
833.374	26279.37
833.7	26274.85
834.026	26241.63
834.351	26256.99
834.677	26292.25
835.003	26146.94
835.329	26161.63
835.654	26087.96
835.98	25954.4
836.306	26157.79
836.631	25970.22
836.956	26162.08
837.282	25970
837.607	25888.64
837.932	25825.37
838.258	25838.7
838.583	25748.53
838.908	25650.91
839.233	25679.61
839.558	25636.44
839.883	25653.17
840.208	25525.71
840.533	25584.24
840.858	25559.16
841.182	25538.14
841.507	25453.62
841.832	25423.34
842.156	25378.6
842.481	25333.63
842.805	25311.48
843.13	25233.29
843.454	25136.8
843.778	25099.28
844.103	25015.67
844.427	24951.94
844.751	25037.82
845.075	24900.19
845.399	24895
845.723	24809.8
846.047	24807.99
846.371	24592.4
846.695	24516.47
847.019	24447.32
847.343	24297.95
847.666	24178.18
847.99	24095.24
848.313	23990.16
848.637	23994
848.96	23968.47
849.284	23843.5
849.607	23669.26
849.931	23497.52
850.254	23488.03
850.577	23283.74
850.9	23224.98
851.223	23252.55
851.546	23081.03
851.869	22906.12
852.192	23067.7
852.515	22925.56
852.838	22715.62
853.161	22666.13
853.483	22580.48
853.806	22545.9
854.129	22416.64
854.451	22349.53
854.774	22280.37
855.096	22124.22
855.419	22173.03
855.741	22073.37
856.063	21951.34
856.385	21855.53
856.708	21784.57
857.03	21815.08
857.352	21811.23
857.674	21697.11
857.996	21603.56
858.318	21383.9
858.64	21457.35
858.961	21318.59
859.283	21288.08
859.605	21151.14
859.926	21183
860.248	21152.72
860.57	21040.63
860.891	21098.03
861.212	20944.59
861.534	20889.9
861.855	20852.16
862.176	20932.39
862.498	20885.61
862.819	20758.38
863.14	20679.51
863.461	20736.46
863.782	20651.26
864.103	20640.64
864.424	20609.68
864.745	20589.57
865.065	20426.64
865.386	20422.34
865.707	20434.1
866.027	20404.72
866.348	20378.28
866.668	20227.1
866.989	20171.73
867.309	20078.85
867.63	20093.77
867.95	20126.53
868.27	20150.71
868.59	20012.86
868.91	20030.72
869.23	20065.07
869.55	19865.07
869.87	20079.3
870.19	19967.67
870.51	19757.73
870.83	19889.25
871.15	19728.8
871.469	19754.34
871.789	19800.44
872.109	19763.38
872.428	19605.19
872.748	19717.05
873.067	19618.3
873.386	19632.76
873.706	19492.43
874.025	19583.04
874.344	19399.55
874.663	19458.53
874.982	19448.13
875.301	19364.07
875.62	19378.53
875.939	19291.75
876.258	19247.23
876.577	19176.05
876.896	19236.84
877.214	19113.9
877.533	19220.57
877.852	19317.29
878.17	19157.74
878.489	19118.88
878.807	19018.54
879.125	19077.29
879.444	19014.25
879.762	19030.29
880.08	18945.1
880.398	18829.39
880.716	18752.56
881.034	18734.03
881.352	18776.96
881.67	18734.03
881.988	18768.6
882.306	18769.05
882.624	18657.65
882.941	18465.11
883.259	18409.29
883.577	18349.86
883.894	18383.08
884.212	18440.7
884.529	18338.78
884.846	18341.27
885.164	18192.57
885.481	18249.07
885.798	18225.57
886.115	18136.53
886.432	18087.04
886.75	18017.21
887.067	18047.27
887.383	18041.62
887.7	17978.11
888.017	17771.34
888.334	17847.72
888.651	17812.47
888.967	17744.45
889.284	17743.09
889.6	17627.62
889.917	17508.52
890.233	17581.06
890.55	17502.87
890.866	17456.55
891.182	17412.71
891.498	17339.94
891.815	17233.73
892.131	17188.76
892.447	17202.54
892.763	17086.61
893.079	17059.04
893.395	16947.63
893.71	16919.39
894.026	16824.25
894.342	16861.31
894.657	16702.67
894.973	16762.78
895.289	16741.31
895.604	16558.49
895.92	16607.76
896.235	16548.1
896.55	16504.03
896.865	16454.31
897.181	16439.62
897.496	16425.39
897.811	16233.3
898.126	16252.96
898.441	16178.39
898.756	16225.17
899.071	16014.32
899.386	16120.31
899.7	15998.51
900.015	15832.86
900.33	15764.61
900.644	15836.48
900.959	15734.56
901.273	15708.57
901.588	15681.68
901.902	15563.04
902.216	15551.51
902.531	15473.1
902.845	15386.77
903.159	15279.88
903.473	15284.85
903.787	15127.57
904.101	15134.12
904.415	15173.89
904.729	15062.71
905.042	14971.41
905.356	14908.37
905.67	14895.94
905.984	14985.43
906.297	14859.55
906.611	14724.87
906.924	14621.37
907.237	14595.83
907.551	14582.95
907.864	14524.19
908.177	14497.75
908.491	14406.68
908.804	14253.92
909.117	14276.52
909.43	14148.61
909.743	14105.9
910.056	14099.12
910.368	14046.47
910.681	14035.62
910.994	13902.29
911.307	13831.33
911.619	13840.82
911.932	13820.26
912.244	13651.9
912.557	13657.1
912.869	13573.94
913.181	13549.98
913.494	13521.73
913.806	13457.1
914.118	13312.02
914.43	13296.43
914.742	13226.38
915.054	13163.1
915.366	13134.17
915.678	13058.7
915.99	13047.17
916.302	12909.55
916.613	12914.75
916.925	12932.37
917.236	12802.43
917.548	12766.95
917.859	12755.65
918.171	12660.97
918.482	12607.18
918.794	12548.65
919.105	12502.78
919.416	12413.06
919.727	12429.11
920.038	12340.3
920.349	12234.99
920.66	12282.9
920.971	12244.93
921.282	12153.18
921.593	12087.2
921.903	11992.74
922.214	11957.71
922.525	11891.27
922.835	11872.51
923.146	11717.26
923.456	11732.4
923.767	11652.18
924.077	11708.68
924.387	11743.93
924.697	11602.46
925.008	11485.86
925.318	11400.21
925.628	11418.51
925.938	11418.06
926.248	11306.65
926.558	11203.6
926.867	11180.55
927.177	11121.57
927.487	11075.7
927.796	10926.32
928.106	10937.62
928.416	10971.52
928.725	10924.52
929.034	10871.86
929.344	10858.75
929.653	10782.15
929.962	10698.98
930.271	10675.26
930.581	10640.45
930.89	10571.08
931.199	10522.04
931.508	10553.9
931.817	10427.35
932.125	10456.5
932.434	10434.58
932.743	10281.82
933.051	10272.78
933.36	10297.86
933.669	10160.02
933.977	10129.73
934.286	10035.05
934.594	10064.65
934.902	9993.92
935.21	9927.71
935.519	9905.33
935.827	9863.07
936.135	9790.76
936.443	9760.7
936.751	9694.94
937.059	9732.23
937.367	9596.41
937.674	9686.13
937.982	9607.04
938.29	9585.57
938.597	9630.09
938.905	9433.03
939.213	9445.23
939.52	9382.86
939.827	9448.17
940.135	9336.53
940.442	9226.71
940.749	9253.82
941.056	9243.43
941.363	9154.17
941.67	9153.94
941.977	9040.5
942.284	8949.65
942.591	9022.42
942.898	8941.74
943.205	8981.06
943.511	8815.19
943.818	8829.43
944.125	8730.45
944.431	8686.61
944.738	8676.44
945.044	8626.27
945.35	8579.72
945.657	8579.72
945.963	8552.83
946.269	8516.89
946.575	8523.9
946.881	8392.38
947.187	8403.68
947.493	8340.18
947.799	8272.38
948.105	8320.52
948.41	8245.72
948.716	8200.52
949.022	8140.63
949.327	8169.79
949.633	8050.69
949.938	8056.12
950.244	8094.98
950.549	7996
950.854	7939.51
951.16	7909.68
951.465	7836.91
951.77	7881.66
952.075	7816.57
952.38	7748.1
952.685	7763.24
952.99	7677.59
953.294	7682.79
953.599	7570.48
953.904	7557.15
954.209	7509.24
954.513	7545.85
954.818	7454.32
955.122	7410.48
955.426	7457.49
955.731	7398.28
956.035	7308.79
956.339	7330.26
956.643	7351.28
956.948	7267.44
957.252	7179.98
957.556	7195.8
957.86	7174.11
958.163	7165.07
958.467	7102.24
958.771	7090.04
959.075	7074.9
959.378	7013.21
959.682	6986.31
959.985	6979.53
960.289	6892.3
960.592	6814.57
960.896	6896.15
961.199	6805.53
961.502	6798.75
961.805	6723.27
962.108	6691.18
962.411	6765.98
962.714	6636.72
963.017	6617.96
963.32	6600.56
963.623	6593.1
963.926	6528.92
964.228	6526.89
964.531	6518.08
964.833	6440.11
965.136	6457.29
965.438	6430.17
965.741	6297.97
966.043	6286.9
966.345	6283.06
966.648	6269.27
966.95	6251.42
967.252	6156.28
967.554	6210.29
967.856	6163.96
968.158	6112.89
968.46	6078.31
968.761	6042.84
969.063	6142.49
969.365	5978.43
969.666	5985.89
969.968	5895.04
970.269	5883.07
970.571	5864.31
970.872	5843.97
971.174	5840.81
971.475	5850.52
971.776	5776.18
972.077	5764.2
972.378	5783.18
972.679	5754.48
972.98	5738.89
973.281	5676.97
973.582	5645.78
973.883	5634.94
974.183	5615.95
974.484	5596.97
974.785	5481.49
975.085	5484.66
975.386	5543.87
975.686	5465.45
975.986	5419.58
976.287	5434.94
976.587	5362.4
976.887	5366.24
977.187	5363.98
977.487	5353.14
977.787	5305.45
978.087	5344.32
978.387	5274.04
978.687	5259.81
978.987	5188.62
979.286	5187.26
979.586	5189.52
979.885	5106.36
980.185	5126.48
980.484	5089.19
980.784	5000.6
981.083	5058.91
981.382	5020.72
981.682	5006.25
981.981	4999.93
982.28	4950.21
982.579	4902.53
982.878	4916.54
983.177	4879.48
983.475	4850.1
983.774	4835.64
984.073	4794.28
984.372	4769.87
984.67	4723.77
984.969	4778.69
985.267	4746.6
985.566	4663.21
985.864	4634.06
986.162	4656.43
986.461	4607.84
986.759	4635.64
987.057	4529.65
987.355	4530.56
987.653	4528.07
987.951	4494.18
988.249	4452.14
988.547	4514.51
988.844	4483.55
989.142	4451.69
989.44	4396.55
989.737	4403.33
990.035	4375.99
990.332	4342.54
990.63	4327.4
990.927	4262.77
991.224	4246.05
991.521	4270.45
991.819	4258.7
992.116	4231.81
992.413	4188.87
992.71	4183.68
993.006	4206.27
993.303	4159.27
993.6	4120.85
993.897	4141.42
994.193	4102.1
994.49	4041.76
994.787	4064.81
995.083	4004.47
995.379	4010.57
995.676	3983.68
995.972	3982.32
996.268	3938.71
996.565	3950.46
996.861	3949.11
997.157	3850.35
997.453	3881.76
997.749	3842.44
998.044	3799.73
998.34	3787.08
998.636	3786.4
998.932	3772.84
999.227	3682.67
999.523	3687.87
999.818	3656.68
1000.114	3651.94
1000.409	3640.41
1000.704	3588.44
1001	3626.18
1001.295	3611.49
1001.59	3573.3
1001.885	3561.09
1002.18	3534.65
1002.475	3457.14
1002.77	3488.33
1003.065	3462.34
1003.359	3421.21
1003.654	3460.98
1003.949	3435.9
1004.243	3399.74
1004.538	3375.33
1004.832	3372.85
1005.127	3358.61
1005.421	3334.88
1005.715	3299.86
1006.009	3263.7
1006.304	3262.8
1006.598	3255.56
1006.892	3232.51
1007.186	3193.19
1007.48	3167.43
1007.773	3161.56
1008.067	3157.26
1008.361	3091.95
1008.655	3072.07
1008.948	3082.46
1009.242	3068.9
1009.535	3044.04
1009.829	3033.42
1010.122	3044.72
1010.415	3012.18
1010.708	2986.87
1011.001	2957.94
1011.295	2922.24
1011.588	2902.13
1011.881	2882.01
1012.173	2884.27
1012.466	2866.87
1012.759	2812.86
1013.052	2869.59
1013.344	2817.61
1013.637	2803.6
1013.93	2810.83
1014.222	2751.17
1014.514	2732.41
1014.807	2698.29
1015.099	2691.51
1015.391	2693.09
1015.683	2654.9
1015.976	2635.47
1016.268	2638.41
1016.56	2584.17
1016.851	2565.64
1017.143	2583.94
1017.435	2612.42
1017.727	2547.33
1018.018	2534.91
1018.31	2514.34
1018.602	2498.07
1018.893	2477.73
1019.185	2488.58
1019.476	2428.69
1019.767	2396.38
1020.058	2427.79
1020.35	2362.93
1020.641	2379.65
1020.932	2333.33
1021.223	2301.92
1021.514	2329.94
1021.804	2280.67
1022.095	2306.89
1022.386	2255.82
1022.677	2260.34
1022.967	2250.17
1023.258	2245.2
1023.548	2196.83
1023.839	2177.4
1024.129	2186.89
1024.419	2192.77
1024.709	2153.22
1025	2110.74
1025.29	2136.72
1025.58	2086.78
1025.87	2128.14
1026.16	2076.84
1026.449	2037.74
1026.739	2028.25
1027.029	2046.1
1027.319	2010.4
1027.608	1998.65
1027.898	1985.99
1028.187	1954.58
1028.477	1957.97
1028.766	1982.83
1029.055	1912.32
1029.344	1938.76
1029.634	1908.03
1029.923	1889.5
1030.212	1885.2
1030.501	1873
1030.79	1849.05
1031.078	1824.42
1031.367	1790.52
1031.656	1789.84
1031.945	1755.04
1032.233	1786.9
1032.522	1759.78
1032.81	1741.25
1033.099	1704.87
1033.387	1761.37
1033.675	1716.4
1033.963	1694.7
1034.251	1688.15
1034.54	1700.58
1034.828	1639.79
1035.116	1662.84
1035.403	1636.85
1035.691	1627.36
1035.979	1619.67
1036.267	1622.84
1036.554	1614.7
1036.842	1569.51
1037.129	1610.18
1037.417	1562.73
1037.704	1585.33
1037.992	1533.58
1038.279	1529.28
1038.566	1520.92
1038.853	1520.92
1039.14	1520.92
