Data from 142_FLMS001491_001.txt Node
Date: Thu Apr 19 16:08:45 BST 2018
User: hsy
Spectrometer: FLMS00149
Trigger mode: 0
Integration Time (sec): 1.000000E-2
Scans to average: 10
Electric dark correction enabled: true
Nonlinearity correction enabled: false
Boxcar width: 0
XAxis mode: Wavelengths
Number of Pixels in Spectrum: 2048
>>>>>Begin Spectral Data<<<<<
341.393	-8.59
341.776	-8.59
342.16	-8.59
342.543	-46.33
342.927	-56.72
343.31	-69.83
343.693	-68.7
344.077	-54.69
344.46	-65.99
344.843	-59.43
345.226	-36.16
345.61	-21.47
345.993	-17.85
346.376	-1.81
346.759	-3.39
347.142	20.11
347.525	48.81
347.908	35.03
348.291	75.7
348.674	111.41
349.057	108.25
349.44	132.65
349.823	141.24
350.206	146.89
350.588	236.83
350.971	261.46
351.354	264.4
351.737	301.69
352.119	311.18
352.502	312.53
352.884	322.93
353.267	313.89
353.65	323.61
354.032	361.35
354.414	352.08
354.797	364.28
355.179	376.49
355.562	367
355.944	368.8
356.326	365.19
356.709	368.35
357.091	373.55
357.473	380.55
357.855	412.19
358.238	399.99
358.62	382.59
359.002	379.88
359.384	359.31
359.766	388.24
360.148	396.6
360.53	399.54
360.912	402.48
361.294	404.96
361.676	385.53
362.057	372.19
362.439	387.79
362.821	374.45
363.203	377.39
363.584	390.27
363.966	362.02
364.348	369.26
364.729	392.76
365.111	390.5
365.493	387.11
365.874	374.23
366.256	361.12
366.637	370.84
367.019	380.78
367.4	382.14
367.781	370.61
368.163	359.99
368.544	370.16
368.925	371.97
369.306	397.96
369.688	372.19
370.069	361.57
370.45	383.72
370.831	338.07
371.212	376.26
371.593	395.24
371.974	374.91
372.355	363.15
372.736	381.01
373.117	382.59
373.498	396.83
373.879	378.07
374.26	379.65
374.641	369.26
375.021	378.75
375.402	411.06
375.783	400.67
376.163	391.18
376.544	395.47
376.925	386.2
377.305	402.25
377.686	404.06
378.066	421.01
378.447	425.75
378.827	407.45
379.208	427.33
379.588	411.51
379.968	409.25
380.349	425.53
380.729	419.42
381.109	400.22
381.489	426.2
381.87	440.44
382.25	414.68
382.63	439.99
383.01	437.05
383.39	433.21
383.77	429.59
384.15	461.68
384.53	430.95
384.91	442.25
385.29	462.36
385.67	452.64
386.049	452.42
386.429	454.68
386.809	458.74
387.189	454.9
387.568	476.37
387.948	459.87
388.328	471.85
388.707	471.85
389.087	474.79
389.466	495.81
389.846	483.83
390.225	487.44
390.605	491.74
390.984	467.56
391.363	480.67
391.743	475.47
392.122	510.72
392.501	503.26
392.881	485.86
393.26	498.07
393.639	522.7
394.018	502.13
394.397	505.98
394.776	508.46
395.155	536.26
395.534	529.03
395.913	503.49
396.292	521.34
396.671	519.99
397.05	534.22
397.429	527.9
397.808	550.95
398.186	550.27
398.565	539.19
398.944	539.19
399.323	550.49
399.701	550.04
400.08	547.78
400.458	570.61
400.837	583.49
401.215	564.5
401.594	595.24
401.972	565.41
402.351	585.3
402.729	583.71
403.107	609.93
403.486	588.69
403.864	602.02
404.242	571.74
404.62	612.87
404.999	627.33
405.377	608.35
405.755	624.84
406.133	665.52
406.511	621.68
406.889	627.33
407.267	647.21
407.645	670.94
408.023	645.41
408.401	664.84
408.779	684.05
409.156	675.24
409.534	684.28
409.912	683.15
410.29	682.92
410.667	700.09
411.045	692.64
411.422	728.34
411.8	723.37
412.178	703.94
412.555	741.9
412.933	752.75
413.31	762.92
413.687	771.05
414.065	803.37
414.442	796.14
414.819	806.98
415.197	804.27
415.574	786.65
415.951	797.27
416.328	802.24
416.705	812.63
417.082	833.42
417.46	853.76
417.837	844.27
418.214	861.9
418.591	840.2
418.967	864.61
419.344	873.2
419.721	886.98
420.098	892.86
420.475	893.99
420.852	898.96
421.228	883.14
421.605	920.88
421.982	900.09
422.358	897.15
422.735	922.24
423.111	935.34
423.488	947.32
423.864	937.83
424.241	968.34
424.617	958.84
424.994	987.77
425.37	975.34
425.746	977.6
426.123	1022.35
426.499	1000.2
426.875	1015.11
427.251	1018.73
427.627	1035.45
428.003	1038.39
428.379	1060.54
428.756	1077.03
429.132	1091.27
429.507	1085.85
429.883	1101.67
430.259	1111.16
430.635	1157.03
431.011	1133.08
431.387	1158.84
431.763	1184.15
432.138	1179.4
432.514	1168.78
432.89	1204.71
433.265	1231.38
433.641	1231.83
434.016	1230.48
434.392	1288.78
434.767	1272.73
435.143	1282.23
435.518	1304.82
435.894	1270.93
436.269	1302.79
436.644	1347.08
437.02	1369.91
437.395	1330.13
437.77	1353.64
438.145	1333.07
438.52	1396.12
438.895	1362.9
439.271	1359.29
439.646	1432.5
440.021	1432.73
440.395	1453.3
440.77	1407.42
441.145	1460.07
441.52	1468.89
441.895	1428.89
442.27	1475.67
442.645	1448.1
443.019	1479.51
443.394	1478.15
443.769	1477.7
444.143	1493.29
444.518	1508.89
444.892	1514.76
445.267	1548.89
445.641	1546.4
446.016	1554.54
446.39	1563.12
446.764	1580.07
447.139	1537.81
447.513	1609.9
447.887	1601.09
448.262	1610.13
448.636	1576.91
449.01	1628.66
449.384	1623.69
449.758	1661.2
450.132	1698.26
450.506	1678.37
450.88	1677.24
451.254	1674.53
451.628	1708.66
452.002	1745.26
452.376	1742.1
452.75	1745.49
453.123	1800.63
453.497	1800.18
453.871	1796.56
454.244	1829.56
454.618	1859.16
454.992	1892.15
455.365	1888.76
455.739	1950.01
456.112	1958.14
456.486	1990
456.859	2005.82
457.232	2052.83
457.606	2045.14
457.979	2054.41
458.352	2090.79
458.725	2098.02
459.099	2117.68
459.472	2194.07
459.845	2205.14
460.218	2209.43
460.591	2242.43
460.964	2237.91
461.337	2274.52
461.71	2345.48
462.083	2338.47
462.456	2379.15
462.829	2368.98
463.201	2401.97
463.574	2444.23
463.947	2468.18
464.32	2508.86
464.692	2495.75
465.065	2533.04
465.438	2542.98
465.81	2587.05
466.183	2585.02
466.555	2676.54
466.928	2699.14
467.3	2658.91
467.672	2726.93
468.045	2777.33
468.417	2758.8
468.789	2793.15
469.161	2820.94
469.534	2897.55
469.906	2939.58
470.278	2929.41
470.65	2991.33
471.022	3019.58
471.394	3070.43
471.766	3093.25
472.138	3144.55
472.51	3204.66
472.882	3247.37
473.253	3320.36
473.625	3282.4
473.997	3378.89
474.369	3412.79
474.74	3464.54
475.112	3538.44
475.484	3589.28
475.855	3662.05
476.227	3661.82
476.598	3777.53
476.97	3846.45
477.341	3914.7
477.713	3953.79
478.084	3963.74
478.455	4084.41
478.827	4094.58
479.198	4248.93
479.569	4265.2
479.94	4367.57
480.311	4422.26
480.682	4519.2
481.053	4637.17
481.424	4688.69
481.795	4800.78
482.166	4879.87
482.537	4934.33
482.908	5029.92
483.279	5143.37
483.65	5232.63
484.021	5316.47
484.391	5377.49
484.762	5432.85
485.133	5565.5
485.503	5610.02
485.874	5763.92
486.244	5811.15
486.615	6027.64
486.985	6113.51
487.356	6227.18
487.726	6337.91
488.097	6517.79
488.467	6587.62
488.837	6707.62
489.207	6853.83
489.578	6975.41
489.948	7083.66
490.318	7282.97
490.688	7294.5
491.058	7534.27
491.428	7684.32
491.798	7787.82
492.168	7987.13
492.538	8110.07
492.908	8321.59
493.278	8495.6
493.648	8580.34
494.017	8751.63
494.387	8861.46
494.757	9079.99
495.126	9169.25
495.496	9312.07
495.866	9513.65
496.235	9627.54
496.605	9792.06
496.974	9946.41
497.344	10068.66
497.713	10236.12
498.082	10431.82
498.452	10678.36
498.821	10776.21
499.19	10843.56
499.559	11132.36
499.928	11286.71
500.298	11474.5
500.667	11659.35
501.036	11693.25
501.405	11937.31
501.774	12041.94
502.143	12328.04
502.512	12466.34
502.88	12599.22
503.249	12726.9
503.618	12978.64
503.987	13150.61
504.356	13375.47
504.724	13545.41
505.093	13657.27
505.462	13847.77
505.83	14026.52
506.199	14301.54
506.567	14467.87
506.936	14577.24
507.304	14781.98
507.672	14973.39
508.041	15154.63
508.409	15346.04
508.777	15563.43
509.145	15814.05
509.514	15842.3
509.882	16106.02
510.25	16205.9
510.618	16401.6
510.986	16441.15
511.354	16745.55
511.722	16988.25
512.09	17192.32
512.458	17227.57
512.826	17489.26
513.193	17662.36
513.561	17741
513.929	17911.62
514.297	18168.79
514.664	18314.09
515.032	18411.49
515.4	18708.66
515.767	18858.04
516.135	18979.16
516.502	19013.29
516.869	19336.67
517.237	19571.91
517.604	19552.93
517.972	19842.42
518.339	19916.31
518.706	20103.2
519.073	20238.79
519.44	20398.11
519.808	20648.04
520.175	20685.56
520.542	21088.94
520.909	21153.12
521.276	21323.73
521.643	21623.84
522.009	21692.76
522.376	21952.19
522.743	22074
523.11	22400.77
523.477	22518.05
523.843	22668.56
524.21	22961.2
524.577	23192.61
524.943	23350.35
525.31	23579.72
525.676	23788.3
526.043	23929.77
526.409	24093.83
526.776	24504.44
527.142	24413.82
527.508	24741.95
527.874	24956.86
528.241	25117.31
528.607	25281.82
528.973	25578.31
529.339	25673.45
529.705	25908.25
530.071	26122.7
530.437	26197.05
530.803	26452.64
531.169	26673.87
531.535	26760.43
531.901	26959.07
532.267	27021.21
532.632	27081.1
532.998	27319.73
533.364	27510.46
533.73	27615.09
534.095	27869.55
534.461	27887.85
534.826	28117.9
535.192	28039.04
535.557	28421.85
535.923	28356.32
536.288	28640.83
536.653	28716.31
537.019	28685.35
537.384	28769.64
537.749	28909.52
538.114	28994.72
538.479	29108.16
538.845	29356.29
539.21	29293.47
539.575	29407.36
539.94	29610.29
540.305	29738.2
540.67	29826.33
541.034	29894.81
541.399	29983.62
541.764	30008.48
542.129	30209.15
542.494	30318.3
542.858	30381.8
543.223	30461.57
543.587	30652.53
543.952	30595.13
544.316	30751.96
544.681	30764.16
545.045	30992.63
545.41	31167.09
545.774	31080.09
546.138	31287.54
546.503	31392.17
546.867	31401.89
547.231	31599.17
547.595	31733.4
547.959	31805.72
548.324	31885.26
548.688	31897.47
549.052	32147.63
549.416	31944.02
549.779	32121.19
550.143	32186.5
550.507	32500.16
550.871	32565.02
551.235	32547.62
551.599	32895.63
551.962	32837.55
552.326	32927.27
552.689	33125.46
553.053	32964.33
553.417	33146.93
553.78	33423.3
554.143	33322.29
554.507	33582.39
554.87	33717.53
555.234	33984.87
555.597	33832.33
555.96	33988.03
556.323	34075.04
556.686	34138.76
557.05	34422.37
557.413	34643.16
557.776	34514.8
558.139	34791.85
558.502	34894.22
558.865	34922.47
559.228	35266.87
559.59	35363.59
559.953	35448.56
560.316	35918.15
560.679	35759.29
561.041	35968.55
561.404	36226.39
561.767	36474.52
562.129	36459.15
562.492	36751.35
562.854	36779.15
563.217	36781.41
563.579	36912.48
563.941	37134.16
564.304	37441.05
564.666	37657.31
565.028	37686.69
565.39	37823.19
565.753	38036.06
566.115	38059.34
566.477	38292.1
566.839	38455.94
567.201	38815.7
567.563	38710.17
567.925	39079.65
568.287	39132.98
568.648	39228.57
569.01	39474.44
569.372	39733.19
569.734	39785.85
570.095	40020.42
570.457	40282.56
570.819	40418.37
571.18	40354.19
571.542	40744.92
571.903	40678.93
572.265	41062.2
572.626	41217.9
572.987	41188.3
573.349	41563.88
573.71	41861.95
574.071	41885.68
574.432	42221.04
574.794	42503.74
575.155	42477.75
575.516	42470.75
575.877	42673.23
576.238	42735.6
576.599	43108.02
576.96	43334.68
577.32	43240.44
577.681	43497.16
578.042	43794.55
578.403	43877.04
578.763	43913.65
579.124	44005.4
579.485	44367.65
579.845	44647.19
580.206	44487.64
580.566	44820.29
580.927	44766.73
581.287	45115.2
581.648	45202.88
582.008	45378.24
582.368	45598.35
582.728	45830.21
583.089	45816.65
583.449	45976.87
583.809	46206.69
584.169	46446.01
584.529	46514.48
584.889	46874.02
585.249	46847.13
585.609	46832.21
585.969	47256.84
586.329	47307
586.688	47636.94
587.048	47631.97
587.408	47843.94
587.768	48001.45
588.127	48286.19
588.487	48389.46
588.846	48859.96
589.206	48569.8
589.565	48850.01
589.925	49234.86
590.284	49399.83
590.643	49519.6
591.003	49809.31
591.362	50084.78
591.721	50119.36
592.08	50277.77
592.44	50620.36
592.799	50708.05
593.158	50826.91
593.517	50925.21
593.876	51252.44
594.235	51338.54
594.593	51537.4
594.952	51685.87
595.311	51773.1
595.67	52000.67
596.029	52260.09
596.387	52460.09
596.746	52613.08
597.104	52607.2
597.463	52778.27
597.822	53044.71
598.18	53021.2
598.538	53206.06
598.897	53457.58
599.255	53368.77
599.613	53971.91
599.972	53778.7
600.33	54022.53
600.688	54135.3
601.046	54233.6
601.404	54512.24
601.762	54557.44
602.12	54702.74
602.478	54805.56
602.836	55007.37
603.194	54939.8
603.552	55096.86
603.91	55174.82
604.268	55424.53
604.625	55440.35
604.983	55688.93
605.341	55611.65
605.698	55892.32
606.056	56104.29
606.413	56017.74
606.771	56226.54
607.128	56390.38
607.485	56345.86
607.843	56417.73
608.2	56676.25
608.557	56837.6
608.914	56819.97
609.272	56914.44
609.629	57169.57
609.986	57213.41
610.343	57206.18
610.7	57509.22
611.057	57510.58
611.414	57507.87
611.771	57709.9
612.127	57821.98
612.484	57873.73
612.841	57967.06
613.198	57967.74
613.554	58022.43
613.911	58277.79
614.267	58249.09
614.624	58329.99
614.98	58421.51
615.337	58661.96
615.693	58642.53
616.05	58697.89
616.406	58790.77
616.762	58820.6
617.118	58859.92
617.475	58895.4
617.831	58978.56
618.187	59153.47
618.543	59185.11
618.899	59348.72
619.255	59354.15
619.611	59305.11
619.967	59532.9
620.323	59561.6
620.678	59472.33
621.034	59471.2
621.39	59468.72
621.746	59598.66
622.101	59894.24
622.457	59626.68
622.812	59828.94
623.168	59794.36
623.523	59836.84
623.879	59939.44
624.234	59854.25
624.589	59918.88
624.945	59936.28
625.3	59968.82
625.655	60053.34
626.01	60069.61
626.365	60123.62
626.72	60053.56
627.075	60111.87
627.43	60093.11
627.785	60138.76
628.14	60102.37
628.495	60188.25
628.85	60215.59
629.205	60161.81
629.559	60224.18
629.914	60172.88
630.269	60191.19
630.623	60086.78
630.978	60082.94
631.332	60211.75
631.687	60180.79
632.041	60150.96
632.396	60192.99
632.75	60175.59
633.104	60166.33
633.459	60084.52
633.813	60074.8
634.167	60014.47
634.521	60061.02
634.875	60065.09
635.229	60035.26
635.583	59940.34
635.937	59980.34
636.291	59979.67
636.645	59921.59
636.999	59891.08
637.352	59980.57
637.706	59778.09
638.06	59934.24
638.413	59813.12
638.767	59749.84
639.121	59770.86
639.474	59655.38
639.828	59630.3
640.181	59667.81
640.534	59717.98
640.888	59575.83
641.241	59447.02
641.594	59591.2
641.947	59617.42
642.301	59522.05
642.654	59565.67
643.007	59465.1
643.36	59480.47
643.713	59437.31
644.066	59471.43
644.419	59379
644.771	59149.86
645.124	58802.52
645.477	58843.42
645.83	58728.63
646.182	58729.53
646.535	58654.5
646.888	58749.42
647.24	58622.64
647.593	58801.39
647.945	58659.25
648.298	58589.42
648.65	58563.66
649.002	58400.05
649.355	58390.1
649.707	58304
650.059	58429.2
650.411	58694.28
650.763	58783.99
651.115	59081.38
651.467	59031.67
651.819	58979.69
652.171	58938.79
652.523	58906.93
652.875	58890.2
653.227	58823.31
653.578	58961.61
653.93	58836.19
654.282	58730.21
654.633	58724.78
654.985	58734.95
655.337	58775.86
655.688	58743.99
656.039	58776.08
656.391	58553.49
656.742	58697.89
657.094	58580.15
657.445	58629.19
657.796	58634.62
658.147	58606.37
658.498	58550.78
658.849	58648.85
659.2	58567.73
659.551	58507.39
659.902	58612.92
660.253	58485.24
660.604	58539.03
660.955	58420.38
661.306	58521.4
661.656	58451.57
662.007	58457.22
662.358	58463.1
662.708	58437.79
663.059	58424.68
663.409	58249.09
663.76	58376.32
664.11	58417.9
664.461	58421.97
664.811	58442.98
665.161	58360.27
665.511	58314.4
665.862	58330.67
666.212	58367.5
666.562	58365.25
666.912	58407.73
667.262	58236.66
667.612	58212.93
667.962	58283.89
668.312	58290.9
668.662	58353.27
669.011	58303.55
669.361	58264.91
669.711	58216.55
670.06	58223.1
670.41	58189.88
670.76	58145.82
671.109	58292.48
671.459	58167.51
671.808	58186.49
672.157	58257.23
672.507	58059.72
672.856	58068.3
673.205	58139.94
673.554	58131.13
673.904	58034.63
674.253	58232.37
674.602	58133.84
674.951	57754.19
675.3	57670.8
675.649	58085.7
675.998	58112.37
676.346	58153.27
676.695	58122.99
677.044	57978.81
677.393	58001.86
677.741	58117.79
678.09	57982.66
678.438	57970.23
678.787	58027.63
679.135	57987.4
679.484	57849.33
679.832	57966.84
680.181	57934.07
680.529	57927.29
680.877	57798.93
681.225	57811.36
681.573	58061.52
681.922	57852.72
682.27	57790.57
682.618	57718.93
682.966	57664.7
683.314	57724.81
683.661	57721.65
684.009	57534.53
684.357	57571.59
684.705	57486.62
685.053	57592.61
685.4	57446.4
685.748	57347.87
686.095	57377.47
686.443	57264.26
686.79	57301.32
687.138	57412.05
687.485	57342.45
687.832	57273.97
688.18	57260.64
688.527	57205.05
688.874	57154.43
689.221	57125.73
689.568	57038.05
689.915	56983.36
690.262	57037.6
690.609	56936.81
690.956	56882.8
691.303	56813.87
691.65	56756.47
691.997	56627.21
692.344	56634.44
692.69	56531.62
693.037	56552.64
693.383	56387.67
693.73	56462.7
694.077	56229.48
694.423	56210.05
694.769	56209.37
695.116	56129.6
695.462	56061.12
695.808	55944.74
696.155	55951.52
696.501	55740.23
696.847	55871.3
697.193	55639.44
697.539	55808.93
697.885	55592.21
698.231	55525.77
698.577	55483.96
698.923	55433.12
699.269	55264.08
699.614	55234.48
699.96	55211.2
700.306	55160.81
700.651	55147.02
700.997	54947.71
701.342	55006.69
701.688	54910.65
702.033	54792.68
702.379	54857.54
702.724	54689.64
703.069	54772.57
703.415	54458.46
703.76	54494.84
704.105	54460.04
704.45	54397.44
704.795	54347.72
705.14	54213.26
705.485	54171.46
705.83	53980.28
706.175	54080.39
706.52	54002.2
706.865	53863.89
707.209	53848.53
707.554	53750.9
707.899	53783.67
708.243	53638.59
708.588	53599.04
708.932	53455.77
709.277	53489.22
709.621	53326.06
709.966	53075.67
710.31	53249.67
710.654	52999.06
710.998	53090.58
711.342	53053.52
711.687	52950.25
712.031	52855.11
712.375	52718.39
712.719	52658.05
713.063	52665.73
713.407	52812.62
713.75	52552.29
714.094	52561.56
714.438	52368.11
714.782	52389.58
715.125	52277.95
715.469	52472.52
715.812	52111.85
716.156	52119.31
716.499	51992.08
716.843	52094.68
717.186	51941.69
717.53	51992.76
717.873	51921.8
718.216	51860.11
718.559	51752.31
718.902	51488.36
719.246	51618.08
719.589	51479.32
719.932	51359.78
720.275	51365.2
720.617	51443.62
720.96	51266.67
721.303	51344.64
721.646	51200.69
721.989	51149.62
722.331	51171.08
722.674	51097.19
723.016	51127.24
723.359	50932.22
723.701	50960.02
724.044	50843.86
724.386	50635.05
724.729	50706.92
725.071	50700.36
725.413	50639.35
725.755	50697.2
726.097	50407.26
726.439	50356.19
726.782	50254.27
727.124	50560.48
727.465	50396.64
727.807	50166.59
728.149	50339.02
728.491	50054.73
728.833	50265.57
729.175	50063.54
729.516	49971.57
729.858	49915.52
730.199	50066.03
730.541	50026.48
730.882	49887.28
731.224	49908.07
731.565	49756.88
731.906	49746.26
732.248	49790.33
732.589	49495.42
732.93	49525.25
733.271	49409.55
733.612	49489.55
733.953	49547.85
734.294	49420.62
734.635	49195.09
734.976	49334.97
735.317	49232.15
735.658	49238.93
735.999	49137.92
736.339	49223.11
736.68	49037.58
737.021	49097.92
737.361	48923.23
737.702	49102.21
738.042	48828.32
738.383	48872.61
738.723	48872.61
739.063	48642.56
739.404	48924.36
739.744	48755.1
740.084	48680.53
740.424	48709.23
740.764	48633.07
741.104	48751.71
741.444	48557.82
741.784	48398.5
742.124	48558.95
742.464	48444.38
742.804	48366.64
743.143	48192.63
743.483	48282.57
743.823	47997.83
744.162	48102.46
744.502	48080.32
744.841	48021.56
745.181	48101.79
745.52	47956.48
745.86	47964.84
746.199	47812.53
746.538	47828.35
746.877	47849.82
747.216	47757.39
747.556	47689.59
747.895	47751.06
748.234	47583.83
748.573	47467.45
748.911	47591.07
749.25	47383.16
749.589	47266.33
749.928	47285.54
750.267	47391.07
750.605	47253.22
750.944	47195.14
751.283	47102.49
751.621	47108.14
751.96	46847.81
752.298	46827.47
752.636	46975.26
752.975	46846.23
753.313	46630.41
753.651	46761.71
753.989	46535.05
754.327	46497.99
754.666	46252.8
755.004	46401.04
755.342	46332.57
755.679	46216.64
756.017	46008.06
756.355	46102.29
756.693	45948.62
757.031	45877.21
757.368	45677.89
757.706	45815.07
758.044	45659.36
758.381	45531.91
758.719	45472.93
759.056	45505.24
759.394	45331.46
759.731	44927.41
760.068	45128.76
760.405	45110.45
760.743	44749.56
761.08	44811.25
761.417	44606.51
761.754	44599.05
762.091	44433.18
762.428	44392.73
762.765	44054.43
763.102	44003.81
763.438	43894.21
763.775	43679.53
764.112	43687.44
764.449	43539.42
764.785	43651.28
765.122	43271.4
765.458	42994.12
765.795	43032.99
766.131	43023.5
766.467	42906.89
766.804	42643.17
767.14	42468.04
767.476	42351.43
767.812	42412.44
768.148	42401.37
768.485	42158.67
768.821	41787.38
769.157	41659.02
769.492	41642.97
769.828	41652.69
770.164	41194.4
770.5	41018.13
770.836	41195.75
771.171	40995.76
771.507	40723.9
771.842	40345.61
772.178	40532.95
772.513	40397.81
772.849	40241.88
773.184	40118.72
773.519	39971.15
773.855	39695.68
774.19	39730.25
774.525	39599.41
774.86	39410.94
775.195	39381.34
775.53	39106.54
775.865	38991.29
776.2	38717.17
776.535	38514.47
776.87	38599.66
777.205	38267.02
777.539	38185.66
777.874	38249.16
778.209	37777.99
778.543	38047.14
778.878	37678.11
779.212	37695.73
779.547	37434.5
779.881	37326.25
780.215	37063.66
780.55	37139.59
780.884	36757.45
781.218	36831.8
781.552	36705.25
781.886	36510
782.22	36395.43
782.554	36244.47
782.888	35958.15
783.222	35731.72
783.556	35738.95
783.889	35662.79
784.223	35382.8
784.557	35324.72
784.89	35373.76
785.224	35027.1
785.557	34875.02
785.891	34933.54
786.224	34685.42
786.558	34821.68
786.891	34379.44
787.224	34169.72
787.557	34301.7
787.891	34219.44
788.224	33883.63
788.557	34019.9
788.89	33739.23
789.223	33715.5
789.556	33495.84
789.888	33542.39
790.221	33322.06
790.554	33103.08
790.887	33170.88
791.219	32975.63
791.552	32843.43
791.884	32712.13
792.217	32591.01
792.549	32470.11
792.882	32275.31
793.214	32082.32
793.546	32212.94
793.879	32126.16
794.211	31779.96
794.543	31867.64
794.875	31776.11
795.207	31751.48
795.539	31588.77
795.871	31650.92
796.203	31463.81
796.535	31153.53
796.867	31176.81
797.198	31068.79
797.53	30919.19
797.862	30715.58
798.193	30777.5
798.525	30749.25
798.856	30751.06
799.188	30335.93
799.519	30336.83
799.85	30053
800.182	30098.87
800.513	30225.42
800.844	29718.99
801.175	29963.51
801.506	29968.93
801.837	29676.06
802.168	29621.59
802.499	29655.27
802.83	29461.37
803.161	29393.58
803.491	29315.61
803.822	29324.88
804.153	29042.85
804.483	29017.54
804.814	28821.16
805.145	28848.73
805.475	28951.78
805.805	28758.57
806.136	28759.7
806.466	28515.41
806.796	28553.15
807.126	28324.9
807.457	28368.29
807.787	28393.6
808.117	28239.26
808.447	28172.14
808.777	28145.47
809.107	27935.08
809.436	27871.13
809.766	27868.65
810.096	27902.09
810.426	27773.51
810.755	27693.96
811.085	27582.55
811.414	27616
811.744	27396.12
812.073	27463.01
812.403	27277.25
812.732	27180.98
813.061	27298.04
813.39	27007.65
813.719	27027.76
814.049	27160.19
814.378	26921.33
814.707	26776.92
815.036	26831.38
815.365	26734.89
815.693	26509.59
816.022	26519.53
816.351	26514.11
816.68	26242.02
817.008	26420.77
817.337	26158.86
817.665	26129.93
817.994	26198.86
818.322	26279.99
818.651	26036.6
818.979	25994.8
819.307	26102.59
819.636	25878.42
819.964	25878.64
820.292	25819.43
820.62	25883.84
820.948	25840.68
821.276	26003.38
821.604	25837.06
821.932	25905.76
822.259	25740.57
822.587	25781.24
822.915	25685.43
823.243	25663.51
823.57	25679.55
823.898	25804.52
824.225	25689.04
824.553	25665.77
824.88	25682.49
825.207	25762.03
825.535	25621.93
825.862	25724.3
826.189	25590.97
826.516	25771.75
826.843	25763.84
827.17	25838.87
827.497	25766.33
827.824	25709.61
828.151	25856.04
828.478	25630.06
828.805	25887.91
829.131	25770.17
829.458	25777.63
829.785	25535.83
830.111	25659.21
830.438	25756.84
830.764	25743.5
831.09	25714.35
831.417	25630.29
831.743	25755.03
832.069	25668.93
832.395	25625.77
832.722	25761.13
833.048	25605.88
833.374	25646.11
833.7	25632.09
834.026	25554.81
834.351	25454.92
834.677	25592.1
835.003	25472.32
835.329	25445.66
835.654	25417.86
835.98	25320.69
836.306	25345.32
836.631	25250.18
836.956	25410.41
837.282	25359.11
837.607	25250.86
837.932	25262.39
838.258	25180.81
838.583	25136.97
838.908	25140.81
839.233	25162.95
839.558	25019
839.883	25018.33
840.208	24932.45
840.533	24943.52
840.858	24877.31
841.182	24855.39
841.507	24856.75
841.832	24703.76
842.156	24820.82
842.481	24729.07
842.805	24623.76
843.13	24577.21
843.454	24524.55
843.778	24428.74
844.103	24459.24
844.427	24373.82
844.751	24284.79
845.075	24291.11
845.399	24298.34
845.723	23944.68
846.047	23987.17
846.371	23864.01
846.695	23882.31
847.019	23810
847.343	23594.41
847.666	23551.02
847.99	23466.05
848.313	23445.03
848.637	23297.92
848.96	23186.28
849.284	23200.07
849.607	22962.33
849.931	22992.39
850.254	22842.34
850.577	22761.66
850.9	22542.46
851.223	22588.78
851.546	22503.14
851.869	22384.72
852.192	22453.19
852.515	22275.57
852.838	22055.69
853.161	22126.65
853.483	21857.05
853.806	21894.57
854.129	21868.8
854.451	21838.75
854.774	21737.73
855.096	21573.67
855.419	21501.13
855.741	21527.12
856.063	21419.55
856.385	21232.89
856.708	21260.68
857.03	21104.53
857.352	21071.31
857.674	21077.41
857.996	21051.88
858.318	20847.36
858.64	20893.01
858.961	20839.23
859.283	20753.35
859.605	20674.94
859.926	20658.44
860.248	20715.16
860.57	20500.25
860.891	20558.78
861.212	20441.27
861.534	20273.14
861.855	20262.97
862.176	20361.05
862.498	20382.74
862.819	20389.52
863.14	20275.17
863.461	20203.08
863.782	20123.09
864.103	20076.31
864.424	20064.33
864.745	20098.68
865.065	20016.42
865.386	19880.83
865.707	20038.34
866.027	19897.56
866.348	19875.64
866.668	19755.19
866.989	19738.69
867.309	19634.06
867.63	19619.15
867.95	19687.84
868.27	19530.79
868.59	19658.47
868.91	19568.53
869.23	19601.52
869.55	19413.5
869.87	19451.69
870.19	19404.69
870.51	19427.51
870.83	19268.87
871.15	19211.7
871.469	19358.14
871.789	19359.04
872.109	19340.73
872.428	19203.56
872.748	19263
873.067	19222.09
873.386	19133.28
873.706	19174.41
874.025	19057.35
874.344	18904.14
874.663	18954.08
874.982	18992.72
875.301	18985.04
875.62	18804.48
875.939	18805.83
876.258	18831.37
876.577	18731.26
876.896	18714.31
877.214	18772.61
877.533	18688.32
877.852	18772.61
878.17	18666.18
878.489	18703.01
878.807	18596.35
879.125	18571.49
879.444	18528.78
879.762	18501.89
880.08	18555.67
880.398	18418.72
880.716	18399.97
881.034	18323.81
881.352	18382.34
881.67	18260.54
881.988	18300.08
882.306	18242.68
882.624	18156.36
882.941	18047.66
883.259	18057.38
883.577	18054.21
883.894	17970.83
884.212	17912.3
884.529	17862.13
884.846	17864.84
885.164	17776.93
885.481	17731.74
885.798	17787.1
886.115	17717.27
886.432	17781
886.75	17664.17
887.067	17653.32
887.383	17504.4
887.7	17505.75
888.017	17476.15
888.334	17431.63
888.651	17408.13
888.967	17351.63
889.284	17155.26
889.6	17229.15
889.917	17030.29
890.233	17152.09
890.55	17103.28
890.866	17049.04
891.182	16946.9
891.498	16997.52
891.815	16910.06
892.131	16784.42
892.447	16867.58
892.763	16661.71
893.079	16717.3
893.395	16557.76
893.71	16550.53
894.026	16521.83
894.342	16602.5
894.657	16401.6
894.973	16428.95
895.289	16325.9
895.604	16385.11
895.92	16263.3
896.235	16116.41
896.55	16167.71
896.865	16030.76
897.181	16043.87
897.496	16012.46
897.811	15913.93
898.126	15827.38
898.441	15782.64
898.756	15777.89
899.071	15740.83
899.386	15665.35
899.7	15627.39
900.015	15484.56
900.33	15387.39
900.644	15327.96
900.959	15422.19
901.273	15247.51
901.588	15252.25
901.902	15245.02
902.216	15127.74
902.531	15115.76
902.845	15034.41
903.159	14938.59
903.473	14816.33
903.787	14813.85
904.101	14793.96
904.415	14673.29
904.729	14648.88
905.042	14558.71
905.356	14615.43
905.67	14527.53
905.984	14539.05
906.297	14533.63
906.611	14311.94
906.924	14263.13
907.237	14253.64
907.551	14162.11
907.864	14157.37
908.177	14158.95
908.491	14040.08
908.804	13990.59
909.117	13935
909.43	13749.69
909.743	13839.18
910.056	13778.39
910.368	13690.71
910.681	13683.71
910.994	13574.78
911.307	13524.39
911.619	13389.93
911.932	13459.76
912.244	13274.23
912.557	13389.25
912.869	13186.32
913.181	13208.24
913.494	13194.23
913.806	13078.75
914.118	12988.36
914.43	12954.01
914.742	12981.35
915.054	12883.5
915.366	12816.84
915.678	12702.94
915.99	12716.28
916.302	12626.33
916.613	12464.76
916.925	12559.9
917.236	12559.44
917.548	12487.81
917.859	12464.53
918.171	12387.92
918.482	12280.36
918.794	12253.46
919.105	12152.22
919.416	12044.2
919.727	12148.83
920.038	12029.97
920.349	11929.86
920.66	11804.89
920.971	11890.53
921.282	11803.76
921.593	11776.19
921.903	11716.3
922.214	11655.96
922.525	11598.34
922.835	11531.9
923.146	11522.18
923.456	11437.89
923.767	11410.32
924.077	11359.25
924.387	11291
924.697	11245.35
925.008	11209.87
925.318	11207.39
925.628	11144.57
925.938	11097.34
926.248	11030.44
926.558	10956.32
926.867	10883.1
927.177	10867.51
927.487	10821.41
927.796	10732.15
928.106	10738.25
928.416	10671.13
928.725	10687.85
929.034	10583.68
929.344	10710.9
929.653	10581.42
929.962	10455.32
930.271	10442.66
930.581	10376.68
930.89	10349.78
931.199	10205.38
931.508	10212.16
931.817	10316.79
932.125	10244.7
932.434	10112.28
932.743	10079.28
933.051	10052.39
933.36	10002.67
933.669	9887.65
933.977	9863.02
934.286	9854.43
934.594	9818.5
934.902	9762.46
935.21	9683.59
935.519	9677.49
935.827	9659.41
936.135	9618.73
936.443	9511.84
936.751	9446.98
937.059	9490.15
937.367	9414.44
937.674	9443.14
937.982	9385.97
938.29	9350.71
938.597	9256.25
938.905	9244.5
939.213	9122.02
939.52	9137.61
939.827	9159.31
940.135	9055.81
940.442	9013.55
940.749	8999.99
941.056	9023.94
941.363	8888.81
941.67	8865.08
941.977	8843.61
942.284	8736.49
942.591	8789.37
942.898	8702.82
943.205	8720
943.511	8649.72
943.818	8650.39
944.125	8550.96
944.431	8507.12
944.738	8488.14
945.044	8429.16
945.35	8397.75
945.657	8330.63
945.963	8377.63
946.269	8270.29
946.575	8295.15
946.881	8194.81
947.187	8239.11
947.493	8202.95
947.799	8135.15
948.105	8132.22
948.41	8083.63
948.716	8002.05
949.022	8049.51
949.327	7979.23
949.633	7839.57
949.938	7849.96
950.244	7858.78
950.549	7753.92
950.854	7701.94
951.16	7726.12
951.465	7691.55
951.77	7647.48
952.075	7603.42
952.38	7592.34
952.685	7528.84
952.99	7475.51
953.294	7534.94
953.599	7384.44
953.904	7439.8
954.209	7367.49
954.513	7362.97
954.818	7314.84
955.122	7331.78
955.426	7271.45
955.731	7231
956.035	7131.56
956.339	7154.39
956.643	7086.59
956.948	7106.93
957.252	7018.35
957.556	7064.9
957.86	6941.96
958.163	6930.44
958.467	6965.92
958.771	6911.68
959.075	6882.3
959.378	6836.2
959.682	6799.82
959.985	6791.23
960.289	6822.65
960.592	6720.28
960.896	6719.6
961.199	6702.87
961.502	6689.77
961.805	6624.01
962.108	6522.09
962.411	6526.61
962.714	6517.34
963.017	6450.9
963.32	6481.86
963.623	6438.02
963.926	6395.31
964.228	6356.44
964.531	6321.64
964.833	6284.35
965.136	6313.05
965.438	6285.03
965.741	6237.35
966.043	6179.27
966.345	6144.25
966.648	6085.49
966.95	6161.19
967.252	6076.22
967.554	6046.62
967.856	6015.66
968.158	5937.7
968.46	5985.15
968.761	5936.57
969.063	5969.56
969.365	5946.06
969.666	5840.07
969.968	5869.68
970.269	5831.03
970.571	5768.89
970.872	5803.92
971.174	5711.26
971.475	5738.83
971.776	5728.21
972.077	5642.79
972.378	5655.9
972.679	5670.81
972.98	5588.33
973.281	5586.29
973.582	5538.84
973.883	5528.22
974.183	5460.2
974.484	5454.77
974.785	5428.78
975.085	5385.17
975.386	5424.94
975.686	5373.64
975.986	5319.41
976.287	5323.93
976.587	5296.58
976.887	5311.72
977.187	5227.66
977.487	5219.07
977.787	5204.38
978.087	5149.47
978.387	5148.11
978.687	5130.49
978.987	5131.84
979.286	5032.18
979.586	5097.04
979.885	5000.55
980.185	4998.29
980.484	4925.97
980.784	4923.26
981.083	4907.89
981.382	4885.3
981.682	4925.97
981.981	4840.1
982.28	4820.21
982.579	4783.38
982.878	4809.14
983.177	4802.36
983.475	4764.62
983.774	4714.9
984.073	4692.53
984.372	4641.91
984.67	4643.04
984.969	4655.7
985.267	4663.61
985.566	4601.91
985.864	4545.64
986.162	4586.09
986.461	4516.27
986.759	4535.47
987.057	4426.78
987.355	4463.16
987.653	4438.3
987.951	4435.14
988.249	4364.18
988.547	4377.29
988.844	4327.57
989.142	4337.74
989.44	4317.4
989.737	4257.29
990.035	4292.99
990.332	4241.02
990.63	4201.47
990.927	4214.35
991.224	4184.3
991.521	4195.82
991.819	4118.31
992.116	4128.7
992.413	4134.35
992.71	4108.14
993.006	4029.5
993.303	4040.35
993.6	4057.07
993.897	4015.04
994.193	4014.81
994.49	3958.54
994.787	3920.8
995.083	3934.36
995.379	3923.51
995.676	3888.49
995.972	3855.94
996.268	3851.88
996.565	3795.15
996.861	3820.46
997.157	3730.3
997.453	3759
997.749	3771.88
998.044	3713.12
998.34	3691.43
998.636	3679.9
998.932	3664.99
999.227	3683.29
999.523	3615.05
999.818	3602.17
1000.114	3613.92
1000.409	3595.39
1000.704	3592
1001	3548.38
1001.295	3492.56
1001.59	3483.75
1001.885	3477.65
1002.18	3439.23
1002.475	3418.44
1002.77	3422.96
1003.065	3403.53
1003.359	3352
1003.654	3339.57
1003.949	3340.48
1004.243	3310.42
1004.538	3271.33
1004.832	3280.14
1005.127	3282.4
1005.421	3243.98
1005.715	3224.77
1006.009	3254.83
1006.304	3226.13
1006.598	3177.09
1006.892	3129.64
1007.186	3135.06
1007.48	3143.42
1007.773	3086.7
1008.067	3090.77
1008.361	3033.37
1008.655	3034.04
1008.948	3017.55
1009.242	2980.26
1009.535	2991.11
1009.829	2910.21
1010.122	2941.62
1010.415	2963.31
1010.708	2918.34
1011.001	2911.11
1011.295	2855.74
1011.588	2838.8
1011.881	2861.17
1012.173	2797.44
1012.466	2814.84
1012.759	2801.96
1013.052	2786.59
1013.344	2736.2
1013.637	2728.29
1013.93	2741.85
1014.222	2698.23
1014.514	2699.14
1014.807	2675.86
1015.099	2622.53
1015.391	2603.32
1015.683	2619.37
1015.976	2619.14
1016.268	2604.9
1016.56	2545.7
1016.851	2549.76
1017.143	2537.33
1017.435	2497.79
1017.727	2505.24
1018.018	2509.31
1018.31	2475.64
1018.602	2450.56
1018.893	2420.73
1019.185	2439.71
1019.476	2408.07
1019.767	2393.61
1020.058	2399.48
1020.35	2330.33
1020.641	2339.83
1020.932	2300.28
1021.223	2318.58
1021.514	2297.57
1021.804	2262.54
1022.095	2244.91
1022.386	2228.42
1022.677	2239.26
1022.967	2207.4
1023.258	2159.72
1023.548	2147.51
1023.839	2162.65
1024.129	2147.06
1024.419	2098.48
1024.709	2082.21
1025	2089.89
1025.29	2046.95
1025.58	2065.26
1025.87	2041.53
1026.16	2029.33
1026.449	1980.51
1026.739	2003.56
1027.029	1977.8
1027.319	1991.13
1027.608	1963.79
1027.898	1949.1
1028.187	1967.63
1028.477	1937.12
1028.766	1924.92
1029.055	1880.4
1029.344	1869.78
1029.634	1860.74
1029.923	1864.81
1030.212	1815.09
1030.501	1820.07
1030.79	1832.04
1031.078	1779.39
1031.367	1784.13
1031.656	1771.7
1031.945	1742.55
1032.233	1733.74
1032.522	1735.1
1032.81	1725.83
1033.099	1710.69
1033.387	1699.84
1033.675	1714.98
1033.963	1674.53
1034.251	1678.83
1034.54	1638.37
1034.828	1632.95
1035.116	1632.73
1035.403	1587.75
1035.691	1577.36
1035.979	1622.56
1036.267	1536
1036.554	1604.03
1036.842	1518.15
1037.129	1571.71
1037.417	1537.13
1037.704	1524.25
1037.992	1519.28
1038.279	1502.11
1038.566	1478.15
1038.853	1478.15
1039.14	1478.15
