Data from 142_FLMS001491_010.txt Node
Date: Thu Apr 19 16:09:20 BST 2018
User: hsy
Spectrometer: FLMS00149
Trigger mode: 0
Integration Time (sec): 1.000000E-2
Scans to average: 10
Electric dark correction enabled: true
Nonlinearity correction enabled: false
Boxcar width: 0
XAxis mode: Wavelengths
Number of Pixels in Spectrum: 2048
>>>>>Begin Spectral Data<<<<<
341.393	4.45
341.776	4.45
342.16	4.45
342.543	-69.22
342.927	-67.64
343.31	-77.36
343.693	-76.9
344.077	-60.63
344.46	-40.52
344.843	-48.2
345.226	-28.54
345.61	-32.84
345.993	-35.78
346.376	-20.18
346.759	31.79
347.142	14.62
347.525	45.35
347.908	50.32
348.291	88.51
348.674	79.93
349.057	110.43
349.44	138
349.823	124.67
350.206	195.86
350.588	226.59
350.971	271.33
351.354	266.14
351.737	290.09
352.119	278.57
352.502	283.31
352.884	305.01
353.267	301.84
353.65	327.83
354.032	352.69
354.414	374.61
354.797	341.62
355.179	376.64
355.562	363.76
355.944	369.41
356.326	353.14
356.709	368.28
357.091	362.86
357.473	379.81
357.855	363.76
358.238	374.38
358.62	387.49
359.002	392.01
359.384	393.14
359.766	399.01
360.148	395.85
360.53	383.87
360.912	388.39
361.294	396.98
361.676	365.57
362.057	370.99
362.439	395.85
362.821	384.33
363.203	379.13
363.584	379.35
363.966	390.2
364.348	360.15
364.729	362.18
365.111	382.97
365.493	382.74
365.874	355.85
366.256	354.95
366.637	364.67
367.019	373.48
367.4	355.63
367.781	366.47
368.163	360.15
368.544	363.31
368.925	368.73
369.306	358.34
369.688	385.91
370.069	382.74
370.45	371.45
370.831	345.23
371.212	384.1
371.593	388.85
371.974	374.16
372.355	359.92
372.736	380.71
373.117	405.57
373.498	370.77
373.879	363.08
374.26	385.68
374.641	369.41
375.021	392.91
375.402	396.53
375.783	372.8
376.163	406.92
376.544	400.82
376.925	402.4
377.305	403.31
377.686	398.34
378.066	391.56
378.447	376.64
378.827	395.63
379.208	416.42
379.588	387.49
379.968	405.79
380.349	395.63
380.729	427.04
381.109	413.7
381.489	402.18
381.87	426.36
382.25	425.45
382.63	440.37
383.01	404.21
383.39	425.45
383.77	433.59
384.15	426.58
384.53	432.69
384.91	438.79
385.29	421.61
385.67	425.45
386.049	430.65
386.429	439.01
386.809	450.76
387.189	455.28
387.568	434.95
387.948	444.44
388.328	429.75
388.707	462.52
389.087	465
389.466	466.36
389.846	464.55
390.225	475.4
390.605	477.43
390.984	478.11
391.363	472.91
391.743	485.57
392.122	485.57
392.501	493.48
392.881	486.92
393.26	504.32
393.639	494.15
394.018	512.68
394.397	509.07
394.776	516.07
395.155	496.87
395.534	504.77
395.913	499.13
396.292	530.76
396.671	543.64
397.05	539.8
397.429	526.02
397.808	527.15
398.186	525.11
398.565	532.57
398.944	534.15
399.323	561.95
399.701	556.75
400.08	521.72
400.458	547.71
400.837	578.9
401.215	555.62
401.594	566.69
401.972	581.61
402.351	569.63
402.729	593.36
403.107	585.22
403.486	576.41
403.864	593.36
404.242	591.1
404.62	589.07
404.999	615.28
405.377	599.46
405.755	605.56
406.133	621.38
406.511	615.51
406.889	634.94
407.267	615.51
407.645	620.93
408.023	657.54
408.401	635.84
408.779	651.21
409.156	671.32
409.534	665.9
409.912	677.2
410.29	660.03
410.667	670.87
411.045	719.23
411.422	707.48
411.8	705.22
412.178	699.8
412.555	738.67
412.933	718.78
413.31	741.6
413.687	758.33
414.065	753.36
414.442	767.37
414.819	775.5
415.197	769.85
415.574	786.12
415.951	795.16
416.328	814.15
416.705	801.94
417.082	801.49
417.46	804.88
417.837	835.16
418.214	841.04
418.591	824.99
418.967	831.32
419.344	850.75
419.721	857.99
420.098	857.99
420.475	868.38
420.852	878.32
421.228	864.77
421.605	891.21
421.982	912
422.358	918.32
422.735	904.09
423.111	911.77
423.488	915.16
423.864	926.01
424.241	958.55
424.617	940.24
424.994	932.11
425.37	954.71
425.746	940.92
426.123	981.15
426.499	979.34
426.875	963.07
427.251	985.21
427.627	1003.74
428.003	1018.43
428.379	1046.46
428.756	1036.96
429.132	1065.89
429.507	1056.4
429.883	1067.47
430.259	1096.4
430.635	1111.76
431.011	1135.72
431.387	1120.35
431.763	1148.6
432.138	1148.83
432.514	1167.36
432.89	1161.03
433.265	1194.47
433.641	1186.79
434.016	1213.91
434.392	1233.34
434.767	1242.38
435.143	1220.91
435.518	1253.91
435.894	1271.99
436.269	1273.12
436.644	1308.37
437.02	1292.1
437.395	1300.91
437.77	1320.8
438.145	1334.13
438.52	1308.82
438.895	1365.77
439.271	1384.53
439.646	1373.23
440.021	1399.67
440.395	1392.66
440.77	1373.23
441.145	1390.63
441.52	1418.42
441.895	1419.78
442.27	1420.23
442.645	1433.79
443.019	1431.98
443.394	1462.04
443.769	1495.94
444.143	1490.51
444.518	1485.09
444.892	1473.34
445.267	1481.02
445.641	1509.95
446.016	1508.59
446.39	1511.53
446.764	1531.19
447.139	1520.79
447.513	1553.79
447.887	1481.47
448.262	1537.74
448.636	1565.76
449.01	1571.64
449.384	1574.35
449.758	1605.99
450.132	1618.19
450.506	1600.34
450.88	1648.93
451.254	1642.15
451.628	1683.05
452.002	1662.71
452.376	1700.68
452.75	1725.31
453.123	1745.19
453.497	1778.19
453.871	1764.63
454.244	1828.81
454.618	1826.32
454.992	1845.98
455.365	1798.07
455.739	1849.82
456.112	1899.31
456.486	1902.7
456.859	1927.56
457.232	1973.21
457.606	1961.23
457.979	1991.06
458.352	2037.62
458.725	2026.99
459.099	2099.08
459.472	2112.64
459.845	2147.44
460.218	2130.95
460.591	2159.42
460.964	2202.81
461.337	2235.8
461.71	2234.9
462.083	2265.86
462.456	2288.91
462.829	2300.43
463.201	2310.15
463.574	2385.63
463.947	2373.88
464.32	2388.34
464.692	2411.17
465.065	2438.06
465.438	2472.63
465.81	2461.33
466.183	2547.21
466.555	2580.2
466.928	2583.82
467.3	2613.87
467.672	2602.57
468.045	2671.5
468.417	2681.89
468.789	2704.94
469.161	2748.78
469.534	2797.82
469.906	2827.65
470.278	2859.06
470.65	2857.26
471.022	2941.55
471.394	2993.97
471.766	3012.96
472.138	3088.66
472.51	3095.22
472.882	3164.14
473.253	3189.68
473.625	3193.07
473.997	3246.17
474.369	3288.43
474.74	3360.97
475.112	3378.6
475.484	3470.12
475.855	3523.45
476.227	3545.37
476.598	3629.21
476.97	3685.71
477.341	3776.78
477.713	3794.63
478.084	3856.1
478.455	3929.09
478.827	3986.72
479.198	4057
479.569	4095.19
479.94	4212.25
480.311	4260.16
480.682	4329.53
481.053	4477.55
481.424	4515.52
481.795	4607.27
482.166	4678.68
482.537	4753.7
482.908	4863.98
483.279	4971.32
483.65	5060.36
484.021	5153.69
484.391	5230.3
484.762	5338.32
485.133	5330.18
485.503	5479.79
485.874	5556.62
486.244	5671.87
486.615	5807.01
486.985	5906.89
487.356	6006.55
487.726	6103.72
488.097	6302.36
488.467	6327.45
488.837	6556.14
489.207	6647.21
489.578	6770.15
489.948	6903.25
490.318	7018.73
490.688	7076.58
491.058	7240.64
491.428	7422.56
491.798	7517.47
492.168	7761.76
492.538	7841.76
492.908	8037.91
493.278	8172.82
493.648	8248.53
494.017	8425.24
494.387	8587.05
494.757	8708.17
495.126	8852.35
495.496	8974.61
495.866	9165.79
496.235	9298.44
496.605	9510.87
496.974	9581.37
497.344	9778.43
497.713	9889.39
498.082	10031.53
498.452	10298.64
498.821	10495.7
499.19	10551.06
499.559	10722.36
499.928	10885.97
500.298	11067.43
500.667	11276.47
501.036	11337.48
501.405	11511.94
501.774	11744.03
502.143	11968.2
502.512	12057.92
502.88	12356.44
503.249	12360.06
503.618	12580.84
503.987	12681.63
504.356	13017.21
504.724	13166.59
505.093	13307.15
505.462	13413.59
505.83	13656.52
506.199	13877.3
506.567	14095.15
506.936	14201.14
507.304	14459.21
507.672	14558.19
508.041	14765.64
508.409	14979.87
508.777	15111.17
509.145	15313.2
509.514	15411.05
509.882	15627.99
510.25	15776.69
510.618	16009.68
510.986	16066.17
511.354	16271.37
511.722	16614.41
512.09	16808.98
512.458	16786.61
512.826	17110.21
513.193	17139.59
513.561	17369.19
513.929	17413.93
514.297	17733.7
514.664	17953.13
515.032	18003.75
515.4	18211.43
515.767	18488.03
516.135	18560.57
516.502	18606.22
516.869	18872.65
517.237	18986.1
517.604	18974.12
517.972	19402.81
518.339	19553.77
518.706	19623.37
519.073	19719.64
519.44	19970.48
519.808	20270.81
520.175	20231.26
520.542	20534.3
520.909	20739.95
521.276	20785.37
521.643	21022.88
522.009	21250.22
522.376	21441.17
522.743	21429.2
523.11	21891.11
523.477	22091.78
523.843	22142.62
524.21	22478.66
524.577	22555.72
524.943	22820.35
525.31	22910.06
525.676	23277.28
526.043	23391.18
526.409	23482.48
526.776	23792.3
527.142	23832.3
527.508	24114.78
527.874	24482.9
528.241	24585.72
528.607	24605.84
528.973	24931.48
529.339	25024.58
529.705	25287.17
530.071	25495.08
530.437	25540.73
530.803	25735.07
531.169	25917.21
531.535	25983.43
531.901	26185.91
532.267	26248.5
532.632	26519.01
532.998	26569.17
533.364	26729.17
533.73	26933.91
534.095	27250.51
534.461	27198.31
534.826	27265.65
535.192	27478.3
535.557	27678.07
535.923	27714.68
536.288	27905.86
536.653	28084.16
537.019	27922.81
537.384	28127.78
537.749	28251.39
538.114	28380.43
538.479	28387.66
538.845	28636.24
539.21	28580.65
539.575	28746.74
539.94	28815.44
540.305	29079.62
540.67	28974.31
541.034	29087.75
541.399	29238.93
541.764	29309.67
542.129	29497.46
542.494	29640.96
542.858	29613.39
543.223	29683.89
543.587	30016.77
543.952	29897.45
544.316	29974.51
544.681	29995.07
545.045	30288.85
545.41	30301.73
545.774	30313.03
546.138	30386.93
546.503	30602.29
546.867	30581.27
547.231	30758.22
547.595	30849.29
547.959	30963.64
548.324	30952.56
548.688	31065.33
549.052	31204.53
549.416	31294.93
549.779	31345.32
550.143	31412.89
550.507	31730.17
550.871	31782.37
551.235	31764.52
551.599	32041.57
551.962	32038.41
552.326	32125.86
552.689	32178.74
553.053	32188.69
553.417	32278.63
553.78	32646.3
554.143	32652.4
554.507	32772.63
554.87	32835.68
555.234	33246.06
555.597	32900.76
555.96	33151.37
556.323	33342.1
556.686	33404.02
557.05	33578.93
557.413	33731.47
557.776	33724.69
558.139	34056.21
558.502	34175.53
558.865	34120.39
559.228	34432.7
559.59	34375.3
559.953	34521.96
560.316	34900.25
560.679	34784.1
561.041	35099.12
561.404	35317.19
561.767	35511.76
562.129	35399.9
562.492	35755.6
562.854	35901.13
563.217	35839.44
563.579	36013.9
563.941	36189.26
564.304	36319.88
564.666	36629.93
565.028	36636.48
565.39	36886.64
565.753	37064.72
566.115	37047.32
566.477	37221.1
566.839	37579.96
567.201	37892.94
567.563	37786.28
567.925	38083.9
568.287	38142.2
568.648	38195.08
569.01	38439.82
569.372	38886.59
569.734	38771.57
570.095	38993.25
570.457	39261.04
570.819	39302.85
571.18	39425.33
571.542	39660.36
571.903	39837.98
572.265	40152.77
572.626	40232.77
572.987	40115.48
573.349	40474.12
573.71	40662.14
574.071	40857.84
574.432	41115.01
574.794	41301.22
575.155	41407.43
575.516	41367.88
575.877	41624.82
576.238	41841.54
576.599	41915.66
576.96	42038.6
577.32	42222.32
577.681	42521.75
578.042	42645.59
578.403	42778.01
578.763	42823.66
579.124	43051.68
579.485	43447.37
579.845	43643.75
580.206	43474.04
580.566	43788.61
580.927	43794.26
581.287	44195.6
581.648	44062.27
582.008	44534.35
582.368	44477.18
582.728	44780.9
583.089	44938.63
583.449	44970.05
583.809	45297.95
584.169	45497.94
584.529	45481.9
584.889	46018.61
585.249	45883.47
585.609	46009.34
585.969	46400.29
586.329	46337.69
586.688	46541.76
587.048	46900.84
587.408	46981.52
587.768	47097.9
588.127	47348.74
588.487	47525.69
588.846	47908.5
589.206	47863.08
589.565	47901.95
589.925	48391.43
590.284	48583.28
590.643	48745.54
591.003	48976.72
591.362	49334.68
591.721	49423.04
592.08	49541.68
592.44	49930.37
592.799	49973.76
593.158	50059.4
593.517	50278.16
593.876	50531.48
594.235	50621.2
594.593	50743.23
594.952	51034.07
595.311	51084.69
595.67	51379.82
596.029	51614.17
596.387	51743.88
596.746	52017.54
597.104	51952.24
597.463	52099.35
597.822	52522.39
598.18	52513.35
598.538	52609.62
598.897	52928.93
599.255	52877.64
599.613	53358.75
599.972	53205.54
600.33	53459.09
600.688	53516.71
601.046	53674.45
601.404	54054.1
601.762	54110.82
602.12	54310.59
602.478	54422.68
602.836	54466.07
603.194	54328.44
603.552	54612.73
603.91	54798.04
604.268	54882.1
604.625	54969.56
604.983	55263.79
605.341	55140.63
605.698	55423.33
606.056	55678.92
606.413	55590.11
606.771	55793.72
607.128	55877.56
607.485	55916.65
607.843	55956.2
608.2	56179.7
608.557	56344.21
608.914	56370.88
609.272	56563.87
609.629	56645.67
609.986	56774.93
610.343	56752.79
610.7	57052.67
611.057	57075.04
611.414	57037.53
611.771	57249.05
612.127	57400.23
612.484	57408.14
612.841	57560.9
613.198	57459.89
613.554	57543.05
613.911	57746.21
614.267	57851.52
614.624	57878.63
614.98	57999.31
615.337	58225.29
615.693	58174.67
616.05	58244.27
616.406	58383.25
616.762	58414.66
617.118	58442.01
617.475	58416.25
617.831	58625.96
618.187	58616.02
618.543	58773.98
618.899	58980.75
619.255	58886.74
619.611	58916.35
619.967	59110.24
620.323	59105.49
620.678	59076.57
621.034	59106.4
621.39	59108.43
621.746	59147.98
622.101	59418.03
622.457	59254.42
622.812	59430.01
623.168	59435.43
623.523	59510
623.879	59525.37
624.234	59402.66
624.589	59524.47
624.945	59573.05
625.3	59606.27
625.655	59645.82
626.01	59614.86
626.365	59638.59
626.72	59617.12
627.075	59590.9
627.43	59658.7
627.785	59661.64
628.14	59670.9
628.495	59737.57
628.85	59700.51
629.205	59672.94
629.559	59805.14
629.914	59658.47
630.269	59667.74
630.623	59628.42
630.978	59593.84
631.332	59698.7
631.687	59739.15
632.041	59676.55
632.396	59711.58
632.75	59651.69
633.104	59694.63
633.459	59607.85
633.813	59582.09
634.167	59599.72
634.521	59652.6
634.875	59666.38
635.229	59666.61
635.583	59437.01
635.937	59511.36
636.291	59524.69
636.645	59480.63
636.999	59403.11
637.352	59463.68
637.706	59350.91
638.06	59406.28
638.413	59334.19
638.767	59302.1
639.121	59332.15
639.474	59212.16
639.828	59231.59
640.181	59194.76
640.534	59307.75
640.888	59196.34
641.241	59089.45
641.594	59139.84
641.947	59201.31
642.301	59082.9
642.654	59062.33
643.007	59012.84
643.36	59068.43
643.713	59010.58
644.066	59110.01
644.419	58914.09
644.771	58717.03
645.124	58447.88
645.477	58444.27
645.83	58272.07
646.182	58274.1
646.535	58249.92
646.888	58243.14
647.24	58169.02
647.593	58308.68
647.945	58126.54
648.298	58184.16
648.65	57990.95
649.002	57938.07
649.355	57958.18
649.707	57877.96
650.059	57839.76
650.411	58169.25
650.763	58224.16
651.115	58630.48
651.467	58519.07
651.819	58513.87
652.171	58416.02
652.523	58427.32
652.875	58446.98
653.227	58307.55
653.578	58475.23
653.93	58455.34
654.282	58268.91
654.633	58264.84
654.985	58232.97
655.337	58307.77
655.688	58239.53
656.039	58362.69
656.391	58034.34
656.742	58085.41
657.094	58148.68
657.445	58145.07
657.796	58149.81
658.147	58051.96
658.498	58122.47
658.849	58131.28
659.2	58031.62
659.551	58028.01
659.902	58103.71
660.253	57978.74
660.604	58021.23
660.955	57880.67
661.306	58029.36
661.656	57927.9
662.007	57956.37
662.358	57945.98
662.708	57929.48
663.059	57961.57
663.409	57729.26
663.76	57914.56
664.11	57844.96
664.461	57860.33
664.811	57924.73
665.161	57836.83
665.511	57783.27
665.862	57821.91
666.212	57851.74
666.562	57829.6
666.912	57850.84
667.262	57762.7
667.612	57745.98
667.962	57817.39
668.312	57715.7
668.662	57855.58
669.011	57803.83
669.361	57715.02
669.711	57745.76
670.06	57728.13
670.41	57622.37
670.76	57658.07
671.109	57788.24
671.459	57675.93
671.808	57669.15
672.157	57681.8
672.507	57573.56
672.856	57567.46
673.205	57580.79
673.554	57624.18
673.904	57557.51
674.253	57730.39
674.602	57564.74
674.951	57229.39
675.3	57110.97
675.649	57542.15
675.998	57565.2
676.346	57578.53
676.695	57604.06
677.044	57413.56
677.393	57499.66
677.741	57507.12
678.09	57485.65
678.438	57379.44
678.787	57557.06
679.135	57485.88
679.484	57357.97
679.832	57433.9
680.181	57366.56
680.529	57305.77
680.877	57243.62
681.225	57280.91
681.573	57445.88
681.922	57254.24
682.27	57217.41
682.618	57190.52
682.966	57145.55
683.314	57119.11
683.661	57129.95
684.009	57028.03
684.357	56985.78
684.705	56891.99
685.053	56906
685.4	56903.29
685.748	56862.16
686.095	56828.04
686.443	56677.31
686.79	56702.17
687.138	56822.84
687.485	56774.03
687.832	56673.92
688.18	56613.13
688.527	56558.22
688.874	56566.13
689.221	56529.74
689.568	56414.72
689.915	56331.1
690.262	56381.05
690.609	56335.62
690.956	56205.46
691.303	56282.07
691.65	56146.02
691.997	56095.86
692.344	55960.94
692.69	56019.93
693.037	55995.75
693.383	55777.67
693.73	55855.64
694.077	55744.68
694.423	55785.36
694.769	55685.24
695.116	55652.48
695.462	55534.29
695.808	55443.67
696.155	55499.49
696.501	55254.52
696.847	55319.15
697.193	55177.24
697.539	55177.01
697.885	55043.23
698.231	54989.9
698.577	54895.89
698.923	54979.95
699.269	54746.51
699.614	54694.08
699.96	54620.41
700.306	54557.82
700.651	54441.89
700.997	54430.59
701.342	54421.55
701.688	54322.57
702.033	54227.88
702.379	54215.68
702.724	54099.07
703.069	54116.47
703.415	53863.82
703.76	53836.71
704.105	53890.72
704.45	53768.01
704.795	53662.02
705.14	53554.23
705.485	53563.72
705.83	53426.32
706.175	53453.67
706.52	53372.31
706.865	53287.12
707.209	53123.05
707.554	53111.3
707.899	53165.09
708.243	52976.39
708.588	52913.57
708.932	52768.26
709.277	52796.51
709.621	52739.79
709.966	52460.92
710.31	52542.28
710.654	52345.67
710.998	52442.84
711.342	52412.11
711.687	52238.56
712.031	52176.86
712.375	52030.65
712.719	52100.25
713.063	51924.67
713.407	52117.43
713.75	51856.19
714.094	52004.89
714.438	51814.39
714.782	51772.13
715.125	51580.04
715.469	51810.32
715.812	51509.99
716.156	51458.92
716.499	51346.6
716.843	51406.26
717.186	51232.93
717.53	51351.57
717.873	51303.44
718.216	51113.39
718.559	51054.63
718.902	50859.84
719.246	50836.78
719.589	50856.45
719.932	50697.58
720.275	50709.33
720.617	50696.68
720.96	50632.04
721.303	50625.26
721.646	50672.5
721.989	50426.63
722.331	50444.93
722.674	50337.81
723.016	50353.18
723.359	50082
723.701	50298.49
724.044	50158.38
724.386	49939.86
724.729	50208.1
725.071	49955.45
725.413	50006.75
725.755	49902.8
726.097	49729.47
726.439	49694.44
726.782	49666.19
727.124	49822.8
727.465	49599.3
727.807	49570.38
728.149	49530.83
728.491	49376.03
728.833	49439.76
729.175	49345.98
729.516	49163.38
729.858	49232.76
730.199	49401.12
730.541	49283.61
730.882	49133.33
731.224	49197.51
731.565	49080.45
731.906	48989.38
732.248	48982.37
732.589	48690.85
732.93	48730.63
733.271	48673
733.612	48731.98
733.953	48860.79
734.294	48648.14
734.635	48526.11
734.976	48647.24
735.317	48502.38
735.658	48414.25
735.999	48353.23
736.339	48391.2
736.68	48367.7
737.021	48244.08
737.361	48177.42
737.702	48378.09
738.042	48175.16
738.383	48223.97
738.723	48190.3
739.063	48133.35
739.404	48211.54
739.744	47894.04
740.084	47802.29
740.424	47992.34
740.764	47830.08
741.104	47976.75
741.444	47774.72
741.784	47684.78
742.124	47590.99
742.464	47633.03
742.804	47454.5
743.143	47501.05
743.483	47441.39
743.823	47267.61
744.162	47262.64
744.502	47371.34
744.841	47203.43
745.181	47302.87
745.52	47125.92
745.86	47221.06
746.199	47061.29
746.538	46919.37
746.877	47082.99
747.216	46996.21
747.556	46740.4
747.895	46814.29
748.234	46727.74
748.573	46738.36
748.911	46495.43
749.25	46644.13
749.589	46463.34
749.928	46543.34
750.267	46426.28
750.605	46365.94
750.944	46371.37
751.283	46250.46
751.621	46199.39
751.96	46008.44
752.298	45965.5
752.636	45936.12
752.975	45780.65
753.313	45757.6
753.651	45905.62
753.989	45692.97
754.327	45657.94
754.666	45331.39
755.004	45585.85
755.342	45606.41
755.679	45468.34
756.017	45254.33
756.355	45259.76
756.693	45115.81
757.031	45147.22
757.368	44957.17
757.706	44809.82
758.044	44791.97
758.381	44741.8
758.719	44604.18
759.056	44646.44
759.394	44342.49
759.731	44074.25
760.068	44067.92
760.405	44088.94
760.743	43798.33
761.08	43832.9
761.417	43733.69
761.754	43450.09
762.091	43634.94
762.428	43221.17
762.765	43112.24
763.102	43104.11
763.438	43120.15
763.775	42698.69
764.112	42716.32
764.449	42766.04
764.785	42672.25
765.122	42451.92
765.458	42338.03
765.795	42246.05
766.131	42159.95
766.467	42067.3
766.804	41583.47
767.14	41570.36
767.476	41484.26
767.812	41378.05
768.148	41446.07
768.485	41150.71
768.821	40810.83
769.157	40803.38
769.492	40880.44
769.828	40752.08
770.164	40318.87
770.5	40259.66
770.836	40210.4
771.171	40027.13
771.507	40018.54
771.842	39548.72
772.178	39649.06
772.513	39460.36
772.849	39408.38
773.184	39237.99
773.519	39233.93
773.855	39106.47
774.19	38986.25
774.525	38684.11
774.86	38729.53
775.195	38486.6
775.53	38371.58
775.865	38158.25
776.2	37998.7
776.535	37750.58
776.87	37617.25
777.205	37551.26
777.539	37434.65
777.874	37407.76
778.209	37047.54
778.543	37199.86
778.878	36905.63
779.212	36701.56
779.547	36611.85
779.881	36437.62
780.215	36272.42
780.55	36417.05
780.884	36109.94
781.218	35973.45
781.552	35972.09
781.886	35768.48
782.22	35595.6
782.554	35403.74
782.888	35405.55
783.222	35199.23
783.556	34944.1
783.889	34822.74
784.223	34728.73
784.557	34670.43
784.89	34738.68
785.224	34404
785.557	34295.07
785.891	34100.73
786.224	34113.16
786.558	34041.97
786.891	33731.7
787.224	33663.68
787.557	33460.29
787.891	33391.37
788.224	33145.5
788.557	33245.16
788.89	33077.93
789.223	33085.16
789.556	32747.77
789.888	32816.69
790.221	32673.19
790.554	32424.61
790.887	32469.36
791.219	32279.31
791.552	32251.06
791.884	32104.85
792.217	31861.92
792.549	31856.27
792.882	31669.15
793.214	31541.25
793.546	31516.39
793.879	31376.51
794.211	31148.04
794.543	31287.69
794.875	31047.93
795.207	31119.34
795.539	30939.68
795.871	30944.43
796.203	30688.39
796.535	30475.96
796.867	30632.34
797.198	30362.29
797.53	30278.91
797.862	30116.88
798.193	30095.86
798.525	30014.51
798.856	30077.1
799.188	29648.42
799.519	29573.39
799.85	29435.99
800.182	29523.45
800.513	29703.56
800.844	29155.55
801.175	29343.79
801.506	29287.52
801.837	29050.24
802.168	29008.21
802.499	29045.95
802.83	28838.72
803.161	28704.03
803.491	28716.91
803.822	28744.71
804.153	28403.25
804.483	28279.41
804.814	28266.53
805.145	28236.48
805.475	28104.95
805.805	28066.31
806.136	28035.58
806.466	27995.8
806.796	28070.38
807.126	27710.84
807.457	27658.41
807.787	27642.82
808.117	27543.16
808.447	27462.71
808.777	27450.51
809.107	27261.36
809.436	27270.17
809.766	27236.73
810.096	27259.55
810.426	27038.09
810.755	26974.36
811.085	26926.45
811.414	26916.74
811.744	26686.46
812.073	26722.16
812.403	26648.95
812.732	26495.28
813.061	26666.12
813.39	26357.2
813.719	26360.82
814.049	26479.91
814.378	26397.43
814.707	26232.46
815.036	26180.26
815.365	26065.91
815.693	25868.85
816.022	25915.63
816.351	25871.79
816.68	25809.19
817.008	25831.79
817.337	25451.69
817.665	25568.97
817.994	25528.3
818.322	25633.38
818.651	25433.84
818.979	25436.32
819.307	25492.82
819.636	25399.04
819.964	25278.59
820.292	25200.4
820.62	25288.3
820.948	25314.97
821.276	25261.86
821.604	25207.18
821.932	25422.76
822.259	25211.24
822.587	25106.16
822.915	25035.2
823.243	25205.14
823.57	25031.14
823.898	25294.41
824.225	25069.1
824.553	25050.57
824.88	25103
825.207	25234.52
825.535	25170.57
825.862	25154.3
826.189	25038.37
826.516	25130.79
826.843	25299.83
827.17	25224.35
827.497	25186.84
827.824	25180.06
828.151	25311.35
828.478	25037.24
828.805	25286.95
829.131	25188.42
829.458	25216.67
829.785	24925.83
830.111	25051.02
830.438	25295.54
830.764	25093.28
831.09	25200.17
831.417	24995.2
831.743	25240.62
832.069	25010.8
832.395	25063.9
832.722	25087.18
833.048	24942.1
833.374	25032.72
833.7	24840.18
834.026	24943.68
834.351	24915.88
834.677	24990.68
835.003	24916.11
835.329	24919.95
835.654	24817.13
835.98	24792.05
836.306	24889.44
836.631	24786.4
836.956	24979.39
837.282	24819.84
837.607	24719.73
837.932	24674.08
838.258	24692.84
838.583	24656.91
838.908	24465.95
839.233	24629.11
839.558	24474.99
839.883	24467.99
840.208	24306.86
840.533	24499.85
840.858	24301.66
841.182	24347.31
841.507	24344.15
841.832	24178.05
842.156	24213.76
842.481	24016.7
842.805	24067.77
843.13	24058.51
843.454	24003.37
843.778	24007.21
844.103	23951.84
844.427	23792.07
844.751	23976.7
845.075	23862.35
845.399	23698.97
845.723	23533.1
846.047	23591.63
846.371	23501.91
846.695	23362.93
847.019	23264.4
847.343	23047.23
847.666	23223.5
847.99	22988.03
848.313	22964.3
848.637	22748.26
848.96	22715.72
849.284	22720.24
849.607	22482.95
849.931	22513.46
850.254	22359.57
850.577	22162.06
850.9	22006.81
851.223	22127.03
851.546	21950.09
851.869	21853.82
852.192	22021.72
852.515	21654.28
852.838	21664.44
853.161	21588.74
853.483	21465.35
853.806	21447.05
854.129	21423.32
854.451	21300.39
854.774	21207.06
855.096	21107.62
855.419	20947.63
855.741	21106.72
856.063	20894.75
856.385	20800.06
856.708	20726.39
857.03	20756.9
857.352	20702.89
857.674	20602.55
857.996	20585.38
858.318	20370.02
858.64	20414.08
858.961	20468.09
859.283	20362.56
859.605	20220.41
859.926	20199.85
860.248	20191.71
860.57	20113.98
860.891	20057.48
861.212	19988.78
861.534	19953.98
861.855	19831.95
862.176	19873.31
862.498	19867.88
862.819	19927.32
863.14	19801.22
863.461	19793.76
863.782	19639.19
864.103	19651.16
864.424	19609.13
864.745	19697.26
865.065	19568.68
865.386	19409.14
865.707	19481.68
866.027	19405.97
866.348	19342.7
866.668	19277.16
866.989	19244.62
867.309	19197.39
867.63	19065.19
867.95	19237.62
868.27	19187.45
868.59	19108.35
868.91	19125.08
869.23	19129.37
869.55	19021.8
869.87	19050.5
870.19	19007.79
870.51	18970.5
870.83	19008.24
871.15	18807.34
871.469	18808.47
871.789	18902.94
872.109	18898.87
872.428	18744.75
872.748	18855.25
873.067	18661.81
873.386	18654.13
873.706	18687.35
874.025	18565.54
874.344	18665.65
874.663	18529.39
874.982	18600.12
875.301	18500.46
875.62	18382.27
875.939	18379.33
876.258	18430.18
876.577	18320.8
876.896	18268.15
877.214	18275.38
877.533	18276.51
877.852	18267.47
878.17	18217.76
878.489	18250.75
878.807	18226.12
879.125	18155.38
879.444	18171.43
879.762	18042.84
880.08	18069.51
880.398	17956.07
880.716	17994.03
881.034	17908.84
881.352	17820.48
881.67	17870.65
881.988	17829.97
882.306	17773.93
882.624	17794.26
882.941	17675.85
883.259	17620.26
883.577	17600.14
883.894	17587.49
884.212	17494.16
884.529	17508.4
884.846	17444.89
885.164	17406.03
885.481	17347.04
885.798	17370.77
886.115	17230.44
886.432	17298.91
886.75	17192.25
887.067	17250.78
887.383	17143.89
887.7	17140.5
888.017	16984.34
888.334	16997.67
888.651	16946.15
888.967	16942.76
889.284	16851.69
889.6	16780.28
889.917	16704.8
890.233	16717.46
890.55	16641.75
890.866	16624.13
891.182	16609.44
891.498	16531.7
891.815	16413.06
892.131	16321.99
892.447	16372.61
892.763	16207.19
893.079	16225.49
893.395	16183.01
893.71	16189.11
894.026	16192.72
894.342	16115.44
894.657	16050.58
894.973	15994.09
895.289	15966.97
895.604	15923.35
895.92	15716.8
896.235	15683.81
896.55	15658.05
896.865	15672.29
897.181	15526.53
897.496	15632.06
897.811	15500.09
898.126	15418.06
898.441	15474.78
898.756	15365.18
899.071	15335.8
899.386	15317.72
899.7	15172.86
900.015	15099.65
900.33	14986.65
900.644	15077.27
900.959	14947.78
901.273	14891.74
901.588	14954.11
901.902	14803.16
902.216	14754.8
902.531	14730.84
902.845	14621.01
903.159	14551.86
903.473	14534.01
903.787	14362.49
904.101	14391.64
904.415	14367.01
904.729	14248.37
905.042	14307.12
905.356	14186.9
905.67	14142.83
905.984	14117.75
906.297	14136.96
906.611	13992.33
906.924	13961.14
907.237	13853.12
907.551	13823.29
907.864	13909.85
908.177	13810.41
908.491	13709.85
908.804	13624.66
909.117	13543.3
909.43	13495.85
909.743	13397.32
910.056	13428.05
910.368	13367.26
910.681	13255.4
910.994	13277.77
911.307	13172.46
911.619	13082.98
911.932	13113.48
912.244	13005.24
912.557	12993.94
912.869	12947.16
913.181	12848.41
913.494	12858.57
913.806	12698.35
914.118	12758.24
914.43	12693.15
914.742	12681.18
915.054	12590.33
915.366	12574.74
915.678	12539.94
915.99	12460.39
916.302	12339.49
916.613	12228.99
916.925	12312.15
917.236	12215.2
917.548	12139.05
917.859	12126.62
918.171	12039.61
918.482	11963.46
918.794	11959.84
919.105	11909.9
919.416	11800.52
919.727	11816.34
920.038	11820.41
920.349	11659.28
920.66	11617.7
920.971	11635.33
921.282	11552.39
921.593	11485.96
921.903	11364.15
922.214	11371.16
922.525	11315.79
922.835	11272.85
923.146	11207.77
923.456	11221.1
923.767	11155.12
924.077	11072.86
924.387	11074.67
924.697	10955.12
925.008	10953.77
925.318	10932.52
925.628	10936.36
925.938	10850.49
926.248	10754.45
926.558	10672.19
926.867	10649.37
927.177	10604.4
927.487	10636.03
927.796	10497.73
928.106	10547.9
928.416	10494.57
928.725	10430.16
929.034	10312.65
929.344	10324.18
929.653	10318.53
929.962	10271.75
930.271	10180.9
930.581	10111.75
930.89	10134.35
931.199	10020.68
931.508	10065.2
931.817	10006.45
932.125	9983.4
932.434	9890.29
932.743	9850.52
933.051	9813.23
933.36	9711.76
933.669	9726.91
933.977	9649.62
934.286	9677.19
934.594	9633.12
934.902	9560.58
935.21	9479.23
935.519	9504.31
935.827	9433.35
936.135	9353.58
936.443	9230.2
936.751	9280.14
937.059	9295.73
937.367	9201.5
937.674	9248.73
937.982	9196.98
938.29	9130.76
938.597	9103.64
938.905	9014.83
939.213	8916.53
939.52	8904.33
939.827	8894.16
940.135	8887.61
940.442	8833.14
940.749	8897.1
941.056	8824.1
941.363	8699.36
941.67	8715.41
941.977	8658.91
942.284	8568.52
942.591	8641.96
942.898	8574.39
943.205	8447.62
943.511	8446.94
943.818	8461.85
944.125	8338.69
944.431	8405.13
944.738	8307.96
945.044	8212.14
945.35	8199.26
945.657	8150
945.963	8187.96
946.269	8126.04
946.575	8050.11
946.881	7995.43
947.187	8013.73
947.493	7995.2
947.799	7951.81
948.105	7861.64
948.41	7813.28
948.716	7826.16
949.022	7741.19
949.327	7768.31
949.633	7683.57
949.938	7643.12
950.244	7666.62
950.549	7614.87
950.854	7543.46
951.16	7582.55
951.465	7492.61
951.77	7471.15
952.075	7428.89
952.38	7435.21
952.685	7358.83
952.99	7288.1
953.294	7364.03
953.599	7278.61
953.904	7250.36
954.209	7196.58
954.513	7156.8
954.818	7134.66
955.122	7142.79
955.426	7065.28
955.731	6996.81
956.035	6961.1
956.339	6943.93
956.643	6908.9
956.948	6926.98
957.252	6833.87
957.556	6927.2
957.86	6811.28
958.163	6802.46
958.467	6777.83
958.771	6696.02
959.075	6726.31
959.378	6672.3
959.682	6613.99
959.985	6645.18
960.289	6578.74
960.592	6530.83
960.896	6546.2
961.199	6527.67
961.502	6448.8
961.805	6474.11
962.108	6397.05
962.411	6382.36
962.714	6317.73
963.017	6346.88
963.32	6289.48
963.623	6244.28
963.926	6232.08
964.228	6196.83
964.531	6147.34
964.833	6155.7
965.136	6054.91
965.438	6086.77
965.741	6053.56
966.043	6052.65
966.345	6020.11
966.648	6016.95
966.95	5984.18
967.252	5932.2
967.554	5887.91
967.856	5873.9
968.158	5855.59
968.46	5819.89
968.761	5802.04
969.063	5801.58
969.365	5743.73
969.666	5770.4
969.968	5679.78
970.269	5705.54
970.571	5669.16
970.872	5672.32
971.174	5598.88
971.475	5573.34
971.776	5553.91
972.077	5569.73
972.378	5508.26
972.679	5476.17
972.98	5447.02
973.281	5411.09
973.582	5450.18
973.883	5379.22
974.183	5338.55
974.484	5332.44
974.785	5268.49
975.085	5250.41
975.386	5225.33
975.686	5247.7
975.986	5245.44
976.287	5243.41
976.587	5154.14
976.887	5145.56
977.187	5101.94
977.487	5110.3
977.787	5088.38
978.087	5024.2
978.387	5024.2
978.687	5002.28
978.987	4976.75
979.286	4945.56
979.586	4998.67
979.885	4848.39
980.185	4818.33
980.484	4826.24
980.784	4858.56
981.083	4817.88
981.382	4773.82
981.682	4772.46
981.981	4752.57
982.28	4687.49
982.579	4706.02
982.878	4719.13
983.177	4614.27
983.475	4633.25
983.774	4583.09
984.073	4590.32
984.372	4564.78
984.67	4567.27
984.969	4542.18
985.267	4528.17
985.566	4531.56
985.864	4457.89
986.162	4472.81
986.461	4434.39
986.759	4427.84
987.057	4353.71
987.355	4382.19
987.653	4326.82
987.951	4299.7
988.249	4299.48
988.547	4278.23
988.844	4275.3
989.142	4245.02
989.44	4231.91
989.737	4183.1
990.035	4202.08
990.332	4137.9
990.63	4119.37
990.927	4104.23
991.224	4092.7
991.521	4074.4
991.819	4049.77
992.116	3995.98
992.413	4004.8
992.71	3983.55
993.006	3997.34
993.303	3956.89
993.6	3960.96
993.897	3902.2
994.193	3912.14
994.49	3888.64
994.787	3883.9
995.083	3828.08
995.379	3833.27
995.676	3816.33
995.972	3756.67
996.268	3756.89
996.565	3737.91
996.861	3704.46
997.157	3710.79
997.453	3660.85
997.749	3646.61
998.044	3643.22
998.34	3662.21
998.636	3608.2
998.932	3591.47
999.227	3547.41
999.523	3530.91
999.818	3529.1
1000.114	3487.07
1000.409	3485.49
1000.704	3434.64
1001	3473.06
1001.295	3411.37
1001.59	3428.77
1001.885	3419.05
1002.18	3377.02
1002.475	3364.13
1002.77	3331.59
1003.065	3324.59
1003.359	3281.65
1003.654	3268.77
1003.949	3222.44
1004.243	3241.2
1004.538	3219.73
1004.832	3205.49
1005.127	3203.69
1005.421	3156.91
1005.715	3123.69
1006.009	3200.07
1006.304	3097.02
1006.598	3074.65
1006.892	3091.37
1007.186	3051.83
1007.48	3031.49
1007.773	3021.09
1008.067	2989
1008.361	2981.55
1008.655	2934.77
1008.948	2949.23
1009.242	2938.16
1009.535	2914.43
1009.829	2906.97
1010.122	2848.89
1010.415	2839.85
1010.708	2852.28
1011.001	2849.12
1011.295	2811.15
1011.588	2808.67
1011.881	2744.04
1012.173	2787.88
1012.466	2750.37
1012.759	2752.85
1013.052	2695.45
1013.344	2672.85
1013.637	2658.62
1013.93	2644.38
1014.222	2638.5
1014.514	2618.84
1014.807	2627.66
1015.099	2572.29
1015.391	2579.97
1015.683	2561.9
1015.976	2540.65
1016.268	2515.57
1016.56	2501.56
1016.851	2480.09
1017.143	2499.07
1017.435	2441
1017.727	2471.28
1018.018	2436.02
1018.31	2417.04
1018.602	2396.25
1018.893	2382.92
1019.185	2363.71
1019.476	2346.53
1019.767	2325.29
1020.058	2301.79
1020.35	2299.76
1020.641	2250.04
1020.932	2250.94
1021.223	2233.77
1021.514	2248.91
1021.804	2207.1
1022.095	2188.35
1022.386	2194.9
1022.677	2146.77
1022.967	2130.04
1023.258	2118.97
1023.548	2108.8
1023.839	2123.04
1024.129	2113.32
1024.419	2077.16
1024.709	2075.13
1025	2083.26
1025.29	2012.53
1025.58	2023.15
1025.87	1991.06
1026.16	1955.58
1026.449	1989.26
1026.739	1979.99
1027.029	1964.62
1027.319	1951.06
1027.608	1956.26
1027.898	1934.34
1028.187	1885.3
1028.477	1889.15
1028.766	1840.33
1029.055	1844.85
1029.344	1833.33
1029.634	1840.11
1029.923	1809.37
1030.212	1796.04
1030.501	1775.7
1030.79	1746.55
1031.078	1753.78
1031.367	1748.13
1031.656	1739.77
1031.945	1745.19
1032.233	1720.79
1032.522	1705.87
1032.81	1695.48
1033.099	1666.33
1033.387	1658.87
1033.675	1625.2
1033.963	1617.51
1034.251	1636.27
1034.54	1620.23
1034.828	1608.93
1035.116	1553.56
1035.403	1588.59
1035.691	1599.44
1035.979	1571.41
1036.267	1559.21
1036.554	1550.62
1036.842	1503.17
1037.129	1497.07
1037.417	1500.45
1037.704	1493.45
1037.992	1475.37
1038.279	1494.35
1038.566	1430.85
1038.853	1430.85
1039.14	1430.85
