Data from 15-0543_FLMS001491_005.txt Node
Date: Thu Apr 19 15:41:57 BST 2018
User: hsy
Spectrometer: FLMS00149
Trigger mode: 0
Integration Time (sec): 1.000000E-2
Scans to average: 10
Electric dark correction enabled: true
Nonlinearity correction enabled: false
Boxcar width: 0
XAxis mode: Wavelengths
Number of Pixels in Spectrum: 2048
>>>>>Begin Spectral Data<<<<<
341.393	0.88
341.776	0.88
342.16	0.88
342.543	-41.38
342.927	-65.56
343.31	-60.37
343.693	-84.55
344.077	-58.78
344.46	-59.69
344.843	-54.04
345.226	-38.67
345.61	-29.41
345.993	-27.82
346.376	-7.49
346.759	13.98
347.142	28.67
347.525	40.42
347.908	32.51
348.291	72.06
348.674	105.05
349.057	128.1
349.44	144.83
349.823	148.44
350.206	159.52
350.588	223.92
350.971	248.1
351.354	274.99
351.737	259.63
352.119	278.38
352.502	283.13
352.884	324.93
353.267	335.33
353.65	323.58
354.032	354.54
354.414	334.65
354.797	356.35
355.179	372.17
355.562	364.03
355.944	369
356.326	389.34
356.709	378.49
357.091	383.92
357.473	388.21
357.855	385.27
358.238	385.72
358.62	401.77
359.002	403.8
359.384	381.43
359.766	403.58
360.148	393.86
360.53	393.41
360.912	391.6
361.294	383.69
361.676	383.46
362.057	381.43
362.439	381.88
362.821	379.17
363.203	371.94
363.584	382.11
363.966	384.37
364.348	388.44
364.729	378.49
365.111	362.67
365.493	361.32
365.874	385.05
366.256	376.23
366.637	380.75
367.019	376.69
367.4	365.84
367.781	371.94
368.163	396.12
368.544	383.01
368.925	381.43
369.306	397.25
369.688	357.02
370.069	371.26
370.45	370.13
370.831	366.29
371.212	376.46
371.593	375.78
371.974	395.44
372.355	384.14
372.736	374.65
373.117	387.53
373.498	405.16
373.879	373.97
374.26	360.19
374.641	389.34
375.021	416.46
375.402	405.84
375.783	411.49
376.163	413.97
376.544	409.23
376.925	397.93
377.305	402.9
377.686	392.73
378.066	412.62
378.447	409
378.827	397.48
379.208	427.98
379.588	402.22
379.968	406.74
380.349	421.66
380.729	418.27
381.109	431.15
381.489	432.05
381.87	424.82
382.25	411.71
382.63	425.72
383.01	418.72
383.39	444.03
383.77	402.45
384.15	440.86
384.53	455.1
384.91	443.8
385.29	453.52
385.67	442.45
386.049	455.55
386.429	429.79
386.809	457.81
387.189	475.44
387.568	474.31
387.948	488.77
388.328	459.62
388.707	462.56
389.087	461.88
389.466	483.35
389.846	480.19
390.225	492.16
390.605	492.39
390.984	493.29
391.363	479.51
391.743	496.68
392.122	495.78
392.501	501.43
392.881	506.17
393.26	521.54
393.639	520.86
394.018	535.32
394.397	530.81
394.776	544.14
395.155	538.49
395.534	529.9
395.913	530.58
396.292	539.62
396.671	537.13
397.05	549.34
397.429	554.08
397.808	554.08
398.186	564.25
398.565	553.4
398.944	547.08
399.323	588.2
399.701	554.76
400.08	564.48
400.458	570.8
400.837	572.61
401.215	583.69
401.594	565.61
401.972	600.41
402.351	598.37
402.729	576.68
403.107	589.79
403.486	599.05
403.864	609
404.242	621.2
404.62	624.59
404.999	621.2
405.377	619.16
405.755	637.47
406.133	649.9
406.511	644.25
406.889	631.37
407.267	651.71
407.645	671.37
408.023	673.63
408.401	689.22
408.779	684.7
409.156	672.5
409.534	704.59
409.912	691.48
410.29	729.44
410.667	735.32
411.045	719.5
411.422	730.35
411.8	717.24
412.178	739.84
412.555	754.3
412.933	736.68
413.31	755.43
413.687	769.22
414.065	766.51
414.442	803.11
414.819	799.05
415.197	792.72
415.574	759.95
415.951	831.81
416.328	801.76
416.705	824.58
417.082	831.59
417.46	834.75
417.837	844.47
418.214	840.4
418.591	837.24
418.967	854.86
419.344	848.09
419.721	857.58
420.098	852.15
420.475	857.58
420.852	890.57
421.228	891.02
421.605	876.78
421.982	886.95
422.358	877.01
422.735	924.24
423.111	924.92
423.488	928.53
423.864	940.96
424.241	936.9
424.617	969.21
424.994	934.86
425.37	973.51
425.746	954.75
426.123	969.66
426.499	983.45
426.875	993.39
427.251	1005.37
427.627	1035.2
428.003	1001.75
428.379	1034.75
428.756	1076.78
429.132	1046.95
429.507	1058.7
429.883	1067.97
430.259	1065.03
430.635	1124.24
431.011	1133.73
431.387	1131.47
431.763	1135.54
432.138	1127.85
432.514	1142.54
432.89	1164.91
433.265	1160.62
433.641	1177.57
434.016	1213.27
434.392	1206.04
434.767	1216.44
435.143	1234.29
435.518	1248.98
435.894	1258.24
436.269	1254.63
436.644	1288.75
437.02	1297.34
437.395	1298.24
437.77	1318.13
438.145	1357.22
438.52	1335.3
438.895	1359.26
439.271	1379.37
439.646	1360.61
440.021	1393.61
440.395	1361.97
440.77	1380.73
441.145	1420.73
441.52	1425.47
441.895	1413.27
442.27	1443.32
442.645	1436.77
443.019	1460.95
443.394	1448.97
443.769	1458.24
444.143	1467.05
444.518	1469.99
444.892	1474.51
445.267	1491.91
445.641	1486.03
446.016	1507.95
446.39	1525.36
446.764	1537.33
447.139	1518.35
447.513	1552.25
447.887	1578.91
448.262	1565.81
448.636	1580.04
449.01	1593.15
449.384	1593.83
449.758	1597.67
450.132	1633.15
450.506	1658.91
450.88	1661.62
451.254	1639.7
451.628	1698.46
452.002	1693.49
452.376	1727.38
452.75	1721.51
453.123	1747.04
453.497	1766.03
453.871	1766.7
454.244	1819.81
454.618	1817.55
454.992	1848.96
455.365	1867.27
455.739	1890.54
456.112	1896.19
456.486	1949.07
456.859	1948.85
457.232	1977.32
457.606	1999.69
457.979	2030.88
458.352	2027.04
458.725	2069.75
459.099	2100.71
459.472	2130.54
459.845	2151.78
460.218	2162.63
460.591	2209.86
460.964	2226.13
461.337	2244.88
461.71	2284.66
462.083	2312.45
462.456	2321.94
462.829	2315.62
463.201	2392.45
463.574	2378.44
463.947	2391.77
464.32	2445.11
464.692	2485.1
465.065	2507.7
465.438	2541.37
465.81	2561.03
466.183	2597.42
466.555	2606.23
466.928	2677.19
467.3	2667.02
467.672	2669.51
468.045	2748.37
468.417	2738.66
468.789	2761.48
469.161	2804.87
469.534	2835.83
469.906	2877.64
470.278	2926.22
470.65	2952.66
471.022	3024.07
471.394	3078.08
471.766	3072.21
472.138	3099.55
472.51	3157.85
472.882	3233.11
473.253	3264.97
473.625	3291.41
473.997	3352.43
474.369	3411.41
474.74	3432.2
475.112	3473.1
475.484	3557.62
475.855	3626.77
476.227	3653.66
476.598	3816.82
476.97	3812.75
477.341	3851.85
477.713	3944.95
478.084	3972.07
478.455	4074.89
478.827	4113.31
479.198	4211.16
479.569	4262.23
479.94	4376.35
480.311	4397.82
480.682	4544.49
481.053	4612.51
481.424	4667.65
481.795	4763.69
482.166	4846.17
482.537	4950.12
482.908	5067.41
483.279	5112.83
483.65	5254.97
484.021	5333.62
484.391	5439.38
484.762	5474.63
485.133	5601.18
485.503	5706.04
485.874	5786.94
486.244	5949.65
486.615	6035.07
486.985	6158
487.356	6322.29
487.726	6352.8
488.097	6569.52
488.467	6622.4
488.837	6804.76
489.207	6938.09
489.578	7024.19
489.948	7181.48
490.318	7340.57
490.688	7453.11
491.058	7654.23
491.428	7815.13
491.798	7883.61
492.168	8132.41
492.538	8269.13
492.908	8371.05
493.278	8546.87
493.648	8674.32
494.017	8912.96
494.387	9075.21
494.757	9262.78
495.126	9446.73
495.496	9543.22
495.866	9707.51
496.235	9935.53
496.605	10102.98
496.974	10286.48
497.344	10514.05
497.713	10668.84
498.082	10859.35
498.452	11036.97
498.821	11221.15
499.19	11423.17
499.559	11630.63
499.928	11845.99
500.298	12059.09
500.667	12330.49
501.036	12391.51
501.405	12633.09
501.774	12870.14
502.143	13085.05
502.512	13307.87
502.88	13612.95
503.249	13701.53
503.618	13952.15
503.987	14128.64
504.356	14396.43
504.724	14724.1
505.093	14778.11
505.462	15022.63
505.83	15200.7
506.199	15576.06
506.567	15891.31
506.936	16015.6
507.304	16352.08
507.672	16561.34
508.041	16702.81
508.409	17095.34
508.777	17224.83
509.145	17514.77
509.514	17631.82
509.882	17951.82
510.25	18116.56
510.618	18396.55
510.986	18552.7
511.354	18839.02
511.722	19039.47
512.09	19297.77
512.458	19429.97
512.826	19769.62
513.193	19911.09
513.561	20129.61
513.929	20234.02
514.297	20623.16
514.664	20706.09
515.032	20938.4
515.4	21108.8
515.767	21353.53
516.135	21600.31
516.502	21599.86
516.869	22027.64
517.237	22177.47
517.604	22132.5
517.972	22558.02
518.339	22589.21
518.706	22961.85
519.073	22986.94
519.44	23193.94
519.808	23625.57
520.175	23498.11
520.542	23880.02
520.909	24037.31
521.276	24265.32
521.643	24459.22
522.009	24616.73
522.376	24934.91
522.743	24974.68
523.11	25387.33
523.477	25629.58
523.843	25710.93
524.21	26137.59
524.577	26290.35
524.943	26417.81
525.31	26511.14
525.676	26948.42
526.043	27112.03
526.409	27269.54
526.776	27462.53
527.142	27585.91
527.508	27878.33
527.874	28088.72
528.241	28199.68
528.607	28257.08
528.973	28659.33
529.339	28682.16
529.705	28998.53
530.071	29139.77
530.437	29250.28
530.803	29550.83
531.169	29675.8
531.535	29762.58
531.901	29975.91
532.267	29979.97
532.632	30200.53
532.998	30322.11
533.364	30406.86
533.73	30573.41
534.095	30957.12
534.461	30762.78
534.826	30928.42
535.192	31148.08
535.557	31316.89
535.923	31238.47
536.288	31432.14
536.653	31605.24
537.019	31458.58
537.384	31593.27
537.749	31662.42
538.114	31851.11
538.479	31851.56
538.845	31864.67
539.21	31918.91
539.575	32061.5
539.94	32023.99
540.305	32261.95
540.67	32214.94
541.034	32284.55
541.399	32339.01
541.764	32445.9
542.129	32510.53
542.494	32583.97
542.858	32659.45
543.223	32634.59
543.587	32850.86
543.952	32788.04
544.316	32881.37
544.681	32792.1
545.045	33003.17
545.41	33152.55
545.774	33105.99
546.138	33137.18
546.503	33219.44
546.867	33279.1
547.231	33368.81
547.595	33504.63
547.959	33415.14
548.324	33390.05
548.688	33463.95
549.052	33496.04
549.416	33546.66
549.779	33663.95
550.143	33738.97
550.507	33882.24
550.871	33843.15
551.235	33860.78
551.599	34064.61
551.962	33985.97
552.326	34077.49
552.689	34299.86
553.053	34077.95
553.417	34076.59
553.78	34462.79
554.143	34431.61
554.507	34476.13
554.87	34592.28
555.234	34874.08
555.597	34771.71
555.96	34706.63
556.323	34917.7
556.686	34935.32
557.05	35052.38
557.413	35093.74
557.776	35174.19
558.139	35382.09
558.502	35287.63
558.865	35341.42
559.228	35751.8
559.59	35660.95
559.953	35554.52
560.316	36159.47
560.679	35897.78
561.041	36036.99
561.404	36260.04
561.767	36453.7
562.129	36269.75
562.492	36651.44
562.854	36473.14
563.217	36554.72
563.579	36747.71
563.941	36877.42
564.304	37056.17
564.666	37206
565.028	37280.57
565.39	37227.92
565.753	37392.89
566.115	37500.45
566.477	37811.18
566.839	37823.84
567.201	38081
567.563	38044.4
567.925	38234.45
568.287	38227.89
568.648	38229.25
569.01	38477.15
569.372	38800.76
569.734	38802.79
570.095	38994.88
570.457	39091.15
570.819	39103.8
571.18	39035.78
571.542	39437.8
571.903	39438.48
572.265	39584.47
572.626	39770
572.987	39778.13
573.349	39953.5
573.71	40095.64
574.071	40110.56
574.432	40238.01
574.794	40606.36
575.155	40456.31
575.516	40499.02
575.877	40731.1
576.238	40760.26
576.599	40915.28
576.96	41002.96
577.32	40967.03
577.681	41190.08
578.042	41387.36
578.403	41384.19
578.763	41442.27
579.124	41422.16
579.485	41764.07
579.845	41896.27
580.206	41829.15
580.566	41854.92
580.927	41870.06
581.287	41991.18
581.648	42003.84
582.008	42232.99
582.368	42278.18
582.728	42329.48
583.089	42264.85
583.449	42318.86
583.809	42386.88
584.169	42641.56
584.529	42488.57
584.889	42916.81
585.249	42793.42
585.609	42533.77
585.969	42853.53
586.329	42851.95
586.688	42976.24
587.048	42996.13
587.408	43062.79
587.768	43060.99
588.127	43163.58
588.487	43184.6
588.846	43469.79
589.206	43184.37
589.565	43329
589.925	43650.12
590.284	43492.39
590.643	43661.65
591.003	43625.94
591.362	43951.13
591.721	43944.35
592.08	43860.97
592.44	44030.45
592.799	43971.24
593.158	44083.56
593.517	44011.7
593.876	44246.27
594.235	44270.45
594.593	44402.65
594.952	44421.4
595.311	44481.06
595.67	44391.12
596.029	44754.95
596.387	44794.27
596.746	45004.44
597.104	44711.34
597.463	44899.13
597.822	44983.87
598.18	44956.53
598.538	44883.09
598.897	45287.37
599.255	44907.49
599.613	45623.18
599.972	45315.16
600.33	45444.65
600.688	45367.37
601.046	45486.23
601.404	45805.32
601.762	45747.92
602.12	45865.88
602.478	45888.71
602.836	46045.31
603.194	45715.15
603.552	46158.76
603.91	46056.39
604.268	46118.31
604.625	46077.63
604.983	46419.99
605.341	46224.97
605.698	46568.24
606.056	46848.01
606.413	46551.52
606.771	46773.43
607.128	46825.41
607.485	46798.29
607.843	46792.41
608.2	47019.75
608.557	47119.41
608.914	47073.54
609.272	47283.02
609.629	47492.28
609.986	47571.38
610.343	47278.73
610.7	47707.42
611.057	47586.97
611.414	47553.98
611.771	47741.09
612.127	47950.12
612.484	47774.08
612.841	47956.22
613.198	47882.78
613.554	47931.82
613.911	48296.33
614.267	48227.4
614.624	48117.8
614.98	48412.48
615.337	48546.72
615.693	48676.88
616.05	48542.2
616.406	48730.44
616.762	48655.64
617.118	48774.28
617.475	48614.51
617.831	48783.32
618.187	48879.14
618.543	48976.54
618.899	49110.54
619.255	49001.85
619.611	49040.94
619.967	49227.6
620.323	49324.1
620.678	49250.88
621.034	49031.22
621.39	49107.61
621.746	49199.13
622.101	49585.11
622.457	49285.46
622.812	49616.07
623.168	49484.32
623.523	49502.62
623.879	49623.75
624.234	49371.33
624.589	49447.94
624.945	49539.01
625.3	49665.11
625.655	49501.5
626.01	49605.67
626.365	49611.1
626.72	49631.44
627.075	49576.52
627.43	49516.41
627.785	49577.65
628.14	49626.92
628.495	49629.4
628.85	49612.68
629.205	49561.83
629.559	49543.53
629.914	49438.67
630.269	49525.45
630.623	49367.71
630.978	49354.83
631.332	49597.76
631.687	49540.14
632.041	49511.21
632.396	49385.57
632.75	49352.35
633.104	49513.47
633.459	49240.26
633.813	49314.38
634.167	49293.14
634.521	49111.9
634.875	49212.69
635.229	49141.28
635.583	49049.3
635.937	49009.3
636.291	48975.63
636.645	48871
636.999	48714.85
637.352	48766.37
637.706	48626.26
638.06	48847.05
638.413	48733.83
638.767	48589.43
639.121	48659.26
639.474	48511.24
639.828	48449.09
640.181	48414.52
640.534	48606.6
640.888	48351.47
641.241	48265.82
641.594	48255.65
641.947	48361.64
642.301	48228.08
642.654	48302.2
643.007	48169.33
643.36	48239.16
643.713	48231.7
644.066	48341.75
644.419	48102.66
644.771	47602.79
645.124	47293.42
645.477	47231.27
645.83	47154.89
646.182	47215.23
646.535	47101.56
646.888	47311.72
647.24	47195.57
647.593	47374.55
647.945	47134.1
648.298	46988.34
648.65	46867.67
649.002	46649.37
649.355	46620.21
649.707	46457.51
650.059	46530.73
650.411	47079.64
650.763	47268.79
651.115	47801.2
651.467	47614.31
651.819	47807.08
652.171	47601.66
652.523	47494.77
652.875	47578.83
653.227	47471.49
653.578	47778.83
653.93	47544.71
654.282	47471.49
654.633	47348.56
654.985	47506.07
655.337	47598.04
655.688	47387.88
656.039	47464.49
656.391	47125.96
656.742	47409.35
657.094	47436.01
657.445	47462.68
657.796	47388.1
658.147	47507.88
658.498	47509.46
658.849	47576.8
659.2	47524.82
659.551	47418.16
659.902	47631.71
660.253	47496.58
660.604	47561.89
660.955	47407.31
661.306	47669.23
661.656	47481.66
662.007	47526.18
662.358	47566.4
662.708	47630.36
663.059	47572.73
663.409	47482.34
663.76	47595.33
664.11	47606.86
664.461	47712.16
664.811	47668.55
665.161	47652.73
665.511	47519.85
665.862	47613.86
666.212	47677.36
666.562	47730.24
666.912	47759.17
667.262	47543.35
667.612	47504.26
667.962	47632.17
668.312	47490.02
668.662	47600.53
669.011	47720.07
669.361	47607.76
669.711	47691.6
670.06	47506.07
670.41	47408.67
670.76	47603.92
671.109	47634.65
671.459	47480.31
671.808	47518.72
672.157	47600.08
672.507	47348.56
672.856	47271.05
673.205	47309.91
673.554	47442.57
673.904	47183.36
674.253	47591.04
674.602	47249.8
674.951	46752.19
675.3	46550.39
675.649	47314.21
675.998	47242.8
676.346	47320.99
676.695	47264.27
677.044	47013.88
677.393	47182.91
677.741	47186.53
678.09	47040.09
678.438	46922.81
678.787	47062.69
679.135	46994.44
679.484	46749.93
679.832	46984.5
680.181	46675.35
680.529	46783.6
680.877	46514.23
681.225	46578.41
681.573	46847.78
681.922	46609.59
682.27	46400.56
682.618	46420.67
682.966	46237.4
683.314	46411.86
683.661	46227.46
684.009	46033.79
684.357	46007.35
684.705	45902.49
685.053	45885.32
685.4	45818.2
685.748	45702.5
686.095	45638.55
686.443	45399.23
686.79	45352.23
687.138	45554.03
687.485	45398.33
687.832	45224.77
688.18	45191.1
688.527	44974.61
688.874	44888.73
689.221	44921.05
689.568	44718.12
689.915	44591.79
690.262	44657.1
690.609	44509.08
690.956	44329.88
691.303	44349.54
691.65	43992.49
691.997	44055.08
692.344	43901.87
692.69	43590.69
693.037	43738.03
693.383	43449.22
693.73	43414.65
694.077	43117.71
694.423	43162.9
694.769	42978.5
695.116	43031.83
695.462	42732.63
695.808	42504.39
696.155	42548.91
696.501	42177.85
696.847	42323.83
697.193	41821.7
697.539	42058.75
697.885	41686.79
698.231	41561.82
698.577	41532.89
698.923	41478.2
699.269	41043.19
699.614	41104.2
699.96	40898.33
700.306	40691.11
700.651	40637.55
700.997	40625.8
701.342	40427.38
701.688	40176.99
702.033	40120.95
702.379	40050.22
702.724	39875.31
703.069	40027.62
703.415	39321.65
703.76	39447.07
704.105	39406.85
704.45	39208.43
704.795	39150.81
705.14	38941.77
705.485	39008.21
705.83	38602.12
706.175	38710.37
706.52	38444.61
706.865	38402.13
707.209	38303.6
707.554	38272.19
707.899	38176.37
708.243	38017.05
708.588	37936.83
708.932	37647.8
709.277	37700
709.621	37643.05
709.966	37573.22
710.31	37426.33
710.654	37155.15
710.998	37185.66
711.342	37335.94
711.687	37072.44
712.031	36918.32
712.375	36780.93
712.719	36834.03
713.063	36864.77
713.407	36832.68
713.75	36707.48
714.094	36610.76
714.438	36409.86
714.782	36576.41
715.125	36253.93
715.469	36550.88
715.812	36063.43
716.156	36089.19
716.499	36298.68
716.843	36225.01
717.186	35996.09
717.53	36222.07
717.873	36111.11
718.216	36085.35
718.559	35936.2
718.902	35775.98
719.246	35655.31
719.589	35499.15
719.932	35531.92
720.275	35501.41
720.617	35675.87
720.96	35478.36
721.303	35607.85
721.646	35445.14
721.989	35250.12
722.331	35483.56
722.674	35326.05
723.016	35325.82
723.359	35191.14
723.701	35293.51
724.044	35168.99
724.386	35073.85
724.729	35127.41
725.071	35166.96
725.413	35182.1
725.755	35050.8
726.097	35039.05
726.439	34992.5
726.782	34940.52
727.124	35062.78
727.465	34958.37
727.807	34833.86
728.149	34967.41
728.491	34809.45
728.833	34981.65
729.175	34874.99
729.516	34825.04
729.858	34893.74
730.199	34967.64
730.541	34877.25
730.882	34825.95
731.224	34839.96
731.565	34712.96
731.906	34907.98
732.248	34940.52
732.589	34782.79
732.93	34802.22
733.271	34797.7
733.612	34848.1
733.953	34908.88
734.294	34894.2
734.635	34871.82
734.976	35096.45
735.317	34853.97
735.658	34785.27
735.999	34817.59
736.339	34820.53
736.68	34950.01
737.021	34911.6
737.361	34878.6
737.702	35261.19
738.042	35189.1
738.383	35078.15
738.723	35265.49
739.063	35008.32
739.404	35280.85
739.744	35320.17
740.084	35063
740.424	35362.88
740.764	35372.83
741.104	35543.44
741.444	35411.24
741.784	35356.33
742.124	35551.58
742.464	35583.44
742.804	35549.09
743.143	35655.08
743.483	35750.22
743.823	35636.32
744.162	35785.25
744.502	36062.98
744.841	35943.43
745.181	36126.93
745.52	36039.93
745.86	36265.23
746.199	36363.76
746.538	36467.04
746.877	36655.73
747.216	36562.85
747.556	36744.09
747.895	36832.45
748.234	36766.91
748.573	36969.62
748.911	37049.62
749.25	37232.44
749.589	37063.63
749.928	37278.77
750.267	37583.62
750.605	37644.86
750.944	37718.98
751.283	37713.1
751.621	38038.52
751.96	37995.58
752.298	38202.81
752.636	38320.55
752.975	38363.93
753.313	38364.84
753.651	38779.74
753.989	38642.8
754.327	38909.01
754.666	38809.35
755.004	39085.72
755.342	39235.32
755.679	39458.37
756.017	39261.54
756.355	39716.44
756.693	39617.69
757.031	39913.27
757.368	39770.9
757.706	39967.51
758.044	40078.24
758.381	40300.16
758.719	40210.44
759.056	40414.5
759.394	40499.02
759.731	40285.01
760.068	40485.46
760.405	40663.99
760.743	40674.16
761.08	40704.21
761.417	40634.61
761.754	40904.43
762.091	40878.44
762.428	40741.73
762.765	40904.88
763.102	41084.77
763.438	40952.34
763.775	40893.36
764.112	41070.53
764.449	41037.31
764.785	40985.56
765.122	40918.9
765.458	40972.68
765.795	40973.13
766.131	41000.48
766.467	41082.96
766.804	40833.02
767.14	40906.69
767.476	40870.99
767.812	40891.78
768.148	40950.53
768.485	40913.02
768.821	40766.13
769.157	40759.13
769.492	40917.77
769.828	40714.61
770.164	40541.96
770.5	40360.04
770.836	40535.18
771.171	40451.79
771.507	40305.8
771.842	40173.6
772.178	40283.88
772.513	40228.97
772.849	40060.16
773.184	40034.63
773.519	39987.62
773.855	39868.98
774.19	39783.11
774.525	39700.17
774.86	39652.94
775.195	39679.61
775.53	39448.2
775.865	39331.59
776.2	39234.87
776.535	39045.72
776.87	39068.77
777.205	38916.24
777.539	38801.21
777.874	38827.2
778.209	38654.1
778.543	38668.33
778.878	38558.73
779.212	38396.48
779.547	38120.55
779.881	38226.99
780.215	37959.88
780.55	38108.8
780.884	37731.18
781.218	37804.85
781.552	37789.26
781.886	37684.18
782.22	37414.81
782.554	37253.46
782.888	37126.23
783.222	37035.16
783.556	36834.48
783.889	36778.67
784.223	36437.88
784.557	36582.29
784.89	36581.83
785.224	36283.76
785.557	36171.9
785.891	36184.11
786.224	36045.8
786.558	36146.14
786.891	35778.24
787.224	35680.16
787.557	35524.69
787.891	35483.11
788.224	35282.89
788.557	35333.51
788.89	35212.38
789.223	35149.56
789.556	34920.86
789.888	34766.06
790.221	34757.93
790.554	34571.49
790.887	34472.51
791.219	34428.22
791.552	34234.55
791.884	34215.8
792.217	34096.25
792.549	34087.89
792.882	33746.66
793.214	33702.36
793.546	33788.91
793.879	33647.67
794.211	33325.42
794.543	33303.73
794.875	33260.34
795.207	33410.84
795.539	33149.16
795.871	33208.82
796.203	32909.61
796.535	32726.57
796.867	32628.04
797.198	32554.14
797.53	32457.88
797.862	32439.57
798.193	32363.41
798.525	32188.05
798.856	32285.22
799.188	31913.48
799.519	31779.48
799.85	31633.04
800.182	31658.12
800.513	31867.16
800.844	31422.42
801.175	31556.88
801.506	31485.47
801.837	31239.83
802.168	31284.35
802.499	31236.44
802.83	31090
803.161	30858.6
803.491	30759.61
803.822	30890.68
804.153	30645.27
804.483	30546.51
804.814	30428.1
805.145	30558.49
805.475	30428.78
805.805	30214.09
806.136	30269.46
806.466	30204.83
806.796	30185.17
807.126	29979.97
807.457	30036.47
807.787	29982.69
808.117	29745.4
808.447	29664.5
808.777	29803.93
809.107	29467.9
809.436	29368.92
809.766	29495.02
810.096	29438.29
810.426	29159.21
810.755	29316.49
811.085	29112.2
811.414	29206.21
811.744	29011.64
812.073	29069.94
812.403	28813.9
812.732	28787.92
813.061	29022.94
813.39	28633.8
813.719	28589.95
814.049	28817.97
814.378	28665.88
814.707	28401.94
815.036	28483.52
815.365	28297.76
815.693	28198.78
816.022	28201.72
816.351	28103.87
816.68	27925.79
817.008	28021.83
817.337	27856.41
817.665	27998.11
817.994	27886.92
818.322	27929.63
818.651	27831.33
818.979	27626.82
819.307	27669.75
819.636	27633.82
819.964	27533.94
820.292	27679.47
820.62	27502.07
820.948	27566.93
821.276	27660.71
821.604	27519.93
821.932	27706.59
822.259	27552.92
822.587	27551.34
822.915	27517.44
823.243	27594.27
823.57	27386.14
823.898	27695.74
824.225	27573.26
824.553	27453.71
824.88	27584.11
825.207	27641.28
825.535	27453.94
825.862	27689.41
826.189	27622.75
826.516	27678.11
826.843	27785.23
827.17	27746.13
827.497	27691
827.824	27681.05
828.151	27780.71
828.478	27671.56
828.805	27769.19
829.131	27805.12
829.458	27674.27
829.785	27495.75
830.111	27624.56
830.438	27782.29
830.764	27589.75
831.09	27693.25
831.417	27575.29
831.743	27696.87
832.069	27559.25
832.395	27479.48
832.722	27659.36
833.048	27561.51
833.374	27499.14
833.7	27468.4
834.026	27606.7
834.351	27552.02
834.677	27654.84
835.003	27630.43
835.329	27487.16
835.654	27451.68
835.98	27237
836.306	27441.28
836.631	27281.74
836.956	27483.77
837.282	27326.71
837.607	27368.97
837.932	27156.55
838.258	27261.85
838.583	27155.19
838.908	27070.22
839.233	27107.96
839.558	27014.63
839.883	27011.92
840.208	26863.22
840.533	27001.3
840.858	26900.96
841.182	26869.1
841.507	26808.53
841.832	26757.23
842.156	26655.09
842.481	26625.71
842.805	26561.53
843.13	26485.15
843.454	26519.95
843.778	26392.27
844.103	26350.24
844.427	26435.43
844.751	26350.69
845.075	26233.18
845.399	26246.51
845.723	26140.08
846.047	26159.51
846.371	26020.53
846.695	25834.09
847.019	25740.99
847.343	25538.28
847.666	25476.82
847.99	25351.17
848.313	25285.41
848.637	25148.69
848.96	25189.14
849.284	25182.59
849.607	25013.1
849.931	24972.2
850.254	24727.23
850.577	24567.69
850.9	24393.91
851.223	24460.35
851.546	24305.1
851.869	24279.79
852.192	24343.06
852.515	23993.24
852.838	23981.04
853.161	24008.61
853.483	23752.79
853.806	23748.27
854.129	23688.61
854.451	23641.61
854.774	23509.86
855.096	23463.31
855.419	23355.29
855.741	23326.14
856.063	23154.17
856.385	23183.09
856.708	23162.07
857.03	22872.36
857.352	23022.64
857.674	22944
857.996	22783.1
858.318	22656.1
858.64	22790.56
858.961	22605.93
859.283	22462.21
859.605	22398.7
859.926	22493.17
860.248	22404.58
860.57	22329.55
860.891	22284.36
861.212	22122.55
861.534	22205.72
861.855	21980.86
862.176	22121.88
862.498	22045.95
862.819	22109.22
863.14	21853.18
863.461	21833.75
863.782	21859.51
864.103	21824.03
864.424	21704.03
864.745	21707.88
865.065	21710.59
865.386	21633.53
865.707	21724.6
866.027	21556.69
866.348	21544.04
866.668	21535
866.989	21483.7
867.309	21278.06
867.63	21358.28
867.95	21353.76
868.27	21234.89
868.59	21388.11
868.91	21221.56
869.23	21159.64
869.55	21107.21
869.87	21152.18
870.19	21157.83
870.51	21049.36
870.83	20997.39
871.15	21048.01
871.469	20924.39
871.789	21048.91
872.109	20957.84
872.428	20878.29
872.748	20970.95
873.067	20737.96
873.386	20789.71
873.706	20670.16
874.025	20561.69
874.344	20689.6
874.663	20758.52
874.982	20592.42
875.301	20555.82
875.62	20426.33
875.939	20440.56
876.258	20442.37
876.577	20402.6
876.896	20322.15
877.214	20280.34
877.533	20237.41
877.852	20302.71
878.17	20265.88
878.489	20230.4
878.807	20132.1
879.125	20057.75
879.444	20106.34
879.762	20045.09
880.08	20027.92
880.398	19869.96
880.716	19950.63
881.034	19945.44
881.352	19909.5
881.67	19796.51
881.988	19750.64
882.306	19624.54
882.624	19829.28
882.941	19593.81
883.259	19538.67
883.577	19571.43
883.894	19533.24
884.212	19518.1
884.529	19447.6
884.846	19336.64
885.164	19269.3
885.481	19265.91
885.798	19220.71
886.115	19107.27
886.432	19186.36
886.75	19150.65
887.067	19163.99
887.383	18980.49
887.7	19065.91
888.017	18860.94
888.334	18869.08
888.651	18769.42
888.967	18764.45
889.284	18701.4
889.6	18684.68
889.917	18598.58
890.233	18701.63
890.55	18441.52
890.866	18441.29
891.182	18461.86
891.498	18460.28
891.815	18218.48
892.131	18161.75
892.447	18261.86
892.763	18143.68
893.079	18039.72
893.395	18005.6
893.71	18016.9
894.026	17938.94
894.342	17926.28
894.657	17798.83
894.973	17738.26
895.289	17698.04
895.604	17583.92
895.92	17590.47
896.235	17594.31
896.55	17553.86
896.865	17538.72
897.181	17366.75
897.496	17346.63
897.811	17253.08
898.126	17172.85
898.441	17122.69
898.756	17143.25
899.071	17046.53
899.386	17046.98
899.7	16925.63
900.015	16832.3
900.33	16696.71
900.644	16624.17
900.959	16711.17
901.273	16593.89
901.588	16545.07
901.902	16500.55
902.216	16392.99
902.531	16444.29
902.845	16319.32
903.159	16129.72
903.473	16257.17
903.787	16121.58
904.101	16004.07
904.415	16038.87
904.729	15832.55
905.042	15870.06
905.356	15817.41
905.67	15782.38
905.984	15701.25
906.297	15658.32
906.611	15499.23
906.924	15640.46
907.237	15486.34
907.551	15489.96
907.864	15347.59
908.177	15394.82
908.491	15287.48
908.804	15195.28
909.117	15113.25
909.43	15010.42
909.743	14919.13
910.056	14946.92
910.368	14868.06
910.681	14875.06
910.994	14783.99
911.307	14643.43
911.619	14565.01
911.932	14684.33
912.244	14457.22
912.557	14423.77
912.869	14315.53
913.181	14412.93
913.494	14320.5
913.806	14229.65
914.118	14159.6
914.43	14090.45
914.742	14055.42
915.054	13948.53
915.366	13945.14
915.678	13813.62
915.99	13800.96
916.302	13755.32
916.613	13742.21
916.925	13669.89
917.236	13593.96
917.548	13561.2
917.859	13451.37
918.171	13423.12
918.482	13290.7
918.794	13243.01
919.105	13246.86
919.416	13135.9
919.727	13120.76
920.038	13134.32
920.349	12949.69
920.66	12970.25
920.971	12864.72
921.282	12888.9
921.593	12818.62
921.903	12713.99
922.214	12717.38
922.525	12605.97
922.835	12570.94
923.146	12506.99
923.456	12455.92
923.767	12405.3
924.077	12422.47
924.387	12321
924.697	12257.73
925.008	12175.7
925.318	12145.19
925.628	12186.54
925.938	12041.46
926.248	11935.48
926.558	11873.56
926.867	11891.41
927.177	11837.63
927.487	11735.03
927.796	11690.51
928.106	11731.64
928.416	11671.08
928.725	11531.87
929.034	11526.9
929.344	11473.57
929.653	11513.79
929.962	11441.48
930.271	11267.7
930.581	11311.31
930.89	11279.45
931.199	11110.64
931.508	11128.72
931.817	11139.34
932.125	11066.12
932.434	10982.73
932.743	10862.29
933.051	10891.66
933.36	10853.47
933.669	10692.8
933.977	10682.63
934.286	10686.24
934.594	10697.09
934.902	10578.68
935.21	10509.98
935.519	10490.77
935.827	10483.09
936.135	10425.69
936.443	10316.76
936.751	10334.84
937.059	10311.11
937.367	10160.83
937.674	10224.34
937.982	10133.49
938.29	10159.48
938.597	10073.61
938.905	9987.05
939.213	9985.92
939.52	9946.15
939.827	9945.7
940.135	9840.84
940.442	9834.52
940.749	9723.11
941.056	9760.85
941.363	9613.28
941.67	9614.41
941.977	9567.86
942.284	9554.97
942.591	9508.87
942.898	9482.21
943.205	9406.5
943.511	9392.49
943.818	9361.08
944.125	9264.59
944.431	9266.62
944.738	9209
945.044	9148.88
945.35	9134.19
945.657	9081.99
945.963	9109.56
946.269	8962.67
946.575	8956.57
946.881	9000.19
947.187	8887.2
947.493	8945.27
947.799	8805.84
948.105	8791.15
948.41	8756.35
948.716	8773.75
949.022	8762
949.327	8709.35
949.633	8568.33
949.938	8522.23
950.244	8514.55
950.549	8446.98
950.854	8354.78
951.16	8419.19
951.465	8339.64
951.77	8326.76
952.075	8337.15
952.38	8299.64
952.685	8248.12
952.99	8204.5
953.294	8089.25
953.599	8076.37
953.904	8060.1
954.209	7940.78
954.513	8047.44
954.818	7958.18
955.122	7961.57
955.426	7906.88
955.731	7876.83
956.035	7769.94
956.339	7751.63
956.643	7730.39
956.948	7671.41
957.252	7672.09
957.556	7693.78
957.86	7630.28
958.163	7616.04
958.467	7511.86
958.771	7517.51
959.075	7556.38
959.378	7411.98
959.682	7414.47
959.985	7357.07
960.289	7330.63
960.592	7272.55
960.896	7216.05
961.199	7284.98
961.502	7245.88
961.805	7174.7
962.108	7113.23
962.411	7105.55
962.714	7044.98
963.017	7066.45
963.32	7010.63
963.623	6958.66
963.926	6931.54
964.228	6925.21
964.531	6911.65
964.833	6862.84
965.136	6803.86
965.438	6771.32
965.741	6692
966.043	6710.53
966.345	6718.21
966.648	6682.96
966.95	6637.31
967.252	6561.38
967.554	6582.62
967.856	6573.58
968.158	6498.56
968.46	6428.73
968.761	6463.3
969.063	6462.17
969.365	6387.83
969.666	6303.53
969.968	6329.07
970.269	6315.96
970.571	6249.75
970.872	6239.58
971.174	6208.85
971.475	6261.28
971.776	6201.84
972.077	6129.53
972.378	6119.81
972.679	6106.93
972.98	6067.61
973.281	6060.6
973.582	6012.7
973.883	5938.57
974.183	5939.48
974.484	5920.95
974.785	5858.57
975.085	5909.42
975.386	5820.61
975.686	5806.37
975.986	5762.53
976.287	5750.33
976.587	5698.35
976.887	5672.36
977.187	5679.14
977.487	5675.53
977.787	5611.35
978.087	5579.03
978.387	5556.44
978.687	5555.98
978.987	5490.67
979.286	5487.96
979.586	5424.24
979.885	5442.31
980.185	5428.98
980.484	5365.71
980.784	5386.72
981.083	5320.28
981.382	5315.31
981.682	5275.77
981.981	5271.92
982.28	5214.75
982.579	5160.29
982.878	5188.08
983.177	5180.17
983.475	5161.42
983.774	5127.97
984.073	5116.22
984.372	5088.43
984.67	5069.67
984.969	5086.39
985.267	4983.34
985.566	4937.24
985.864	4958.94
986.162	4962.55
986.461	4938.37
986.759	4890.69
987.057	4813.86
987.355	4853.86
987.653	4802.56
987.951	4800.75
988.249	4777.25
988.547	4739.51
988.844	4676.01
989.142	4644.82
989.44	4690.47
989.737	4645.73
990.035	4613.18
990.332	4631.04
990.63	4657.93
990.927	4565.28
991.224	4572.73
991.521	4529.34
991.819	4475.33
992.116	4462.45
992.413	4438.5
992.71	4386.52
993.006	4388.56
993.303	4415.45
993.6	4365.73
993.897	4375.68
994.193	4315.56
994.49	4298.84
994.787	4250.26
995.083	4251.61
995.379	4273.08
995.676	4200.31
995.972	4233.98
996.268	4189.47
996.565	4162.8
996.861	4153.08
997.157	4099.52
997.453	4096.36
997.749	4058.4
998.044	4022.92
998.34	3998.74
998.636	4000.54
998.932	4003.26
999.227	3934.78
999.523	3944.73
999.818	3963.94
1000.114	3887.55
1000.409	3877.38
1000.704	3838.74
1001	3811.62
1001.295	3768.01
1001.59	3811.4
1001.885	3764.17
1002.18	3717.39
1002.475	3709.48
1002.77	3719.42
1003.065	3695.02
1003.359	3671.06
1003.654	3629.03
1003.949	3594.68
1004.243	3580.89
1004.538	3545.19
1004.832	3554.45
1005.127	3539.54
1005.421	3504.06
1005.715	3477.39
1006.009	3473.33
1006.304	3425.19
1006.598	3426.32
1006.892	3420.22
1007.186	3368.7
1007.48	3385.42
1007.773	3338.87
1008.067	3313.33
1008.361	3267
1008.655	3254.35
1008.948	3241.02
1009.242	3258.87
1009.535	3200.79
1009.829	3199.66
1010.122	3186.55
1010.415	3121.02
1010.708	3127.57
1011.001	3093.68
1011.295	3064.52
1011.588	3089.16
1011.881	3061.36
1012.173	3031.3
1012.466	3014.58
1012.759	2997.86
1013.052	2971.42
1013.344	2960.35
1013.637	2969.61
1013.93	2955.37
1014.222	2914.02
1014.514	2892.55
1014.807	2848.48
1015.099	2853
1015.391	2833.12
1015.683	2807.81
1015.976	2828.37
1016.268	2763.74
1016.56	2718.32
1016.851	2739.33
1017.143	2747.92
1017.435	2673.35
1017.727	2688.94
1018.018	2690.3
1018.31	2654.37
1018.602	2610.98
1018.893	2613.91
1019.185	2595.16
1019.476	2602.84
1019.767	2570.07
1020.058	2530.98
1020.35	2509.74
1020.641	2487.59
1020.932	2522.84
1021.223	2445.11
1021.514	2477.87
1021.804	2417.99
1022.095	2434.03
1022.386	2404.43
1022.677	2412.56
1022.967	2369.85
1023.258	2377.54
1023.548	2318.33
1023.839	2328.05
1024.129	2295.96
1024.419	2262.06
1024.709	2246.92
1025	2232.23
1025.29	2212.12
1025.58	2194.04
1025.87	2167.82
1026.16	2183.19
1026.449	2134.38
1026.739	2149.75
1027.029	2132.8
1027.319	2108.62
1027.608	2105
1027.898	2101.16
1028.187	2088.73
1028.477	2031.56
1028.766	2053.7
1029.055	2000.15
1029.344	2013.7
1029.634	2002.18
1029.923	1979.13
1030.212	1966.47
1030.501	1963.31
1030.79	1936.64
1031.078	1916.31
1031.367	1917.44
1031.656	1914.5
1031.945	1881.73
1032.233	1865.69
1032.522	1872.69
1032.81	1825.69
1033.099	1850.54
1033.387	1813.26
1033.675	1821.17
1033.963	1794.95
1034.251	1790.89
1034.54	1739.81
1034.828	1747.72
1035.116	1738.46
1035.403	1723.99
1035.691	1708.4
1035.979	1702.3
1036.267	1698.01
1036.554	1690.77
1036.842	1661.62
1037.129	1652.13
1037.417	1642.64
1037.704	1619.82
1037.992	1599.25
1038.279	1607.16
1038.566	1590.44
1038.853	1590.44
1039.14	1590.44
