Data from 15-0543_FLMS001491_010.txt Node
Date: Thu Apr 19 15:42:11 BST 2018
User: hsy
Spectrometer: FLMS00149
Trigger mode: 0
Integration Time (sec): 1.000000E-2
Scans to average: 10
Electric dark correction enabled: true
Nonlinearity correction enabled: false
Boxcar width: 0
XAxis mode: Wavelengths
Number of Pixels in Spectrum: 2048
>>>>>Begin Spectral Data<<<<<
341.393	15.34
341.776	15.34
342.16	15.34
342.543	-51.33
342.927	-56.52
343.31	-68.5
343.693	-69.18
344.077	-38.9
344.46	-71.66
344.843	-49.52
345.226	-47.03
345.61	-46.35
345.993	-22.63
346.376	5.17
346.759	23.25
347.142	15.56
347.525	40.42
347.908	56.02
348.291	67.99
348.674	98.5
349.057	106.86
349.44	129.91
349.823	132.85
350.206	197.25
350.588	240.19
350.971	247.42
351.354	274.31
351.737	275.22
352.119	303.92
352.502	296.91
352.884	324.93
353.267	331.94
353.65	325.84
354.032	333.97
354.414	354.54
354.797	363.13
355.179	356.12
355.562	373.07
355.944	400.41
356.326	387.08
356.709	355.22
357.091	371.71
357.473	387.08
357.855	388.21
358.238	382.33
358.62	396.35
359.002	372.39
359.384	386.63
359.766	410.58
360.148	395.22
360.53	396.35
360.912	393.18
361.294	414.88
361.676	391.37
362.057	398.61
362.439	385.05
362.821	384.59
363.203	377.59
363.584	377.81
363.966	391.83
364.348	379.4
364.729	384.37
365.111	389.79
365.493	394.31
365.874	377.36
366.256	362.9
366.637	365.39
367.019	371.26
367.4	390.02
367.781	398.38
368.163	378.94
368.544	373.97
368.925	380.75
369.306	378.04
369.688	372.62
370.069	371.94
370.45	356.12
370.831	379.62
371.212	392.28
371.593	390.7
371.974	378.27
372.355	362.45
372.736	402.22
373.117	374.43
373.498	363.13
373.879	384.59
374.26	364.93
374.641	383.01
375.021	388.21
375.402	376.69
375.783	394.54
376.163	420.3
376.544	413.52
376.925	408.32
377.305	392.28
377.686	399.06
378.066	424.82
378.447	425.5
378.827	414.2
379.208	417.36
379.588	424.37
379.968	425.05
380.349	424.82
380.729	416.23
381.109	441.77
381.489	423.24
381.87	422.33
382.25	437.02
382.63	436.12
383.01	426.18
383.39	434.31
383.77	440.64
384.15	439.51
384.53	442.9
384.91	452.62
385.29	472.5
385.67	461.43
386.049	462.33
386.429	453.07
386.809	483.8
387.189	471.15
387.568	463.91
387.948	472.5
388.328	489.45
388.707	493.74
389.087	476.8
389.466	465.5
389.846	490.58
390.225	478.83
390.605	475.21
390.984	483.35
391.363	514.53
391.743	489.9
392.122	499.85
392.501	511.37
392.881	507.98
393.26	502.78
393.639	499.85
394.018	510.69
394.397	516.34
394.776	531.94
395.155	518.15
395.534	521.31
395.913	542.33
396.292	528.32
396.671	552.05
397.05	551.82
397.429	530.35
397.808	553.63
398.186	541.43
398.565	557.47
398.944	554.76
399.323	536.91
399.701	567.19
400.08	578.71
400.458	580.97
400.837	583.91
401.215	583.91
401.594	581.43
401.972	576.45
402.351	560.41
402.729	585.27
403.107	604.25
403.486	592.27
403.864	594.31
404.242	612.84
404.62	594.98
404.999	621.88
405.377	622.33
405.755	601.76
406.133	622.55
406.511	611.48
406.889	659.39
407.267	666.39
407.645	681.99
408.023	669.11
408.401	645.83
408.779	670.91
409.156	650.8
409.534	672.27
409.912	675.21
410.29	703.46
410.667	696.45
411.045	697.13
411.422	736.45
411.8	721.53
412.178	745.71
412.555	740.29
412.933	730.35
413.31	747.52
413.687	769.67
414.065	761.99
414.442	785.71
414.819	786.39
415.197	790.23
415.574	797.69
415.951	801.31
416.328	816.45
416.705	822.77
417.082	821.87
417.46	806.05
417.837	834.07
418.214	846.73
418.591	846.28
418.967	845.83
419.344	859.84
419.721	847.41
420.098	864.36
420.475	869.33
420.852	875.2
421.228	873.85
421.605	886.28
421.982	893.96
422.358	879.5
422.735	890.12
423.111	894.86
423.488	931.25
423.864	902.32
424.241	932.83
424.617	951.36
424.994	939.38
425.37	953.84
425.746	955.43
426.123	979.38
426.499	966.27
426.875	1008.31
427.251	996.56
427.627	977.12
428.003	1018.48
428.379	1040.4
428.756	1050.34
429.132	1058.7
429.507	1036.78
429.883	1065.03
430.259	1086.27
430.635	1103.9
431.011	1093.5
431.387	1116.78
431.763	1131.02
432.138	1105.03
432.514	1155.65
432.89	1174.4
433.265	1196.78
433.641	1171.24
434.016	1192.71
434.392	1185.7
434.767	1235.87
435.143	1228.41
435.518	1214.4
435.894	1264.12
436.269	1267.51
436.644	1274.51
437.02	1266.38
437.395	1296.21
437.77	1302.08
438.145	1344.34
438.52	1331.91
438.895	1324.46
439.271	1366.72
439.646	1380.5
440.021	1394.74
440.395	1367.85
440.77	1364.91
441.145	1409.65
441.52	1434.51
441.895	1429.76
442.27	1400.84
442.645	1434.28
443.019	1465.7
443.394	1441.29
443.769	1482.19
444.143	1456.43
444.518	1445.58
444.892	1479.25
445.267	1476.09
445.641	1490.78
446.016	1500.5
446.39	1534.17
446.764	1496.88
447.139	1528.29
447.513	1517.45
447.887	1550.89
448.262	1572.13
448.636	1569.87
449.01	1581.17
449.384	1598.12
449.758	1614.62
450.132	1619.59
450.506	1644.9
450.88	1657.56
451.254	1658.46
451.628	1660.27
452.002	1659.14
452.376	1677.89
452.75	1721.73
453.123	1742.98
453.497	1754.28
453.871	1756.76
454.244	1828.17
454.618	1817.1
454.992	1849.64
455.365	1850.54
455.739	1909.53
456.112	1906.59
456.486	1923.99
456.859	1941.16
457.232	1992.69
457.606	1986.13
457.979	2027.94
458.352	2039.69
458.725	2095.51
459.099	2131.44
459.472	2121.05
459.845	2164.89
460.218	2171.89
460.591	2187.94
460.964	2231.78
461.337	2245.56
461.71	2266.58
462.083	2316.07
462.456	2303.41
462.829	2334.37
463.201	2346.35
463.574	2388.84
463.947	2408.27
464.32	2455.05
464.692	2493.69
465.065	2481.71
465.438	2496.86
465.81	2561.94
466.183	2570.3
466.555	2606.46
466.928	2627.7
467.3	2635.83
467.672	2708.6
468.045	2710.63
468.417	2692.1
468.789	2770.07
469.161	2803.51
469.534	2847.81
469.906	2865.43
470.278	2939.78
470.65	2954.92
471.022	2999.67
471.394	3007.35
471.766	3084.18
472.138	3092.09
472.51	3196.5
472.882	3189.94
473.253	3232.2
473.625	3310.85
473.997	3351.75
474.369	3399.2
474.74	3431.07
475.112	3517.85
475.484	3509.94
475.855	3641.91
476.227	3649.82
476.598	3716.26
476.97	3802.81
477.341	3851.4
477.713	3931.85
478.084	3952.86
478.455	4077.83
478.827	4076.7
479.198	4226.75
479.569	4228.79
479.94	4349.69
480.311	4369.8
480.682	4477.82
481.053	4611.83
481.424	4723.01
481.795	4755.55
482.166	4810.24
482.537	4919.39
482.908	5031.25
483.279	5116.45
483.65	5228.76
484.021	5281.41
484.391	5415.87
484.762	5501.07
485.133	5576.32
485.503	5683.44
485.874	5850.21
486.244	5867.39
486.615	6053.6
486.985	6120.71
487.356	6280.03
487.726	6349.64
488.097	6555.73
488.467	6675.28
488.837	6835.05
489.207	6872.11
489.578	7147.58
489.948	7193.68
490.318	7352.09
490.688	7435.03
491.058	7654.01
491.428	7787.11
491.798	7887
492.168	8084.96
492.538	8225.07
492.908	8372.41
493.278	8637.71
493.648	8717.03
494.017	8873.64
494.387	9068.21
494.757	9228.2
495.126	9398.82
495.496	9448.76
495.866	9655.31
496.235	9845.36
496.605	10079.03
496.974	10197.22
497.344	10415.07
497.713	10635.62
498.082	10780.93
498.452	10973.69
498.821	11233.57
499.19	11411.42
499.559	11542.49
499.928	11749.72
500.298	11968.24
500.667	12195.81
501.036	12356.26
501.405	12533.88
501.774	12757.83
502.143	13040.53
502.512	13184.48
502.88	13522.78
503.249	13665.15
503.618	13911.02
503.987	14026.72
504.356	14325.02
504.724	14569.31
505.093	14684.33
505.462	14949.86
505.83	15122.51
506.199	15394.6
506.567	15634.81
506.936	15827.35
507.304	16259.43
507.672	16340.56
508.041	16565.86
508.409	16806.76
508.777	17076.36
509.145	17328.33
509.514	17489.46
509.882	17720.86
510.25	17946.17
510.618	18280.4
510.986	18288.98
511.354	18649.88
511.722	18868.85
512.09	19132.12
512.458	19232.46
512.826	19481.27
513.193	19552
513.561	19770.98
513.929	20068.14
514.297	20367.57
514.664	20524.4
515.032	20689.82
515.4	21013.88
515.767	21114.22
516.135	21381.56
516.502	21219.75
516.869	21689.8
517.237	21832.17
517.604	21915.55
517.972	22210.46
518.339	22390.34
518.706	22710.34
519.073	22674.18
519.44	22826.49
519.808	23183.54
520.175	23321.62
520.542	23635.51
520.909	23847.48
521.276	23836.18
521.643	24248.15
522.009	24409.95
522.376	24501.25
522.743	24725.2
523.11	25034.57
523.477	25260.32
523.843	25355.69
524.21	25714.32
524.577	25879.29
524.943	26203.8
525.31	26143.92
525.676	26479.5
526.043	26696.22
526.409	26878.81
526.776	27145.25
527.142	27184.79
527.508	27418.01
527.874	27611
528.241	27865.23
528.607	27810.31
528.973	28158.78
529.339	28299.57
529.705	28607.81
530.071	28733.91
530.437	28828.82
530.803	29160.11
531.169	29187.9
531.535	29218.86
531.901	29442.81
532.267	29613.66
532.632	29779.75
532.998	29918.96
533.364	29970.03
533.73	30147.88
534.095	30430.13
534.461	30334.54
534.826	30591.26
535.192	30723.68
535.557	30938.82
535.923	30871.25
536.288	31031.25
536.653	31181.98
537.019	31056.78
537.384	31247.96
537.749	31374.29
538.114	31426.72
538.479	31350.11
538.845	31595.53
539.21	31530.22
539.575	31594.17
539.94	31757.55
540.305	31967.04
540.67	31788.51
541.034	31889.98
541.399	31986.25
541.764	32092.01
542.129	32140.6
542.494	32238.45
542.858	32334.94
543.223	32212.23
543.587	32431.66
543.952	32397.54
544.316	32414.26
544.681	32405.9
545.045	32676.85
545.41	32678.66
545.774	32675.95
546.138	32721.6
546.503	32719.56
546.867	32724.76
547.231	32893.12
547.595	33092.89
547.959	32948.03
548.324	32976.05
548.688	33035.49
549.052	33207.23
549.416	33174.47
549.779	33135.6
550.143	33208.82
550.507	33360
550.871	33413.56
551.235	33451.52
551.599	33707.33
551.962	33663.04
552.326	33684.06
552.689	33774.9
553.053	33646.54
553.417	33662.82
553.78	34107.32
554.143	34084.05
554.507	34082.92
554.87	34130.15
555.234	34411.04
555.597	34273.87
555.96	34322.23
556.323	34487.88
556.686	34354.77
557.05	34595.45
557.413	34578.05
557.776	34584.15
558.139	34919.51
558.502	34882.9
558.865	34821.2
559.228	35185.49
559.59	35164.92
559.953	34983.01
560.316	35531.47
560.679	35357.91
561.041	35487.63
561.404	35712.48
561.767	35912.47
562.129	35820.5
562.492	36053.04
562.854	36102.75
563.217	36053.04
563.579	36233.37
563.941	36473.14
564.304	36577.54
564.666	36861.38
565.028	36870.64
565.39	36852.56
565.753	37003.97
566.115	37130.75
566.477	37152.67
566.839	37213.23
567.201	37575.25
567.563	37514.47
567.925	37612.99
568.287	37774.57
568.648	37919.88
569.01	38101.79
569.372	38317.83
569.734	38196.93
570.095	38421.79
570.457	38608
570.819	38756.92
571.18	38558.28
571.542	39047.08
571.903	38961.43
572.265	39218.15
572.626	39461.31
572.987	39350.58
573.349	39642.09
573.71	39633.96
574.071	39873.5
574.432	39882.76
574.794	40183.77
575.155	40157.79
575.516	40168.18
575.877	40370.66
576.238	40386.25
576.599	40573.37
576.96	40622.41
577.32	40558.45
577.681	40626.7
578.042	41086.8
578.403	40892.91
578.763	40982.4
579.124	41065.11
579.485	41330.18
579.845	41391.2
580.206	41281.15
580.566	41349.62
580.927	41449.28
581.287	41622.83
581.648	41467.36
582.008	41856.5
582.368	41863.05
582.728	41826.89
583.089	41897.63
583.449	42007.68
583.809	41950.28
584.169	42174.46
584.529	42017.62
584.889	42368.58
585.249	42115.93
585.609	42189.6
585.969	42472.3
586.329	42272.31
586.688	42483.83
587.048	42479.76
587.408	42436.6
587.768	42445.64
588.127	42563.82
588.487	42554.33
588.846	42989.8
589.206	42721.56
589.565	42856.02
589.925	43121.1
590.284	43059.4
590.643	43147.54
591.003	43306.86
591.362	43422.56
591.721	43338.95
592.08	43371.26
592.44	43469.56
592.799	43388.44
593.158	43489.68
593.517	43485.16
593.876	43619.84
594.235	43687.86
594.593	43651.25
594.952	43787.07
595.311	43819.16
595.67	44041.53
596.029	44166.49
596.387	44224.12
596.746	44339.14
597.104	44124.46
597.463	44309.09
597.822	44518.8
598.18	44402.65
598.538	44437.22
598.897	44659.14
599.255	44452.36
599.613	45088.73
599.972	44910.2
600.33	44902.29
600.688	44941.39
601.046	45100.25
601.404	45310.19
601.762	45217.77
602.12	45498.66
602.478	45290.31
602.836	45483.07
603.194	45193.13
603.552	45383.86
603.91	45464.77
604.268	45582.05
604.625	45589.96
604.983	45853.23
605.341	45650.3
605.698	46062.26
606.056	46109.72
606.413	46003.51
606.771	46191.98
607.128	46202.6
607.485	46217.74
607.843	46205.54
608.2	46389.49
608.557	46659.54
608.914	46524.17
609.272	46713.55
609.629	46869.02
609.986	46969.81
610.343	46899.98
610.7	47214.1
611.057	47186.08
611.414	47071.28
611.771	47295.23
612.127	47382
612.484	47354.21
612.841	47493.19
613.198	47395.79
613.554	47305.39
613.911	47724.14
614.267	47673.97
614.624	47605.05
614.98	47829.9
615.337	47979.73
615.693	47940.86
616.05	48039.61
616.406	48176.56
616.762	48036.22
617.118	48174.07
617.475	48133.17
617.831	48444.35
618.187	48353.73
618.543	48448.19
618.899	48641.63
619.255	48651.8
619.611	48634.85
619.967	48712.14
620.323	48817.22
620.678	48750.33
621.034	48690.44
621.39	48838.91
621.746	48758.46
622.101	49090.88
622.457	48772.47
622.812	49089.75
623.168	49053.37
623.523	49062.64
623.879	49121.39
624.234	48863.09
624.589	49181.05
624.945	49105.8
625.3	49139.02
625.655	49219.92
626.01	49343.99
626.365	49195.97
626.72	49051.56
627.075	49074.61
627.43	49027.84
627.785	49181.05
628.14	49085.23
628.495	49239.58
628.85	49190.99
629.205	49111.45
629.559	49315.29
629.914	49153.03
630.269	49177.89
630.623	48960.04
630.978	48904.45
631.332	49140.83
631.687	49002.98
632.041	48866.94
632.396	48896.77
632.75	48846.37
633.104	48944
633.459	48644.57
633.813	48707.84
634.167	48674.4
634.521	48742.42
634.875	48678.01
635.229	48626.04
635.583	48434.63
635.937	48388.08
636.291	48378.59
636.645	48396.44
636.999	48221.98
637.352	48407.51
637.706	48193.05
638.06	48369.77
638.413	48171.81
638.767	48127.97
639.121	48142.89
639.474	47995.09
639.828	47965.26
640.181	47971.14
640.534	48054.98
640.888	47781.54
641.241	47727.98
641.594	47814.53
641.947	47843.01
642.301	47732.73
642.654	47682.33
643.007	47647.98
643.36	47676.91
643.713	47657.7
644.066	47763.01
644.419	47513.52
644.771	47185.4
645.124	46739.99
645.477	46643.72
645.83	46514.45
646.182	46621.8
646.535	46623.38
646.888	46752.64
647.24	46493.21
647.593	46708.8
647.945	46537.05
648.298	46416.6
648.65	46269.72
649.002	46174.12
649.355	45941.36
649.707	45885.77
650.059	45986.33
650.411	46508.81
650.763	46681.46
651.115	47282.12
651.467	47090.94
651.819	47125.74
652.171	46976.59
652.523	47010.26
652.875	46821.11
653.227	46859.08
653.578	47121.67
653.93	46921.9
654.282	46815.01
654.633	46629.25
654.985	46906.54
655.337	46869.7
655.688	46762.13
656.039	46902.02
656.391	46626.77
656.742	46687.11
657.094	46834.22
657.445	46776.82
657.796	46938.62
658.147	46892.52
658.498	46827.44
658.849	46735.92
659.2	46910.38
659.551	46686.2
659.902	46984.5
660.253	46654.34
660.604	46870.6
660.955	46760.78
661.306	46948.57
661.656	46740.89
662.007	46730.27
662.358	46782.24
662.708	46991.28
663.059	46860.21
663.409	46694.34
663.76	47043.71
664.11	46933.2
664.461	47069.47
664.811	46908.12
665.161	47018.4
665.511	47022.69
665.862	46965.06
666.212	47169.35
666.562	47208.9
666.912	46982.01
667.262	47054.78
667.612	46829.02
667.962	46955.8
668.312	46928
668.662	47163.48
669.011	47189.69
669.361	46912.64
669.711	46952.18
670.06	46920.32
670.41	47032.86
670.76	46862.24
671.109	46996.48
671.459	46901.79
671.808	46920.09
672.157	46947.89
672.507	46612.08
672.856	46681.46
673.205	46814.33
673.554	46777.05
673.904	46640.1
674.253	46888.68
674.602	46680.55
674.951	46212.32
675.3	46038.31
675.649	46571.85
675.998	46662.47
676.346	46713.32
676.695	46684.62
677.044	46389.26
677.393	46530.5
677.741	46575.92
678.09	46310.17
678.438	46345.87
678.787	46450.05
679.135	46377.06
679.484	46110.85
679.832	46319.88
680.181	46085.09
680.529	46222.49
680.877	45846.22
681.225	46051.64
681.573	46262.03
681.922	45980.91
682.27	45787.02
682.618	45687.58
682.966	45648.71
683.314	45740.92
683.661	45658.88
684.009	45612.56
684.357	45449.85
684.705	45238.78
685.053	45353.13
685.4	45020.48
685.748	45146.36
686.095	45164.21
686.443	44785.91
686.79	44754.5
687.138	45018
687.485	44882.86
687.832	44540.27
688.18	44566.48
688.527	44397.45
688.874	44317.45
689.221	44232.71
689.568	44228.87
689.915	43999.49
690.262	43884.02
690.609	43883.56
690.956	43770.12
691.303	43683.57
691.65	43356.12
691.997	43305.5
692.344	43139.85
692.69	43026.19
693.037	43078.16
693.383	42646.31
693.73	42682.69
694.077	42581
694.423	42627.55
694.769	42398.18
695.116	42195.25
695.462	42131.75
695.808	42034.57
696.155	42039.09
696.501	41763.85
696.847	41695.82
697.193	41357.98
697.539	41566.56
697.885	41081.15
698.231	40981.04
698.577	40995.73
698.923	40852.46
699.269	40572.92
699.614	40441.85
699.96	40387.61
700.306	40212.7
700.651	40090.22
700.997	39927.06
701.342	39890.9
701.688	39754.86
702.033	39558.48
702.379	39521.42
702.724	39426.51
703.069	39382.89
703.415	39024.26
703.76	38757.6
704.105	38985.61
704.45	38775.68
704.795	38548.11
705.14	38497.26
705.485	38611.39
705.83	38131.4
706.175	38281
706.52	38159.42
706.865	37944.74
707.209	37781.8
707.554	37764.63
707.899	37691.64
708.243	37442.15
708.588	37460.23
708.932	37064.31
709.277	37358.09
709.621	37071.31
709.966	36822.73
710.31	36884.65
710.654	36757.2
710.998	36696.41
711.342	36819.79
711.687	36592.46
712.031	36482.18
712.375	36243.31
712.719	36312.01
713.063	36177.78
713.407	36431.1
713.75	36254.61
714.094	36149.53
714.438	36020.72
714.782	36002.41
715.125	35893.49
715.469	36142.75
715.812	35819.82
716.156	35632.71
716.499	35622.54
716.843	35765.81
717.186	35573.95
717.53	35719.03
717.873	35724.91
718.216	35659.6
718.559	35343
718.902	35273.85
719.246	35297.35
719.589	35300.29
719.932	35067.75
720.275	35135.55
720.617	35196.11
720.96	35098.94
721.303	35196.33
721.646	35231.36
721.989	34971.71
722.331	35014.19
722.674	34962.44
723.016	35027.75
723.359	34875.44
723.701	34924.7
724.044	34749.79
724.386	34591.83
724.729	34766.97
725.071	34865.27
725.413	34790.24
725.755	34651.94
726.097	34508.44
726.439	34476.35
726.782	34542.11
727.124	34708.44
727.465	34409.01
727.807	34393.19
728.149	34509.57
728.491	34475
728.833	34531.27
729.175	34534.66
729.516	34345.96
729.858	34277.94
730.199	34501.66
730.541	34322.69
730.882	34343.02
731.224	34384.83
731.565	34367.88
731.906	34329.24
732.248	34467.77
732.589	34340.09
732.93	34148.68
733.271	34275
733.612	34320.65
733.953	34439.07
734.294	34261.22
734.635	34216.7
734.976	34395.45
735.317	34269.58
735.658	34345.74
735.999	34241.78
736.339	34377.6
736.68	34420.54
737.021	34379.86
737.361	34285.4
737.702	34667.99
738.042	34569.23
738.383	34595.22
738.723	34676.8
739.063	34456.92
739.404	34529.46
739.744	34660.98
740.084	34557.93
740.424	34754.09
740.764	34642.9
741.104	34936
741.444	34692.62
741.784	34916.34
742.124	35046.28
742.464	34995.44
742.804	34963.8
743.143	34948.43
743.483	35146.62
743.823	35077.92
744.162	35079.5
744.502	35303.22
744.841	35149.33
745.181	35579.83
745.52	35316.56
745.86	35667.06
746.199	35630.9
746.538	35641.75
746.877	35979.82
747.216	35932.59
747.556	35894.85
747.895	36131
748.234	36137.78
748.573	36216.19
748.911	36333.93
749.25	36443.76
749.589	36351.11
749.928	36559.01
750.267	36779.12
750.605	36862.05
750.944	36938.44
751.283	37014.37
751.621	37200.8
751.96	37164.42
752.298	37281.25
752.636	37489.61
752.975	37530.06
753.313	37593.79
753.651	37998.97
753.989	37810.28
754.327	38065.86
754.666	37849.15
755.004	38224.5
755.342	38387.89
755.679	38502.46
756.017	38455.01
756.355	38680.99
756.693	38850.02
757.031	38938.83
757.368	38729.8
757.706	38895.67
758.044	38984.03
758.381	39077.59
758.719	39130.92
759.056	39224.93
759.394	39324.14
759.731	39081.66
760.068	39381.99
760.405	39576.33
760.743	39360.07
761.08	39707.4
761.417	39538.37
761.754	39754.18
762.091	39611.36
762.428	39647.97
762.765	39612.72
763.102	39865.36
763.438	39800.06
763.775	39705.82
764.112	39921.63
764.449	39908.3
764.785	39963.21
765.122	39847.06
765.458	39827.63
765.795	39934.51
766.131	40024
766.467	39999.82
766.804	39857.23
767.14	39735.88
767.476	39775.88
767.812	39938.81
768.148	40023.33
768.485	39887.74
768.821	39683.45
769.157	39642.77
769.492	39654.75
769.828	39701.3
770.164	39454.75
770.5	39250.92
770.836	39567.97
771.171	39279.39
771.507	39390.35
771.842	39233.97
772.178	39186.51
772.513	39221.09
772.849	39054.99
773.184	38998.95
773.519	38959.17
773.855	38583.82
774.19	38737.48
774.525	38701.55
774.86	38673.08
775.195	38669.01
775.53	38431.96
775.865	38254.11
776.2	38042.81
776.535	37922.59
776.87	38039.88
777.205	37889.37
777.539	37850.73
777.874	37925.98
778.209	37560.11
778.543	37537.06
778.878	37389.05
779.212	37320.57
779.547	37007.13
779.881	37115.15
780.215	36820.7
780.55	37037.64
780.884	36646.92
781.218	36663.64
781.552	36645.11
781.886	36502.97
782.22	36346.36
782.554	36379.35
782.888	35923.77
783.222	35998.57
783.556	35832.93
783.889	35777.11
784.223	35604.46
784.557	35592.48
784.89	35644.68
785.224	35452.6
785.557	35126.96
785.891	35160.18
786.224	35097.35
786.558	35121.76
786.891	34828.66
787.224	34801.77
787.557	34596.12
787.891	34447.65
788.224	34454.21
788.557	34377.15
788.89	34355
789.223	34222.57
789.556	33954.79
789.888	33946.65
790.221	33863.26
790.554	33599.31
790.887	33688.13
791.219	33416.72
791.552	33430.51
791.884	33332.88
792.217	33089.72
792.549	33034.13
792.882	32959.11
793.214	32868.26
793.546	32841.14
793.879	32664.65
794.211	32469.85
794.543	32691.54
794.875	32600.7
795.207	32494.03
795.539	32253.13
795.871	32407.93
796.203	32034.38
796.535	31860.15
796.867	31906.25
797.198	31762.07
797.53	31688.18
797.862	31493.61
798.193	31558.01
798.525	31229.43
798.856	31553.27
799.188	30960.51
799.519	30959.38
799.85	30846.17
800.182	30738.6
800.513	30900.85
800.844	30510.81
801.175	30685.04
801.506	30753.74
801.837	30459.74
802.168	30468.1
802.499	30458.61
802.83	30161.89
803.161	30137.26
803.491	30131.16
803.822	30155.34
804.153	29941.33
804.483	29685.74
804.814	29529.36
805.145	29705.86
805.475	29600.32
805.805	29334.79
806.136	29605.52
806.466	29521
806.796	29394.23
807.126	29203.05
807.457	29119.21
807.787	29234.68
808.117	28988.59
808.447	28911.98
808.777	29020.45
809.107	28615.26
809.436	28675.83
809.766	28688.48
810.096	28646.9
810.426	28434.93
810.755	28448.72
811.085	28491.2
811.414	28577.98
811.744	28316.74
812.073	28325.1
812.403	28185.9
812.732	27946.81
813.061	28281.49
813.39	27918.79
813.719	27858.45
814.049	28002.63
814.378	27875.62
814.707	27693.71
815.036	27776.42
815.365	27629.3
815.693	27427.27
816.022	27388.63
816.351	27440.61
816.68	27268.63
817.008	27360.83
817.337	27078.13
817.665	27141.86
817.994	27220.72
818.322	27179.14
818.651	27005.59
818.979	26985.48
819.307	27038.58
819.636	26789.1
819.964	26998.81
820.292	26910.22
820.62	26831.36
820.948	26912.94
821.276	26897.34
821.604	26849.66
821.932	27005.14
822.259	26827.06
822.587	26910.9
822.915	26710
823.243	26896.89
823.57	26684.24
823.898	26759.49
824.225	26706.39
824.553	26683.56
824.88	26731.7
825.207	26891.02
825.535	26746.61
825.862	26817.12
826.189	26729.89
826.516	26843.56
826.843	27003.1
827.17	26846.05
827.497	26815.09
827.824	26815.31
828.151	26950.68
828.478	26699.16
828.805	27032.26
829.131	26906.83
829.458	26912.48
829.785	26758.36
830.111	26886.95
830.438	26935.99
830.764	26858.25
831.09	26889.89
831.417	26647.18
831.743	27087.4
832.069	26791.81
832.395	26718.14
832.722	26844.69
833.048	26783.45
833.374	26790
833.7	26612.38
834.026	26757.46
834.351	26652.38
834.677	26660.97
835.003	26724.47
835.329	26708.2
835.654	26644.47
835.98	26544.81
836.306	26655.54
836.631	26556.56
836.956	26759.04
837.282	26638.37
837.607	26610.35
837.932	26500.52
838.258	26509.78
838.583	26294.87
838.908	26243.35
839.233	26340.97
839.558	26240.64
839.883	26213.52
840.208	26137.82
840.533	26105.05
840.858	26122.67
841.182	26085.39
841.507	26043.81
841.832	26044.26
842.156	26035.9
842.481	25952.51
842.805	25844.94
843.13	25730.14
843.454	25783.02
843.778	25678.17
844.103	25682.01
844.427	25505.29
844.751	25612.86
845.075	25504.84
845.399	25430.94
845.723	25268.01
846.047	25296.48
846.371	25190.04
846.695	25093.55
847.019	25047.45
847.343	24799.55
847.666	24830.96
847.99	24715.71
848.313	24552.09
848.637	24531.98
848.96	24413.57
849.284	24529.27
849.607	24188.71
849.931	24115.95
850.254	24000.47
850.577	23876.86
850.9	23795.05
851.223	23703.98
851.546	23663.3
851.869	23477.09
852.192	23628.28
852.515	23421.95
852.838	23275.74
853.161	23251.34
853.483	23134.73
853.806	23037.56
854.129	22975.19
854.451	23021.29
854.774	22795.76
855.096	22693.61
855.419	22588.08
855.741	22596.67
856.063	22502.2
856.385	22469.21
856.708	22333.62
857.03	22344.02
857.352	22214.98
857.674	22211.37
857.996	22137.24
858.318	21983.57
858.64	21912.84
858.961	21873.07
859.283	21849.57
859.605	21809.12
859.926	21792.62
860.248	21740.87
860.57	21655.67
860.891	21644.15
861.212	21579.97
861.534	21396.02
861.855	21468.79
862.176	21391.5
862.498	21467.66
862.819	21433.31
863.14	21220.88
863.461	21155.57
863.782	21140.66
864.103	21166.87
864.424	21074.45
864.745	21079.42
865.065	21028.35
865.386	20953.09
865.707	21004.84
866.027	20936.14
866.348	20824.06
866.668	20806.88
866.989	20857.73
867.309	20664.97
867.63	20677.17
867.95	20735.47
868.27	20615.93
868.59	20622.03
868.91	20478.08
869.23	20532.77
869.55	20429.49
869.87	20556.95
870.19	20310.17
870.51	20394.24
870.83	20333.22
871.15	20258.65
871.469	20334.58
871.789	20388.36
872.109	20375.26
872.428	20218.88
872.748	20280.57
873.067	20209.16
873.386	20173.68
873.706	20120.12
874.025	20012.78
874.344	20003.97
874.663	20091.19
874.982	20006.45
875.301	19949.5
875.62	19916.74
875.939	19796.74
876.258	19880.58
876.577	19721.49
876.896	19679.68
877.214	19698.66
877.533	19797.42
877.852	19767.59
878.17	19622.96
878.489	19595.39
878.807	19599.91
879.125	19566.46
879.444	19504.54
879.762	19435.17
880.08	19563.07
880.398	19387.48
880.716	19367.15
881.034	19307.71
881.352	19351.1
881.67	19288.05
881.988	19186.36
882.306	19157.21
882.624	19181.39
882.941	19073.37
883.259	19078.11
883.577	18996.53
883.894	19047.15
884.212	18959.25
884.529	18852.81
884.846	18865.69
885.164	18668.18
885.481	18777.33
885.798	18741.63
886.115	18623.21
886.432	18695.53
886.75	18523.55
887.067	18616.66
887.383	18547.73
887.7	18522.65
888.017	18312.26
888.334	18369.88
888.651	18293.73
888.967	18198.59
889.284	18203.33
889.6	18145.48
889.917	18091.25
890.233	18096.22
890.55	18029.78
890.866	17997.69
891.182	17900.52
891.498	17937.58
891.815	17806.28
892.131	17810.58
892.447	17715.66
892.763	17683.8
893.079	17566.29
893.395	17543.92
893.71	17444.26
894.026	17365.62
894.342	17444.94
894.657	17225.73
894.973	17249.46
895.289	17250.82
895.604	17238.16
895.92	17005.4
896.235	17097.6
896.55	17012.41
896.865	17018.06
897.181	16896.25
897.496	16903.93
897.811	16846.53
898.126	16776.93
898.441	16710.04
898.756	16640.66
899.071	16584.85
899.386	16578.52
899.7	16512.98
900.015	16336.49
900.33	16293.33
900.644	16107.12
900.959	16186.21
901.273	16197.51
901.588	16124.07
901.902	16059.21
902.216	15958.65
902.531	16016.05
902.845	15773.57
903.159	15737.41
903.473	15759.78
903.787	15631.2
904.101	15701.48
904.415	15628.04
904.729	15504.42
905.042	15463.52
905.356	15449.06
905.67	15348.95
905.984	15314.82
906.297	15294.03
906.611	15155.05
906.924	15059.69
907.237	15031.89
907.551	15040.03
907.864	14923.65
908.177	14833.93
908.491	14822.41
908.804	14737.66
909.117	14666.03
909.43	14518.91
909.743	14569.98
910.056	14518.23
910.368	14526.6
910.681	14413.6
910.994	14337
911.307	14317.56
911.619	14184.68
911.932	14243.89
912.244	14030.34
912.557	14069.66
912.869	13978.81
913.181	13908.76
913.494	13956.21
913.806	13825.82
914.118	13727.97
914.43	13770.68
914.742	13652.95
915.054	13632.16
915.366	13579.5
915.678	13455.21
915.99	13452.05
916.302	13334.99
916.613	13348.77
916.925	13309.9
917.236	13212.73
917.548	13166.18
917.859	13115.56
918.171	13071.94
918.482	12949.01
918.794	12958.73
919.105	12784.49
919.416	12782.23
919.727	12743.82
920.038	12734.1
920.349	12636.48
920.66	12586.08
920.971	12530.72
921.282	12531.39
921.593	12427.44
921.903	12355.81
922.214	12384.28
922.525	12267.9
922.835	12179.31
923.146	12203.04
923.456	12099.77
923.767	12036.04
924.077	12003.5
924.387	12045.76
924.697	11888.02
925.008	11895.03
925.318	11804.63
925.628	11837.85
925.938	11702.71
926.248	11648.03
926.558	11622.49
926.867	11577.75
927.177	11545.2
927.487	11393.12
927.796	11402.61
928.106	11367.13
928.416	11337.07
928.725	11219.11
929.034	11222.95
929.344	11223.63
929.653	11170.07
929.962	11090.75
930.271	11033.81
930.581	10972.79
930.89	10925.56
931.199	10858.22
931.508	10836.07
931.817	10796.07
932.125	10763.76
932.434	10708.84
932.743	10582.52
933.051	10530.54
933.36	10530.09
933.669	10436.08
933.977	10446.02
934.286	10416.65
934.594	10310.44
934.902	10275.86
935.21	10218.91
935.519	10193.6
935.827	10175.98
936.135	10100.05
936.443	10050.1
936.751	10002.19
937.059	9973.95
937.367	9948.86
937.674	9967.85
937.982	9886.49
938.29	9804.23
938.597	9834.06
938.905	9745.25
939.213	9745.03
939.52	9679.94
939.827	9678.81
940.135	9594.52
940.442	9472.72
940.749	9511.13
941.056	9522.89
941.363	9390.46
941.67	9394.75
941.977	9304.36
942.284	9290.8
942.591	9272.95
942.898	9212.38
943.205	9205.83
943.511	9140.75
943.818	9159.05
944.125	9081.77
944.431	8977.36
944.738	8990.7
945.044	8973.75
945.35	8896.91
945.657	8832.96
945.963	8833.64
946.269	8791.15
946.575	8762.23
946.881	8665.51
947.187	8693.3
947.493	8610.82
947.799	8582.12
948.105	8565.62
948.41	8524.72
948.716	8514.32
949.022	8410.82
949.327	8393.65
949.633	8271.17
949.938	8294.44
950.244	8211.06
950.549	8232.98
950.854	8196.14
951.16	8151.4
951.465	8086.76
951.77	8058.97
952.075	8053.55
952.38	7990.72
952.685	8010.61
952.99	7883.61
953.294	7910.95
953.599	7865.08
953.904	7846.32
954.209	7738.07
954.513	7809.26
954.818	7690.39
955.122	7692.2
955.426	7634.57
955.731	7621.69
956.035	7572.2
956.339	7550.96
956.643	7479.32
956.948	7451.08
957.252	7430.51
957.556	7414.69
957.86	7404.07
958.163	7394.35
958.467	7309.38
958.771	7264.19
959.075	7209.05
959.378	7230.97
959.682	7220.57
959.985	7169.73
960.289	7137.41
960.592	7016.51
960.896	7081.59
961.199	7047.24
961.502	7027.13
961.805	6955.5
962.108	6908.49
962.411	6953.01
962.714	6891.32
963.017	6851.77
963.32	6862.16
963.623	6801.15
963.926	6820.81
964.228	6696.29
964.531	6695.84
964.833	6715.28
965.136	6601.38
965.438	6592.11
965.741	6530.87
966.043	6504.89
966.345	6492.23
966.648	6501.5
966.95	6418.79
967.252	6422.18
967.554	6374.04
967.856	6425.34
968.158	6335.4
968.46	6313.48
968.761	6276.42
969.063	6257.89
969.365	6226.25
969.666	6216.08
969.968	6191
970.269	6101.73
970.571	6086.37
970.872	6089.3
971.174	6054.5
971.475	6006.82
971.776	5960.04
972.077	5964.33
972.378	5932.92
972.679	5916.43
972.98	5918.01
973.281	5863.77
973.582	5882.08
973.883	5868.74
974.183	5801.85
974.484	5764.57
974.785	5649.99
975.085	5690.22
975.386	5713.04
975.686	5661.97
975.986	5618.36
976.287	5674.62
976.587	5557.34
976.887	5589.2
977.187	5574.51
977.487	5500.39
977.787	5476.21
978.087	5475.08
978.387	5421.75
978.687	5380.4
978.987	5375.42
979.286	5345.14
979.586	5332.94
979.885	5260.85
980.185	5282.09
980.484	5250
980.784	5209.33
981.083	5235.09
981.382	5212.49
981.682	5146.5
981.981	5162.77
982.28	5122.77
982.579	5049.33
982.878	5083.23
983.177	5026.51
983.475	5033.29
983.774	4985.38
984.073	5030.8
984.372	4915.55
984.67	4987.41
984.969	4892.5
985.267	4897.92
985.566	4838.49
985.864	4796.91
986.162	4789.9
986.461	4789.68
986.759	4772.5
987.057	4726.4
987.355	4744.71
987.653	4673.75
987.951	4637.14
988.249	4647.99
988.547	4593.75
988.844	4607.08
989.142	4557.59
989.44	4539.97
989.737	4554.43
990.035	4530.7
990.332	4505.84
990.63	4432.62
990.927	4434.88
991.224	4415.45
991.521	4405.28
991.819	4419.29
992.116	4303.36
992.413	4309.69
992.71	4282.35
993.006	4257.49
993.303	4276.47
993.6	4250.48
993.897	4203.93
994.193	4227.88
994.49	4239.63
994.787	4162.57
995.083	4154.89
995.379	4120.77
995.676	4082.12
995.972	4068.57
996.268	4053.42
996.565	4051.16
996.861	4001.9
997.157	3997.83
997.453	3981.79
997.749	3964.61
998.044	3922.81
998.34	3921.45
998.636	3885.07
998.932	3862.7
999.227	3824.05
999.523	3805.3
999.818	3798.06
1000.114	3756.03
1000.409	3792.19
1000.704	3752.87
1001	3730.5
1001.295	3713.09
1001.59	3684.17
1001.885	3663.6
1002.18	3643.27
1002.475	3577.73
1002.77	3604.4
1003.065	3579.31
1003.359	3584.28
1003.654	3508.13
1003.949	3489.82
1004.243	3469.03
1004.538	3461.58
1004.832	3445.53
1005.127	3441.69
1005.421	3410.05
1005.715	3347
1006.009	3403.5
1006.304	3345.87
1006.598	3331.18
1006.892	3307
1007.186	3260
1007.48	3284.63
1007.773	3255.48
1008.067	3216.16
1008.361	3222.03
1008.655	3233.56
1008.948	3168.93
1009.242	3190.4
1009.535	3106.56
1009.829	3112.88
1010.122	3030.85
1010.415	3067.46
1010.708	3048.48
1011.001	3034.02
1011.295	3013.23
1011.588	2959.67
1011.881	2967.58
1012.173	2934.58
1012.466	2934.36
1012.759	2933.23
1013.052	2902.95
1013.344	2894.13
1013.637	2886.68
1013.93	2825.66
1014.222	2800.8
1014.514	2808.49
1014.807	2803.29
1015.099	2777.07
1015.391	2744.98
1015.683	2750.63
1015.976	2733.46
1016.268	2707.25
1016.56	2680.58
1016.851	2669.05
1017.143	2671.31
1017.435	2633.57
1017.727	2588.38
1018.018	2585.44
1018.31	2586.57
1018.602	2575.72
1018.893	2500.7
1019.185	2539.57
1019.476	2538.66
1019.767	2508.83
1020.058	2475.84
1020.35	2449.17
1020.641	2440.36
1020.932	2438.33
1021.223	2401.49
1021.514	2376.63
1021.804	2386.12
1022.095	2353.13
1022.386	2351.77
1022.677	2370.76
1022.967	2274.71
1023.258	2264.54
1023.548	2269.52
1023.839	2264.32
1024.129	2257.77
1024.419	2234.49
1024.709	2223.19
1025	2201.04
1025.29	2155.62
1025.58	2158.11
1025.87	2145.45
1026.16	2102.52
1026.449	2117.88
1026.739	2125.57
1027.029	2083.76
1027.319	2049.18
1027.608	2015.06
1027.898	2040.14
1028.187	2000.6
1028.477	1996.76
1028.766	1999.92
1029.055	1977.77
1029.344	1973.48
1029.634	1939.36
1029.923	1961.95
1030.212	1920.37
1030.501	1902.75
1030.79	1883.09
1031.078	1887.83
1031.367	1861.39
1031.656	1854.61
1031.945	1862.07
1032.233	1822.75
1032.522	1827.49
1032.81	1845.8
1033.099	1790.66
1033.387	1781.85
1033.675	1752.69
1033.963	1749.3
1034.251	1724.45
1034.54	1718.57
1034.828	1738.91
1035.116	1697.1
1035.403	1710.44
1035.691	1675.18
1035.979	1652.81
1036.267	1642.87
1036.554	1634.96
1036.842	1643.77
1037.129	1617.78
1037.417	1583.66
1037.704	1586.14
1037.992	1593.15
1038.279	1553.83
1038.566	1550.89
1038.853	1550.89
1039.14	1550.89
