Data from 15-0543_FLMS001491_009.txt Node
Date: Thu Apr 19 15:42:08 BST 2018
User: hsy
Spectrometer: FLMS00149
Trigger mode: 0
Integration Time (sec): 1.000000E-2
Scans to average: 10
Electric dark correction enabled: true
Nonlinearity correction enabled: false
Boxcar width: 0
XAxis mode: Wavelengths
Number of Pixels in Spectrum: 2048
>>>>>Begin Spectral Data<<<<<
341.393	15.86
341.776	15.86
342.16	15.86
342.543	-58.49
342.927	-68.66
343.31	-82.22
343.693	-61.65
344.077	-64.59
344.46	-50.35
344.843	-46.28
345.226	-29.11
345.61	-41.99
345.993	1.4
346.376	3.21
346.759	16.77
347.142	20.38
347.525	35.07
347.908	62.41
348.291	68.52
348.674	69.87
349.057	98.57
349.44	116.88
349.823	155.07
350.206	191
350.588	252.92
350.971	261.5
351.354	272.35
351.737	275.29
352.119	293.37
352.502	300.6
352.884	330.66
353.267	336.76
353.65	340.15
354.032	351.45
354.414	343.76
354.797	365
355.179	357.1
355.562	388.28
355.944	375.85
356.326	367.94
356.709	383.08
357.091	381.05
357.473	412.23
357.855	384.67
358.238	391.22
358.62	393.93
359.002	403.2
359.384	395.74
359.766	405
360.148	428.73
360.53	380.82
360.912	394.38
361.294	383.54
361.676	386.02
362.057	388.05
362.439	385.12
362.821	389.86
363.203	382.86
363.584	367.72
363.966	377.66
364.348	390.09
364.729	385.12
365.111	373.59
365.493	383.54
365.874	382.86
366.256	375.85
366.637	374.04
367.019	373.14
367.4	381.95
367.781	377.43
368.163	382.63
368.544	401.16
368.925	381.95
369.306	375.85
369.688	390.54
370.069	383.99
370.45	374.27
370.831	391.22
371.212	385.79
371.593	367.72
371.974	376.3
372.355	392.35
372.736	395.96
373.117	385.79
373.498	403.65
373.879	393.48
374.26	380.6
374.641	373.82
375.021	381.5
375.402	398.9
375.783	412.91
376.163	420.14
376.544	396.87
376.925	399.81
377.305	433.48
377.686	408.62
378.066	422.4
378.447	420.14
378.827	421.05
379.208	405.68
379.588	415.85
379.968	412.46
380.349	426.7
380.729	411.56
381.109	447.71
381.489	420.37
381.87	420.82
382.25	430.09
382.63	437.32
383.01	447.04
383.39	426.92
383.77	433.25
384.15	445
384.53	453.14
384.91	440.93
385.29	447.94
385.67	466.7
386.049	466.47
386.429	460.14
386.809	451.78
387.189	443.65
387.568	466.92
387.948	468.5
388.328	476.87
388.707	488.39
389.087	480.71
389.466	456.98
389.846	486.36
390.225	482.52
390.605	487.71
390.984	500.59
391.363	504.89
391.743	494.04
392.122	486.36
392.501	504.21
392.881	497.66
393.26	510.76
393.639	540.37
394.018	508.5
394.397	541.72
394.776	535.62
395.155	521.61
395.534	531.33
395.913	529.29
396.292	551.89
396.671	549.86
397.05	546.69
397.429	549.63
397.808	555.06
398.186	564.32
398.565	537.43
398.944	577.2
399.323	557.09
399.701	585.56
400.08	574.04
400.458	566.13
400.837	570.2
401.215	584.43
401.594	591.21
401.972	568.16
402.351	563.64
402.729	603.19
403.107	585.11
403.486	597.99
403.864	618.78
404.242	633.25
404.62	581.27
404.999	597.99
405.377	612.23
405.755	634.6
406.133	621.27
406.511	641.83
406.889	643.19
407.267	661.72
407.645	673.02
408.023	662.4
408.401	661.27
408.779	682.51
409.156	684.77
409.534	689.29
409.912	688.61
410.29	707.59
410.667	708.27
411.045	706.69
411.422	713.02
411.8	703.3
412.178	745.56
412.555	738.33
412.933	723.19
413.31	749.85
413.687	751.89
414.065	771.55
414.442	761.38
414.819	793.92
415.197	753.02
415.574	802.06
415.951	787.82
416.328	820.59
416.705	803.64
417.082	791.89
417.46	813.35
417.837	839.79
418.214	825.56
418.591	820.59
418.967	840.25
419.344	855.16
419.721	874.14
420.098	860.58
420.475	904.43
420.852	868.72
421.228	868.27
421.605	863.97
421.982	869.62
422.358	892.22
422.735	913.69
423.111	890.87
423.488	922.05
423.864	910.75
424.241	927.25
424.617	919.57
424.994	971.54
425.37	945.1
425.746	969.96
426.123	968.6
426.499	976.06
426.875	988.94
427.251	991.2
427.627	1013.58
428.003	1012.67
428.379	1029.17
428.756	1027.36
429.132	1063.07
429.507	1060.35
429.883	1051.54
430.259	1047.7
430.635	1091.54
431.011	1101.03
431.387	1108.26
431.763	1105.1
432.138	1153.23
432.514	1165.44
432.89	1163.18
433.265	1123.85
433.641	1190.29
434.016	1198.43
434.392	1194.81
434.767	1240.01
435.143	1230.29
435.518	1209.05
435.894	1249.28
436.269	1273.91
436.644	1280.01
437.02	1290.63
437.395	1293.79
437.77	1308.03
438.145	1309.61
438.52	1303.51
438.895	1356.39
439.271	1318.65
439.646	1374.47
440.021	1358.65
440.395	1372.44
440.77	1373.34
441.145	1401.81
441.52	1390.29
441.895	1420.57
442.27	1442.72
442.645	1416.5
443.019	1435.03
443.394	1442.04
443.769	1451.08
444.143	1432.55
444.518	1456.5
444.892	1477.97
445.267	1496.73
445.641	1483.85
446.016	1481.59
446.39	1512.32
446.764	1513.9
447.139	1526.33
447.513	1543.5
447.887	1543.05
448.262	1558.87
448.636	1541.7
449.01	1568.59
449.384	1602.03
449.758	1616.5
450.132	1644.97
450.506	1616.05
450.88	1648.81
451.254	1663.28
451.628	1665.76
452.002	1670.28
452.376	1703.27
452.75	1726.1
453.123	1717.74
453.497	1760.9
453.871	1785.53
454.244	1787.57
454.618	1814.46
454.992	1837.06
455.365	1844.51
455.739	1912.31
456.112	1913.89
456.486	1919.54
456.859	1925.42
457.232	1970.84
457.606	1987.11
457.979	2026.88
458.352	2050.16
458.725	2085.41
459.099	2082.47
459.472	2114.56
459.845	2138.29
460.218	2189.14
460.591	2191.4
460.964	2196.82
461.337	2249.02
461.71	2261
462.083	2317.5
462.456	2304.84
462.829	2304.84
463.201	2421.22
463.574	2368.34
463.947	2385.29
464.32	2453.31
464.692	2472.29
465.065	2522.01
465.438	2529.24
465.81	2560.2
466.183	2562.91
466.555	2649.24
466.928	2638.39
467.3	2616.92
467.672	2660.54
468.045	2755.68
468.417	2702.34
468.789	2763.36
469.161	2752.74
469.534	2782.12
469.906	2853.75
470.278	2889.91
470.65	2932.62
471.022	3002.9
471.394	3024.82
471.766	3073.63
472.138	3124.48
472.51	3159.73
472.882	3232.95
473.253	3289.22
473.625	3274.53
473.997	3380.07
474.369	3390.01
474.74	3437.47
475.112	3469.33
475.484	3573.96
475.855	3615.77
476.227	3640.4
476.598	3761.75
476.97	3788.19
477.341	3896.21
477.713	3920.62
478.084	3981.86
478.455	4053.5
478.827	4121.97
479.198	4219.14
479.569	4264.11
479.94	4365.13
480.311	4407.16
480.682	4495.52
481.053	4644.67
481.424	4700.71
481.795	4756.98
482.166	4831.78
482.537	4923.75
482.908	5050.53
483.279	5126.01
483.65	5239.23
484.021	5323.97
484.391	5425.66
484.762	5544.98
485.133	5620.46
485.503	5726.9
485.874	5867.68
486.244	5951.75
486.615	6124.18
486.985	6169.6
487.356	6292.31
487.726	6431.96
488.097	6602.35
488.467	6679.64
488.837	6799.41
489.207	6935.68
489.578	7149.91
489.948	7283.24
490.318	7395.1
490.688	7511.03
491.058	7637.58
491.428	7819.5
491.798	7960.96
492.168	8192.82
492.538	8264.23
492.908	8449.31
493.278	8633.04
493.648	8711.45
494.017	8985.12
494.387	9110.76
494.757	9245.45
495.126	9453.81
495.496	9690.86
495.866	9847.92
496.235	10049.72
496.605	10178.76
496.974	10360.45
497.344	10583.04
497.713	10762.92
498.082	10998.4
498.452	11188.67
498.821	11359.74
499.19	11542.34
499.559	11775.1
499.928	11928.54
500.298	12149.55
500.667	12359.94
501.036	12507.96
501.405	12857.11
501.774	12955.86
502.143	13236.98
502.512	13364.21
502.88	13762.62
503.249	13873.58
503.618	14144.98
503.987	14340.91
504.356	14561.69
504.724	14797.62
505.093	15067.67
505.462	15221.34
505.83	15465.62
506.199	15739.97
506.567	16055.67
506.936	16259.28
507.304	16507.4
507.672	16727.06
508.041	16944.91
508.409	17263.54
508.777	17478.9
509.145	17717.54
509.514	17885.9
509.882	18193.69
510.25	18226.46
510.618	18554.58
510.986	18685.2
511.354	19077.28
511.722	19377.84
512.09	19573.54
512.458	19580.32
512.826	19953.42
513.193	20177.59
513.561	20335.1
513.929	20592.95
514.297	20867.06
514.664	21073.84
515.032	21213.95
515.4	21561.96
515.767	21679.7
516.135	21899.13
516.502	21870.65
516.869	22266.8
517.237	22531.65
517.604	22544.99
517.972	22967.35
518.339	23113.56
518.706	23109.27
519.073	23325.3
519.44	23605.98
519.808	23846.42
520.175	23947.21
520.542	24295.45
520.909	24276.69
521.276	24499.06
521.643	24872.16
522.009	25037.12
522.376	25264.24
522.743	25461.75
523.11	25683.43
523.477	25915.52
523.843	26019.47
524.21	26377.65
524.577	26599.57
524.943	26773.58
525.31	26895.83
525.676	27217.86
526.043	27484.52
526.409	27678.18
526.776	27857.16
527.142	27957.27
527.508	28129.7
527.874	28474.77
528.241	28644.71
528.607	28700.53
528.973	29086.28
529.339	29086.28
529.705	29410.79
530.071	29583.67
530.437	29610.11
530.803	29884.23
531.169	30015.52
531.535	29981.17
531.901	30251.9
532.267	30406.93
532.632	30518.79
532.998	30652.57
533.364	30835.16
533.73	30933.92
534.095	31244.87
534.461	31217.3
534.826	31332.78
535.192	31501.59
535.557	31667.46
535.923	31633.79
536.288	31840.11
536.653	32019.54
537.019	31949.94
537.384	32036.71
537.749	32034.23
538.114	32283.26
538.479	32316.48
538.845	32384.5
539.21	32393.54
539.575	32563.71
539.94	32546.31
540.305	32711.5
540.67	32717.15
541.034	32664.27
541.399	32842.79
541.764	32951.27
542.129	32931.83
542.494	33119.4
542.858	33154.2
543.223	33086.18
543.587	33276.46
543.952	33407.98
544.316	33406.17
544.681	33370.01
545.045	33558.26
545.41	33629.44
545.774	33547.86
546.138	33636.45
546.503	33711.7
546.867	33657.01
547.231	33914.18
547.595	33827.85
547.959	33920.96
548.324	33891.81
548.688	33905.82
549.052	33960.28
549.416	34053.61
549.779	34087.73
550.143	34269.88
550.507	34377.44
550.871	34290.67
551.235	34219.48
551.599	34779.92
551.962	34486.59
552.326	34568.62
552.689	34638.23
553.053	34518.23
553.417	34598
553.78	35141.49
554.143	34951.44
554.507	35028.73
554.87	35191.66
555.234	35367.47
555.597	35055.84
555.96	35353.69
556.323	35367.93
556.686	35334.48
557.05	35538.09
557.413	35599.11
557.776	35548.26
558.139	35879.78
558.502	35889.04
558.865	35857.18
559.228	36154.8
559.59	36295.36
559.953	36107.79
560.316	36499.2
560.679	36523.6
561.041	36736.7
561.404	36753.43
561.767	37118.84
562.129	36882.91
562.492	37148.9
562.854	37235.67
563.217	37241.32
563.579	37292.17
563.941	37529.23
564.304	37656
564.666	37847.86
565.028	37905.94
565.39	37952.72
565.753	38149.1
566.115	38253.05
566.477	38392.48
566.839	38505.02
567.201	38800.6
567.563	38667.05
567.925	38995.4
568.287	39046.25
568.648	39103.19
569.01	39223.19
569.372	39459.57
569.734	39415.5
570.095	39812.1
570.457	39873.8
570.819	39827.92
571.18	39803.74
571.542	40172.55
571.903	40234.69
572.265	40311.52
572.626	40495.47
572.987	40589.03
573.349	40640.56
573.71	40865.18
574.071	40799.42
574.432	41091.39
574.794	41231.73
575.155	41278.28
575.516	41261.1
575.877	41386.52
576.238	41487.09
576.599	41554.2
576.96	41677.59
577.32	41753.29
577.681	41876.91
578.042	42102.44
578.403	41963.01
578.763	42053.4
579.124	42104.47
579.485	42365.03
579.845	42410.23
580.206	42363.9
580.566	42477.8
580.927	42534.52
581.287	42812.48
581.648	42625.81
582.008	42929.31
582.368	42876.43
582.728	42938.57
583.089	43018.8
583.449	42950.55
583.809	43090.66
584.169	43091.79
584.529	43190.55
584.889	43391.9
585.249	43328.17
585.609	43297.43
585.969	43592.12
586.329	43420.82
586.688	43703.07
587.048	43600.93
587.408	43801.6
587.768	43715.73
588.127	43913.46
588.487	43912.33
588.846	44135.38
589.206	43868.95
589.565	43906.46
589.925	44292.89
590.284	44144.64
590.643	44290.4
591.003	44336.96
591.362	44586.44
591.721	44525.65
592.08	44563.62
592.44	44676.83
592.799	44543.73
593.158	44622.6
593.517	44664.86
593.876	44907.34
594.235	44786.66
594.593	44955.02
594.952	44882.25
595.311	44979.88
595.67	44957.96
596.029	45135.8
596.387	45398.17
596.746	45357.27
597.104	45251.96
597.463	45276.14
597.822	45630.71
598.18	45529.69
598.538	45446.31
598.897	45678.62
599.255	45595
599.613	46039.74
599.972	45802.91
600.33	45997.03
600.688	45814.43
601.046	46005.39
601.404	46244.48
601.762	46191.6
602.12	46231.14
602.478	46382.55
602.836	46484.02
603.194	46184.36
603.552	46501.64
603.91	46455.77
604.268	46596.56
604.625	46567.63
604.983	46787.06
605.341	46556.56
605.698	46892.37
606.056	46931.01
606.413	46873.16
606.771	47145.47
607.128	47184.56
607.485	47095.75
607.843	47107.05
608.2	47325.13
608.557	47543.88
608.914	47441.96
609.272	47620.71
609.629	47726.92
609.986	47886.47
610.343	47771.67
610.7	48047.59
611.057	48032.45
611.414	47963.3
611.771	48186.57
612.127	48152
612.484	48236.97
612.841	48479.22
613.198	48189.74
613.554	48356.51
613.911	48591.53
614.267	48559.44
614.624	48479.67
614.98	48706.11
615.337	48990.62
615.693	48908.13
616.05	48936.16
616.406	49028.13
616.762	48968.7
617.118	49049.6
617.475	48900.45
617.831	49250.05
618.187	49236.26
618.543	49230.16
618.899	49408.91
619.255	49375.02
619.611	49465.63
619.967	49540.21
620.323	49637.83
620.678	49473.32
621.034	49449.36
621.39	49507.67
621.746	49515.8
622.101	50018.16
622.457	49617.04
622.812	49761.22
623.168	49862.23
623.523	49787.66
623.879	49856.81
624.234	49682.8
624.589	49955.79
624.945	49916.47
625.3	49940.2
625.655	49970.03
626.01	49925.51
626.365	49937.49
626.72	49868.79
627.075	49776.81
627.43	49892.52
627.785	49914.89
628.14	49991.72
628.495	50012.74
628.85	49981.55
629.205	49918.73
629.559	50023.59
629.914	49924.38
630.269	49861.78
630.623	49638.96
630.978	49670.6
631.332	49805.96
631.687	49735.01
632.041	49697.27
632.396	49749.24
632.75	49589.25
633.104	49622.92
633.459	49517.16
633.813	49423.83
634.167	49393.09
634.521	49395.35
634.875	49332.53
635.229	49293.89
635.583	49165.3
635.937	49185.42
636.291	49177.96
636.645	49175.92
636.999	49083.27
637.352	49143.61
637.706	48954.01
638.06	49115.14
638.413	48954.24
638.767	48747.91
639.121	48827.46
639.474	48733
639.828	48613
640.181	48732.55
640.534	48626.33
640.888	48532.78
641.241	48427.02
641.594	48393.8
641.947	48554.47
642.301	48388.15
642.654	48550.18
643.007	48476.28
643.36	48621.59
643.713	48381.37
644.066	48479.9
644.419	48277.42
644.771	47850.99
645.124	47538.68
645.477	47510.66
645.83	47397.89
646.182	47408.06
646.535	47336.2
646.888	47414.61
647.24	47280.83
647.593	47523.54
647.945	47305.92
648.298	47199.71
648.65	47119.93
649.002	46857.12
649.355	46931.01
649.707	46669.1
650.059	46709.77
650.411	47352.47
650.763	47447.38
651.115	48102.51
651.467	47846.24
651.819	47941.38
652.171	47825.9
652.523	47689.41
652.875	47740.48
653.227	47583.65
653.578	47910.87
653.93	47875.85
654.282	47620.94
654.633	47635.4
654.985	47633.82
655.337	47677.21
655.688	47570.99
656.039	47806.92
656.391	47364.22
656.742	47459.59
657.094	47577.32
657.445	47527.15
657.796	47747.04
658.147	47564.67
658.498	47655.74
658.849	47632.91
659.2	47642.41
659.551	47464.11
659.902	47600.15
660.253	47428.85
660.604	47658.22
660.955	47498
661.306	47669.3
661.656	47572.35
662.007	47608.06
662.358	47591.33
662.708	47608.51
663.059	47555.63
663.409	47506.82
663.76	47674.72
664.11	47631.56
664.461	47713.82
664.811	47773.7
665.161	47705.68
665.511	47569.41
665.862	47595.18
666.212	47868.39
666.562	47903.64
666.912	47757.43
667.262	47573.03
667.612	47663.65
667.962	47725.12
668.312	47587.27
668.662	47853.7
669.011	47843.76
669.361	47671.11
669.711	47778
670.06	47674.95
670.41	47669.75
670.76	47595.63
671.109	47780.03
671.459	47671.78
671.808	47686.92
672.157	47674.27
672.507	47467.27
672.856	47315.86
673.205	47570.99
673.554	47552.24
673.904	47469.08
674.253	47669.07
674.602	47396.31
674.951	46973.5
675.3	46748.64
675.649	47507.72
675.998	47437.21
676.346	47429.53
676.695	47620.71
677.044	47294.39
677.393	47373.03
677.741	47506.82
678.09	47184.79
678.438	47129.88
678.787	47260.95
679.135	47149.76
679.484	47027.51
679.832	47111.57
680.181	47031.35
680.529	46945.25
680.877	46860.51
681.225	46943.44
681.573	47022.08
681.922	46782.99
682.27	46605.37
682.618	46681.53
682.966	46419.39
683.314	46633.62
683.661	46410.12
684.009	46199.28
684.357	46244.7
684.705	46157.02
685.053	46168.32
685.4	45936.91
685.748	45860.31
686.095	45973.07
686.443	45603.36
686.79	45690.37
687.138	45747.31
687.485	45642.46
687.832	45428.9
688.18	45315.46
688.527	45241.56
688.874	45075.24
689.221	45067.33
689.568	44939.65
689.915	44732.43
690.262	44823.04
690.609	44619.66
690.956	44429.83
691.303	44383.28
691.65	44209.95
691.997	44188.49
692.344	43952.33
692.69	43969.28
693.037	43852
693.383	43467.15
693.73	43543.3
694.077	43400.48
694.423	43316.87
694.769	43104.67
695.116	43155.29
695.462	42816.32
695.808	42774.28
696.155	42793.04
696.501	42476.44
696.847	42554.86
697.193	42053.17
697.539	42191.25
697.885	41746.06
698.231	41790.58
698.577	41721.21
698.923	41652.73
699.269	41278.28
699.614	41107.66
699.96	41034.22
700.306	41026.08
700.651	40918.51
700.997	40600.78
701.342	40625.64
701.688	40614.12
702.033	40349.04
702.379	40393.33
702.724	40038.54
703.069	40170.96
703.415	39697.53
703.76	39689.17
704.105	39656.4
704.45	39393.13
704.795	39217.09
705.14	39034.5
705.485	38977.77
705.83	38890.32
706.175	38989.3
706.52	38754.96
706.865	38664.56
707.209	38558.35
707.554	38501.85
707.899	38464.57
708.243	38129.44
708.588	38135.99
708.932	38028.87
709.277	37962.21
709.621	37884.24
709.966	37691.71
710.31	37676.11
710.654	37338.27
710.998	37331.72
711.342	37388.89
711.687	37193.87
712.031	37003.14
712.375	36964.72
712.719	36868.23
713.063	36824.84
713.407	36952.74
713.75	36721.79
714.094	36790.04
714.438	36649.25
714.782	36562.47
715.125	36375.13
715.469	36486.99
715.812	36403.6
716.156	36368.58
716.499	36184.4
716.843	36322.7
717.186	36071.41
717.53	36289.71
717.873	36258.07
718.216	36173.55
718.559	36000.68
718.902	35722.27
719.246	35763.85
719.589	35671.42
719.932	35610.63
720.275	35608.37
720.617	35748.03
720.96	35571.76
721.303	35587.36
721.646	35725.2
721.989	35431.65
722.331	35511.65
722.674	35437.75
723.016	35435.95
723.359	35403.63
723.701	35388.72
724.044	35268.04
724.386	35146.69
724.729	35303.75
725.071	35246.12
725.413	35162.06
725.755	35088.39
726.097	35108.05
726.439	35070.08
726.782	34992.34
727.124	35253.13
727.465	35117.31
727.807	34911.21
728.149	35083.19
728.491	34999.8
728.833	35156.86
729.175	34987.82
729.516	34932.01
729.858	34832.35
730.199	35122.73
730.541	34939.01
730.882	34959.58
731.224	35046.13
731.565	34835.96
731.906	34975.62
732.248	35010.65
732.589	34878
732.93	34861.5
733.271	34962.96
733.612	34775.85
733.953	35122.06
734.294	34942.63
734.635	34847.49
734.976	35019.46
735.317	34842.29
735.658	34892.68
735.999	34821.73
736.339	34802.97
736.68	34885.9
737.021	35022.85
737.361	34823.53
737.702	35255.39
738.042	35155.05
738.383	35109.85
738.723	35154.15
739.063	35029.18
739.404	35267.14
739.744	35222.39
740.084	35109.18
740.424	35274.82
740.764	35376.06
741.104	35620.8
741.444	35373.35
741.784	35381.26
742.124	35625.55
742.464	35505.55
742.804	35638.43
743.143	35523.63
743.483	35669.39
743.823	35668.71
744.162	35707.13
744.502	35854.92
744.841	35921.13
745.181	35974.46
745.52	36141.24
745.86	36160.22
746.199	36172.2
746.538	36319.31
746.877	36469.59
747.216	36498.52
747.556	36667.55
747.895	36649.02
748.234	36671.17
748.573	36775.12
748.911	36940.54
749.25	36934.89
749.589	37063.25
749.928	37267.09
750.267	37443.58
750.605	37330.81
750.944	37657.13
751.283	37543.91
751.621	37886.96
751.96	37743.46
752.298	37943.68
752.636	38103.22
752.975	38154.29
753.313	38144.58
753.651	38531.68
753.989	38324.91
754.327	38643.32
754.666	38458.24
755.004	38759.02
755.342	38935.97
755.679	39090.54
756.017	39039.47
756.355	39186.81
756.693	39206.92
757.031	39600.13
757.368	39360.59
757.706	39660.24
758.044	39555.16
758.381	39779.79
758.719	39730.52
759.056	40079.21
759.394	40024.3
759.731	39855.94
760.068	40096.39
760.405	40176.61
760.743	40197.18
761.08	40478.53
761.417	40372.54
761.754	40336.38
762.091	40465.19
762.428	40313.33
762.765	40388.36
763.102	40512.88
763.438	40604.85
763.775	40529.6
764.112	40662.7
764.449	40826.77
764.785	40801.46
765.122	40598.3
765.458	40541.12
765.795	40662.7
766.131	40808.23
766.467	40711.97
766.804	40555.81
767.14	40598.07
767.476	40533.67
767.812	40569.82
768.148	40784.96
768.485	40565.53
768.821	40425.87
769.157	40464.97
769.492	40435.82
769.828	40462.26
770.164	40050.51
770.5	40127.57
770.836	40177.52
771.171	40118.08
771.507	40118.54
771.842	39892.78
772.178	39903.4
772.513	39855.49
772.849	39604.42
773.184	39700.24
773.519	39561.26
773.855	39536.18
774.19	39449.17
774.525	39573.24
774.86	39276.52
775.195	39164.66
775.53	39106.58
775.865	38956.08
776.2	38752.24
776.535	38620.04
776.87	38707.27
777.205	38550.67
777.539	38521.52
777.874	38554.51
778.209	38117.01
778.543	38169.66
778.878	37922.21
779.212	37904.58
779.547	37717.02
779.881	37816.45
780.215	37483.8
780.55	37699.16
780.884	37444.03
781.218	37208.56
781.552	37479.51
781.886	37163.58
782.22	36974.21
782.554	36858.96
782.888	36609.48
783.222	36446.54
783.556	36385.3
783.889	36226.21
784.223	36229.37
784.557	36109.83
784.89	36210.62
785.224	35830.96
785.557	35724.07
785.891	35635.49
786.224	35670.97
786.558	35626.68
786.891	35382.84
787.224	35086.13
787.557	34972.23
787.891	35075.05
788.224	34846.58
788.557	34853.82
788.89	34816.3
789.223	34620.83
789.556	34453.15
789.888	34416.76
790.221	34283.89
790.554	33988.98
790.887	34170.44
791.219	34094.06
791.552	33951.47
791.884	33749.89
792.217	33748.99
792.549	33503.12
792.882	33410.01
793.214	33291.6
793.546	33280.07
793.879	32972.96
794.211	32884.15
794.543	33067.2
794.875	32946.97
795.207	32758.05
795.539	32702.91
795.871	32746.3
796.203	32530.03
796.535	32416.14
796.867	32359.19
797.198	31965.3
797.53	32037.39
797.862	31875.81
798.193	32109.93
798.525	31803.95
798.856	31938.64
799.188	31443.06
799.519	31413.23
799.85	31380.46
800.182	31361.03
800.513	31497.97
800.844	31007.36
801.175	31135.95
801.506	31217.07
801.837	30920.81
802.168	30854.6
802.499	30946.12
802.83	30694.83
803.161	30515.85
803.491	30517.88
803.822	30558.56
804.153	30258.46
804.483	30126.48
804.814	29990.21
805.145	30156.31
805.475	30152.02
805.805	29993.15
806.136	29995.64
806.466	29812.82
806.796	29800.61
807.126	29564.91
807.457	29627.96
807.787	29696.21
808.117	29535.76
808.447	29403.56
808.777	29542.99
809.107	29122.21
809.436	29132.61
809.766	29119.95
810.096	29124.7
810.426	29008.32
810.755	29080.63
811.085	28992.05
811.414	29020.07
811.744	28875.22
812.073	28691.94
812.403	28614.88
812.732	28421.67
813.061	28526.07
813.39	28418.05
813.719	28331.73
814.049	28427.32
814.378	28412.85
814.707	28236.59
815.036	28219.41
815.365	28034.33
815.693	27938.06
816.022	27954.11
816.351	27750.73
816.68	27712.53
817.008	27824.4
817.337	27474.8
817.665	27632.76
817.994	27605.64
818.322	27687.22
818.651	27544.18
818.979	27312.54
819.307	27423.05
819.636	27398.42
819.964	27122.27
820.292	27377.85
820.62	27224.41
820.948	27311.87
821.276	27354.58
821.604	27234.81
821.932	27496.49
822.259	27363.84
822.587	27214.02
822.915	27156.62
823.243	27289.72
823.57	27136.28
823.898	27260.34
824.225	27279.33
824.553	27234.81
824.88	27197.75
825.207	27358.87
825.535	27117.52
825.862	27267.57
826.189	27260.12
826.516	27283.17
826.843	27354.13
827.17	27270.29
827.497	27461.92
827.824	27313.67
828.151	27345.54
828.478	27177.41
828.805	27432.99
829.131	27345.09
829.458	27400.23
829.785	27141.48
830.111	27165.43
830.438	27368.81
830.764	27208.37
831.09	27237.07
831.417	27098.99
831.743	27311.87
832.069	27273.22
832.395	27163.62
832.722	27313.45
833.048	27123.17
833.374	27350.06
833.7	27124.53
834.026	27180.12
834.351	27142.61
834.677	27180.12
835.003	27155.71
835.329	27135.37
835.654	27118.65
835.98	26943.97
836.306	27066.9
836.631	26900.58
836.956	27163.62
837.282	27093.34
837.607	26999.33
837.932	26896.06
838.258	26915.72
838.583	26857.64
838.908	26786.23
839.233	26901.48
839.558	26732.9
839.883	26696.06
840.208	26476.63
840.533	26620.13
840.858	26603.64
841.182	26650.19
841.507	26472.11
841.832	26379.91
842.156	26392.12
842.481	26295.85
842.805	26124.55
843.13	26176.76
843.454	26245
843.778	26140.15
844.103	26014.73
844.427	25954.39
844.751	26026.7
845.075	25927.5
845.399	25819.93
845.723	25780.38
846.047	25715.07
846.371	25515.53
846.695	25401.41
847.019	25412.03
847.343	25304.69
847.666	25095.65
847.99	25090.23
848.313	25028.08
848.637	24866.06
848.96	24916.9
849.284	24841.88
849.607	24641.2
849.931	24627.64
850.254	24459.29
850.577	24368.44
850.9	24096.81
851.223	24128
851.546	24036.92
851.869	23831.73
852.192	24023.37
852.515	23755.58
852.838	23552.87
853.161	23588.57
853.483	23562.59
853.806	23530.5
854.129	23455.47
854.451	23403.49
854.774	23256.61
855.096	23051.19
855.419	23112.65
855.741	23041.24
856.063	22971.87
856.385	22855.03
856.708	22807.35
857.03	22814.36
857.352	22718.32
857.674	22628.83
857.996	22549.28
858.318	22435.16
858.64	22358.55
858.961	22432.67
859.283	22269.97
859.605	22106.81
859.926	22143.64
860.248	22065.9
860.57	21912.23
860.891	22006.02
861.212	21847.38
861.534	21640.15
861.855	21682.18
862.176	21816.19
862.498	21889.41
862.819	21756.08
863.14	21588.4
863.461	21608.06
863.782	21552.24
864.103	21563.54
864.424	21473.6
864.745	21461.62
865.065	21324.91
865.386	21306.37
865.707	21316.54
866.027	21308.41
866.348	21181.63
866.668	21196.32
866.989	21131.92
867.309	20929.44
867.63	21061.86
867.95	21130.11
868.27	20989.55
868.59	21129.88
868.91	21044.69
869.23	20960.4
869.55	20778.48
869.87	20813.28
870.19	20737.12
870.51	20826.39
870.83	20706.39
871.15	20531.03
871.469	20604.02
871.789	20760.85
872.109	20670.23
872.428	20514.76
872.748	20613.29
873.067	20513.63
873.386	20507.98
873.706	20369.22
874.025	20385.72
874.344	20289.68
874.663	20448.09
874.982	20312.73
875.301	20284.25
875.62	20168.78
875.939	20173.07
876.258	20255.55
876.577	20157.03
876.896	20107.99
877.214	20099.85
877.533	20028.44
877.852	20125.39
878.17	19876.13
878.489	20041.1
878.807	19987.99
879.125	19925.39
879.444	19973.08
879.762	19773.76
880.08	19856.47
880.398	19777.6
880.716	19772.18
881.034	19672.75
881.352	19723.82
881.67	19692.41
881.988	19517.95
882.306	19445.86
882.624	19411.51
882.941	19392.07
883.259	19333.09
883.577	19382.58
883.894	19240.67
884.212	19270.72
884.529	19131.06
884.846	19125.64
885.164	18954.12
885.481	19110.95
885.798	19027.79
886.115	18950.96
886.432	18907.79
886.75	18908.02
887.067	18920.45
887.383	18832.32
887.7	18811.98
888.017	18588.25
888.334	18685.2
888.651	18610.4
888.967	18501.93
889.284	18498.99
889.6	18298.54
889.917	18274.59
890.233	18369.05
890.55	18196.63
890.866	18227.36
891.182	18151.43
891.498	18082.96
891.815	17997.99
892.131	17920.7
892.447	18030.53
892.763	18026.46
893.079	17891.55
893.395	17800.48
893.71	17680.03
894.026	17612.91
894.342	17730.2
894.657	17611.1
894.973	17473.48
895.289	17447.95
895.604	17405.23
895.92	17299.47
896.235	17311.68
896.55	17300.38
896.865	17241.62
897.181	17052.48
897.496	17155.07
897.811	16954.4
898.126	16963.44
898.441	16962.53
898.756	16905.13
899.071	16833.27
899.386	16759.83
899.7	16616.1
900.015	16428.76
900.33	16484.58
900.644	16430.12
900.959	16534.07
901.273	16353.74
901.588	16368.65
901.902	16276.9
902.216	16159.39
902.531	16182.44
902.845	16066.06
903.159	15960.53
903.473	15914.2
903.787	15863.58
904.101	15858.83
904.415	15840.76
904.729	15773.41
905.042	15696.35
905.356	15657.48
905.67	15569.35
905.984	15585.17
906.297	15409.58
906.611	15292.07
906.924	15367.32
907.237	15270.6
907.551	15241.45
907.864	15145.41
908.177	15171.39
908.491	15049.59
908.804	14965.98
909.117	14908.58
909.43	14795.59
909.743	14723.5
910.056	14739.09
910.368	14728.02
910.681	14644.63
910.994	14645.98
911.307	14604.63
911.619	14440.57
911.932	14493.45
912.244	14327.58
912.557	14312.21
912.869	14256.84
913.181	14180.23
913.494	14183.4
913.806	14029.5
914.118	14028.83
914.43	13904.76
914.742	13900.24
915.054	13775.73
915.366	13754.48
915.678	13712.68
915.99	13573.24
916.302	13580.7
916.613	13455.28
916.925	13516.52
917.236	13407.37
917.548	13344.1
917.859	13366.02
918.171	13221.84
918.482	13181.39
918.794	13144.78
919.105	13064.11
919.416	12981.4
919.727	13026.37
920.038	12944.33
920.349	12806.94
920.66	12764.45
920.971	12778.01
921.282	12744.34
921.593	12631.12
921.903	12580.5
922.214	12595.19
922.525	12502.76
922.835	12478.81
923.146	12413.95
923.456	12342.54
923.767	12222.32
924.077	12197.46
924.387	12172.83
924.697	12094.19
925.008	12111.59
925.318	12015.09
925.628	12057.35
925.938	11961.31
926.248	11792.05
926.558	11810.35
926.867	11800.41
927.177	11743.01
927.487	11626.18
927.796	11592.96
928.106	11538.04
928.416	11514.32
928.725	11486.75
929.034	11398.16
929.344	11456.01
929.653	11346.64
929.962	11270.71
930.271	11194.55
930.581	11187.32
930.89	11035.23
931.199	11045.85
931.508	11084.72
931.817	10982.8
932.125	10988.23
932.434	10923.82
932.743	10790.95
933.051	10745.75
933.36	10648.12
933.669	10671.85
933.977	10664.85
934.286	10642.7
934.594	10562.02
934.902	10482.7
935.21	10404.51
935.519	10407.45
935.827	10399.54
936.135	10293.56
936.443	10239.32
936.751	10166.1
937.059	10159.1
937.367	10164.97
937.674	10137.63
937.982	10095.14
938.29	10011.98
938.597	10021.93
938.905	9914.13
939.213	9922.04
939.52	9790.75
939.827	9877.07
940.135	9728.15
940.442	9722.95
940.749	9709.17
941.056	9629.62
941.363	9508.49
941.67	9552.79
941.977	9512.56
942.284	9471.43
942.591	9431.21
942.898	9392.56
943.205	9342.62
943.511	9270.99
943.818	9193.25
944.125	9111.44
944.431	9159.12
944.738	9097.43
945.044	9145.34
945.35	9051.56
945.657	8992.12
945.963	9022.18
946.269	8928.85
946.575	8879.36
946.881	8796.65
947.187	8805.69
947.493	8744.9
947.799	8687.72
948.105	8711.45
948.41	8629.87
948.716	8611.79
949.022	8575.18
949.327	8543.55
949.633	8500.38
949.938	8515.98
950.244	8420.84
950.549	8323.44
950.854	8321.86
951.16	8339.03
951.465	8255.19
951.77	8206.38
952.075	8218.13
952.38	8157.57
952.685	8097.23
952.99	8061.07
953.294	8020.4
953.599	7953.28
953.904	7904.24
954.209	7939.95
954.513	7881.42
954.818	7853.62
955.122	7833.28
955.426	7817.24
955.731	7751.03
956.035	7701.08
956.339	7680.07
956.643	7669.9
956.948	7562.56
957.252	7590.58
957.556	7514.65
957.86	7491.37
958.163	7468.32
958.467	7445.95
958.771	7438.26
959.075	7399.17
959.378	7318.49
959.682	7285.05
959.985	7248.44
960.289	7216.8
960.592	7161.44
960.896	7118.95
961.199	7141.1
961.502	7104.04
961.805	7090.03
962.108	7033.53
962.411	7013.19
962.714	6984.49
963.017	6901.78
963.32	6916.7
963.623	6844.83
963.926	6831.95
964.228	6847.09
964.531	6803.71
964.833	6774.78
965.136	6692.75
965.438	6696.59
965.741	6638.96
966.043	6612.3
966.345	6611.85
966.648	6527.55
966.95	6547.67
967.252	6525.29
967.554	6518.06
967.856	6461.12
968.158	6417.05
968.46	6430.16
968.761	6381.8
969.063	6332.53
969.365	6314.23
969.666	6274
969.968	6194.91
970.269	6199.2
970.571	6198.52
970.872	6184.74
971.174	6159.43
971.475	6120.79
971.776	6081.92
972.077	6090.28
972.378	6052.54
972.679	6042.82
972.98	6023.61
973.281	5941.36
973.582	5957.4
973.883	5944.52
974.183	5840.34
974.484	5828.82
974.785	5807.12
975.085	5787.69
975.386	5819.32
975.686	5737.29
975.986	5712.21
976.287	5712.66
976.587	5615.49
976.887	5629.95
977.187	5615.71
977.487	5595.15
977.787	5570.97
978.087	5521.25
978.387	5546.34
978.687	5471.54
978.987	5439.9
979.286	5417.08
979.586	5406.68
979.885	5383.86
980.185	5373.01
980.484	5376.17
980.784	5357.42
981.083	5266.57
981.382	5236.51
981.682	5240.81
981.981	5207.14
982.28	5173.92
982.579	5117.2
982.878	5114.94
983.177	5110.64
983.475	5075.62
983.774	5047.37
984.073	5021.83
984.372	5005.79
984.67	4987.48
984.969	5027.25
985.267	5015.96
985.566	4962.62
985.864	4890.76
986.162	4845.34
986.461	4858.22
986.759	4796.53
987.057	4772.57
987.355	4805.57
987.653	4798.33
987.951	4714.04
988.249	4717.21
988.547	4652.8
988.844	4647.83
989.142	4674.95
989.44	4618.23
989.737	4590.2
990.035	4581.16
990.332	4584.1
990.63	4549.3
990.927	4528.51
991.224	4491.45
991.521	4460.04
991.819	4432.24
992.116	4444.67
992.413	4392.7
992.71	4374.39
993.006	4380.94
993.303	4337.33
993.6	4361.51
993.897	4326.93
994.193	4286.94
994.49	4247.39
994.787	4195.86
995.083	4199.25
995.379	4181.4
995.676	4183.66
995.972	4133.04
996.268	4132.59
996.565	4094.17
996.861	4042.65
997.157	4062.53
997.453	3977.56
997.749	3988.64
998.044	3965.81
998.34	3966.04
998.636	3931.01
998.932	3957.45
999.227	3903.22
999.523	3923.56
999.818	3870
1000.114	3819.38
1000.409	3808.98
1000.704	3765.14
1001	3795.87
1001.295	3765.82
1001.59	3723.79
1001.885	3704.35
1002.18	3713.39
1002.475	3618.7
1002.77	3663.67
1003.065	3581.42
1003.359	3637.46
1003.654	3613.05
1003.949	3559.72
1004.243	3547.75
1004.538	3496
1004.832	3498.03
1005.127	3470.91
1005.421	3432.95
1005.715	3425.49
1006.009	3441.53
1006.304	3421.2
1006.598	3399.05
1006.892	3353.85
1007.186	3303.46
1007.48	3347.75
1007.773	3307.75
1008.067	3280.18
1008.361	3249.9
1008.655	3225.72
1008.948	3233.63
1009.242	3201.77
1009.535	3194.99
1009.829	3201.54
1010.122	3130.81
1010.415	3100.53
1010.708	3117.93
1011.001	3065.72
1011.295	3064.59
1011.588	3044.93
1011.881	2992.73
1012.173	3022.11
1012.466	2971.72
1012.759	2951.83
1013.052	2993.18
1013.344	2905.73
1013.637	2889.23
1013.93	2839.97
1014.222	2842.45
1014.514	2832.28
1014.807	2813.3
1015.099	2812.85
1015.391	2784.15
1015.683	2762.23
1015.976	2755.68
1016.268	2752.06
1016.56	2719.52
1016.851	2691.05
1017.143	2679.75
1017.435	2662.57
1017.727	2649.24
1018.018	2642.46
1018.31	2636.58
1018.602	2625.96
1018.893	2573.53
1019.185	2560.2
1019.476	2557.72
1019.767	2545.51
1020.058	2528.56
1020.35	2484.04
1020.641	2511.61
1020.932	2458.73
1021.223	2422.58
1021.514	2439.98
1021.804	2416.02
1022.095	2391.39
1022.386	2358.17
1022.677	2344.39
1022.967	2352.75
1023.258	2317.72
1023.548	2317.27
1023.839	2284.73
1024.129	2269.59
1024.419	2245.63
1024.709	2253.77
1025	2224.39
1025.29	2209.48
1025.58	2156.37
1025.87	2158.63
1026.16	2150.04
1026.449	2141.91
1026.739	2129.7
1027.029	2112.53
1027.319	2101
1027.608	2075.02
1027.898	2073.43
1028.187	2039.99
1028.477	2050.16
1028.766	2014
1029.055	1987.11
1029.344	2025.53
1029.634	1977.62
1029.923	1965.64
1030.212	1955.92
1030.501	1951.4
1030.79	1920.22
1031.078	1907.56
1031.367	1893.33
1031.656	1878.86
1031.945	1884.51
1032.233	1875.93
1032.522	1863.27
1032.81	1825.98
1033.099	1840.45
1033.387	1818.3
1033.675	1785.08
1033.963	1766.78
1034.251	1757.51
1034.54	1752.31
1034.828	1728.81
1035.116	1742.6
1035.403	1759.09
1035.691	1689.72
1035.979	1679.77
1036.267	1686.1
1036.554	1652.88
1036.842	1673.22
1037.129	1669.38
1037.417	1638.87
1037.704	1612.88
1037.992	1583.05
1038.279	1585.54
1038.566	1595.71
1038.853	1595.71
1039.14	1595.71
