Data from 15-0543_FLMS001491_001.txt Node
Date: Thu Apr 19 15:41:44 BST 2018
User: hsy
Spectrometer: FLMS00149
Trigger mode: 0
Integration Time (sec): 1.000000E-2
Scans to average: 10
Electric dark correction enabled: true
Nonlinearity correction enabled: false
Boxcar width: 0
XAxis mode: Wavelengths
Number of Pixels in Spectrum: 2048
>>>>>Begin Spectral Data<<<<<
341.393	0.06
341.776	0.06
342.16	0.06
342.543	-49.66
342.927	-64.35
343.31	-48.3
343.693	-52.6
344.077	-68.64
344.46	-55.54
344.843	-40.85
345.226	-53.73
345.61	-29.55
345.993	-22.32
346.376	-10.56
346.759	-6.5
347.142	35.99
347.525	26.04
347.908	57.68
348.291	78.92
348.674	79.6
349.057	110.34
349.44	131.58
349.823	142.2
350.206	180.39
350.588	218.36
350.971	268.07
351.354	258.35
351.737	281.41
352.119	310.33
352.502	299.03
352.884	341.74
353.267	339.03
353.65	315.53
354.032	373.15
354.414	377.9
354.797	377.67
355.179	352.14
355.562	364.79
355.944	363.89
356.326	393.27
356.709	391.46
357.091	408.41
357.473	385.81
357.855	413.38
358.238	404.79
358.62	393.72
359.002	394.62
359.384	402.53
359.766	406.6
360.148	399.37
360.53	390.78
360.912	396.43
361.294	372.7
361.676	404.79
362.057	388.97
362.439	392.14
362.821	382.42
363.203	398.01
363.584	412.93
363.966	397.33
364.348	407.5
364.729	387.84
365.111	377
365.493	384.91
365.874	400.72
366.256	378.13
366.637	390.55
367.019	376.32
367.4	400.27
367.781	400.95
368.163	382.19
368.544	406.15
368.925	409.09
369.306	416.99
369.688	393.72
370.069	401.4
370.45	384.45
370.831	411.35
371.212	395.75
371.593	414.51
371.974	379.71
372.355	392.36
372.736	404.57
373.117	407.96
373.498	389.2
373.879	382.87
374.26	386.71
374.641	396.66
375.021	398.01
375.402	406.37
375.783	432.14
376.163	411.8
376.544	424.45
376.925	437.11
377.305	432.14
377.686	432.14
378.066	419.71
378.447	433.94
378.827	425.36
379.208	414.06
379.588	420.61
379.968	417.9
380.349	431.23
380.729	439.14
381.109	423.1
381.489	457.22
381.87	442.08
382.25	461.51
382.63	456.54
383.01	474.85
383.39	445.47
383.77	450.44
384.15	452.7
384.53	453.6
384.91	501.29
385.29	488.18
385.67	472.81
386.049	470.55
386.429	478.01
386.809	471
387.189	507.61
387.568	494.73
387.948	520.49
388.328	508.74
388.707	509.87
389.087	500.38
389.466	504.22
389.846	520.49
390.225	523.21
390.605	494.96
390.984	517.33
391.363	531.79
391.743	528.18
392.122	538.57
392.501	532.02
392.881	561.4
393.26	554.84
393.639	559.36
394.018	570.66
394.397	573.15
394.776	583.77
395.155	564.56
395.534	582.64
395.913	590.78
396.292	576.99
396.671	590.1
397.05	581.51
397.429	581.06
397.808	570.89
398.186	578.8
398.565	575.63
398.944	605.01
399.323	605.69
399.701	628.74
400.08	636.65
400.458	626.48
400.837	621.74
401.215	644.79
401.594	645.46
401.972	654.28
402.351	642.53
402.729	671.9
403.107	646.82
403.486	661.51
403.864	681.17
404.242	661.96
404.62	644.79
404.999	670.55
405.377	697.21
405.755	690.21
406.133	682.75
406.511	714.61
406.889	705.57
407.267	737.89
407.645	713.94
408.023	747.38
408.401	708.74
408.779	757.1
409.156	777.21
409.534	775.63
409.912	783.76
410.29	785.57
410.667	769.75
411.045	789.87
411.422	788.06
411.8	829.87
412.178	796.65
412.555	851.79
412.933	847.94
413.31	862.63
413.687	844.33
414.065	855.4
414.442	869.19
414.819	862.18
415.197	883.2
415.574	889.98
415.951	901.95
416.328	905.57
416.705	899.69
417.082	915.06
417.46	940.6
417.837	936.98
418.214	924.33
418.591	920.94
418.967	957.77
419.344	941.73
419.721	958.9
420.098	942.86
420.475	951.9
420.852	973.59
421.228	993.48
421.605	1021.5
421.982	1000.48
422.358	1009.97
422.735	1031.67
423.111	1054.27
423.488	1024.89
423.864	1038.22
424.241	1051.33
424.617	1083.64
424.994	1070.08
425.37	1084.32
425.746	1085.9
426.123	1082.74
426.499	1126.13
426.875	1103.08
427.251	1162.96
427.627	1158.67
428.003	1169.74
428.379	1166.58
428.756	1179.46
429.132	1186.69
429.507	1204.09
429.883	1252.9
430.259	1219.23
430.635	1265.79
431.011	1263.98
431.387	1274.15
431.763	1319.34
432.138	1319.57
432.514	1331.32
432.89	1350.98
433.265	1376.97
433.641	1384.43
434.016	1392.56
434.392	1397.99
434.767	1414.48
435.143	1422.39
435.518	1427.59
435.894	1484.76
436.269	1454.71
436.644	1497.87
437.02	1486.57
437.395	1480.47
437.77	1558.89
438.145	1518.43
438.52	1568.83
438.895	1578.55
439.271	1579
439.646	1582.16
440.021	1631.43
440.395	1612.67
440.77	1586.68
441.145	1620.35
441.52	1666.45
441.895	1650.86
442.27	1695.38
442.645	1658.09
443.019	1696.06
443.394	1673.23
443.769	1698.77
444.143	1722.27
444.518	1731.31
444.892	1721.37
445.267	1749.16
445.641	1762.27
446.016	1774.02
446.39	1781.03
446.764	1769.28
447.139	1781.03
447.513	1817.41
447.887	1800.46
448.262	1849.05
448.636	1848.37
449.01	1858.09
449.384	1894.92
449.758	1899.67
450.132	1938.08
450.506	1912.77
450.88	1943.28
451.254	1930.4
451.628	1967.01
452.002	1989.16
452.376	2011.3
452.75	2002.94
453.123	2046.56
453.497	2087.46
453.871	2104.18
454.244	2161.13
454.618	2185.99
454.992	2188.7
455.365	2189.6
455.739	2238.87
456.112	2242.71
456.486	2292.2
456.859	2311.18
457.232	2355.02
457.606	2389.82
457.979	2382.14
458.352	2451.52
458.725	2457.17
459.099	2485.64
459.472	2482.25
459.845	2561.8
460.218	2585.07
460.591	2592.98
460.964	2614.9
461.337	2667.11
461.71	2685.86
462.083	2773.77
462.456	2750.04
462.829	2748.01
463.201	2837.95
463.574	2834.33
463.947	2850.6
464.32	2908.68
464.692	2940.09
465.065	2954.1
465.438	2998.17
465.81	3075.23
466.183	3035.91
466.555	3115.68
466.928	3169.24
467.3	3131.27
467.672	3232.51
468.045	3274.77
468.417	3288.56
468.789	3302.57
469.161	3317.26
469.534	3418.95
469.906	3477.71
470.278	3489.91
470.65	3540.98
471.022	3579.85
471.394	3652.84
471.766	3703.69
472.138	3759.51
472.51	3838.37
472.882	3883.8
473.253	3891.03
473.625	3949.78
473.997	4034.3
474.369	4052.83
474.74	4154.52
475.112	4178.03
475.484	4258.93
475.855	4307.51
476.227	4413.73
476.598	4541.41
476.97	4597
477.341	4691.01
477.713	4722.87
478.084	4782.08
478.455	4949.08
478.827	4982.98
479.198	5094.16
479.569	5174.38
479.94	5299.8
480.311	5331.67
480.682	5450.08
481.053	5564.43
481.424	5675.84
481.795	5808.49
482.166	5922.16
482.537	5952.89
482.908	6123.74
483.279	6189.72
483.65	6313.11
484.021	6474.69
484.391	6588.13
484.762	6660.67
485.133	6797.39
485.503	6888.69
485.874	7088.91
486.244	7157.61
486.615	7327.77
486.985	7449.13
487.356	7617.26
487.726	7710.36
488.097	7980.86
488.467	8097.24
488.837	8239.84
489.207	8478.25
489.578	8593.95
489.948	8775.87
490.318	8927.96
490.688	9081.4
491.058	9241.17
491.428	9427.15
491.798	9607.49
492.168	9841.83
492.538	9991.43
492.908	10246.57
493.278	10455.83
493.648	10556.62
494.017	10747.12
494.387	10973.78
494.757	11247.9
495.126	11377.38
495.496	11506.65
495.866	11763.59
496.235	12042.9
496.605	12255.1
496.974	12380.97
497.344	12607.86
497.713	12925.82
498.082	13036.1
498.452	13383.66
498.821	13591.34
499.19	13646.03
499.559	14022.96
499.928	14122.17
500.298	14444.42
500.667	14738.88
501.036	14884.18
501.405	15178.19
501.774	15433.1
502.143	15702.02
502.512	15992.4
502.88	16217.71
503.249	16387.65
503.618	16710.58
503.987	16850.23
504.356	17210.68
504.724	17486.15
505.093	17753.26
505.462	17938.12
505.83	18224.66
506.199	18411.55
506.567	18850.41
506.936	18990.97
507.304	19368.36
507.672	19676.6
508.041	19854.22
508.409	20209.47
508.777	20484.49
509.145	20794.54
509.514	20941.2
509.882	21308.87
510.25	21447.4
510.618	21818.01
510.986	21967.84
511.354	22229.08
511.722	22625
512.09	22898.66
512.458	22978.44
512.826	23390.63
513.193	23471.53
513.561	23884.85
513.929	24054.57
514.297	24321
514.664	24477.83
515.032	24621.56
515.4	25052.51
515.767	25235.55
516.135	25458.82
516.502	25523
516.869	25956.21
517.237	26152.82
517.604	26158.01
517.972	26667.83
518.339	26840.25
518.706	27103.52
519.073	27219.68
519.44	27477.98
519.808	27756.39
520.175	27837.29
520.542	28171.07
520.909	28371.74
521.276	28606.08
521.643	28771.05
522.009	29166.75
522.376	29292.62
522.743	29455.55
523.11	29905.48
523.477	30125.59
523.843	30237.68
524.21	30681.51
524.577	30957.89
524.943	30996.98
525.31	31146.58
525.676	31615.04
526.043	31922.15
526.409	32018.65
526.776	32320.11
527.142	32454.8
527.508	32684.85
527.874	33061.56
528.241	33091.84
528.607	33278.05
528.973	33704.71
529.339	33622.68
529.705	34012.5
530.071	34254.07
530.437	34461.98
530.803	34692.7
531.169	34827.39
531.535	34924.79
531.901	35008.63
532.267	35220.83
532.632	35417.66
532.998	35545.79
533.364	35787.14
533.73	35775.84
534.095	36081.82
534.461	36185.09
534.826	36436.61
535.192	36417.4
535.557	36788.69
535.923	36731.07
536.288	36852.65
536.653	37081.34
537.019	36832.08
537.384	37067.33
537.749	37128.12
538.114	37255.35
538.479	37247.44
538.845	37290.38
539.21	37264.84
539.575	37566.53
539.94	37736.47
540.305	37795.45
540.67	37671.16
541.034	37856.46
541.399	37901.43
541.764	37997.48
542.129	38030.69
542.494	38081.99
542.858	38363.79
543.223	38118.6
543.587	38526.73
543.952	38382.1
544.316	38537.8
544.681	38477.01
545.045	38621.64
545.41	38694.18
545.774	38624.8
546.138	38696.21
546.503	38865.25
546.867	38885.36
547.231	39050.33
547.595	39012.36
547.959	39168.74
548.324	39213.49
548.688	39154.96
549.052	39112.93
549.416	39221.85
549.779	39321.96
550.143	39478.57
550.507	39414.39
550.871	39521.5
551.235	39487.15
551.599	39916.3
551.962	39884.88
552.326	39881.27
552.689	39861.61
553.053	39745.9
553.417	39969.63
553.78	40078.1
554.143	40218.66
554.507	40322.39
554.87	40476.96
555.234	40551.08
555.597	40472.89
555.96	40592.44
556.323	40705.88
556.686	40699.33
557.05	40975.93
557.413	41043.27
557.776	41101.57
558.139	41281.23
558.502	41202.14
558.865	41215.47
559.228	41465.63
559.59	41516.03
559.953	41652.75
560.316	41988.11
560.679	41854.32
561.041	42113.53
561.404	42259.96
561.767	42418.83
562.129	42290.92
562.492	42711.93
562.854	42704.24
563.217	42795.54
563.579	42719.84
563.941	43148.53
564.304	43106.04
564.666	43490.44
565.028	43276.43
565.39	43456.31
565.753	43760.71
566.115	43713.94
566.477	43888.39
566.839	44052.23
567.201	44435.05
567.563	44252.68
567.925	44577.19
568.287	44467.14
568.648	44745.32
569.01	44853.34
569.372	45215.82
569.734	45109.83
570.095	45293.1
570.457	45415.81
570.819	45391.63
571.18	45487.9
571.542	45726.99
571.903	45818.06
572.265	46069.81
572.626	46099.18
572.987	46135.79
573.349	46475.67
573.71	46598.15
574.071	46606.74
574.432	46869.78
574.794	47113.39
575.155	47029.55
575.516	46935.77
575.877	47179.61
576.238	47167.63
576.599	47352.03
576.96	47369.21
577.32	47405.14
577.681	47631.57
578.042	47818.01
578.403	47761.29
578.763	47876.09
579.124	47909.31
579.485	48108.85
579.845	48241.27
580.206	48138.68
580.566	48167.15
580.927	48284.44
581.287	48446.24
581.648	48330.99
582.008	48619.8
582.368	48637.42
582.728	48530.31
583.089	48695.5
583.449	48746.8
583.809	48683.3
584.169	48770.07
584.529	48784.31
584.889	49136.17
585.249	48934.14
585.609	48842.84
585.969	49009.84
586.329	49037.41
586.688	49220.46
587.048	49092.55
587.408	49205.09
587.768	49231.3
588.127	49237.41
588.487	49192.44
588.846	49569.6
589.206	49313.79
589.565	49325.09
589.925	49607.34
590.284	49635.36
590.643	49531.86
591.003	49692.99
591.362	49897.05
591.721	49828.12
592.08	49845.07
592.44	49995.13
592.799	49986.09
593.158	49934.56
593.517	49968.69
593.876	50136.82
594.235	50186.08
594.593	50136.37
594.952	50284.38
595.311	50258.62
595.67	50417.26
596.029	50443.25
596.387	50543.81
596.746	50746.07
597.104	50512.63
597.463	50447.32
597.822	50782.22
598.18	50717.59
598.538	50801.66
598.897	50896.12
599.255	50788.78
599.613	51253.17
599.972	51035.78
600.33	51165.72
600.688	51070.13
601.046	51206.39
601.404	51389.67
601.762	51381.08
602.12	51548.76
602.478	51572.94
602.836	51593.05
603.194	51361.64
603.552	51624.24
603.91	51577.23
604.268	51701.3
604.625	51697.45
604.983	51921.18
605.341	51731.35
605.698	51944.45
606.056	52060.38
606.413	51902.42
606.771	52175.41
607.128	52071.68
607.485	52093.15
607.843	52165.01
608.2	52286.14
608.557	52436.19
608.914	52327.95
609.272	52534.04
609.629	52598.45
609.986	52758.67
610.343	52591.89
610.7	52838.89
611.057	52815.39
611.414	52755.51
611.771	52925.22
612.127	52943.52
612.484	53025.1
612.841	53032.33
613.198	53014.93
613.554	52990.53
613.911	53158.88
614.267	53266.68
614.624	53219.45
614.98	53381.7
615.337	53558.42
615.693	53411.08
616.05	53559.1
616.406	53575.6
616.762	53470.51
617.118	53579.89
617.475	53547.12
617.831	53697.63
618.187	53716.61
618.543	53756.38
618.899	53938.3
619.255	53843.61
619.611	53839.09
619.967	53994.34
620.323	54113.66
620.678	54013.1
621.034	53993.67
621.39	53939.66
621.746	53987.34
622.101	54318.63
622.457	54080.67
622.812	54196.6
623.168	54265.07
623.523	54205.18
623.879	54262.36
624.234	54164.06
624.589	54222.13
624.945	54289.7
625.3	54252.19
625.655	54266.88
626.01	54329.7
626.365	54301.45
626.72	54239.76
627.075	54218.74
627.43	54155.47
627.785	54202.93
628.14	54200.89
628.495	54322.24
628.85	54311.62
629.205	54346.65
629.559	54328.57
629.914	54146.88
630.269	54253.09
630.623	54114.34
630.978	54110.95
631.332	54235.24
631.687	54252.42
632.041	54142.59
632.396	54199.54
632.75	54124.51
633.104	54213.32
633.459	53961.58
633.813	53965.42
634.167	53991.86
634.521	53965.19
634.875	54063.95
635.229	53920.45
635.583	53727.23
635.937	53755.71
636.291	53755.03
636.645	53757.97
636.999	53569.95
637.352	53764.52
637.706	53522.94
638.06	53708.02
638.413	53567.46
638.767	53436.62
639.121	53472.32
639.474	53408.14
639.828	53456.28
640.181	53448.59
640.534	53420.57
640.888	53217.87
641.241	53087.25
641.594	53222.16
641.947	53326.11
642.301	53181.93
642.654	53134.93
643.007	53094.25
643.36	53254.02
643.713	53147.59
644.066	53230.75
644.419	53012
644.771	52693.81
645.124	52411.79
645.477	52376.53
645.83	52335.63
646.182	52232.36
646.535	52250.43
646.888	52284.11
647.24	52202.3
647.593	52383.09
647.945	52126.82
648.298	52096.99
648.65	51965.92
649.002	51802.76
649.355	51690.9
649.707	51516.22
650.059	51673.05
650.411	52081.4
650.763	52232.81
651.115	52769.06
651.467	52506.25
651.819	52580.37
652.171	52558
652.523	52543.31
652.875	52470.99
653.227	52399.13
653.578	52627.6
653.93	52582.18
654.282	52341.73
654.633	52313.71
654.985	52481.61
655.337	52498.34
655.688	52443.88
656.039	52627.83
656.391	52265.8
656.742	52236.42
657.094	52338.34
657.445	52416.31
657.796	52550.09
658.147	52319.58
658.498	52429.19
658.849	52448.85
659.2	52466.02
659.551	52379.24
659.902	52557.32
660.253	52428.51
660.604	52528.84
660.955	52328.85
661.306	52525.91
661.656	52430.77
662.007	52418.11
662.358	52477.09
662.708	52499.69
663.059	52439.13
663.409	52310.09
663.76	52542.63
664.11	52530.88
664.461	52621.95
664.811	52633.93
665.161	52620.14
665.511	52517.09
665.862	52506.92
666.212	52614.04
666.562	52599.35
666.912	52499.47
667.262	52473.93
667.612	52428.96
667.962	52486.36
668.312	52480.48
668.662	52672.34
669.011	52612.68
669.361	52532.01
669.711	52605.45
670.06	52478.68
670.41	52422.86
670.76	52401.62
671.109	52556.19
671.459	52447.04
671.808	52442.97
672.157	52525.68
672.507	52274.39
672.856	52337.89
673.205	52388.74
673.554	52349.87
673.904	52257.89
674.253	52536.08
674.602	52321.62
674.951	51920.5
675.3	51734.74
675.649	52282.98
675.998	52287.27
676.346	52203.2
676.695	52395.29
677.044	52035.3
677.393	52212.02
677.741	52157.1
678.09	52120.04
678.438	52061.06
678.787	52107.84
679.135	52075.3
679.484	51823.55
679.832	51902.65
680.181	51899.71
680.529	51866.94
680.877	51751.46
681.225	51775.42
681.573	51975.19
681.922	51714.85
682.27	51656.33
682.618	51625.14
682.966	51469.89
683.314	51508.98
683.661	51428.99
684.009	51425.82
684.357	51245.04
684.705	51141.54
685.053	51262.21
685.4	51013.86
685.748	50901.99
686.095	50922.56
686.443	50725.95
686.79	50677.14
687.138	50758.27
687.485	50579.07
687.832	50601.44
688.18	50570.93
688.527	50396.7
688.874	50289.81
689.221	50213.2
689.568	50073.32
689.915	50061.79
690.262	50088.46
690.609	49863.6
690.956	49654.34
691.303	49734.34
691.65	49462.03
691.997	49423.84
692.344	49272.89
692.69	49212.32
693.037	49232.89
693.383	48820.02
693.73	48942.72
694.077	48711.54
694.423	48736.63
694.769	48624.54
695.116	48516.29
695.462	48293.7
695.808	48149.52
696.155	48208.28
696.501	47832.25
696.847	47846.71
697.193	47581.4
697.539	47629.76
697.885	47377.34
698.231	47314.07
698.577	47193.62
698.923	47190.91
699.269	46756.57
699.614	46744.59
699.96	46486.52
700.306	46516.12
700.651	46340.76
700.997	46245.62
701.342	46012.18
701.688	46060.09
702.033	45788.01
702.379	45748.46
702.724	45583.94
703.069	45689.7
703.415	45263.95
703.76	45100.57
704.105	45198.42
704.45	44976.95
704.795	44859.44
705.14	44599.11
705.485	44708.26
705.83	44351.66
706.175	44404.76
706.52	44256.29
706.865	44121.61
707.209	43883.87
707.554	43799.36
707.899	43947.38
708.243	43699.02
708.588	43456.54
708.932	43304.68
709.277	43381.06
709.621	43089.77
709.966	42846.61
710.31	42941.98
710.654	42799.16
710.998	42821.08
711.342	42717.35
711.687	42562.55
712.031	42553.51
712.375	42199.85
712.719	42222.68
713.063	42216.57
713.407	42332.28
713.75	42115.11
714.094	41909.01
714.438	41857.04
714.782	41892.97
715.125	41593.99
715.469	41938.16
715.812	41494.56
716.156	41455.01
716.499	41432.64
716.843	41426.54
717.186	41210.95
717.53	41446.42
717.873	41440.1
718.216	41216.6
718.559	41103.38
718.902	40753.34
719.246	40933.9
719.589	41000.11
719.932	40804.41
720.275	40859.55
720.617	40829.04
720.96	40762.83
721.303	40660.68
721.646	40640.12
721.989	40498.65
722.331	40737.74
722.674	40488.94
723.016	40542.04
723.359	40408.71
723.701	40448.94
724.044	40363.06
724.386	40186.8
724.729	40282.39
725.071	40223.41
725.413	40279.68
725.755	40199.45
726.097	40113.8
726.439	40027.7
726.782	40107.25
727.124	40213.01
727.465	39957.42
727.807	39944.09
728.149	39921.04
728.491	39895.5
728.833	40037.42
729.175	39978.67
729.516	39810.76
729.858	39860.03
730.199	40048.95
730.541	39897.76
730.882	39867.93
731.224	40063.41
731.565	39876.52
731.906	40019.34
732.248	39996.97
732.589	39850.31
732.93	39784.55
733.271	39869.97
733.612	39816.18
733.953	40042.17
734.294	39964.2
734.635	39889.86
734.976	40044.43
735.317	39827.71
735.658	40034.26
735.999	39988.61
736.339	39811.21
736.68	40117.19
737.021	40032.68
737.361	39939.57
737.702	40191.32
738.042	40153.8
738.383	40306.57
738.723	40276.51
739.063	40253.01
739.404	40328.94
739.744	40300.92
740.084	40144.99
740.424	40444.42
740.764	40362.39
741.104	40685.31
741.444	40536.84
741.784	40382.5
742.124	40723.51
742.464	40587.92
742.804	40634.47
743.143	40654.58
743.483	40755.82
743.823	40755.37
744.162	40827.23
744.502	40948.81
744.841	40882.6
745.181	41208.92
745.52	41152.87
745.86	41189.03
746.199	41268.35
746.538	41464.5
746.877	41606.87
747.216	41706.53
747.556	41629.24
747.895	41847.32
748.234	41722.8
748.573	41916.92
748.911	41867.66
749.25	42181.32
749.589	42040.31
749.928	42478.49
750.267	42543.34
750.605	42517.13
750.944	42799.16
751.283	42838.03
751.621	42988.3
751.96	43019.49
752.298	43111.01
752.636	43299.48
752.975	43362.31
753.313	43482.75
753.651	43827.38
753.989	43729.3
754.327	43981.5
754.666	43686.37
755.004	44134.26
755.342	44257.42
755.679	44421.94
756.017	44215.62
756.355	44536.29
756.693	44621.48
757.031	44953
757.368	44823.06
757.706	45047.46
758.044	44990.06
758.381	45189.15
758.719	45047.01
759.056	45350.95
759.394	45406.09
759.731	45321.35
760.068	45394.34
760.405	45508.24
760.743	45490.61
761.08	45706.43
761.417	45764.28
761.754	45784.84
762.091	45783.26
762.428	45697.84
762.765	45710.27
763.102	45882.92
763.438	45846.53
763.775	45747.1
764.112	45849.92
764.449	45957.49
764.785	45980.99
765.122	45844.5
765.458	45807.67
765.795	45916.14
766.131	46084.27
766.467	46004.5
766.804	45773.77
767.14	45693.32
767.476	45702.81
767.812	45738.97
768.148	45916.82
768.485	45757.27
768.821	45489.71
769.157	45545.53
769.492	45588.46
769.828	45452.87
770.164	45376.04
770.5	45370.39
770.836	45287.91
771.171	45245.19
771.507	45163.16
771.842	45024.64
772.178	45102.37
772.513	45009.49
772.849	44900.34
773.184	44791.87
773.519	44872.77
773.855	44760.69
774.19	44727.47
774.525	44484.76
774.86	44601.14
775.195	44532.67
775.53	44261.72
775.865	44061.5
776.2	43908.73
776.535	43724.78
776.87	43757.32
777.205	43562.98
777.539	43626.48
777.874	43613.15
778.209	43190.79
778.543	43374.96
778.878	43240.73
779.212	43168.86
779.547	42888.42
779.881	43000.96
780.215	42585.15
780.55	42709.89
780.884	42364.37
781.218	42374.08
781.552	42439.39
781.886	42154.65
782.22	41932.06
782.554	41845.28
782.888	41535.46
783.222	41632.41
783.556	41261.57
783.889	41354
784.223	41167.34
784.557	41083.27
784.89	41159.88
785.224	40787.68
785.557	40696.61
785.891	40707.46
786.224	40495.71
786.558	40553.34
786.891	40088.72
787.224	39858.22
787.557	39822.06
787.891	39965.11
788.224	39604.21
788.557	39633.36
788.89	39591.56
789.223	39467.49
789.556	39137.11
789.888	39201.06
790.221	39040.39
790.554	38843.33
790.887	38846.72
791.219	38690.79
791.552	38598.82
791.884	38516.33
792.217	38411.48
792.549	38214.64
792.882	37940.08
793.214	37876.12
793.546	37894.2
793.879	37709.35
794.211	37451.73
794.543	37547.77
794.875	37497.83
795.207	37403.59
795.539	37325.63
795.871	37218.29
796.203	36997.73
796.535	36791.18
796.867	36735.36
797.198	36646.78
797.53	36579.89
797.862	36398.65
798.193	36545.99
798.525	36219.44
798.856	36323.17
799.188	35801.15
799.519	35785.33
799.85	35733.81
800.182	35802.96
800.513	35852.45
800.844	35360.48
801.175	35709.63
801.506	35577.43
801.837	35306.92
802.168	35235.74
802.499	35129.3
802.83	35049.3
803.161	34863.09
803.491	34904.9
803.822	34918.69
804.153	34624.46
804.483	34486.16
804.814	34292.26
805.145	34392.82
805.475	34471.01
805.805	34257.01
806.136	34148.76
806.466	34080.52
806.796	34013.4
807.126	33762.33
807.457	33732.95
807.787	33747.64
808.117	33621.32
808.447	33415
808.777	33566.41
809.107	33415.9
809.436	33216.58
809.766	33276.7
810.096	33328.45
810.426	32999.19
810.755	33081.9
811.085	33003.48
811.414	33011.17
811.744	32837.84
812.073	32730.95
812.403	32582.93
812.732	32410.28
813.061	32645.98
813.39	32421.8
813.719	32235.14
814.049	32494.12
814.378	32237.85
814.707	32076.95
815.036	32104.98
815.365	31902.04
815.693	31785.21
816.022	31886.22
816.351	31722.84
816.68	31690.07
817.008	31725.78
817.337	31415.5
817.665	31575.27
817.994	31369.63
818.322	31569.4
818.651	31360.81
818.979	31111.55
819.307	31190.65
819.636	31115.85
819.964	30911.79
820.292	31141.38
820.62	31037.21
820.948	31020.03
821.276	31169.41
821.604	31025.68
821.932	31261.61
822.259	31061.39
822.587	30834.05
822.915	31001.5
823.243	30866.14
823.57	30747.95
823.898	31031.78
824.225	30848.06
824.553	30910.88
824.88	30962.41
825.207	31073.59
825.535	30803.99
825.862	31028.62
826.189	30858.91
826.516	31109.75
826.843	31172.57
827.17	31201.95
827.497	31116.53
827.824	31097.09
828.151	31199.01
828.478	31090.76
828.805	31164.21
829.131	31123.53
829.458	31002.63
829.785	30803.31
830.111	31079.24
830.438	31066.81
830.764	31060.26
831.09	31114.27
831.417	30913.59
831.743	31110.42
832.069	30958.11
832.395	30882.86
832.722	30938.23
833.048	30872.24
833.374	31044.66
833.7	30770.55
834.026	30919.24
834.351	30940.71
834.677	30958.79
835.003	30961.05
835.329	30934.16
835.654	30826.36
835.98	30652.58
836.306	30783.43
836.631	30547.05
836.956	30830.21
837.282	30727.84
837.607	30693.94
837.932	30592.47
838.258	30508.86
838.583	30570.55
838.908	30498.24
839.233	30527.84
839.558	30340.5
839.883	30338.69
840.208	30141.18
840.533	30317
840.858	30241.97
841.182	30124.01
841.507	30152.48
841.832	29997.23
842.156	30008.53
842.481	29910.91
842.805	29855.09
843.13	29715.66
843.454	29879.72
843.778	29583.01
844.103	29562.67
844.427	29495.33
844.751	29533.74
845.075	29488.09
845.399	29391.6
845.723	29300.08
846.047	29384.82
846.371	29070.03
846.695	29051.04
847.019	28932.18
847.343	28831.16
847.666	28670.04
847.99	28624.39
848.313	28361.8
848.637	28329.26
848.96	28413.09
849.284	28294.68
849.607	28109.37
849.931	27960.23
850.254	27856.95
850.577	27619.67
850.9	27436.62
851.223	27403.4
851.546	27210.87
851.869	27207.02
852.192	27349.85
852.515	27194.14
852.838	27113.47
853.161	26939.69
853.483	26646.36
853.806	26681.39
854.129	26560.04
854.451	26531.11
854.774	26368.63
855.096	26288.63
855.419	26231.91
855.741	26230.78
856.063	26190.78
856.385	25944.91
856.708	26025.81
857.03	25870.56
857.352	25751.47
857.674	25705.37
857.996	25643.9
858.318	25490.69
858.64	25561.19
858.961	25423.12
859.283	25379.95
859.605	25146.97
859.926	25284.36
860.248	25130.47
860.57	25084.14
860.891	24978.83
861.212	24859.97
861.534	24872.17
861.855	24685.51
862.176	24744.94
862.498	24775
862.819	24759.18
863.14	24582.23
863.461	24584.72
863.782	24524.84
864.103	24509.47
864.424	24379.08
864.745	24527.77
865.065	24250.49
865.386	24192.87
865.707	24287.33
866.027	24313.77
866.348	24219.98
866.668	24149.25
866.989	24049.59
867.309	24014.34
867.63	24057.73
867.95	23956.04
868.27	23828.36
868.59	23968.24
868.91	23870.62
869.23	23769.6
869.55	23633.33
869.87	23819.09
870.19	23656.84
870.51	23689.83
870.83	23648.02
871.15	23477.41
871.469	23562.37
871.789	23557.18
872.109	23561.92
872.428	23328.26
872.748	23326.45
873.067	23277.64
873.386	23267.69
873.706	23260.69
874.025	23163.97
874.344	23133.46
874.663	23081.26
874.982	23106.79
875.301	23117.41
875.62	23022.28
875.939	22891.66
876.258	22901.6
876.577	22822.51
876.896	22813.47
877.214	22795.16
877.533	22801.26
877.852	22798.33
878.17	22649.4
878.489	22689.18
878.807	22747.93
879.125	22608.73
879.444	22523.76
879.762	22467.04
880.08	22503.87
880.398	22414.83
880.716	22392.01
881.034	22363.54
881.352	22287.83
881.67	22240.83
881.988	22288.51
882.306	22148.85
882.624	22063.43
882.941	21915.86
883.259	22039.93
883.577	21947.5
883.894	21908.63
884.212	21841.06
884.529	21843.1
884.846	21617.34
885.164	21719.49
885.481	21631.58
885.798	21736.66
886.115	21498.7
886.432	21586.83
886.75	21486.72
887.067	21491.92
887.383	21332.83
887.7	21396.56
888.017	21232.27
888.334	21252.83
888.651	21107.52
888.967	21120.41
889.284	21095.32
889.6	20894.65
889.917	20917.25
890.233	20879.06
890.55	20844.48
890.866	20776.46
891.182	20717.25
891.498	20670.7
891.815	20559.74
892.131	20476.35
892.447	20493.98
892.763	20303.7
893.079	20378.05
893.395	20282.46
893.71	20162.69
894.026	20189.36
894.342	20142.8
894.657	20067.55
894.973	19973.99
895.289	19950.72
895.604	19888.12
895.92	19729.48
896.235	19685.19
896.55	19705.75
896.865	19616.04
897.181	19624.17
897.496	19517.74
897.811	19454.23
898.126	19341.02
898.441	19208.82
898.756	19221.92
899.071	19084.75
899.386	19067.58
899.7	18905.55
900.015	18904.64
900.33	18872.78
900.644	18739.9
900.959	18746
901.273	18665.33
901.588	18547.14
901.902	18445.9
902.216	18420.36
902.531	18477.76
902.845	18270.31
903.159	18230.76
903.473	18222.63
903.787	18091.78
904.101	17949.87
904.415	17917.78
904.729	17832.81
905.042	17798.68
905.356	17739.93
905.67	17667.39
905.984	17698.12
906.297	17550.1
906.611	17480.27
906.924	17447.06
907.237	17362.31
907.551	17325.02
907.864	17332.03
908.177	17223.11
908.491	17087.29
908.804	17003.45
909.117	16941.08
909.43	16811.14
909.743	16766.4
910.056	16809.33
910.368	16712.16
910.681	16572.28
910.994	16494.76
911.307	16486.18
911.619	16287.54
911.932	16420.64
912.244	16262.91
912.557	16180.42
912.869	16095.68
913.181	16111.27
913.494	16080.99
913.806	15962.8
914.118	15862.46
914.43	15814.56
914.742	15745.86
915.054	15582.92
915.366	15577.5
915.678	15600.55
915.99	15494.34
916.302	15377.28
916.613	15283.95
916.925	15257.28
917.236	15285.98
917.548	15220.22
917.859	15050.51
918.171	15074.46
918.482	14933.9
918.794	14880.12
919.105	14819.55
919.416	14739.56
919.727	14724.19
920.038	14662.04
920.349	14567.81
920.66	14549.28
920.971	14559.9
921.282	14401.26
921.593	14410.98
921.903	14306.35
922.214	14243.52
922.525	14062.29
922.835	14139.35
923.146	14072
923.456	14033.36
923.767	14003.53
924.077	13902.06
924.387	13791.33
924.697	13709.75
925.008	13619.59
925.318	13618.91
925.628	13613.26
925.938	13481.28
926.248	13397.67
926.558	13333.04
926.867	13418.23
927.177	13255.75
927.487	13156.32
927.796	13102.54
928.106	13078.81
928.416	13013.05
928.725	13008.08
929.034	12961.52
929.344	12940.06
929.653	12866.84
929.962	12745.26
930.271	12717.46
930.581	12714.07
930.89	12613.96
931.199	12458.71
931.508	12448.09
931.817	12454.42
932.125	12469.11
932.434	12398.6
932.743	12231.6
933.051	12258.49
933.36	12246.06
933.669	12033.86
933.977	12037.71
934.286	11997.93
934.594	11924.04
934.902	11882
935.21	11865.06
935.519	11748
935.827	11726.98
936.135	11673.2
936.443	11611.28
936.751	11559.75
937.059	11531.28
937.367	11474.11
937.674	11415.58
937.982	11412.41
938.29	11382.13
938.597	11287.9
938.905	11175.36
939.213	11157.5
939.52	11042.03
939.827	11125.64
940.135	11026.89
940.442	10939.66
940.749	10927
941.056	10949.83
941.363	10804.29
941.67	10743.05
941.977	10750.51
942.284	10650.4
942.591	10665.54
942.898	10634.13
943.205	10601.59
943.511	10494.7
943.818	10503.74
944.125	10345.32
944.431	10302.16
944.738	10346
945.044	10224.19
945.35	10161.37
945.657	10195.27
945.963	10165.66
946.269	10046.35
946.575	10087.02
946.881	9997.99
947.187	10023.97
947.493	9878.89
947.799	9854.94
948.105	9779.46
948.41	9764.32
948.716	9730.42
949.022	9683.64
949.327	9685.45
949.633	9555.29
949.938	9510.31
950.244	9565.91
950.549	9506.02
950.854	9442.07
951.16	9389.19
951.465	9313.71
951.77	9277.1
952.075	9255.18
952.38	9178.8
952.685	9133.6
952.99	9055.41
953.294	9038.24
953.599	9056.54
953.904	9021.06
954.209	8905.36
954.513	8955.98
954.818	8908.3
955.122	8847.06
955.426	8795.98
955.731	8758.7
956.035	8675.76
956.339	8670.79
956.643	8672.6
956.948	8623.78
957.252	8583.33
957.556	8531.81
957.86	8499.72
958.163	8446.61
958.467	8467.18
958.771	8371.14
959.075	8387.41
959.378	8313.74
959.682	8298.14
959.985	8259.73
960.289	8173.17
960.592	8144.48
960.896	8098.37
961.199	8060.18
961.502	8089.11
961.805	8009.79
962.108	7930.24
962.411	7963.24
962.714	7866.52
963.017	7867.87
963.32	7826.52
963.623	7845.27
963.926	7786.74
964.228	7666.52
964.531	7633.98
964.833	7649.8
965.136	7582.23
965.438	7638.05
965.741	7555.11
966.043	7484.83
966.345	7421.56
966.648	7444.61
966.95	7435.79
967.252	7333.2
967.554	7337.26
967.856	7313.76
968.158	7239.41
968.46	7217.49
968.761	7233.09
969.063	7174.78
969.365	7126.2
969.666	7102.24
969.968	7050.94
970.269	7009.14
970.571	6990.38
970.872	6949.93
971.174	6912.64
971.475	6890.27
971.776	6871.51
972.077	6800.78
972.378	6768.92
972.679	6749.03
972.98	6766.88
973.281	6745.87
973.582	6678.52
973.883	6673.1
974.183	6598.08
974.484	6637.17
974.785	6541.58
975.085	6492.54
975.386	6538.42
975.686	6448.7
975.986	6413.9
976.287	6447.12
976.587	6367.35
976.887	6323.51
977.187	6339.55
977.487	6335.94
977.787	6250.06
978.087	6221.59
978.387	6202.15
978.687	6147.47
978.987	6117.18
979.286	6095.26
979.586	6108.37
979.885	6064.08
980.185	6040.58
980.484	5957.19
980.784	5915.83
981.083	5921.48
981.382	5912.67
981.682	5914.7
981.981	5884.87
982.28	5844.65
982.579	5794.71
982.878	5817.76
983.177	5706.57
983.475	5697.53
983.774	5713.8
984.073	5641.72
984.372	5621.38
984.67	5661.83
984.969	5569.18
985.267	5558.33
985.566	5512.68
985.864	5523.75
986.162	5507.03
986.461	5458.67
986.759	5445.79
987.057	5423.42
987.355	5405.56
987.653	5348.39
987.951	5330.31
988.249	5277.88
988.547	5257.77
988.844	5234.5
989.142	5221.84
989.44	5179.81
989.737	5185.68
990.035	5129.87
990.332	5118.57
990.63	5116.98
990.927	5021.62
991.224	5033.6
991.521	5029.75
991.819	4927.61
992.116	4952.69
992.413	4930.77
992.71	4933.03
993.006	4865.69
993.303	4863.88
993.6	4816.2
993.897	4839.03
994.193	4844.9
994.49	4755.64
994.787	4726.94
995.083	4710.22
995.379	4674.74
995.676	4653.49
995.972	4665.92
996.268	4649.43
996.565	4596.77
996.861	4568.75
997.157	4566.72
997.453	4518.13
997.749	4486.72
998.044	4453.72
998.34	4457.34
998.636	4433.84
998.932	4376.89
999.227	4358.36
999.523	4341.41
999.818	4276.55
1000.114	4300.28
1000.409	4270.68
1000.704	4257.57
1001	4227.29
1001.295	4225.48
1001.59	4191.58
1001.885	4152.26
1002.18	4134.86
1002.475	4067.75
1002.77	4079.05
1003.065	4115.88
1003.359	4030.68
1003.654	3993.17
1003.949	3967.41
1004.243	3964.92
1004.538	3917.24
1004.832	3874.53
1005.127	3889.67
1005.421	3896.9
1005.715	3871.59
1006.009	3846.06
1006.304	3798.37
1006.598	3799.5
1006.892	3743.01
1007.186	3693.07
1007.48	3703.24
1007.773	3648.77
1008.067	3644.25
1008.361	3641.99
1008.655	3620.53
1008.948	3594.54
1009.242	3594.09
1009.535	3561.09
1009.829	3519.06
1010.122	3482
1010.415	3463.24
1010.708	3432.96
1011.001	3457.14
1011.295	3426.18
1011.588	3397.26
1011.881	3358.16
1012.173	3361.1
1012.466	3286.07
1012.759	3334.21
1013.052	3309.12
1013.344	3265.06
1013.637	3246.07
1013.93	3243.81
1014.222	3188.45
1014.514	3193.19
1014.807	3183.02
1015.099	3145.96
1015.391	3138.96
1015.683	3120.88
1015.976	3113.42
1016.268	3070.26
1016.56	3060.32
1016.851	2998.62
1017.143	3001.33
1017.435	2988
1017.727	2913.43
1018.018	2961.79
1018.31	2917.95
1018.602	2887.21
1018.893	2873.65
1019.185	2855.12
1019.476	2830.26
1019.767	2799.3
1020.058	2799.08
1020.35	2758.18
1020.641	2740.1
1020.932	2763.37
1021.223	2718.86
1021.514	2696.93
1021.804	2675.69
1022.095	2655.58
1022.386	2625.07
1022.677	2620.1
1022.967	2583.04
1023.258	2591.63
1023.548	2580.55
1023.839	2492.65
1024.129	2496.94
1024.419	2501.01
1024.709	2451.52
1025	2451.52
1025.29	2437.05
1025.58	2425.3
1025.87	2370.62
1026.16	2378.98
1026.449	2382.37
1026.739	2363.61
1027.029	2331.75
1027.319	2342.14
1027.608	2334.91
1027.898	2284.97
1028.187	2271.64
1028.477	2225.53
1028.766	2225.08
1029.055	2223.73
1029.344	2181.47
1029.634	2182.6
1029.923	2169.26
1030.212	2150.96
1030.501	2106.89
1030.79	2113.9
1031.078	2098.53
1031.367	2093.79
1031.656	2074.8
1031.945	2067.8
1032.233	2038.42
1032.522	1994.81
1032.81	1995.94
1033.099	2005.65
1033.387	1988.93
1033.675	1984.19
1033.963	1938.76
1034.251	1979.44
1034.54	1909.61
1034.828	1873
1035.116	1870.97
1035.403	1877.97
1035.691	1868.26
1035.979	1886.11
1036.267	1839.33
1036.554	1857.86
1036.842	1833
1037.129	1804.53
1037.417	1764.08
1037.704	1780.35
1037.992	1773.34
1038.279	1736.51
1038.566	1706.45
1038.853	1706.45
1039.14	1706.45
