Data from 15-0543_FLMS001491_006.txt Node
Date: Thu Apr 19 15:42:00 BST 2018
User: hsy
Spectrometer: FLMS00149
Trigger mode: 0
Integration Time (sec): 1.000000E-2
Scans to average: 10
Electric dark correction enabled: true
Nonlinearity correction enabled: false
Boxcar width: 0
XAxis mode: Wavelengths
Number of Pixels in Spectrum: 2048
>>>>>Begin Spectral Data<<<<<
341.393	2.18
341.776	2.18
342.16	2.18
342.543	-57.26
342.927	-66.75
343.31	-71.04
343.693	-61.1
344.077	-62.68
344.46	-71.04
344.843	-35.34
345.226	-32.85
345.61	-17.26
345.993	-13.64
346.376	-15.68
346.759	-13.64
347.142	27.03
347.525	39.24
347.908	81.95
348.291	64.55
348.674	82.17
349.057	99.35
349.44	135.96
349.823	152.91
350.206	177.31
350.588	236.07
350.971	259.34
351.354	264.77
351.737	276.29
352.119	272
352.502	317.42
352.884	327.36
353.267	319.68
353.65	344.54
354.032	356.29
354.414	352.67
354.797	347.7
355.179	363.07
355.562	371.66
355.944	368.27
356.326	379.57
356.709	376.63
357.091	382.5
357.473	368.72
357.855	382.5
358.238	386.8
358.62	400.81
359.002	393.13
359.384	388.61
359.766	386.35
360.148	376.63
360.53	389.28
360.912	400.36
361.294	379.79
361.676	375.5
362.057	370.3
362.439	399.68
362.821	398.32
363.203	373.46
363.584	374.82
363.966	369.85
364.348	382.28
364.729	371.43
365.111	388.38
365.493	387.7
365.874	386.57
366.256	385.22
366.637	378.21
367.019	369.4
367.4	363.3
367.781	377.53
368.163	375.72
368.544	387.25
368.925	383.63
369.306	391.09
369.688	391.54
370.069	385.89
370.45	366.01
370.831	375.72
371.212	399
371.593	387.02
371.974	374.82
372.355	389.74
372.736	419.34
373.117	396.74
373.498	391.54
373.879	394.26
374.26	370.08
374.641	392.45
375.021	401.94
375.402	399.23
375.783	405.78
376.163	419.79
376.544	394.26
376.925	405.1
377.305	404.88
377.686	409.17
378.066	398.1
378.447	432.67
378.827	399
379.208	414.59
379.588	406.91
379.968	415.72
380.349	426.8
380.729	422.95
381.109	423.86
381.489	454.14
381.87	431.32
382.25	434.25
382.63	439.45
383.01	432.22
383.39	436.29
383.77	447.36
384.15	440.13
384.53	446.91
384.91	440.81
385.29	439.68
385.67	478.77
386.049	454.82
386.429	464.08
386.809	458.21
387.189	468.6
387.568	483.97
387.948	493.24
388.328	485.1
388.707	496.4
389.087	461.82
389.466	495.5
389.846	475.38
390.225	489.39
390.605	495.5
390.984	488.94
391.363	501.37
391.743	505.66
392.122	526.91
392.501	534.14
392.881	522.84
393.26	522.84
393.639	517.19
394.018	513.8
394.397	533.46
394.776	542.05
395.155	538.21
395.534	535.04
395.913	530.75
396.292	554.48
396.671	549.51
397.05	547.7
397.429	540.47
397.808	558.77
398.186	557.19
398.565	574.14
398.944	568.26
399.323	593.57
399.701	582.5
400.08	563.97
400.458	575.95
400.837	613.68
401.215	590.41
401.594	594.02
401.972	608.71
402.351	600.8
402.729	612.78
403.107	620.24
403.486	599
403.864	620.92
404.242	617.53
404.62	644.64
404.999	641.48
405.377	655.27
405.755	627.92
406.133	673.34
406.511	646
406.889	658.88
407.267	648.26
407.645	664.76
408.023	685.55
408.401	685.55
408.779	705.21
409.156	703.4
409.534	700.01
409.912	724.19
410.29	717.41
410.667	708.37
411.045	735.72
411.422	741.14
411.8	743.17
412.178	745.43
412.555	763.06
412.933	754.92
413.31	772.32
413.687	799.44
414.065	795.6
414.442	775.94
414.819	794.47
415.197	792.21
415.574	795.83
415.951	819.78
416.328	829.05
416.705	832.89
417.082	842.38
417.46	844.64
417.837	848.48
418.214	872.43
418.591	901.81
418.967	856.39
419.344	870.4
419.721	873.11
420.098	889.16
420.475	892.55
420.852	885.32
421.228	908.14
421.605	899.78
421.982	907.91
422.358	924.41
422.735	931.19
423.111	937.52
423.488	955.82
423.864	937.97
424.241	953.34
424.617	971.19
424.994	982.71
425.37	983.62
425.746	987.01
426.123	990.17
426.499	995.14
426.875	1027.23
427.251	1043.96
427.627	1050.28
428.003	1061.13
428.379	1054.35
428.756	1075.82
429.132	1093.45
429.507	1097.97
429.883	1116.04
430.259	1116.95
430.635	1136.83
431.011	1128.47
431.387	1164.63
431.763	1168.25
432.138	1160.34
432.514	1172.99
432.89	1200.11
433.265	1239.43
433.641	1243.05
434.016	1261.58
434.392	1245.08
434.767	1263.61
435.143	1277.4
435.518	1262.93
435.894	1304.06
436.269	1305.42
436.644	1341.57
437.02	1338.64
437.395	1326.89
437.77	1375.7
438.145	1356.94
438.52	1346.55
438.895	1406.21
439.271	1383.38
439.646	1437.17
440.021	1429.03
440.395	1431.29
440.77	1452.53
441.145	1462.48
441.52	1474
441.895	1481.68
442.27	1464.96
442.645	1462.48
443.019	1496.37
443.394	1510.61
443.769	1513.55
444.143	1513.1
444.518	1555.35
444.892	1516.03
445.267	1520.78
445.641	1528.01
446.016	1567.78
446.39	1581.34
446.764	1595.81
447.139	1582.7
447.513	1605.3
447.887	1618.4
448.262	1631.96
448.636	1620.89
449.01	1638.52
449.384	1676.03
449.758	1675.8
450.132	1694.79
450.506	1690.27
450.88	1711.51
451.254	1721.9
451.628	1737.95
452.002	1750.15
452.376	1763.71
452.75	1799.87
453.123	1772.07
453.497	1827.89
453.871	1837.61
454.244	1912.18
454.618	1913.76
454.992	1936.81
455.365	1913.76
455.739	1960.32
456.112	1994.67
456.486	2016.81
456.859	2029.69
457.232	2093.87
457.606	2093.87
457.979	2097.49
458.352	2133.64
458.725	2147.66
459.099	2169.58
459.472	2199.41
459.845	2240.31
460.218	2265.17
460.591	2278.27
460.964	2319.63
461.337	2343.36
461.71	2359.85
462.083	2416.12
462.456	2434.43
462.829	2407.76
463.201	2495.67
463.574	2460.87
463.947	2492.73
464.32	2570.02
464.692	2570.47
465.065	2620.41
465.438	2632.61
465.81	2675.1
466.183	2683.01
466.555	2722.33
466.928	2758.03
467.3	2730.24
467.672	2802.55
468.045	2879.61
468.417	2864.02
468.789	2852.72
469.161	2906.96
469.534	2951.93
469.906	3026.73
470.278	3032.15
470.65	3094.98
471.022	3119.16
471.394	3203.67
471.766	3217.91
472.138	3236.21
472.51	3365.7
472.882	3377.45
473.253	3391.46
473.625	3416.77
473.997	3493.61
474.369	3530.67
474.74	3610.67
475.112	3655.41
475.484	3718.24
475.855	3782.41
476.227	3784.45
476.598	3911.9
476.97	3962.52
477.341	4024.22
477.713	4094.72
478.084	4114.84
478.455	4223.76
478.827	4254.72
479.198	4372.68
479.569	4456.75
479.94	4534.71
480.311	4628.72
480.682	4687.7
481.053	4803.18
481.424	4874.36
481.795	4941.93
482.166	5043.62
482.537	5137.18
482.908	5202.26
483.279	5367.23
483.65	5416.5
484.021	5575.14
484.391	5578.53
484.762	5721.8
485.133	5806.77
485.503	5901.68
485.874	6091.51
486.244	6088.57
486.615	6265.06
486.985	6380.99
487.356	6557.48
487.726	6636.58
488.097	6826.85
488.467	6872.95
488.837	7079.28
489.207	7208.54
489.578	7390.91
489.948	7515.65
490.318	7660.5
490.688	7710
491.058	7930.78
491.428	8121.06
491.798	8102.08
492.168	8396.3
492.538	8557.88
492.908	8725.56
493.278	8881.94
493.648	8990.19
494.017	9175.49
494.387	9320.35
494.757	9548.36
495.126	9761.01
495.496	9836.49
495.866	10105.64
496.235	10257.27
496.605	10563.93
496.974	10592.18
497.344	10780.2
497.713	10993.3
498.082	11177.02
498.452	11369.33
498.821	11582.66
499.19	11663.34
499.559	11993.5
499.928	12188.97
500.298	12403.88
500.667	12612.92
501.036	12760.26
501.405	13010.19
501.774	13144.43
502.143	13399.34
502.512	13673.91
502.88	13949.6
503.249	14042.03
503.618	14339.2
503.987	14461.68
504.356	14772.18
504.724	14997.49
505.093	15151.61
505.462	15435.67
505.83	15730.35
506.199	15990.23
506.567	16305.02
506.936	16380.73
507.304	16645.13
507.672	16901.39
508.041	17086.92
508.409	17438.55
508.777	17650.07
509.145	17897.07
509.514	17990.85
509.882	18344.07
510.25	18487.79
510.618	18777.73
510.986	18842.81
511.354	19224.49
511.722	19476.24
512.09	19717.59
512.458	19829.9
512.826	20110.12
513.193	20228.54
513.561	20533.39
513.929	20754.17
514.297	20972.02
514.664	21177.66
515.032	21322.52
515.4	21598.22
515.767	21684.77
516.135	21979.45
516.502	21939.68
516.869	22382.15
517.237	22605.87
517.604	22555.93
517.972	23096.71
518.339	23154.79
518.706	23382.58
519.073	23371.5
519.44	23772.17
519.808	23949.12
520.175	24121.77
520.542	24419.16
520.909	24523.56
521.276	24730.11
521.643	25031.12
522.009	25100.05
522.376	25433.6
522.743	25573.93
523.11	25809.86
523.477	26085.11
523.843	26210.53
524.21	26649.16
524.577	26781.58
524.943	26900.22
525.31	27011.41
525.676	27363.72
526.043	27598.96
526.409	27744.72
526.776	28073.98
527.142	28216.35
527.508	28348.32
527.874	28626.96
528.241	28728.43
528.607	28883.68
528.973	29311.01
529.339	29214.74
529.705	29592.58
530.071	29755.97
530.437	29989.18
530.803	30152.57
531.169	30255.39
531.535	30244.54
531.901	30387.82
532.267	30557.53
532.632	30856.73
532.998	30954.81
533.364	31165.65
533.73	31135.59
534.095	31475.47
534.461	31581.01
534.826	31696.71
535.192	31701.91
535.557	31863.48
535.923	31882.92
536.288	32052.63
536.653	32161.78
537.019	32196.13
537.384	32307.54
537.749	32368.33
538.114	32395
538.479	32460.53
538.845	32606.74
539.21	32539.4
539.575	32652.39
539.94	32714.99
540.305	33017.35
540.67	32993.4
541.034	33147.52
541.399	33138.93
541.764	33080.85
542.129	33042.89
542.494	33355.2
542.858	33467.51
543.223	33254.86
543.587	33460.5
543.952	33481.75
544.316	33582.08
544.681	33405.36
545.045	33884.45
545.41	33895.3
545.774	33740.27
546.138	33849.65
546.503	33858.46
546.867	34034.27
547.231	34128.28
547.595	34155.4
547.959	34228.62
548.324	34266.13
548.688	34154.95
549.052	34307.49
549.416	34292.12
549.779	34311.33
550.143	34335.28
550.507	34499.35
550.871	34582.96
551.235	34494.6
551.599	34824.99
551.962	34857.3
552.326	34864.31
552.689	34940.69
553.053	34765.78
553.417	34900.01
553.78	35178.43
554.143	35151.76
554.507	35243.73
554.87	35357.63
555.234	35593.56
555.597	35347.01
555.96	35624.52
556.323	35769.6
556.686	35780.9
557.05	35848.92
557.413	35855.24
557.776	35893.43
558.139	36135.46
558.502	36153.99
558.865	36085.97
559.228	36370.48
559.59	36390.37
559.953	36579.07
560.316	36760.76
560.679	36853.86
561.041	36986.06
561.404	37040.98
561.767	37228.99
562.129	37239.84
562.492	37395.99
562.854	37383.79
563.217	37523.45
563.579	37567.29
563.941	37761.18
564.304	38050.89
564.666	38246.37
565.028	38088.86
565.39	38295.41
565.753	38462.86
566.115	38399.13
566.477	38626.47
566.839	38838.44
567.201	38964.54
567.563	38955.5
567.925	39170.18
568.287	39226
568.648	39159.56
569.01	39534.69
569.372	39929.49
569.734	39738.31
570.095	40024.63
570.457	40097.39
570.819	40227.11
571.18	40113.66
571.542	40341.23
571.903	40549.58
572.265	40656.25
572.626	40801.1
572.987	40807.66
573.349	40872.29
573.71	41052.17
574.071	41363.35
574.432	41404.48
574.794	41603.12
575.155	41512.27
575.516	41571.93
575.877	41711.13
576.238	41743
576.599	41907.97
576.96	41816.22
577.32	41967.17
577.681	42125.81
578.042	42291.01
578.403	42376.2
578.763	42321.51
579.124	42344.79
579.485	42834.5
579.845	42822.29
580.206	42762.63
580.566	42763.99
580.927	42943.19
581.287	43148.84
581.648	42947.94
582.008	43203.3
582.368	43152.23
582.728	43363.07
583.089	43264.77
583.449	43375.05
583.809	43422.73
584.169	43531.88
584.529	43367.36
584.889	43780.01
585.249	43514.93
585.609	43598.09
585.969	43804.87
586.329	43735.49
586.688	43916.73
587.048	43932.55
587.408	43968.25
587.768	43835.82
588.127	43987.46
588.487	44023.39
588.846	44476.03
589.206	44056.61
589.565	44114.69
589.925	44413.21
590.284	44313.33
590.643	44388.35
591.003	44641.23
591.362	44760.55
591.721	44612.3
592.08	44778.62
592.44	44951.28
592.799	44937.04
593.158	44928.9
593.517	44876.93
593.876	45102.68
594.235	45225.17
594.593	45073.31
594.952	45258.84
595.311	45208.44
595.67	45374.32
596.029	45652.95
596.387	45696.11
596.746	45794.87
597.104	45554.65
597.463	45594.42
597.822	46080.74
598.18	45757.13
598.538	45928.65
598.897	45986.05
599.255	45985.6
599.613	46591.23
599.972	46153.5
600.33	46351.01
600.688	46284.35
601.046	46349.88
601.404	46719.59
601.762	46620.61
602.12	46755.75
602.478	46721.85
602.836	46908.51
603.194	46606.83
603.552	46875.74
603.91	46872.58
604.268	47152.35
604.625	47043.2
604.983	47253.36
605.341	47129.3
605.698	47367.71
606.056	47662.16
606.413	47468.5
606.771	47584.2
607.128	47665.55
607.485	47551.43
607.843	47669.62
608.2	47827.36
608.557	47892.22
608.914	47926.34
609.272	48032.1
609.629	48198.2
609.986	48276.39
610.343	48377.63
610.7	48509.6
611.057	48446.55
611.414	48414.01
611.771	48578.07
612.127	48727
612.484	48710.5
612.841	48874.56
613.198	48635.25
613.554	48705.75
613.911	48997.5
614.267	49070.72
614.624	48957.05
614.98	49111.84
615.337	49278.62
615.693	49240.43
616.05	49331.73
616.406	49476.35
616.762	49330.37
617.118	49505.28
617.475	49488.11
617.831	49596.35
618.187	49697.14
618.543	49732.17
618.899	49907.3
619.255	49943.46
619.611	49740.53
619.967	49863.46
620.323	50124.92
620.678	49926.96
621.034	50012.84
621.39	49882.45
621.746	49945.49
622.101	50428.87
622.457	49961.31
622.812	50271.81
623.168	50227.97
623.523	50263.68
623.879	50395.88
624.234	50261.19
624.589	50346.39
624.945	50296.67
625.3	50319.27
625.655	50396.78
626.01	50424.35
626.365	50392.94
626.72	50316.56
627.075	50275.43
627.43	50384.13
627.785	50234.3
628.14	50328.08
628.495	50318.59
628.85	50434.75
629.205	50210.57
629.559	50441.3
629.914	50280.18
630.269	50263.45
630.623	50271.36
630.978	50023.46
631.332	50257.8
631.687	50152.27
632.041	50121.99
632.396	50126.28
632.75	50029.79
633.104	50146.85
633.459	49920.86
633.813	50006.28
634.167	50038.15
634.521	50058.26
634.875	49953.4
635.229	49922.22
635.583	49691.49
635.937	49628.89
636.291	49682.45
636.645	49741.43
636.999	49488.56
637.352	49607.2
637.706	49459.18
638.06	49564.94
638.413	49440.2
638.767	49288.34
639.121	49474.32
639.474	49270.03
639.828	49190.71
640.181	49184.38
640.534	49268.9
640.888	49053.31
641.241	49009.7
641.594	49098.96
641.947	49201.33
642.301	48979.19
642.654	49061.9
643.007	48997.95
643.36	49052.18
643.713	48860.78
644.066	49105.52
644.419	48712.76
644.771	48302.83
645.124	47978.77
645.477	47945.77
645.83	47960.01
646.182	47801.14
646.535	47795.04
646.888	47909.16
647.24	47781.71
647.593	47997.52
647.945	47858.54
648.298	47755.5
648.65	47471.89
649.002	47368.61
649.355	47285.68
649.707	47248.39
650.059	47274.6
650.411	47721.37
650.763	47884.98
651.115	48504.85
651.467	48303.96
651.819	48294.01
652.171	48252.88
652.523	48301.92
652.875	48313
653.227	48077.97
653.578	48450.17
653.93	48327.46
654.282	48082.72
654.633	48114.36
654.985	48162.49
655.337	48290.4
655.688	48132.21
656.039	48327.46
656.391	48049.5
656.742	48049.95
657.094	48155.49
657.445	48204.75
657.796	48149.38
658.147	48179.67
658.498	48136.5
658.849	48159.78
659.2	48095.15
659.551	48000.24
659.902	48195.71
660.253	47990.52
660.604	48276.39
660.955	48002.49
661.306	48190.96
661.656	48132.66
662.007	48104.41
662.358	48193.68
662.708	48219.44
663.059	48063.74
663.409	47951.65
663.76	48181.47
664.11	48199.1
664.461	48279.55
664.811	48289.72
665.161	48280.23
665.511	48072.55
665.862	48211.53
666.212	48329.72
666.562	48407.46
666.912	48198.2
667.262	48128.82
667.612	48246.33
667.962	48230.51
668.312	48304.41
668.662	48385.99
669.011	48328.14
669.361	48145.77
669.711	48263.5
670.06	48157.07
670.41	48092.89
670.76	48172.43
671.109	48275.71
671.459	48068.48
671.808	48088.59
672.157	48298.31
672.507	48000.46
672.856	47978.77
673.205	48019.22
673.554	48153.45
673.904	47977.86
674.253	48306.22
674.602	48014.47
674.951	47592.79
675.3	47307.15
675.649	47934.02
675.998	47918.2
676.346	47965.89
676.695	47961.37
677.044	47802.27
677.393	47844.76
677.741	47901.03
678.09	47810.41
678.438	47635.72
678.787	47774.93
679.135	47719.11
679.484	47377.65
679.832	47570.87
680.181	47447.71
680.529	47512.11
680.877	47324.77
681.225	47161.61
681.573	47502.62
681.922	47163.19
682.27	47107.83
682.618	47133.82
682.966	47152.12
683.314	47179.47
683.661	46965.69
684.009	46848.4
684.357	46832.13
684.705	46618.8
685.053	46582.87
685.4	46452.03
685.748	46343.78
686.095	46327.74
686.443	46090.68
686.79	46048.65
687.138	46043.22
687.485	46206.61
687.832	45827.86
688.18	45936.33
688.527	45694.98
688.874	45634.2
689.221	45607.08
689.568	45372.28
689.915	45256.8
690.262	45430.36
690.609	45217.26
690.956	44951.95
691.303	45033.53
691.65	44685.07
691.997	44664.96
692.344	44520.33
692.69	44274.91
693.037	44304.96
693.383	44048.93
693.73	44174.12
694.077	43780.46
694.423	43775.26
694.769	43641.71
695.116	43582.95
695.462	43239.91
695.808	43125.11
696.155	43233.81
696.501	42943.87
696.847	43006.69
697.193	42722.63
697.539	42677.44
697.885	42353.38
698.231	42270.22
698.577	42315.19
698.923	42154.06
699.269	41849.66
699.614	41750.91
699.96	41431.59
700.306	41536.9
700.651	41390.01
700.997	41086.97
701.342	41067.54
701.688	40987.76
702.033	40685.4
702.379	40752.97
702.724	40586.64
703.069	40627.1
703.415	40156.37
703.76	40205.86
704.105	40013.1
704.45	39950.73
704.795	39796.16
705.14	39588.48
705.485	39603.39
705.83	39409.27
706.175	39571.3
706.52	39296.28
706.865	39102.62
707.209	39014.93
707.554	39078.21
707.899	39007.48
708.243	38820.14
708.588	38657.88
708.932	38623.98
709.277	38581.27
709.621	38374.5
709.966	38194.84
710.31	38234.39
710.654	38034.4
710.998	38062.42
711.342	38022.87
711.687	37835.3
712.031	37765.02
712.375	37638.25
712.719	37373.85
713.063	37336.33
713.407	37533.62
713.75	37357.8
714.094	37392.83
714.438	37185.83
714.782	37118.26
715.125	36960.75
715.469	37268.09
715.812	36979.51
716.156	36984.03
716.499	36851.38
716.843	36904.26
717.186	36776.12
717.53	36841.88
717.873	36779.06
718.216	36765.05
718.559	36660.42
718.902	36301.11
719.246	36375
719.589	36273.09
719.932	36195.8
720.275	36385.17
720.617	36220.43
720.96	36013.43
721.303	36064.05
721.646	36232.41
721.989	35949.7
722.331	36208
722.674	35930.04
723.016	35990.61
723.359	35899.31
723.701	35913.1
724.044	35773.66
724.386	35702.03
724.729	35942.7
725.071	35806.66
725.413	35845.07
725.755	35785.19
726.097	35543.84
726.439	35554.23
726.782	35527.34
727.124	35749.71
727.465	35640.33
727.807	35409.61
728.149	35564.18
728.491	35343.62
728.833	35541.58
729.175	35579.54
729.516	35364.64
729.858	35389.27
730.199	35597.85
730.541	35444.41
730.882	35445.08
731.224	35563.73
731.565	35484.41
731.906	35414.58
732.248	35540.22
732.589	35340.23
732.93	35332.32
733.271	35429.94
733.612	35496.84
733.953	35458.42
734.294	35355.37
734.635	35249.16
734.976	35462.03
735.317	35382.49
735.658	35420
735.999	35373
736.339	35368.7
736.68	35525.08
737.021	35474.24
737.361	35422.94
737.702	35626.55
738.042	35578.19
738.383	35698.86
738.723	35706.1
739.063	35573.67
739.404	35811.4
739.744	35713.55
740.084	35560.79
740.424	35666.55
740.764	35827
741.104	35972.3
741.444	35801.23
741.784	35763.27
742.124	36060.66
742.464	36048.01
742.804	36003.26
743.143	36029.93
743.483	36230.6
743.823	36130.94
744.162	36283.71
744.502	36353.54
744.841	36317.38
745.181	36499.75
745.52	36400.54
745.86	36638.05
746.199	36710.59
746.538	36797.82
746.877	36960.98
747.216	37020.41
747.556	37069.68
747.895	37179.05
748.234	37101.09
748.573	37311.02
748.911	37492.94
749.25	37553.05
749.589	37546.95
749.928	37599.6
750.267	37866.72
750.605	37830.11
750.944	37874.4
751.283	38059.93
751.621	38214.05
751.96	38134.28
752.298	38356.42
752.636	38475.06
752.975	38550.54
753.313	38583.76
753.651	39041.15
753.989	38765.22
754.327	39166.8
754.666	38894.26
755.004	39258.09
755.342	39382.38
755.679	39437.07
756.017	39393
756.355	39620.12
756.693	39635.26
757.031	39939.43
757.368	39793.9
757.706	40045.64
758.044	40002.93
758.381	40117.05
758.719	40127.22
759.056	40336.93
759.394	40309.59
759.731	40304.62
760.068	40457.61
760.405	40493.99
760.743	40512.52
761.08	40755.45
761.417	40664.83
761.754	40736.25
762.091	40827.99
762.428	40885.17
762.765	40825.28
763.102	40871.38
763.438	40947.54
763.775	40834.32
764.112	41058.27
764.449	41084.71
764.785	41023.92
765.122	40951.38
765.458	40971.04
765.795	41019.18
766.131	41022.11
766.467	41010.59
766.804	40795.45
767.14	40861.67
767.476	40964.94
767.812	40771.05
768.148	40987.54
768.485	40892.17
768.821	40690.6
769.157	40846.07
769.492	40733.31
769.828	40748.22
770.164	40439.3
770.5	40515.69
770.836	40607.44
771.171	40439.76
771.507	40370.83
771.842	40285.41
772.178	40267.33
772.513	40117.73
772.849	40086.54
773.184	40172.87
773.519	39980.78
773.855	39762.49
774.19	39768.59
774.525	39733.79
774.86	39664.64
775.195	39630.74
775.53	39451.08
775.865	39298.54
776.2	39213.12
776.535	39004.77
776.87	39037.53
777.205	38811.55
777.539	38770.2
777.874	38773.59
778.209	38539.47
778.543	38600.26
778.878	38468.06
779.212	38458.57
779.547	38143.09
779.881	38250.43
780.215	37987.84
780.55	37987.39
780.884	37712.14
781.218	37659.72
781.552	37795.08
781.886	37401.42
782.22	37278.03
782.554	37027.42
782.888	36904.71
783.222	36896.8
783.556	36776.12
783.889	36770.47
784.223	36402.12
784.557	36469.92
784.89	36529.35
785.224	36271.73
785.557	36177.72
785.891	36051.62
786.224	35949.93
786.558	35892.98
786.891	35701.58
787.224	35452.99
787.557	35547.46
787.891	35434.92
788.224	35272.43
788.557	35432.88
788.89	35169.61
789.223	35090.52
789.556	34887.13
789.888	34859.56
790.221	34815.95
790.554	34514.26
790.887	34589.97
791.219	34308.84
791.552	34457.31
791.884	34256.64
792.217	34139.13
792.549	33957.44
792.882	33679.93
793.214	33632.7
793.546	33624.12
793.879	33486.72
794.211	33365.37
794.543	33481.97
794.875	33333.28
795.207	33267.97
795.539	33131.7
795.871	33210.34
796.203	32971.03
796.535	32676.12
796.867	32700.52
797.198	32592.73
797.53	32542.79
797.862	32310.7
798.193	32470.93
798.525	32148.9
798.856	32194.55
799.188	31929.02
799.519	31787.55
799.85	31646.77
800.182	31794.11
800.513	31714.79
800.844	31304.85
801.175	31494.68
801.506	31423.27
801.837	31250.17
802.168	31230.28
802.499	31202.26
802.83	31047.46
803.161	30990.51
803.491	30906.9
803.822	30777.19
804.153	30728.37
804.483	30524.54
804.814	30336.52
805.145	30311.43
805.475	30445.22
805.805	30375.16
806.136	30299.91
806.466	30172
806.796	30120.25
807.126	29906.25
807.457	29894.27
807.787	29980.37
808.117	29747.83
808.447	29660.6
808.777	29800.04
809.107	29561.4
809.436	29552.36
809.766	29409.54
810.096	29475.3
810.426	29332.03
810.755	29383.1
811.085	29221.52
811.414	29223.78
811.744	29180.39
812.073	29081.41
812.403	28937.91
812.732	28701.99
813.061	28868.31
813.39	28638.71
813.719	28574.08
814.049	28691.36
814.378	28519.62
814.707	28462.44
815.036	28476.91
815.365	28352.16
815.693	28275.1
816.022	28123.24
816.351	28090.93
816.68	27897.94
817.008	28112.85
817.337	27874.44
817.665	27879.41
817.994	27860.43
818.322	27884.38
818.651	27709.47
818.979	27619.08
819.307	27654.1
819.636	27583.37
819.964	27482.58
820.292	27510.15
820.62	27516.71
820.948	27612.97
821.276	27612.3
821.604	27499.76
821.932	27744.04
822.259	27534.56
822.587	27439.65
822.915	27402.13
823.243	27504.73
823.57	27395.13
823.898	27513.77
824.225	27369.37
824.553	27467.44
824.88	27485.07
825.207	27516.93
825.535	27415.47
825.862	27455.24
826.189	27444.39
826.516	27593.77
826.843	27561.45
827.17	27707.44
827.497	27607.78
827.824	27566.65
828.151	27682.8
828.478	27487.33
828.805	27741.11
829.131	27636.48
829.458	27519.87
829.785	27400.55
830.111	27424.73
830.438	27586.31
830.764	27598.29
831.09	27628.34
831.417	27586.08
831.743	27678.96
832.069	27488.01
832.395	27435.13
832.722	27528.91
833.048	27493.2
833.374	27498.85
833.7	27309.48
834.026	27548.8
834.351	27436.26
834.677	27510.83
835.003	27512.86
835.329	27520.55
835.654	27455.92
835.98	27233.78
836.306	27416.14
836.631	27223.83
836.956	27461.34
837.282	27332.98
837.607	27265.41
837.932	27094.34
838.258	27065.42
838.583	27146.32
838.908	27013.44
839.233	27142.7
839.558	26906.55
839.883	26899.77
840.208	26810.96
840.533	26884.86
840.858	26857.06
841.182	26802.6
841.507	26656.39
841.832	26643.28
842.156	26767.12
842.481	26570.06
842.805	26375.27
843.13	26384.31
843.454	26373.23
843.778	26328.26
844.103	26323.74
844.427	26332.1
844.751	26264.31
845.075	26191.99
845.399	26097.08
845.723	25912
846.047	25969.63
846.371	25803.3
846.695	25723.53
847.019	25640.37
847.343	25464.78
847.666	25299.81
847.99	25219.14
848.313	25259.36
848.637	25152.25
848.96	25066.15
849.284	25131.91
849.607	24832.48
849.931	24870
850.254	24676.1
850.577	24545.26
850.9	24328.99
851.223	24414.41
851.546	24244.48
851.869	24059.4
852.192	24323.8
852.515	24007.19
852.838	23846.07
853.161	23734.66
853.483	23682.68
853.806	23608.11
854.129	23538.73
854.451	23590.03
854.774	23395.01
855.096	23312.97
855.419	23164.96
855.741	23208.34
856.063	23074.11
856.385	22929.71
856.708	22922.25
857.03	22870.05
857.352	22880.67
857.674	22755.48
857.996	22574.01
858.318	22473.67
858.64	22585.08
858.961	22463.96
859.283	22441.36
859.605	22296.05
859.926	22311.42
860.248	22250.63
860.57	22158.65
860.891	22087.92
861.212	22094.7
861.534	22025.32
861.855	22000.24
862.176	21938.32
862.498	21951.88
862.819	22031.2
863.14	21793.69
863.461	21727.71
863.782	21753.69
864.103	21708.72
864.424	21735.39
864.745	21668.27
865.065	21539.01
865.386	21484.55
865.707	21508.73
866.027	21591.66
866.348	21422.18
866.668	21361.16
866.989	21337.66
867.309	21138.57
867.63	21296.3
867.95	21270.32
868.27	21200.49
868.59	21262.86
868.91	21114.61
869.23	21073.94
869.55	20966.14
869.87	21159.58
870.19	20913.94
870.51	20999.36
870.83	20971.79
871.15	20920.27
871.469	20754.4
871.789	20921.63
872.109	20943.09
872.428	20720.05
872.748	20800.05
873.067	20657.9
873.386	20661.29
873.706	20613.16
874.025	20623.33
874.344	20598.7
874.663	20484.8
874.982	20466.5
875.301	20441.64
875.62	20339.95
875.939	20299.49
876.258	20449.77
876.577	20329.78
876.896	20324.35
877.214	20214.3
877.533	20285.94
877.852	20213.62
878.17	20115.77
878.489	20191.7
878.807	20133.4
879.125	20100.18
879.444	20049.33
879.762	19889.34
880.08	19994.64
880.398	19892.95
880.716	19861.09
881.034	19974.53
881.352	19865.61
881.67	19756.91
881.988	19767.31
882.306	19723.69
882.624	19575.9
882.941	19613.86
883.259	19523.7
883.577	19507.2
883.894	19401.21
884.212	19444.6
884.529	19439.18
884.846	19285.51
885.164	19170.26
885.481	19132.07
885.798	19156.47
886.115	19079.64
886.432	19182.91
886.75	19159.41
887.067	19114.44
887.383	18933.88
887.7	18988.79
888.017	18818.86
888.334	18841
888.651	18767.33
888.967	18761.46
889.284	18638.3
889.6	18633.55
889.917	18608.69
890.233	18648.01
890.55	18449.83
890.866	18483.95
891.182	18445.76
891.498	18392.2
891.815	18192.66
892.131	18165.09
892.447	18187.01
892.763	18044.19
893.079	18121.02
893.395	18010.74
893.71	18062.72
894.026	17926.45
894.342	17934.13
894.657	17790.18
894.973	17761.93
895.289	17657.76
895.604	17639
895.92	17455.95
896.235	17552.45
896.55	17488.95
896.865	17419.8
897.181	17312.91
897.496	17353.58
897.811	17123.76
898.126	17236.07
898.441	17086.92
898.756	17154.27
899.071	17012.58
899.386	17011.22
899.7	16853.71
900.015	16753.83
900.33	16715.63
900.644	16572.81
900.959	16601.51
901.273	16549.99
901.588	16553.38
901.902	16417.34
902.216	16416.21
902.531	16335.3
902.845	16336.89
903.159	16111.81
903.473	16074.29
903.787	16053.05
904.101	15949.1
904.415	16009.89
904.729	15876.33
905.042	15739.84
905.356	15803.57
905.67	15725.6
905.984	15675.89
906.297	15636.11
906.611	15492.62
906.924	15500.98
907.237	15494.42
907.551	15348.66
907.864	15334.88
908.177	15238.38
908.491	15173.08
908.804	15170.14
909.117	14978.28
909.43	14914.33
909.743	14851.73
910.056	14827.55
910.368	14817.6
910.681	14835.91
910.994	14691.28
911.307	14639.08
911.619	14523.6
911.932	14549.36
912.244	14388.69
912.557	14384.62
912.869	14256.26
913.181	14232.76
913.494	14206.1
913.806	14164.74
914.118	14070.51
914.43	14013.56
914.742	14049.72
915.054	13868.93
915.366	13826.44
915.678	13830.06
915.99	13748.71
916.302	13670.52
916.613	13642.49
916.925	13615.83
917.236	13594.81
917.548	13559.11
917.859	13470.3
918.171	13316.4
918.482	13317.76
918.794	13241.37
919.105	13193.01
919.416	13104.2
919.727	13117.76
920.038	13073.7
920.349	12963.42
920.66	12830.31
920.971	12927.71
921.282	12825.57
921.593	12784.66
921.903	12716.64
922.214	12688.62
922.525	12588.28
922.835	12610.88
923.146	12413.37
923.456	12450.89
923.767	12433.26
924.077	12306.03
924.387	12292.47
924.697	12246.15
925.008	12178.35
925.318	12114.62
925.628	12134.29
925.938	12038.24
926.248	11939.04
926.558	11878.92
926.867	11890.9
927.177	11746.05
927.487	11808.64
927.796	11686.16
928.106	11703.79
928.416	11607.52
928.725	11547.86
929.034	11547.86
929.344	11561.65
929.653	11407.75
929.962	11336.79
930.271	11312.84
930.581	11213.41
930.89	11178.38
931.199	11127.31
931.508	11074.65
931.817	11006.63
932.125	11029.23
932.434	10989
932.743	10860.87
933.051	10829.91
933.36	10787.65
933.669	10751.5
933.977	10656.13
934.286	10703.36
934.594	10683.7
934.902	10568.22
935.21	10493.88
935.519	10505.63
935.827	10416.14
936.135	10319.19
936.443	10307.21
936.751	10290.94
937.059	10294.79
937.367	10191.96
937.674	10221.12
937.982	10150.16
938.29	10119.65
938.597	10032.87
938.905	9901.8
939.213	9891.63
939.52	9883.05
939.827	9895.47
940.135	9800.34
940.442	9757.17
940.749	9755.14
941.056	9738.87
941.363	9636.95
941.67	9643.5
941.977	9600.11
942.284	9453
942.591	9500.23
942.898	9500.23
943.205	9460.68
943.511	9372.1
943.818	9366.22
944.125	9301.59
944.431	9196.06
944.738	9230.18
945.044	9188.6
945.35	9120.58
945.657	9067.7
945.963	9060.02
946.269	9026.12
946.575	8918.78
946.881	8885.78
947.187	8941.15
947.493	8843.07
947.799	8854.6
948.105	8763.3
948.41	8743.41
948.716	8735.28
949.022	8648.05
949.327	8634.94
949.633	8497.54
949.938	8586.58
950.244	8509.97
950.549	8379.81
950.854	8403.08
951.16	8363.99
951.465	8345.23
951.77	8320.83
952.075	8314.05
952.38	8226.14
952.685	8232.02
952.99	8159.02
953.294	8086.93
953.599	8032.25
953.904	8060.49
954.209	7939.59
954.513	8051
954.818	7930.1
955.122	7893.49
955.426	7860.73
955.731	7839.48
956.035	7733.72
956.339	7777.56
956.643	7670
956.948	7630.9
957.252	7646.72
957.556	7650.11
957.86	7587.74
958.163	7590.22
958.467	7547.51
958.771	7482.66
959.075	7448.31
959.378	7376.44
959.682	7415.99
959.985	7383
960.289	7244.7
960.592	7292.6
960.896	7196.34
961.199	7205.6
961.502	7180.74
961.805	7171.03
962.108	7016.91
962.411	7033.85
962.714	7012.16
963.017	7030.92
963.32	7023.69
963.623	6980.07
963.926	6955.21
964.228	6882.67
964.531	6844.48
964.833	6814.88
965.136	6771.94
965.438	6729.68
965.741	6711.83
966.043	6636.12
966.345	6647.88
966.648	6624.37
966.95	6588.22
967.252	6560.87
967.554	6557.71
967.856	6525.39
968.158	6483.36
968.46	6453.3
968.761	6410.59
969.063	6390.48
969.365	6341.9
969.666	6359.3
969.968	6275.46
970.269	6262.58
970.571	6249.69
970.872	6211.05
971.174	6220.09
971.475	6179.19
971.776	6172.18
972.077	6082.69
972.378	6108
972.679	6066.65
972.98	5995.92
973.281	5997.05
973.582	5988.68
973.883	5945.52
974.183	5915.24
974.484	5907.78
974.785	5820.33
975.085	5834.11
975.386	5849.48
975.686	5826.65
975.986	5743.95
976.287	5748.46
976.587	5671.63
976.887	5648.58
977.187	5665.75
977.487	5655.36
977.787	5532.2
978.087	5573.33
978.387	5551.18
978.687	5511.86
978.987	5501.24
979.286	5457.85
979.586	5425.54
979.885	5406.33
980.185	5383.28
980.484	5348.48
980.784	5307.12
981.083	5319.32
981.382	5307.12
981.682	5293.34
981.981	5262.83
982.28	5216.73
982.579	5202.94
982.878	5175.37
983.177	5119.55
983.475	5109.61
983.774	5040.01
984.073	5051.76
984.372	5033.46
984.67	5043.4
984.969	5007.24
985.267	5026.45
985.566	4965.21
985.864	4893.8
986.162	4869.17
986.461	4894.02
986.759	4804.99
987.057	4825.1
987.355	4801.6
987.653	4819.68
987.951	4765.44
988.249	4762.73
988.547	4686.57
988.844	4677.53
989.142	4662.62
989.44	4668.27
989.737	4612.45
990.035	4650.19
990.332	4578.33
990.63	4536.97
990.927	4533.58
991.224	4513.69
991.521	4464.43
991.819	4519.57
992.116	4423.98
992.413	4467.82
992.71	4382.85
993.006	4387.14
993.303	4392.12
993.6	4323.87
993.897	4368.61
994.193	4306.69
994.49	4273.02
994.787	4249.97
995.083	4242.52
995.379	4211.78
995.676	4205
995.972	4142.18
996.268	4108.96
996.565	4128.17
996.861	4107.6
997.157	4038.45
997.453	4060.6
997.749	4013.14
998.044	3960.04
998.34	3972.01
998.636	3930.21
998.932	3983.99
999.227	3878.68
999.523	3913.03
999.818	3885.91
1000.114	3875.97
1000.409	3805.69
1000.704	3823.32
1001	3845.24
1001.295	3755.3
1001.59	3743.77
1001.885	3721.4
1002.18	3748.97
1002.475	3636.66
1002.77	3686.6
1003.065	3678.69
1003.359	3606.15
1003.654	3597.79
1003.949	3599.37
1004.243	3534.96
1004.538	3587.62
1004.832	3545.36
1005.127	3537
1005.421	3463.1
1005.715	3477.79
1006.009	3483.44
1006.304	3381.75
1006.598	3426.94
1006.892	3388.3
1007.186	3360.28
1007.48	3332.48
1007.773	3351.69
1008.067	3318.92
1008.361	3275.99
1008.655	3279.6
1008.948	3242.09
1009.242	3191.02
1009.535	3244.12
1009.829	3168.19
1010.122	3165.93
1010.415	3149.66
1010.708	3104.92
1011.001	3083.68
1011.295	3071.02
1011.588	3040.74
1011.881	3005.03
1012.173	3035.77
1012.466	3013.17
1012.759	3008.88
1013.052	2980.18
1013.344	2957.13
1013.637	2920.52
1013.93	2908.09
1014.222	2901.76
1014.514	2869.44
1014.807	2863.79
1015.099	2823.8
1015.391	2834.42
1015.683	2797.36
1015.976	2811.14
1016.268	2766.85
1016.56	2726.62
1016.851	2739.05
1017.143	2733.63
1017.435	2725.04
1017.727	2622.45
1018.018	2640.52
1018.31	2642.33
1018.602	2626.06
1018.893	2593.52
1019.185	2550.36
1019.476	2591.71
1019.767	2537.02
1020.058	2506.52
1020.35	2519.17
1020.641	2497.02
1020.932	2481.88
1021.223	2452.96
1021.514	2421.55
1021.804	2400.76
1022.095	2421.32
1022.386	2379.74
1022.677	2370.47
1022.967	2351.94
1023.258	2348.33
1023.548	2264.71
1023.839	2294.09
1024.129	2269.91
1024.419	2298.84
1024.709	2238.73
1025	2264.49
1025.29	2214.32
1025.58	2189.24
1025.87	2181.33
1026.16	2185.85
1026.449	2147.43
1026.739	2132.74
1027.029	2143.14
1027.319	2114.66
1027.608	2104.72
1027.898	2116.7
1028.187	2071.73
1028.477	2046.64
1028.766	2007.55
1029.055	1996.47
1029.344	2013.87
1029.634	2003.93
1029.923	1984.27
1030.212	1975.68
1030.501	1950.6
1030.79	1919.86
1031.078	1893.2
1031.367	1916.02
1031.656	1880.32
1031.945	1859.3
1032.233	1855.01
1032.522	1838.74
1032.81	1815.91
1033.099	1827.66
1033.387	1797.38
1033.675	1793.31
1033.963	1772.75
1034.251	1781.11
1034.54	1740.21
1034.828	1740.89
1035.116	1724.62
1035.403	1726.88
1035.691	1692.98
1035.979	1707.21
1036.267	1678.29
1036.554	1693.43
1036.842	1661.11
1037.129	1659.98
1037.417	1655.92
1037.704	1614.79
1037.992	1645.52
1038.279	1631.28
1038.566	1585.64
1038.853	1585.64
1039.14	1585.64
