Data from 15-0543_FLMS001491_003.txt Node
Date: Thu Apr 19 15:41:51 BST 2018
User: hsy
Spectrometer: FLMS00149
Trigger mode: 0
Integration Time (sec): 1.000000E-2
Scans to average: 10
Electric dark correction enabled: true
Nonlinearity correction enabled: false
Boxcar width: 0
XAxis mode: Wavelengths
Number of Pixels in Spectrum: 2048
>>>>>Begin Spectral Data<<<<<
341.393	-16.96
341.776	-16.96
342.16	-16.96
342.543	-57.64
342.927	-57.41
343.31	-75.94
343.693	-56.28
344.077	-75.94
344.46	-73.68
344.843	-49.73
345.226	-42.95
345.61	-20.8
345.993	-18.32
346.376	-14.93
346.759	13.77
347.142	48.57
347.525	27.56
347.908	71.62
348.291	80.44
348.674	88.8
349.057	97.84
349.44	121.34
349.823	142.36
350.206	163.82
350.588	240.66
350.971	245.63
351.354	273.2
351.737	271.17
352.119	273.65
352.502	306.64
352.884	310.71
353.267	319.53
353.65	342.8
354.032	338.28
354.414	349.81
354.797	353.65
355.179	352.97
355.562	387.09
355.944	378.51
356.326	373.54
356.709	393.2
357.091	372.86
357.473	380.77
357.855	376.93
358.238	378.28
358.62	378.96
359.002	392.07
359.384	401.78
359.766	392.52
360.148	396.36
360.53	407.43
360.912	383.93
361.294	388.68
361.676	390.48
362.057	383.93
362.439	401.56
362.821	396.13
363.203	382.57
363.584	366.53
363.966	380.54
364.348	363.14
364.729	384.16
365.111	380.99
365.493	384.61
365.874	367.21
366.256	364.5
366.637	373.99
367.019	383.93
367.4	379.64
367.781	375.34
368.163	370.82
368.544	372.41
368.925	362.91
369.306	377.6
369.688	392.97
370.069	379.64
370.45	373.99
370.831	389.58
371.212	390.94
371.593	396.13
371.974	360.65
372.355	377.38
372.736	392.97
373.117	406.98
373.498	392.07
373.879	390.94
374.26	380.99
374.641	376.47
375.021	380.09
375.402	414.21
375.783	372.86
376.163	414.66
376.544	404.27
376.925	395.23
377.305	401.33
377.686	434.1
378.066	404.95
378.447	424.61
378.827	395.23
379.208	415.34
379.588	399.75
379.968	409.69
380.349	429.58
380.729	433.19
381.109	418.73
381.489	443.82
381.87	429.35
382.25	438.39
382.63	409.92
383.01	438.84
383.39	447.66
383.77	458.73
384.15	442.23
384.53	461.89
384.91	463.02
385.29	468.22
385.67	454.21
386.049	482.91
386.429	468.67
386.809	495.79
387.189	486.98
387.568	464.83
387.948	465.28
388.328	487.88
388.707	492.63
389.087	477.49
389.466	453.08
389.846	496.24
390.225	466.87
390.605	486.75
390.984	524.94
391.363	515.9
391.743	517.94
392.122	505.06
392.501	512.97
392.881	529.69
393.26	525.17
393.639	511.61
394.018	530.82
394.397	533.08
394.776	507.77
395.155	524.04
395.534	551.61
395.913	547.32
396.292	575.34
396.671	569.69
397.05	549.58
397.429	552.97
397.808	560.2
398.186	566.98
398.565	575.79
398.944	544.6
399.323	566.75
399.701	566.75
400.08	585.51
400.458	582.34
400.837	595.68
401.215	597.71
401.594	593.87
401.972	618.05
402.351	601.1
402.729	602.91
403.107	620.53
403.486	633.87
403.864	619.86
404.242	610.59
404.62	625.51
404.999	640.65
405.377	620.31
405.755	633.19
406.133	661.89
406.511	668.44
406.889	640.87
407.267	675.22
407.645	672.06
408.023	681.78
408.401	713.19
408.779	706.86
409.156	701.21
409.534	703.47
409.912	733.98
410.29	745.28
410.667	733.07
411.045	756.35
411.422	760.19
411.8	759.74
412.178	747.54
412.555	769.01
412.933	767.88
413.31	807.42
413.687	784.6
414.065	806.52
414.442	800.64
414.819	842.45
415.197	825.05
415.574	812.62
415.951	832.73
416.328	858.72
416.705	836.35
417.082	854.43
417.46	856.23
417.837	870.02
418.214	872.51
418.591	879.51
418.967	874.09
419.344	889.91
419.721	850.81
420.098	898.72
420.475	892.17
420.852	913.86
421.228	900.08
421.605	914.76
421.982	926.06
422.358	940.98
422.735	954.31
423.111	962.9
423.488	932.16
423.864	964.48
424.241	997.93
424.617	978.94
424.994	974.88
425.37	990.02
425.746	997.02
426.123	1018.26
426.499	1016.23
426.875	1018.72
427.251	1058.26
427.627	1058.04
428.003	1063.01
428.379	1065.27
428.756	1085.83
429.132	1117.7
429.507	1098.94
429.883	1163.57
430.259	1137.81
430.635	1159.28
431.011	1172.84
431.387	1167.86
431.763	1197.24
432.138	1199.5
432.514	1212.61
432.89	1237.02
433.265	1242.67
433.641	1269.11
434.016	1260.74
434.392	1264.36
434.767	1305.49
435.143	1329.89
435.518	1317.47
435.894	1321.08
436.269	1364.24
436.644	1385.26
437.02	1362.66
437.395	1372.38
437.77	1393.85
438.145	1404.02
438.52	1411.02
438.895	1448.99
439.271	1430.91
439.646	1459.83
440.021	1468.2
440.395	1464.58
440.77	1470
441.145	1487.63
441.52	1495.99
441.895	1508.42
442.27	1501.87
442.645	1510.23
443.019	1548.87
443.394	1519.72
443.769	1525.37
444.143	1538.02
444.518	1570.34
444.892	1551.36
445.267	1620.96
445.641	1600.17
446.016	1610.56
446.39	1633.39
446.764	1648.3
447.139	1643.56
447.513	1633.39
447.887	1686.95
448.262	1637.46
448.636	1694.86
449.01	1703.9
449.384	1712.71
449.758	1705.7
450.132	1718.13
450.506	1756.32
450.88	1800.16
451.254	1753.61
451.628	1799.71
452.002	1832.25
452.376	1839.26
452.75	1853.27
453.123	1817.34
453.497	1871.58
453.871	1919.71
454.244	1926.04
454.618	1934.85
454.992	1993.61
455.365	2003.32
455.739	2052.59
456.112	2027.05
456.486	2050.1
456.859	2116.77
457.232	2156.77
457.606	2138.23
457.979	2175.07
458.352	2172.13
458.725	2219.14
459.099	2210.78
459.472	2262.53
459.845	2312.92
460.218	2292.58
460.591	2337.1
460.964	2333.94
461.337	2424.1
461.71	2466.81
462.083	2440.83
462.456	2495.29
462.829	2520.37
463.201	2520.6
463.574	2534.83
463.947	2560.82
464.32	2596.75
464.692	2635.4
465.065	2646.92
465.438	2718.33
465.81	2755.39
466.183	2739.57
466.555	2796.52
466.928	2842.62
467.3	2860.7
467.672	2847.14
468.045	2960.36
468.417	2961.49
468.789	2993.58
469.161	2989.74
469.534	3036.06
469.906	3139.56
470.278	3141.15
470.65	3118.55
471.022	3244.19
471.394	3274.02
471.766	3340.91
472.138	3389.73
472.51	3441.25
472.882	3477.86
473.253	3500.91
473.625	3589.72
473.997	3636.95
474.369	3657.97
474.74	3727.57
475.112	3720.79
475.484	3843.27
475.855	3930.96
476.227	3950.16
476.598	4050.27
476.97	4103.61
477.341	4203.94
477.713	4276.26
478.084	4281.68
478.455	4406.42
478.827	4406.2
479.198	4515.12
479.569	4585.85
479.94	4696.59
480.311	4733.19
480.682	4872.85
481.053	4990.82
481.424	5116.46
481.795	5128.89
482.166	5227.19
482.537	5317.36
482.908	5453.63
483.279	5504.47
483.65	5622.66
484.021	5756.44
484.391	5851.13
484.762	5900.62
485.133	6036.66
485.503	6185.59
485.874	6334.96
486.244	6400.04
486.615	6544.67
486.985	6667.83
487.356	6776.76
487.726	6888.17
488.097	7058.78
488.467	7129.74
488.837	7264.2
489.207	7476.17
489.578	7558.43
489.948	7693.34
490.318	7895.15
490.688	8030.06
491.058	8208.58
491.428	8348.69
491.798	8498.29
492.168	8720.89
492.538	8870.94
492.908	9029.58
493.278	9243.36
493.648	9288.56
494.017	9553.41
494.387	9736
494.757	9812.61
495.126	10039.04
495.496	10235.65
495.866	10359.71
496.235	10614.62
496.605	10766.03
496.974	10948.62
497.344	11196.08
497.713	11371.89
498.082	11577.53
498.452	11830.86
498.821	11949.5
499.19	12176.61
499.559	12443.5
499.928	12566.66
500.298	12759.42
500.667	13069.02
501.036	13148.11
501.405	13449.8
501.774	13643.24
502.143	13916.23
502.512	14088.43
502.88	14467.85
503.249	14512.6
503.618	14795.98
503.987	15025.58
504.356	15223.54
504.724	15541.27
505.093	15751.66
505.462	15929.06
505.83	16122.95
506.199	16347.58
506.567	16783.27
506.936	16891.07
507.304	17250.61
507.672	17499.19
508.041	17719.29
508.409	18037.93
508.777	18246.06
509.145	18465.49
509.514	18598.37
509.882	18848.3
510.25	19034.97
510.618	19347.5
510.986	19500.49
511.354	19807.37
511.722	20123.3
512.09	20345.89
512.458	20403.74
512.826	20829.49
513.193	20927.35
513.561	21172.08
513.929	21398.52
514.297	21590.83
514.664	21893.42
515.032	21995.34
515.4	22339.51
515.767	22496.8
516.135	22686.85
516.502	22715.55
516.869	23201.64
517.237	23341.07
517.604	23294.06
517.972	23711.9
518.339	23825.57
518.706	24069.41
519.073	24185.79
519.44	24362.96
519.808	24650.19
520.175	24738.77
520.542	25210.17
520.909	25301.92
521.276	25305.54
521.643	25693.55
522.009	25817.39
522.376	26051.96
522.743	26357.94
523.11	26604.48
523.477	26778.04
523.843	26935.55
524.21	27431.81
524.577	27508.64
524.943	27757
525.31	27924.68
525.676	28234.05
526.043	28556.3
526.409	28653.47
526.776	28907.25
527.142	28924.88
527.508	29217.07
527.874	29414.58
528.241	29550.85
528.607	29758.75
528.973	30106.54
529.339	30103.83
529.705	30433.54
530.071	30772.96
530.437	30941.09
530.803	30978.83
531.169	31091.6
531.535	31181.99
531.901	31272.16
532.267	31633.5
532.632	31722.09
532.998	31845.48
533.364	32007.28
533.73	32173.83
534.095	32483.2
534.461	32400.49
534.826	32528.85
535.192	32674.83
535.557	32824.66
535.923	32828.05
536.288	32961.61
536.653	33254.25
537.019	33083.64
537.384	33255.16
537.749	33347.13
538.114	33536.73
538.479	33291.31
538.845	33542.15
539.21	33495.83
539.575	33713.68
539.94	33739.44
540.305	33898.08
540.67	33917.96
541.034	34021.69
541.399	34044.06
541.764	34125.64
542.129	34258.29
542.494	34248.35
542.858	34409.02
543.223	34209.03
543.587	34538.74
543.952	34500.55
544.316	34564.5
544.681	34471.4
545.045	34727.21
545.41	34747.55
545.774	34683.82
546.138	34828.45
546.503	34759.98
546.867	34915.23
547.231	35138.5
547.595	34998.39
547.959	35194.09
548.324	35249.91
548.688	35209.23
549.052	35345.05
549.416	35237.25
549.779	35447.19
550.143	35520.86
550.507	35608.32
550.871	35676.56
551.235	35694.64
551.599	35848.53
551.962	35892.83
552.326	35947.97
552.689	36045.37
553.053	35970.57
553.417	36062.54
553.78	36401.51
554.143	36239.26
554.507	36251.69
554.87	36463.43
555.234	36711.11
555.597	36424.34
555.96	36533.94
556.323	36751.56
556.686	36833.82
557.05	37055.96
557.413	36991.78
557.776	36935.06
558.139	37217.76
558.502	37298.67
558.865	37261.38
559.228	37504.99
559.59	37473.8
559.953	37608.49
560.316	38045.54
560.679	38079.44
561.041	38180.45
561.404	38275.14
561.767	38558.29
562.129	38299.54
562.492	38634.9
562.854	38672.19
563.217	38636.03
563.579	38737.72
563.941	38936.14
564.304	38979.75
564.666	39545.84
565.028	39525.95
565.39	39415.9
565.753	39642.56
566.115	39658.38
566.477	39981.08
566.839	39907.86
567.201	40290.45
567.563	40296.78
567.925	40529.77
568.287	40451.13
568.648	40581.74
569.01	40683.66
569.372	41042.75
569.734	41015.4
570.095	41290.65
570.457	41289.07
570.819	41480.7
571.18	41289.3
571.542	41714.14
571.903	41634.82
572.265	41931.09
572.626	42009.95
572.987	41996.85
573.349	42195.26
573.71	42263.06
574.071	42574.01
574.432	42762.7
574.794	42870.05
575.155	42835.92
575.516	42813.78
575.877	42887.22
576.238	43041.57
576.599	43166.31
576.96	43246.31
577.32	43366.76
577.681	43298.28
578.042	43582.79
578.403	43633.41
578.763	43649.46
579.124	43778.5
579.485	43994.76
579.845	44237.24
580.206	43974.2
580.566	44148.88
580.927	44126.96
581.287	44309.78
581.648	44197.47
582.008	44643.11
582.368	44456.22
582.728	44651.69
583.089	44547.97
583.449	44467.74
583.809	44726.72
584.169	44889.88
584.529	44744.35
584.889	45114.73
585.249	44918.13
585.609	44752.03
585.969	45205.12
586.329	44989.76
586.688	45202.64
587.048	45259.59
587.408	45246.25
587.768	45207.84
588.127	45406.48
588.487	45377.1
588.846	45777.99
589.206	45364.67
589.565	45434.27
589.925	45906.35
590.284	45861.6
590.643	45719.24
591.003	45822.51
591.362	46081.03
591.721	46105.21
592.08	46064.31
592.44	46335.26
592.799	46168.72
593.158	46315.6
593.517	46284.19
593.876	46472.66
594.235	46404.64
594.593	46535.94
594.952	46649.15
595.311	46410.07
595.67	46751.75
596.029	46886.21
596.387	47064.96
596.746	47081.23
597.104	46956.49
597.463	47001.69
597.822	47140.22
598.18	47061.8
598.538	47095.24
598.897	47480.32
599.255	47240.33
599.613	47719.18
599.972	47497.72
600.33	47580.66
600.688	47698.17
601.046	47842.57
601.404	48070.36
601.762	47923.25
602.12	48098.38
602.478	48066.29
602.836	48271.26
603.194	48036.91
603.552	48197.14
603.91	48164.6
604.268	48248.89
604.625	48283.24
604.983	48536.56
605.341	48243.01
605.698	48686.16
606.056	48862.2
606.413	48680.97
606.771	48814.97
607.128	48971.58
607.485	48729.1
607.843	48846.61
608.2	49148.75
608.557	49190.1
608.914	49169.54
609.272	49275.53
609.629	49601.62
609.986	49549.64
610.343	49554.62
610.7	49922.06
611.057	49715.06
611.414	49720.26
611.771	49819.92
612.127	49901.72
612.484	49912.8
612.841	50182.85
613.198	49961.84
613.554	50010.42
613.911	50239.12
614.267	50191.43
614.624	50266.01
614.98	50370.86
615.337	50626
615.693	50637.07
616.05	50547.13
616.406	50847.24
616.762	50721.82
617.118	50817.63
617.475	50710.97
617.831	50841.36
618.187	50931.53
618.543	50974.69
618.899	51219.66
619.255	51174.69
619.611	51233.67
619.967	51251.29
620.323	51332.65
620.678	51292.87
621.034	51218.75
621.39	51189.37
621.746	51225.31
622.101	51628.68
622.457	51290.39
622.812	51501
623.168	51607.22
623.523	51360.22
623.879	51579.42
624.234	51397.96
624.589	51482.02
624.945	51520.89
625.3	51597.27
625.655	51575.13
626.01	51578.06
626.365	51660.55
626.72	51566.77
627.075	51521.57
627.43	51602.47
627.785	51611.51
628.14	51574.22
628.495	51597.05
628.85	51594.79
629.205	51512.98
629.559	51774.44
629.914	51560.44
630.269	51595.92
630.623	51383.27
630.978	51418.75
631.332	51564.28
631.687	51490.16
632.041	51314.57
632.396	51354.57
632.75	51357.28
633.104	51379.2
633.459	51216.94
633.813	51178.3
634.167	51161.8
634.521	51141.24
634.875	51237.73
635.229	51041.81
635.583	50931.75
635.937	50979.89
636.291	50970.17
636.645	50920.45
636.999	50903.96
637.352	50922.94
637.706	50661.03
638.06	50786.45
638.413	50818.99
638.767	50569.5
639.121	50587.36
639.474	50465.1
639.828	50536.06
640.181	50496.51
640.534	50530.41
640.888	50372.22
641.241	50269.4
641.594	50285.44
641.947	50432.33
642.301	50332.22
642.654	50236.86
643.007	50166.35
643.36	50325.89
643.713	50233.69
644.066	50300.58
644.419	50059.46
644.771	49610.66
645.124	49227.17
645.477	49361.63
645.83	49240.05
646.182	49236.88
646.535	49185.59
646.888	49318.01
647.24	49128.41
647.593	49398.69
647.945	49163.66
648.298	49124.12
648.65	48847.52
649.002	48608.43
649.355	48677.35
649.707	48500.63
650.059	48608.65
650.411	49053.16
650.763	49128.19
651.115	49717.32
651.467	49611.56
651.819	49581.28
652.171	49586.93
652.523	49631.68
652.875	49546.03
653.227	49379.7
653.578	49650.43
653.93	49575.18
654.282	49402.98
654.633	49468.97
654.985	49510.32
655.337	49581.06
655.688	49528.63
656.039	49580.6
656.391	49256.09
656.742	49405.69
657.094	49482.07
657.445	49391.68
657.796	49470.78
658.147	49415.64
658.498	49403.43
658.849	49608.85
659.2	49372.7
659.551	49337.9
659.902	49590.09
660.253	49503.32
660.604	49598.46
660.955	49332.47
661.306	49637.55
661.656	49476.2
662.007	49493.83
662.358	49541.28
662.708	49560.26
663.059	49592.58
663.409	49264.91
663.76	49629.87
664.11	49601.62
664.461	49649.08
664.811	49676.19
665.161	49556.42
665.511	49530.66
665.862	49515.29
666.212	49610.21
666.562	49767.26
666.912	49512.58
667.262	49497.67
667.612	49681.84
667.962	49561.39
668.312	49497.44
668.662	49795.96
669.011	49628.74
669.361	49641.62
669.711	49724.55
670.06	49485.46
670.41	49395.98
670.76	49415.64
671.109	49580.6
671.459	49473.71
671.808	49487.27
672.157	49655.4
672.507	49302.19
672.856	49233.72
673.205	49342.19
673.554	49351.23
673.904	49325.02
674.253	49558.91
674.602	49203.89
674.951	48854.52
675.3	48596.9
675.649	49226.49
675.998	49273.27
676.346	49302.19
676.695	49241.85
677.044	49049.77
677.393	49238.24
677.741	49349.42
678.09	49188.3
678.438	49016.1
678.787	49162.08
679.135	49100.39
679.484	48788.31
679.832	49131.8
680.181	48865.14
680.529	48906.95
680.877	48720.74
681.225	48673.06
681.573	49010
681.922	48753.96
682.27	48541.31
682.618	48531.37
682.966	48427.64
683.314	48351.48
683.661	48429.9
684.009	48273.52
684.357	48138.16
684.705	48117.14
685.053	48123.92
685.4	47990.36
685.748	47770.48
686.095	47746.08
686.443	47608.68
686.79	47540.88
687.138	47527.55
687.485	47599.86
687.832	47337.5
688.18	47326.65
688.527	47212.3
688.874	47123.49
689.221	47117.17
689.568	46845.31
689.915	46791.07
690.262	46760.11
690.609	46709.94
690.956	46453.68
691.303	46427.24
691.65	46233.57
691.997	46080.36
692.344	45945.67
692.69	45841.72
693.037	45780.7
693.383	45498.22
693.73	45712.91
694.077	45476.3
694.423	45281.28
694.769	45170.32
695.116	45126.03
695.462	44946.37
695.808	44782.54
696.155	44753.16
696.501	44396.56
696.847	44551.13
697.193	44046.51
697.539	44136.23
697.885	43806.52
698.231	43723.58
698.577	43737.59
698.923	43760.64
699.269	43346.87
699.614	43102.36
699.96	42991.4
700.306	43029.14
700.651	42793.21
700.997	42591.63
701.342	42537.4
701.688	42437.74
702.033	42231.87
702.379	42241.59
702.724	42018.99
703.069	42287.91
703.415	41811.09
703.76	41614.48
704.105	41587.59
704.45	41439.57
704.795	41309.18
705.14	41138.11
705.485	41021.73
705.83	40771.8
706.175	40973.6
706.52	40689.54
706.865	40558.02
707.209	40408.87
707.554	40286.61
707.899	40289.77
708.243	40153.73
708.588	40109.67
708.932	39773.18
709.277	39931.59
709.621	39614.99
709.966	39457.93
710.31	39561.43
710.654	39243.47
710.998	39297.94
711.342	39285.51
711.687	38944.05
712.031	38919.41
712.375	38828.34
712.719	38754.67
713.063	38714.45
713.407	38894.56
713.75	38702.47
714.094	38649.14
714.438	38362.59
714.782	38464.06
715.125	38213.22
715.469	38581.57
715.812	38119.21
716.156	37960.12
716.499	38076.5
716.843	38041.47
717.186	37832.21
717.53	37970.96
717.873	38003.28
718.216	37817.52
718.559	37705.89
718.902	37618.88
719.246	37467.02
719.589	37436.74
719.932	37465.22
720.275	37509.28
720.617	37441.71
720.96	37351.77
721.303	37477.87
721.646	37514.48
721.989	37126.02
722.331	37325.56
722.674	37117.65
723.016	37222.96
723.359	37045.57
723.701	37183.41
724.044	37036.3
724.386	36938
724.729	37059.12
725.071	36958.11
725.413	36921.95
725.755	36854.61
726.097	36839.24
726.439	36732.58
726.782	36799.02
727.124	36869.98
727.465	36801.5
727.807	36618.68
728.149	36857.55
728.491	36739.58
728.833	36913.82
729.175	36723.31
729.516	36654.39
729.858	36633.37
730.199	36720.15
730.541	36771.9
730.882	36483.55
731.224	36569.87
731.565	36529.87
731.906	36640.6
732.248	36663.65
732.589	36471.57
732.93	36347.5
733.271	36518.8
733.612	36529.87
733.953	36692.13
734.294	36690.32
734.635	36578.23
734.976	36714.05
735.317	36686.7
735.658	36564.9
735.999	36660.49
736.339	36612.13
736.68	36766.25
737.021	36721.28
737.361	36515.18
737.702	36783.43
738.042	36740.04
738.383	36905.23
738.723	36983.87
739.063	36772.35
739.404	37036.3
739.744	36973.03
740.084	36850.32
740.424	37044.44
740.764	37025.45
741.104	37252.57
741.444	37096.86
741.784	37156.07
742.124	37270.64
742.464	37305.67
742.804	37289.63
743.143	37361.72
743.483	37408.72
743.823	37577.08
744.162	37406.91
744.502	37617.53
744.841	37463.41
745.181	37779.11
745.52	37786.56
745.86	37908.37
746.199	37824.53
746.538	38036.05
746.877	38206.66
747.216	38265.87
747.556	38350.16
747.895	38462.93
748.234	38490.05
748.573	38558.29
748.911	38566.43
749.25	38803.71
749.589	38780.66
749.928	38961.45
750.267	39119.86
750.605	39170.48
750.944	39291.38
751.283	39284.6
751.621	39574.76
751.96	39451.83
752.298	39532.96
752.636	39866.96
752.975	39954.42
753.313	39900.86
753.651	40394.86
753.989	40207.52
754.327	40381.97
754.666	40173.84
755.004	40690.22
755.342	40682.98
755.679	40886.82
756.017	40703.1
756.355	41100.15
756.693	41088.85
757.031	41303.53
757.368	41101.05
757.706	41413.13
758.044	41251.33
758.381	41516.86
758.719	41586.69
759.056	41757.98
759.394	41788.04
759.731	41490.42
760.068	41690.19
760.405	41870.3
760.743	41818.32
761.08	41923.63
761.417	41814.71
761.754	42031.42
762.091	42182.15
762.428	41956.62
762.765	42032.1
763.102	42144.41
763.438	42089.73
763.775	41900.58
764.112	42058.32
764.449	42218.54
764.785	42122.49
765.122	42062.61
765.458	42078.88
765.795	42167.24
766.131	42308.25
766.467	42190.29
766.804	42005.89
767.14	41934.48
767.476	41992.78
767.812	41917.75
768.148	42129.5
768.485	42002.5
768.821	41781.71
769.157	41808.6
769.492	41823.74
769.828	41901.03
770.164	41590.76
770.5	41618.78
770.836	41648.61
771.171	41564.32
771.507	41410.87
771.842	41383.53
772.178	41238
772.513	41338.56
772.849	41092.92
773.184	41211.78
773.519	41131.56
773.855	40798.91
774.19	40911.23
774.525	40764.79
774.86	40673.04
775.195	40621.97
775.53	40393.05
775.865	40302.2
776.2	40043.45
776.535	39951.25
776.87	39912.16
777.205	39784.02
777.539	39835.1
777.874	39853.4
778.209	39518.04
778.543	39482.34
778.878	39222.23
779.212	39307.43
779.547	39187.88
779.881	39107.88
780.215	38965.97
780.55	38904.5
780.884	38655.01
781.218	38655.24
781.552	38531.63
781.886	38477.17
782.22	38135.48
782.554	38049.83
782.888	37759.9
783.222	37760.8
783.556	37594.7
783.889	37520.81
784.223	37365.56
784.557	37424.76
784.89	37530.07
785.224	37071.33
785.557	37025
785.891	36997.88
786.224	36840.15
786.558	36738.23
786.891	36579.36
787.224	36380.27
787.557	36412.59
787.891	36340.5
788.224	36128.08
788.557	36137.79
788.89	36110
789.223	35979.6
789.556	35732.61
789.888	35799.04
790.221	35567.64
790.554	35362.45
790.887	35506.62
791.219	35197.48
791.552	35157.03
791.884	35107.99
792.217	34856.02
792.549	34862.57
792.882	34505.29
793.214	34597.04
793.546	34508.01
793.879	34450.61
794.211	34077.06
794.543	34272.98
794.875	34352.53
795.207	34098.52
795.539	33912.54
795.871	34068.47
796.203	33730.4
796.535	33528.14
796.867	33618.99
797.198	33484.53
797.53	33378.09
797.862	32953.02
798.193	33207.47
798.525	32876.18
798.856	33185.55
799.188	32595.51
799.519	32616.53
799.85	32401.85
800.182	32511.22
800.513	32538.57
800.844	32253.6
801.175	32387.61
801.506	32339.02
801.837	32067.62
802.168	31951.01
802.499	31957.11
802.83	31820.17
803.161	31723.45
803.491	31610.45
803.822	31773.16
804.153	31430.12
804.483	31317.81
804.814	31188.54
805.145	31204.59
805.475	31307.86
805.805	31145.38
806.136	31098.38
806.466	30869
806.796	30880.98
807.126	30754.66
807.457	30642.8
807.787	30627.43
808.117	30544.95
808.447	30493.65
808.777	30579.97
809.107	30269.47
809.436	30206.42
809.766	30275.12
810.096	30159.64
810.426	30123.94
810.755	30152.64
811.085	30030.61
811.414	29945.19
811.744	29822.93
812.073	29742.48
812.403	29739.99
812.732	29569.6
813.061	29683.27
813.39	29415.48
813.719	29418.2
814.049	29474.69
814.378	29435.14
814.707	29080.8
815.036	29276.28
815.365	29136.62
815.693	28991.09
816.022	28985.66
816.351	28852.11
816.68	28733.24
817.008	28808.72
817.337	28537.31
817.665	28500.03
817.994	28521.04
818.322	28623.41
818.651	28487.82
818.979	28480.14
819.307	28358.11
819.636	28373.7
819.964	28102.75
820.292	28216.87
820.62	28240.37
820.948	28321.73
821.276	28308.39
821.604	28273.14
821.932	28456.64
822.259	28243.54
822.587	28141.17
822.915	28171.9
823.243	28200.6
823.57	28027.27
823.898	28204.89
824.225	28095.07
824.553	28082.86
824.88	28066.37
825.207	28220.71
825.535	28158.79
825.862	28159.47
826.189	28098.68
826.516	28372.35
826.843	28331.9
827.17	28257.55
827.497	28329.18
827.824	28184.78
828.151	28312.46
828.478	28241.5
828.805	28294.38
829.131	28308.39
829.458	28222.52
829.785	28055.07
830.111	28237.66
830.438	28321.28
830.764	28095.29
831.09	28339.35
831.417	28095.07
831.743	28378.67
832.069	28203.99
832.395	28102.98
832.722	28184.33
833.048	28106.59
833.374	28313.59
833.7	28142.97
834.026	28162.41
834.351	28124.9
834.677	28204.89
835.003	28201.28
835.329	28092.81
835.654	28074.05
835.98	27902.98
836.306	27959.25
836.631	27852.59
836.956	28072.92
837.282	27963.09
837.607	27854.62
837.932	27942.08
838.258	27784.34
838.583	27734.85
838.908	27695.3
839.233	27670.22
839.558	27667.96
839.883	27558.36
840.208	27484.91
840.533	27607.62
840.858	27455.54
841.182	27483.11
841.507	27461.41
841.832	27284.01
842.156	27322.88
842.481	27321.53
842.805	27155.43
843.13	27102.32
843.454	27068.2
843.778	26964.93
844.103	26833.4
844.427	26918.15
844.751	26901.88
845.075	26828.21
845.399	26858.04
845.723	26697.36
846.047	26744.82
846.371	26442.23
846.695	26359.29
847.019	26250.82
847.343	26134.21
847.666	26038.17
847.99	26001.11
848.313	25863.94
848.637	25861
848.96	25810.38
849.284	25815.35
849.607	25439.77
849.931	25459.2
850.254	25275.48
850.577	25180.34
850.9	25005.88
851.223	25052.21
851.546	24880.01
851.869	24748.26
852.192	24891.08
852.515	24553.24
852.838	24437.76
853.161	24462.62
853.483	24234.6
853.806	24402.73
854.129	24154.15
854.451	24212.68
854.774	23988.51
855.096	24030.54
855.419	23864.44
855.741	23875.29
856.063	23726.14
856.385	23756.2
856.708	23522.76
857.03	23631.23
857.352	23492.7
857.674	23473.94
857.996	23380.84
858.318	23190.11
858.64	23333.16
858.961	23133.16
859.283	23073.28
859.605	22978.14
859.926	22965.94
860.248	22959.16
860.57	22704.7
860.891	22740.63
861.212	22774.98
861.534	22683.23
861.855	22532.27
862.176	22622.67
862.498	22578.38
862.819	22473.07
863.14	22485.72
863.461	22332.96
863.782	22256.35
864.103	22287.54
864.424	22197.59
864.745	22210.7
865.065	22079.18
865.386	21988.56
865.707	22134.09
866.027	22142.91
866.348	22030.59
866.668	22017.03
866.989	21913.76
867.309	21834.89
867.63	21807.1
867.95	21795.57
868.27	21698.85
868.59	21788.34
868.91	21764.61
869.23	21658.4
869.55	21663.37
869.87	21723.48
870.19	21558.52
870.51	21472.64
870.83	21425.86
871.15	21366.2
871.469	21334.11
871.789	21394.9
872.109	21328.92
872.428	21239.2
872.748	21324.62
873.067	21244.85
873.386	21311.29
873.706	21189.26
874.025	20938.42
874.344	21011.64
874.663	21084.18
874.982	21023.61
875.301	20933.9
875.62	20890.74
875.939	20874.47
876.258	20917.4
876.577	20829.72
876.896	20807.35
877.214	20843.96
877.533	20797.41
877.852	20753.34
878.17	20753.79
878.489	20719.89
878.807	20666.11
879.125	20667.01
879.444	20544.76
879.762	20564.87
880.08	20594.92
880.398	20428.38
880.716	20460.92
881.034	20382.5
881.352	20388.83
881.67	20260.7
881.988	20308.6
882.306	20076.97
882.624	20291.66
882.941	20035.84
883.259	20004.88
883.577	19944.55
883.894	19961.49
884.212	19865.23
884.529	19906.36
884.846	19869.75
885.164	19665.01
885.481	19824.1
885.798	19736.64
886.115	19660.26
886.432	19757.66
886.75	19532.35
887.067	19601.73
887.383	19460.72
887.7	19453.71
888.017	19346.14
888.334	19339.14
888.651	19365.58
888.967	19227.5
889.284	19147.73
889.6	19172.36
889.917	19052.14
890.233	19037.23
890.55	18899.6
890.866	18961.3
891.182	18879.72
891.498	18917
891.815	18788.87
892.131	18684.47
892.447	18684.47
892.763	18587.97
893.079	18582.55
893.395	18392.95
893.71	18445.38
894.026	18414.87
894.342	18381.65
894.657	18179.62
894.973	18222.33
895.289	18241.09
895.604	18136.23
895.92	18067.31
896.235	17975.56
896.55	17919.51
896.865	17870.02
897.181	17817.37
897.496	17784.38
897.811	17660.76
898.126	17581.44
898.441	17517.72
898.756	17463.48
899.071	17382.35
899.386	17399.75
899.7	17266.88
900.015	17201.34
900.33	17072.31
900.644	17084.73
900.959	17056.94
901.273	16924.51
901.588	16948.92
901.902	16829.6
902.216	16821.92
902.531	16687.23
902.845	16575.14
903.159	16534.69
903.473	16486.33
903.787	16460.12
904.101	16315.26
904.415	16314.81
904.729	16301.7
905.042	16106.91
905.356	16146.68
905.67	16058.77
905.984	16090.86
906.297	15993.46
906.611	15893.58
906.924	15884.77
907.237	15872.11
907.551	15833.47
907.864	15704.88
908.177	15697.88
908.491	15576.07
908.804	15463.76
909.117	15408.62
909.43	15379.69
909.743	15327.27
910.056	15289.98
910.368	15209.53
910.681	15126.82
910.994	15092.02
911.307	15129.98
911.619	14907.16
911.932	14940.84
912.244	14807.51
912.557	14811.8
912.869	14697.45
913.181	14666.49
913.494	14675.76
913.806	14456.78
914.118	14457.46
914.43	14404.35
914.742	14363.68
915.054	14280.29
915.366	14245.49
915.678	14180.86
915.99	14097.92
916.302	14030.8
916.613	13912.61
916.925	13976.57
917.236	13984.25
917.548	13834.2
917.859	13819.51
918.171	13826.29
918.482	13612.06
918.794	13596.01
919.105	13448.22
919.416	13399.63
919.727	13442.34
920.038	13360.76
920.349	13278.96
920.66	13231.28
920.971	13234.44
921.282	13195.57
921.593	13149.24
921.903	12966.65
922.214	12976.82
922.525	12843.49
922.835	12860.66
923.146	12762.81
923.456	12634.68
923.767	12735.02
924.077	12667.9
924.387	12573.21
924.697	12538.87
925.008	12496.38
925.318	12365.31
925.628	12417.29
925.938	12328.25
926.248	12232.66
926.558	12149.95
926.867	12090.06
927.177	12080.35
927.487	12020.69
927.796	12017.75
928.106	11953.57
928.416	11888.94
928.725	11875.38
929.034	11770.75
929.344	11807.13
929.653	11761.94
929.962	11681.03
930.271	11605.33
930.581	11530.3
930.89	11504.54
931.199	11396.97
931.508	11390.19
931.817	11375.05
932.125	11327.82
932.434	11220.26
932.743	11121.73
933.051	11083.99
933.36	11167.15
933.669	11011.9
933.977	10980.26
934.286	11010.54
934.594	10864.11
934.902	10864.78
935.21	10769.42
935.519	10715.86
935.827	10734.62
936.135	10671.57
936.443	10602.87
936.751	10561.97
937.059	10587.28
937.367	10453.95
937.674	10499.6
937.982	10437.9
938.29	10380.05
938.597	10286.72
938.905	10187.06
939.213	10162.66
939.52	10109.1
939.827	10126.27
940.135	10163.33
940.442	10043.79
940.749	10006.95
941.056	9963.57
941.363	9908.65
941.67	9888.54
941.977	9790.01
942.284	9754.53
942.591	9726.96
942.898	9700.07
943.205	9714.76
943.511	9621.2
943.818	9617.81
944.125	9499.4
944.431	9478.38
944.738	9427.08
945.044	9445.61
945.35	9354.54
945.657	9246.07
945.963	9335.56
946.269	9241.1
946.575	9163.59
946.881	9176.69
947.187	9117.49
947.493	9054.44
947.799	8998.39
948.105	9008.34
948.41	8923.37
948.716	8906.64
949.022	8843.37
949.327	8894.67
949.633	8716.82
949.938	8686.54
950.244	8743.03
950.549	8614.22
950.854	8635.24
951.16	8581.23
951.465	8480.44
951.77	8528.35
952.075	8484.51
952.38	8389.37
952.685	8447.22
952.99	8212.88
953.294	8302.14
953.599	8290.84
953.904	8243.84
954.209	8176.04
954.513	8201.8
954.818	8142.14
955.122	8138.75
955.426	8034.8
955.731	8031.19
956.035	7974.47
956.339	7991.41
956.643	7976.05
956.948	7914.81
957.252	7811.98
957.556	7797.75
957.86	7744.19
958.163	7732.89
958.467	7691.08
958.771	7623.06
959.075	7619.67
959.378	7532.44
959.682	7577.87
959.985	7565.21
960.289	7478.43
960.592	7449.73
960.896	7393.92
961.199	7369.51
961.502	7343.3
961.805	7378.32
962.108	7218.78
962.411	7234.6
962.714	7174.03
963.017	7194.15
963.32	7189.63
963.623	7136.3
963.926	7077.54
964.228	7078.22
964.531	6964.77
964.833	7019.69
965.136	6912.12
965.438	6917.09
965.741	6883.87
966.043	6863.76
966.345	6849.3
966.648	6822.41
966.95	6793.93
967.252	6735.18
967.554	6717.78
967.856	6671.67
968.158	6656.99
968.46	6606.37
968.761	6628.51
969.063	6580.6
969.365	6575.86
969.666	6495.63
969.968	6515.07
970.269	6406.6
970.571	6442.53
970.872	6365.92
971.174	6354.62
971.475	6316.43
971.776	6310.78
972.077	6240.27
972.378	6216.32
972.679	6220.61
972.98	6199.37
973.281	6141.97
973.582	6097.45
973.883	6080.28
974.183	6096.55
974.484	5987.63
974.785	5915.99
975.085	5991.69
975.386	5960.06
975.686	5899.72
975.986	5934.75
976.287	5854.97
976.587	5794.41
976.887	5862.43
977.187	5814.97
977.487	5741.53
977.787	5693.62
978.087	5665.6
978.387	5639.84
978.687	5632.61
978.987	5630.12
979.286	5564.13
979.586	5569.1
979.885	5563.23
980.185	5502.21
980.484	5481.42
980.784	5442.1
981.083	5433.74
981.382	5431.26
981.682	5350.13
981.981	5360.52
982.28	5338.83
982.579	5331.15
982.878	5303.35
983.177	5267.87
983.475	5262.45
983.774	5236.91
984.073	5202.79
984.372	5161.43
984.67	5133.86
984.969	5141.32
985.267	5097.93
985.566	5039.4
985.864	5022.23
986.162	5062.45
986.461	4973.19
986.759	4995.33
987.057	4899.52
987.355	4938.39
987.653	4879.41
987.951	4864.72
988.249	4833.76
988.547	4862
988.844	4804.83
989.142	4743.59
989.44	4743.36
989.737	4774.32
990.035	4749.47
990.332	4658.62
990.63	4731.84
990.927	4663.37
991.224	4637.38
991.521	4590.37
991.819	4588.34
992.116	4583.59
992.413	4509.25
992.71	4500.21
993.006	4518.74
993.303	4492.98
993.6	4489.81
993.897	4464.73
994.193	4438.74
994.49	4403.26
994.787	4333.88
995.083	4358.29
995.379	4263.83
995.676	4295.47
995.972	4249.37
996.268	4266.54
996.565	4223.38
996.861	4184.28
997.157	4218.86
997.453	4139.54
997.749	4129.37
998.044	4110.84
998.34	4088.24
998.636	4073.78
998.932	4023.38
999.227	3994.68
999.523	3949.71
999.818	3963.05
1000.114	3930.05
1000.409	3947.45
1000.704	3915.14
1001	3881.92
1001.295	3848.47
1001.59	3850.96
1001.885	3805.08
1002.18	3759.21
1002.475	3778.64
1002.77	3781.36
1003.065	3696.61
1003.359	3704.97
1003.654	3754.01
1003.949	3641.92
1004.243	3633.79
1004.538	3628.14
1004.832	3633.79
1005.127	3602.83
1005.421	3520.8
1005.715	3521.48
1006.009	3539.33
1006.304	3495.04
1006.598	3442.83
1006.892	3423.4
1007.186	3450.52
1007.48	3434.02
1007.773	3392.67
1008.067	3344.76
1008.361	3318.09
1008.655	3351.31
1008.948	3308.6
1009.242	3325.55
1009.535	3291.2
1009.829	3227.7
1010.122	3216.17
1010.415	3187.47
1010.708	3166
1011.001	3178.66
1011.295	3163.52
1011.588	3140.24
1011.881	3141.6
1012.173	3057.98
1012.466	3089.17
1012.759	3039.23
1013.052	3042.84
1013.344	3021.38
1013.637	3009.62
1013.93	2992.9
1014.222	2930.3
1014.514	2928.95
1014.807	2937.31
1015.099	2906.12
1015.391	2864.32
1015.683	2905.22
1015.976	2870.19
1016.268	2839.01
1016.56	2824.09
1016.851	2775.05
1017.143	2766.47
1017.435	2749.52
1017.727	2740.93
1018.018	2693.02
1018.31	2734.15
1018.602	2718.11
1018.893	2677.66
1019.185	2691.44
1019.476	2600.14
1019.767	2608.05
1020.058	2601.95
1020.35	2527.83
1020.641	2551.33
1020.932	2547.72
1021.223	2473.37
1021.514	2508.85
1021.804	2441.73
1022.095	2444.89
1022.386	2406.7
1022.677	2410.09
1022.967	2396.31
1023.258	2399.47
1023.548	2359.25
1023.839	2361.28
1024.129	2334.39
1024.419	2338.91
1024.709	2282.19
1025	2256.65
1025.29	2262.3
1025.58	2227.27
1025.87	2223.43
1026.16	2219.81
1026.449	2208.52
1026.739	2181.85
1027.029	2159.93
1027.319	2161.51
1027.608	2121.51
1027.898	2100.5
1028.187	2107.5
1028.477	2067.5
1028.766	2069.31
1029.055	2057.56
1029.344	2036.99
1029.634	2028.63
1029.923	2024.79
1030.212	2006.71
1030.501	1990.22
1030.79	1988.41
1031.078	1940.5
1031.367	1940.5
1031.656	1926.26
1031.945	1919.94
1032.233	1915.42
1032.522	1857.79
1032.81	1874.74
1033.099	1866.38
1033.387	1850.78
1033.675	1843.78
1033.963	1806.94
1034.251	1834.51
1034.54	1792.03
1034.828	1783.89
1035.116	1761.07
1035.403	1764.91
1035.691	1734.18
1035.979	1737.57
1036.267	1698.92
1036.554	1717.23
1036.842	1694.18
1037.129	1667.74
1037.417	1637
1037.704	1689.21
1037.992	1636.1
1038.279	1631.58
1038.566	1618.47
1038.853	1618.47
1039.14	1618.47
