Data from 15-0543_FLMS001491_002.txt Node
Date: Thu Apr 19 15:41:48 BST 2018
User: hsy
Spectrometer: FLMS00149
Trigger mode: 0
Integration Time (sec): 1.000000E-2
Scans to average: 10
Electric dark correction enabled: true
Nonlinearity correction enabled: false
Boxcar width: 0
XAxis mode: Wavelengths
Number of Pixels in Spectrum: 2048
>>>>>Begin Spectral Data<<<<<
341.393	-0.61
341.776	-0.61
342.16	-0.61
342.543	-47.16
342.927	-54.62
343.31	-60.94
343.693	-63.88
344.077	-72.7
344.46	-72.47
344.843	-51.45
345.226	-34.96
345.61	-41.28
345.993	-33.6
346.376	10.69
346.759	13.86
347.142	36.91
347.525	36.68
347.908	61.76
348.291	69
348.674	83.68
349.057	118.71
349.44	112.38
349.823	155.32
350.206	177.02
350.588	253.62
350.971	246.62
351.354	284.36
351.737	301.76
352.119	290.01
352.502	309.89
352.884	292.49
353.267	316.45
353.65	343.11
354.032	352.38
354.414	347.63
354.797	352.38
355.179	370.46
355.562	373.17
355.944	378.37
356.326	378.14
356.709	356.9
357.091	401.64
357.473	391.25
357.855	389.89
358.238	398.25
358.62	409.78
359.002	383.34
359.384	377.69
359.766	411.36
360.148	392.38
360.53	385.82
360.912	389.21
361.294	393.73
361.676	383.34
362.057	390.57
362.439	400.06
362.821	385.37
363.203	384.69
363.584	391.7
363.966	389.66
364.348	394.18
364.729	387.63
365.111	384.02
365.493	390.12
365.874	398.93
366.256	384.02
366.637	387.41
367.019	365.03
367.4	373.85
367.781	366.16
368.163	370.68
368.544	405.71
368.925	396.22
369.306	382.21
369.688	394.86
370.069	378.82
370.45	383.56
370.831	389.44
371.212	386.05
371.593	378.59
371.974	381.08
372.355	375.65
372.736	388.08
373.117	383.11
373.498	395.99
373.879	395.31
374.26	390.79
374.641	388.08
375.021	398.93
375.402	406.16
375.783	402.32
376.163	412.04
376.544	412.26
376.925	407.74
377.305	410.46
377.686	409.55
378.066	394.41
378.447	412.26
378.827	430.12
379.208	419.72
379.588	408.42
379.968	416.56
380.349	428.99
380.729	434.18
381.109	449.1
381.489	429.44
381.87	412.04
382.25	439.16
382.63	447.29
383.01	432.6
383.39	435.99
383.77	441.41
384.15	449.78
384.53	445.03
384.91	457.46
385.29	443.67
385.67	457.46
386.049	463.56
386.429	487.29
386.809	448.65
387.189	468.76
387.568	473.05
387.948	485.93
388.328	475.31
388.707	494.52
389.087	480.74
389.466	496.55
389.846	496.1
390.225	493.39
390.605	514.18
390.984	515.31
391.363	491.36
391.743	504.24
392.122	512.37
392.501	508.31
392.881	510.57
393.26	517.57
393.639	524.8
394.018	532.49
394.397	553.28
394.776	537.91
395.155	546.04
395.534	551.47
395.913	536.55
396.292	546.5
396.671	558.25
397.05	557.8
397.429	565.03
397.808	563.45
398.186	545.14
398.565	557.12
398.944	543.56
399.323	562.77
399.701	586.27
400.08	578.81
400.458	558.25
400.837	570
401.215	569.77
401.594	577.68
401.972	579.94
402.351	598.47
402.729	616.33
403.107	598.25
403.486	614.97
403.864	615.42
404.242	624.46
404.62	630.79
404.999	650.67
405.377	626.27
405.755	619.49
406.133	630.11
406.511	658.81
406.889	655.87
407.267	647.96
407.645	663.78
408.023	665.82
408.401	678.24
408.779	690.45
409.156	676.44
409.534	701.75
409.912	671.92
410.29	696.78
410.667	728.19
411.045	724.57
411.422	751.24
411.8	731.35
412.178	758.69
412.555	755.53
412.933	751.01
413.31	779.49
413.687	776.77
414.065	781.74
414.442	787.39
414.819	798.92
415.197	814.96
415.574	813.16
415.951	833.72
416.328	821.52
416.705	818.35
417.082	810.67
417.46	841.18
417.837	847.28
418.214	859.94
418.591	848.64
418.967	866.04
419.344	883.21
419.721	857
420.098	860.84
420.475	866.94
420.852	873.27
421.228	912.14
421.605	915.98
421.982	923.66
422.358	935.87
422.735	940.16
423.111	966.6
423.488	944.23
423.864	966.15
424.241	929.99
424.617	961.85
424.994	955.07
425.37	977.9
425.746	1007.5
426.123	992.36
426.499	997.33
426.875	1002.98
427.251	1001.63
427.627	1032.36
428.003	1038.24
428.379	1052.7
428.756	1054.73
429.132	1060.16
429.507	1090.21
429.883	1108.74
430.259	1103.77
430.635	1117.33
431.011	1140.38
431.387	1141.06
431.763	1143.09
432.138	1145.8
432.514	1187.16
432.89	1179.47
433.265	1220.83
433.641	1220.6
434.016	1238.23
434.392	1213.6
434.767	1273.03
435.143	1262.18
435.518	1269.64
435.894	1274.16
436.269	1273.03
436.644	1327.27
437.02	1371.33
437.395	1313.48
437.77	1353.48
438.145	1367.72
438.52	1393.93
438.895	1381.96
439.271	1397.77
439.646	1402.97
440.021	1425.34
440.395	1420.82
440.77	1428.51
441.145	1446.36
441.52	1444.78
441.895	1435.29
442.27	1465.57
442.645	1494.49
443.019	1479.58
443.394	1480.48
443.769	1477.32
444.143	1503.76
444.518	1524.78
444.892	1522.74
445.267	1527.04
445.641	1536.3
446.016	1513.48
446.39	1558.67
446.764	1573.14
447.139	1578.56
447.513	1577.43
447.887	1596.19
448.262	1614.72
448.636	1616.07
449.01	1633.02
449.384	1630.76
449.758	1641.38
450.132	1642.29
450.506	1666.92
450.88	1692
451.254	1685.68
451.628	1739.46
452.002	1756.63
452.376	1777.65
452.75	1808.61
453.123	1792.57
453.497	1832.34
453.871	1823.3
454.244	1850.42
454.618	1881.38
454.992	1901.49
455.365	1935.61
455.739	1964.76
456.112	1974.03
456.486	1988.94
456.859	1981.04
457.232	2056.06
457.606	2082.28
457.979	2072.11
458.352	2144.65
458.725	2139
459.099	2171.99
459.472	2186
459.845	2224.64
460.218	2234.36
460.591	2273.91
460.964	2268.71
461.337	2329.95
461.71	2373.12
462.083	2398.65
462.456	2394.81
462.829	2394.13
463.201	2457.18
463.574	2436.16
463.947	2501.7
464.32	2553.22
464.692	2573.34
465.065	2572.43
465.438	2595.26
465.81	2607.91
466.183	2668.48
466.555	2727.91
466.928	2755.7
467.3	2733.33
467.672	2756.16
468.045	2810.84
468.417	2853.55
468.789	2825.76
469.161	2894.91
469.534	2943.72
469.906	2969.03
470.278	3021.91
470.65	3086.09
471.022	3110.95
471.394	3162.02
471.766	3169.7
472.138	3198.4
472.51	3296.26
472.882	3309.81
473.253	3364.05
473.625	3401.79
473.997	3484.27
474.369	3524.05
474.74	3544.84
475.112	3683.36
475.484	3696.24
475.855	3776.69
476.227	3765.62
476.598	3889.01
476.97	3922.91
477.341	3986.18
477.713	4064.14
478.084	4108.66
478.455	4227.53
478.827	4251.03
479.198	4350.46
479.569	4365.83
479.94	4558.37
480.311	4571.7
480.682	4683.11
481.053	4780.74
481.424	4887.63
481.795	4928.3
482.166	5019.37
482.537	5131.01
482.908	5221.63
483.279	5298.01
483.65	5437.89
484.021	5504.78
484.391	5625.46
484.762	5695.74
485.133	5798.79
485.503	5890.31
485.874	6048.73
486.244	6073.81
486.615	6299.79
486.985	6367.81
487.356	6537.98
487.726	6637.41
488.097	6810.96
488.467	6877.63
488.837	7070.85
489.207	7183.38
489.578	7288.69
489.948	7465.64
490.318	7628.57
490.688	7722.81
491.058	7904.72
491.428	8064.04
491.798	8178.61
492.168	8421.09
492.538	8520.52
492.908	8739.28
493.278	8911.02
493.648	8977.24
494.017	9267.85
494.387	9440.27
494.757	9546.71
495.126	9746.93
495.496	9961.62
495.866	10079.13
496.235	10271.44
496.605	10497.42
496.974	10623.75
497.344	10875.49
497.713	11032.1
498.082	11216.95
498.452	11473.89
498.821	11581.69
499.19	11833.88
499.559	12091.96
499.928	12265.96
500.298	12451.72
500.667	12702.79
501.036	12857.13
501.405	13199.95
501.774	13371.92
502.143	13599.71
502.512	13793.38
502.88	14040.61
503.249	14145.91
503.618	14498.67
503.987	14620.03
504.356	14918.55
504.724	15127.36
505.093	15380.68
505.462	15572.09
505.83	15825.42
506.199	16191.74
506.567	16450.94
506.936	16613.19
507.304	16980.19
507.672	17152.61
508.041	17345.38
508.409	17665.37
508.777	17916.44
509.145	18264.22
509.514	18340.38
509.882	18592.58
510.25	18783.08
510.618	19002.73
510.986	19176.06
511.354	19614.92
511.722	19832.32
512.09	19967.68
512.458	20205.19
512.826	20483.83
513.193	20608.12
513.561	20870.26
513.929	21123.13
514.297	21288.55
514.664	21530.35
515.032	21831.14
515.4	21952.04
515.767	22227.73
516.135	22418.24
516.502	22303.89
516.869	22813.71
517.237	22975.51
517.604	22934.16
517.972	23413.01
518.339	23389.51
518.706	23713.8
519.073	23938.2
519.44	24156.72
519.808	24453.66
520.175	24518.3
520.542	24885.97
520.909	24988.79
521.276	25083.48
521.643	25414.54
522.009	25584.03
522.376	25843.46
522.743	26033.74
523.11	26414.29
523.477	26624.68
523.843	26844.79
524.21	27107.83
524.577	27371.1
524.943	27383.76
525.31	27585.56
525.676	27932.9
526.043	28178.99
526.409	28274.36
526.776	28485.42
527.142	28586.21
527.508	28837.73
527.874	29077.5
528.241	29227.32
528.607	29343.93
528.973	29674.54
529.339	29770.59
529.705	30152.95
530.071	30500.29
530.437	30382.55
530.803	30691.47
531.169	30761.07
531.535	30816.44
531.901	30884.23
532.267	31043.32
532.632	31279.25
532.998	31414.39
533.364	31665.9
533.73	31708.39
534.095	31957.2
534.461	31972.34
534.826	32178.21
535.192	32309.5
535.557	32430.86
535.923	32431.53
536.288	32723.28
536.653	32747.91
537.019	32828.81
537.384	32874.46
537.749	33026.77
538.114	33097.28
538.479	33122.59
538.845	33103.83
539.21	33261.79
539.575	33402.81
539.94	33522.8
540.305	33669.24
540.67	33593.54
541.034	33735.91
541.399	33694.1
541.764	33775
542.129	33918.5
542.494	33989.91
542.858	34041.21
543.223	34119.85
543.587	34228.32
543.952	34203.47
544.316	34329.56
544.681	34147.87
545.045	34563.46
545.41	34509.45
545.774	34388.54
546.138	34533.17
546.503	34577.01
546.867	34725.49
547.231	34814.75
547.595	34836.89
547.959	34864.46
548.324	34974.07
548.688	34927.29
549.052	34995.76
549.416	34942.2
549.779	35002.99
550.143	35207.51
550.507	35297.67
550.871	35320.95
551.235	35202.31
551.599	35567.95
551.962	35535.18
552.326	35661.28
552.689	35779.69
553.053	35559.36
553.417	35665.35
553.78	35988.28
554.143	35995.28
554.507	35962.06
554.87	36065.56
555.234	36280.47
555.597	36219.01
555.96	36200.25
556.323	36405.44
556.686	36344.2
557.05	36607.02
557.413	36643.17
557.776	36630.97
558.139	36865.99
558.502	36825.32
558.865	36902.15
559.228	37176.49
559.59	37154.12
559.953	37128.36
560.316	37636.6
560.679	37415.13
561.041	37724.73
561.404	37832.07
561.767	38119.29
562.129	37925.4
562.492	38332.17
562.854	38378.5
563.217	38262.34
563.579	38421.21
563.941	38589.11
564.304	38758.83
564.666	39026.62
565.028	38973.28
565.39	39102.55
565.753	39398.36
566.115	39326.27
566.477	39479.94
566.839	39564
567.201	40019.58
567.563	39824.11
567.925	40040.6
568.287	40114.95
568.648	40154.5
569.01	40462.28
569.372	40737.98
569.734	40653.24
570.095	40839.45
570.457	41118.54
570.819	41053
571.18	41084.19
571.542	41261.58
571.903	41350.62
572.265	41499.09
572.626	41597.62
572.987	41730.27
573.349	41931.62
573.71	41981.79
574.071	42054.33
574.432	42304.27
574.794	42479.86
575.155	42468.78
575.516	42507.43
575.877	42619.51
576.238	42732.28
576.599	42856.12
576.96	42885.04
577.32	42961.65
577.681	43183.12
578.042	43311.47
578.403	43239.39
578.763	43277.58
579.124	43362.55
579.485	43727.28
579.845	43768.86
580.206	43675.98
580.566	43686.15
580.927	43691.35
581.287	43870.78
581.648	43859.48
582.008	44072.36
582.368	44148.97
582.728	43986.94
583.089	44192.58
583.449	44304.89
583.809	44396.87
584.169	44528.84
584.529	44407.94
584.889	44853.58
585.249	44684.55
585.609	44506.92
585.969	44837.31
586.329	44713.02
586.688	44911.21
587.048	44883.64
587.408	44880.25
587.768	44842.96
588.127	44975.61
588.487	44864.65
588.846	45475.03
589.206	45044.08
589.565	45144.19
589.925	45532.21
590.284	45374.7
590.643	45471.19
591.003	45505.09
591.362	45750.05
591.721	45754.12
592.08	45712.09
592.44	45989.6
592.799	45810.39
593.158	45877.28
593.517	45830.96
593.876	46154.11
594.235	46085.41
594.593	46026.88
594.952	46276.37
595.311	46193.43
595.67	46415.35
596.029	46658.28
596.387	46618.51
596.746	46805.62
597.104	46660.99
597.463	46700.76
597.822	46919.06
598.18	46830.48
598.538	46924.03
598.897	47159.73
599.255	47016.69
599.613	47489.22
599.972	47148.89
600.33	47340.52
600.688	47361.54
601.046	47463.68
601.404	47844.46
601.762	47626.84
602.12	47946.83
602.478	47775.09
602.836	47826.16
603.194	47779.38
603.552	47884.91
603.91	47885.59
604.268	48075.64
604.625	48080.16
604.983	48249.88
605.341	48084
605.698	48366.03
606.056	48426.14
606.413	48261.63
606.771	48613.93
607.128	48554.05
607.485	48486.03
607.843	48618.68
608.2	48698
608.557	48925.79
608.914	48806.47
609.272	49040.82
609.629	49137.99
609.986	49251.43
610.343	49226.8
610.7	49634.25
611.057	49440.13
611.414	49396.06
611.771	49598.31
612.127	49638.54
612.484	49693
612.841	49808.7
613.198	49619.1
613.554	49758.76
613.911	50023.39
614.267	49911.3
614.624	49954.46
614.98	50074.91
615.337	50271.29
615.693	50161.01
616.05	50350.84
616.406	50368.24
616.762	50152.88
617.118	50362.59
617.475	50353.55
617.831	50426.77
618.187	50484.62
618.543	50620.43
618.899	50722.35
619.255	50656.37
619.611	50630.15
619.967	50751.05
620.323	51013.64
620.678	50666.76
621.034	50752.86
621.39	50802.8
621.746	50832.86
622.101	51163.47
622.457	50979.3
622.812	51113.08
623.168	51146.75
623.523	51145.17
623.879	51139.97
624.234	51025.62
624.589	51255.9
624.945	51241.89
625.3	51182
625.655	51184.49
626.01	51287.54
626.365	51318.95
626.72	51318.72
627.075	51166.41
627.43	51157.14
627.785	51248.44
628.14	51192.85
628.495	51195.79
628.85	51280.76
629.205	51174.32
629.559	51342
629.914	51192.4
630.269	51173.41
630.623	51064.72
630.978	51053.42
631.332	51205.73
631.687	51165.28
632.041	51075.56
632.396	51037.6
632.75	50992.63
633.104	51111.72
633.459	50874.89
633.813	50886.19
634.167	50835.57
634.521	50846.87
634.875	50881.67
635.229	50821.56
635.583	50706.08
635.937	50641
636.291	50685.29
636.645	50658.63
636.999	50573.43
637.352	50510.83
637.706	50291.63
638.06	50490.72
638.413	50523.04
638.767	50272.2
639.121	50494.56
639.474	50145.19
639.828	50227.22
640.181	50192.88
640.534	50219.99
640.888	50152.65
641.241	49928.93
641.594	49962.6
641.947	50052.31
642.301	49902.26
642.654	49945.2
643.007	49923.05
643.36	49867.69
643.713	49859.1
644.066	49955.82
644.419	49686.22
644.771	49340.69
645.124	49043.98
645.477	48903.42
645.83	48839.24
646.182	48822.97
646.535	48723.08
646.888	48873.81
647.24	48634.05
647.593	48990.87
647.945	48723.31
648.298	48607.61
648.65	48546.36
649.002	48376.88
649.355	48196.32
649.707	47975.53
650.059	48005.81
650.411	48593.6
650.763	48860.03
651.115	49373.24
651.467	49310.86
651.819	49253.92
652.171	49294.14
652.523	49096.41
652.875	49175.73
653.227	48982.96
653.578	49309.06
653.93	49282.16
654.282	49051.21
654.633	49049.63
654.985	49086.01
655.337	49084.43
655.688	49061.15
656.039	49141.38
656.391	48881.05
656.742	48990.87
657.094	49063.87
657.445	49014.6
657.796	48944.55
658.147	49044.43
658.498	49063.87
658.849	49110.19
659.2	49010.08
659.551	48928.05
659.902	49261.83
660.253	49008.5
660.604	49159.68
660.955	48939.8
661.306	49183.86
661.656	49042.4
662.007	48984.32
662.358	49051.66
662.708	49153.35
663.059	48963.3
663.409	48934.83
663.76	49235.39
664.11	49051.21
664.461	49220.02
664.811	49100.25
665.161	49075.39
665.511	49059.12
665.862	49191.77
666.212	49302.96
666.562	49196.52
666.912	49152.45
667.262	49103.86
667.612	49206.91
667.962	49155.39
668.312	49172.56
668.662	49255.72
669.011	49260.92
669.361	49270.19
669.711	49234.48
670.06	49143.19
670.41	49173.01
670.76	49057.31
671.109	49369.62
671.459	49179.79
671.808	49210.98
672.157	49209.4
672.507	48950.87
672.856	48916.3
673.205	49078.78
673.554	49085.79
673.904	49042.85
674.253	49268.61
674.602	48956.75
674.951	48571.45
675.3	48412.13
675.649	48985.45
675.998	48947.71
676.346	48966.24
676.695	49049.18
677.044	48693.71
677.393	48779.13
677.741	48892.8
678.09	48768.73
678.438	48744.78
678.787	48658.45
679.135	48678.34
679.484	48380.95
679.832	48500.94
680.181	48439.47
680.529	48512.92
680.877	48318.12
681.225	48357.67
681.573	48524.22
681.922	48246.26
682.27	48123.55
682.618	48018.47
682.966	47939.83
683.314	48055.76
683.661	47896.21
684.009	47807.4
684.357	47730.12
684.705	47583.68
685.053	47693.05
685.4	47433.63
685.748	47398.82
686.095	47324.7
686.443	46999.51
686.79	47108.21
687.138	47154.31
687.485	47016.24
687.832	46791.61
688.18	46883.13
688.527	46820.53
688.874	46700.09
689.221	46571.28
689.568	46395.01
689.915	46192.53
690.262	46272.07
690.609	46169.03
690.956	46010.39
691.303	45834.8
691.65	45659.66
691.997	45658.98
692.344	45527.01
692.69	45328.37
693.037	45444.98
693.383	44982.62
693.73	45169.73
694.077	44924.09
694.423	44811.77
694.769	44714.6
695.116	44555.51
695.462	44475.74
695.808	44249.98
696.155	44222.86
696.501	43986.71
696.847	44116.65
697.193	43724.12
697.539	43715.76
697.885	43442.77
698.231	43307.63
698.577	43166.17
698.923	43131.59
699.269	42880.53
699.614	42797.59
699.96	42681.66
700.306	42531.61
700.651	42380.88
700.997	42346.53
701.342	42226.08
701.688	42068.12
702.033	41851.4
702.379	41898.4
702.724	41681.23
703.069	41771.18
703.415	41340.68
703.76	41272.88
704.105	41284.63
704.45	41117.86
704.795	40952.21
705.14	40845.1
705.485	40870.63
705.83	40488.5
706.175	40716.51
706.52	40275.62
706.865	40219.8
707.209	40184.78
707.554	39984.56
707.899	40039.47
708.243	39755.18
708.588	39704.34
708.932	39523.33
709.277	39571.23
709.621	39433.16
709.966	39296.89
710.31	39152.26
710.654	38881.31
710.998	39032.94
711.342	39078.37
711.687	38841.08
712.031	38678.15
712.375	38570.81
712.719	38490.36
713.063	38534.42
713.407	38609.45
713.75	38226.86
714.094	38429.34
714.438	38148.67
714.782	38091.27
715.125	37940.99
715.469	38207.65
715.812	37835.46
716.156	37991.16
716.499	37781.45
716.843	37908
717.186	37574.9
717.53	37719.98
717.873	37621.45
718.216	37566.77
718.559	37477.73
718.902	37193.67
719.246	37276.15
719.589	37264.4
719.932	37045.65
720.275	37169.49
720.617	37134.24
720.96	37129.04
721.303	37155.48
721.646	37170.62
721.989	36824.41
722.331	36996.39
722.674	36846.11
723.016	36834.36
723.359	36784.41
723.701	36933.56
724.044	36817.41
724.386	36572.67
724.729	36819.22
725.071	36867.58
725.413	36672.33
725.755	36471.65
726.097	36554.82
726.439	36370.19
726.782	36549.39
727.124	36719.78
727.465	36420.36
727.807	36387.14
728.149	36468.04
728.491	36425.33
728.833	36523.18
729.175	36379.23
729.516	36345.1
729.858	36334.26
730.199	36478.89
730.541	36332.45
730.882	36239.34
731.224	36304.2
731.565	36295.61
731.906	36256.29
732.248	36471.65
732.589	36141.27
732.93	36249.06
733.271	36332.9
733.612	36311.66
733.953	36441.6
734.294	36307.59
734.635	36250.19
734.976	36541.71
735.317	36300.81
735.658	36313.92
735.999	36327.03
736.339	36287.7
736.68	36491.31
737.021	36376.97
737.361	36301.71
737.702	36619.67
738.042	36473.01
738.383	36552.1
738.723	36573.57
739.063	36449.28
739.404	36503.52
739.744	36668.03
740.084	36427.59
740.424	36712.55
740.764	36649.73
741.104	36964.3
741.444	36783.96
741.784	36640.24
742.124	36932.66
742.464	36952.77
742.804	36841.36
743.143	36916.39
743.483	37172.65
743.823	37120.68
744.162	37204.52
744.502	37392.08
744.841	37296.94
745.181	37478.63
745.52	37472.98
745.86	37480.89
746.199	37624.17
746.538	37665.97
746.877	37999.07
747.216	37904.38
747.556	37990.26
747.895	38118.39
748.234	38052.86
748.573	38218.73
748.911	38225.28
749.25	38495.1
749.589	38488.32
749.928	38504.37
750.267	38776.68
750.605	38945.71
750.944	39010.57
751.283	38999.5
751.621	39229.77
751.96	39144.35
752.298	39248.08
752.636	39390.67
752.975	39467.73
753.313	39536.43
753.651	39994.73
753.989	39869.98
754.327	40003.09
754.666	39908.4
755.004	40149.52
755.342	40232.91
755.679	40463.19
756.017	40296.86
756.355	40695.5
756.693	40653.46
757.031	40916.06
757.368	40868.15
757.706	40947.92
758.044	40980.91
758.381	41124.19
758.719	41196.05
759.056	41329.61
759.394	41357.4
759.731	41268.82
760.068	41445.53
760.405	41659.54
760.743	41457.74
761.08	41801.01
761.417	41803.94
761.754	41790.61
762.091	41950.83
762.428	41804.17
762.765	41826.32
763.102	41983.6
763.438	41991.06
763.775	41897.27
764.112	42048.91
764.449	42059.76
764.785	41878.97
765.122	41901.34
765.458	41933.43
765.795	41988.12
766.131	42239.19
766.467	41990.83
766.804	41867.67
767.14	41876.26
767.476	41725.98
767.812	41860.21
768.148	41855.02
768.485	41789.25
768.821	41605.3
769.157	41627.9
769.492	41648.24
769.828	41822.25
770.164	41287.8
770.5	41424.97
770.836	41536.61
771.171	41401.24
771.507	41341.36
771.842	41188.82
772.178	41233.79
772.513	41132.55
772.849	41100.91
773.184	41010.52
773.519	40866.79
773.855	40847.13
774.19	40705.89
774.525	40639.23
774.86	40480.59
775.195	40490.76
775.53	40375.28
775.865	40342.74
776.2	40009.19
776.535	39870.66
776.87	39865.46
777.205	39649.88
777.539	39757.67
777.874	39630.44
778.209	39388.19
778.543	39419.37
778.878	39222.77
779.212	39197.68
779.547	39003.34
779.881	38909.56
780.215	38751.14
780.55	38789.79
780.884	38514.54
781.218	38480.41
781.552	38600.86
781.886	38323.58
782.22	38122.23
782.554	37960.43
782.888	37748.46
783.222	37577.16
783.556	37544.85
783.889	37437.73
784.223	37214.23
784.557	37157.29
784.89	37477.28
785.224	37006.33
785.557	37000
785.891	36909.83
786.224	36741.48
786.558	36756.62
786.891	36551.43
787.224	36336.52
787.557	36192.34
787.891	36240.47
788.224	35980.82
788.557	36022.85
788.89	35932.46
789.223	35833.7
789.556	35657.89
789.888	35574.95
790.221	35380.84
790.554	35314.17
790.887	35250.67
791.219	35191.46
791.552	35111.24
791.884	34828.53
792.217	34916.21
792.549	34672.83
792.882	34350.58
793.214	34387.87
793.546	34460.86
793.879	34203.92
794.211	33909.91
794.543	34129.57
794.875	34025.84
795.207	33805.51
795.539	33889.58
795.871	33691.61
796.203	33498.4
796.535	33388.12
796.867	33327.56
797.198	33193.55
797.53	33140.22
797.862	33017.06
798.193	33049.6
798.525	32871.3
798.856	32811.19
799.188	32569.84
799.519	32560.34
799.85	32445.55
800.182	32401.48
800.513	32497.07
800.844	32065.44
801.175	32244.65
801.506	32224.76
801.837	31860.25
802.168	31971.43
802.499	31938.89
802.83	31712.01
803.161	31634.04
803.491	31668.39
803.822	31667.49
804.153	31369.19
804.483	31278.8
804.814	31113.38
805.145	31153.38
805.475	31106.15
805.805	30962.65
806.136	31122.42
806.466	30870.22
806.796	30762.88
807.126	30630.45
807.457	30662.32
807.787	30640.39
808.117	30529.66
808.447	30472.26
808.777	30411.47
809.107	30117.92
809.436	30144.36
809.766	30192.72
810.096	30198.37
810.426	30031.37
810.755	30057.13
811.085	29841.55
811.414	29894.2
811.744	29703.47
812.073	29723.36
812.403	29602
812.732	29507.32
813.061	29652.17
813.39	29290.15
813.719	29254.67
814.049	29488.33
814.378	29366.53
814.707	29067.1
815.036	29198.62
815.365	28973.55
815.693	28915.47
816.022	28890.61
816.351	28728.58
816.68	28702.14
817.008	28860.1
817.337	28661.69
817.665	28588.92
817.994	28555.93
818.322	28678.64
818.651	28459.44
818.979	28308.03
819.307	28274.13
819.636	28335.14
819.964	28149.16
820.292	28251.08
820.62	28204.75
820.948	28265.77
821.276	28314.35
821.604	28239.1
821.932	28415.82
822.259	28180.8
822.587	28213.57
822.915	28205.43
823.243	28244.75
823.57	28091.31
823.898	28285.2
824.225	28184.64
824.553	28141.03
824.88	28169.73
825.207	28198.43
825.535	28052.21
825.862	28192.32
826.189	28191.42
826.516	28330.4
826.843	28362.94
827.17	28276.39
827.497	28198.43
827.824	28329.72
828.151	28239.55
828.478	28150.06
828.805	28404.52
829.131	28279.78
829.458	28252.44
829.785	28009.28
830.111	28218.99
830.438	28410.17
830.764	28125.88
831.09	28233.45
831.417	28034.36
831.743	28283.85
832.069	28118.2
832.395	28178.76
832.722	28326.56
833.048	27991.43
833.374	28144.42
833.7	28012.44
834.026	28101.03
834.351	28002.27
834.677	28058.77
835.003	28001.59
835.329	28087.92
835.654	28038.43
835.98	27855.16
836.306	28083.17
836.631	27884.54
836.956	27944.65
837.282	27940.13
837.607	27880.69
837.932	27896.51
838.258	27759.57
838.583	27825.33
838.908	27655.39
839.233	27694.94
839.558	27464.66
839.883	27431.67
840.208	27408.16
840.533	27405.23
840.858	27461.27
841.182	27511.66
841.507	27325.45
841.832	27305.12
842.156	27335.17
842.481	27248.62
842.805	27066.25
843.13	26961.4
843.454	27024.44
843.778	26830.55
844.103	26922.07
844.427	26815.64
844.751	26904.22
845.075	26791.23
845.399	26717.56
845.723	26539.03
846.047	26617.22
846.371	26468.75
846.695	26329.1
847.019	26235.54
847.343	26104.69
847.666	26019.27
847.99	25803.23
848.313	25730.69
848.637	25845.27
848.96	25628.32
849.284	25588.55
849.607	25501.1
849.931	25383.81
850.254	25245.28
850.577	25068.56
850.9	24927.32
851.223	24862.02
851.546	24771.17
851.869	24638.74
852.192	24847.78
852.515	24486.43
852.838	24405.98
853.161	24468.35
853.483	24240.79
853.806	24201.02
854.129	24177.97
854.451	24118.31
854.774	23979.1
855.096	23962.38
855.419	23854.81
855.741	23800.35
856.063	23672.44
856.385	23494.59
856.708	23577.76
857.03	23513.35
857.352	23446.69
857.674	23351.55
857.996	23248.95
858.318	23137.32
858.64	23272
858.961	23063.42
859.283	22998.79
859.605	22869.75
859.926	22904.55
860.248	22802.63
860.57	22724.44
860.891	22747.5
861.212	22658.01
861.534	22575.97
861.855	22538.01
862.176	22505.02
862.498	22626.59
862.819	22531
863.14	22405.36
863.461	22324.23
863.782	22174.85
864.103	22216.21
864.424	22280.84
864.745	22302.31
865.065	22044.91
865.386	21915.43
865.707	22046.72
866.027	22072.71
866.348	21901.42
866.668	21987.52
866.989	21918.14
867.309	21727.18
867.63	21796.11
867.95	21776.67
868.27	21559.96
868.59	21722.89
868.91	21575.55
869.23	21601.31
869.55	21499.39
869.87	21609.45
870.19	21480.64
870.51	21477.25
870.83	21489
871.15	21419.17
871.469	21312.73
871.789	21388.66
872.109	21436.12
872.428	21243.35
872.748	21399.73
873.067	21268.21
873.386	21277.93
873.706	21243.13
874.025	21081.32
874.344	21043.13
874.663	21116.35
874.982	21003.13
875.301	21028.9
875.62	20937.6
875.939	20894.66
876.258	20913.42
876.577	20811.27
876.896	20886.98
877.214	20771.28
877.533	20813.31
877.852	20771.05
878.17	20636.14
878.489	20752.75
878.807	20657.83
879.125	20584.84
879.444	20588
879.762	20419.42
880.08	20611.51
880.398	20492.19
880.716	20329.48
881.034	20333.1
881.352	20376.03
881.67	20276.15
881.988	20160.67
882.306	20140.56
882.624	20150.5
882.941	19991.64
883.259	19994.12
883.577	19895.14
883.894	19883.62
884.212	19811.08
884.529	19830.06
884.846	19800.68
885.164	19685.2
885.481	19699.67
885.798	19675.49
886.115	19621.25
886.432	19646.56
886.75	19586.45
887.067	19627.8
887.383	19508.03
887.7	19447.92
888.017	19234.59
888.334	19380.58
888.651	19235.5
888.967	19261.03
889.284	19130.19
889.6	19039.34
889.917	18976.07
890.233	18986.01
890.55	18968.39
890.866	18878.9
891.182	18738.79
891.498	18819.24
891.815	18646.36
892.131	18607.04
892.447	18577.21
892.763	18500.15
893.079	18453.37
893.395	18400.49
893.71	18437.78
894.026	18311
894.342	18261.74
894.657	18121.63
894.973	18186.03
895.289	18187.84
895.604	18046.83
895.92	17934.97
896.235	17903.1
896.55	17936.1
896.865	17755.08
897.181	17719.6
897.496	17750.79
897.811	17631.92
898.126	17532.94
898.441	17606.61
898.756	17410.23
899.071	17287.3
899.386	17361.42
899.7	17203.69
900.015	17154.65
900.33	17041.2
900.644	17120.75
900.959	17059.74
901.273	16942.22
901.588	16888.67
901.902	16874.66
902.216	16742.68
902.531	16782.91
902.845	16697.94
903.159	16577.04
903.473	16495.23
903.787	16347.44
904.101	16341.11
904.415	16398.06
904.729	16220.66
905.042	16204.62
905.356	16160.78
905.67	16118.06
905.984	16110.38
906.297	15935.92
906.611	15883.72
906.924	15902.48
907.237	15788.58
907.551	15760.56
907.864	15721.92
908.177	15658.19
908.491	15516.5
908.804	15477.18
909.117	15383.17
909.43	15337.29
909.743	15280.8
910.056	15253
910.368	15238.54
910.681	15135.94
910.994	15002.39
911.307	14865.89
911.619	14924.42
911.932	14945.44
912.244	14792.68
912.557	14720.36
912.869	14628.39
913.181	14628.84
913.494	14649.18
913.806	14462.74
914.118	14447.83
914.43	14406.92
914.742	14325.12
915.054	14260.49
915.366	14199.25
915.678	14055.75
915.99	14115.86
916.302	13954.51
916.613	13954.96
916.925	13939.82
917.236	13828.86
917.548	13784.11
917.859	13741.63
918.171	13686.94
918.482	13565.59
918.794	13528.08
919.105	13501.41
919.416	13385.03
919.727	13333.05
920.038	13296.9
920.349	13230.46
920.66	13210.12
920.971	13197.01
921.282	13093.29
921.593	13065.04
921.903	12974.19
922.214	13037.47
922.525	12873.18
922.835	12903.91
923.146	12759.96
923.456	12715.89
923.767	12674.99
924.077	12595.22
924.387	12566.29
924.697	12543.02
925.008	12462.34
925.318	12433.64
925.628	12385.28
925.938	12323.81
926.248	12210.37
926.558	12213.99
926.867	12170.6
927.177	12000.43
927.487	12021.68
927.796	11994.11
928.106	12005.63
928.416	11855.35
928.725	11819.65
929.034	11779.2
929.344	11770.61
929.653	11742.59
929.962	11562.03
930.271	11613.1
930.581	11520.22
930.89	11456.04
931.199	11475.25
931.508	11366.78
931.817	11381.24
932.125	11325.87
932.434	11250.17
932.743	11070.97
933.051	11131.3
933.36	11002.04
933.669	11076.16
933.977	11021.7
934.286	10965.66
934.594	10951.65
934.902	10813.35
935.21	10748.04
935.519	10734.48
935.827	10727.7
936.135	10637.53
936.443	10579.23
936.751	10536.74
937.059	10509.62
937.367	10449.74
937.674	10479.34
937.982	10430.76
938.29	10371.32
938.597	10326.13
938.905	10229.41
939.213	10179.46
939.52	10088.84
939.827	10145.79
940.135	10083.2
940.442	10010.2
940.749	9988.96
941.056	9933.37
941.363	9869.19
941.67	9815.18
941.977	9797.78
942.284	9716.43
942.591	9728.18
942.898	9626.03
943.205	9683.43
943.511	9556.88
943.818	9571.57
944.125	9439.37
944.431	9450.44
944.738	9372.48
945.044	9359.37
945.35	9318.47
945.657	9267.17
945.963	9265.36
946.269	9236.66
946.575	9143.56
946.881	9167.06
947.187	9110.11
947.493	8972.26
947.799	8948.99
948.105	8960.51
948.41	8914.64
948.716	8870.57
949.022	8913.51
949.327	8812.95
949.633	8697.02
949.938	8734.53
950.244	8693.4
950.549	8614.99
950.854	8576.79
951.16	8600.07
951.465	8482.56
951.77	8491.37
952.075	8452.96
952.38	8410.02
952.685	8418.15
952.99	8299.29
953.294	8335.22
953.599	8219.52
953.904	8230.14
954.209	8108.56
954.513	8166.64
954.818	8105.39
955.122	8148.1
955.426	8092.97
955.731	7996.92
956.035	7947.21
956.339	7908.34
956.643	7873.08
956.948	7884.16
957.252	7815.46
957.556	7758.28
957.86	7756.25
958.163	7723.03
958.467	7655.24
958.771	7608.46
959.075	7650.94
959.378	7580.21
959.682	7611.4
959.985	7509.48
960.289	7469.7
960.592	7452.3
960.896	7358.07
961.199	7397.62
961.502	7408.01
961.805	7330.5
962.108	7233.55
962.411	7296.83
962.714	7202.14
963.017	7181.35
963.32	7163.05
963.623	7102.71
963.926	7061.58
964.228	7045.99
964.531	7012.54
964.833	7017.74
965.136	6964.18
965.438	6914.01
965.741	6869.49
966.043	6839.44
966.345	6821.59
966.648	6729.16
966.95	6752.89
967.252	6740.01
967.554	6759.44
967.856	6643.06
968.158	6641.93
968.46	6627.47
968.761	6524.42
969.063	6613.46
969.365	6603.51
969.666	6462.27
969.968	6431.31
970.269	6406.46
970.571	6381.6
970.872	6382.5
971.174	6333.92
971.475	6383.86
971.776	6255.95
972.077	6257.31
972.378	6249.17
972.679	6174.6
972.98	6158.55
973.281	6129.63
973.582	6098.89
973.883	6117.42
974.183	6092.34
974.484	6048.95
974.785	5960.82
975.085	6026.8
975.386	5967.82
975.686	5902.51
975.986	5883.53
976.287	5862.52
976.587	5885.34
976.887	5865.45
977.187	5836.75
977.487	5733.48
977.787	5751.78
978.087	5686.02
978.387	5632.69
978.687	5678.11
978.987	5638.11
979.286	5548.63
979.586	5601.28
979.885	5554.73
980.185	5479.25
980.484	5443.77
980.784	5484.22
981.083	5411.45
981.382	5456.2
981.682	5397.22
981.981	5343.66
982.28	5307.73
982.579	5273.38
982.878	5321.74
983.177	5251.68
983.475	5227.73
983.774	5237.22
984.073	5201.52
984.372	5191.8
984.67	5149.31
984.969	5131.46
985.267	5115.19
985.566	5092.59
985.864	5052.37
986.162	5024.35
986.461	5038.58
986.759	5010.11
987.057	4935.99
987.355	4932.6
987.653	4897.34
987.951	4907.51
988.249	4865.48
988.547	4851.24
988.844	4800.4
989.142	4806.5
989.44	4769.21
989.737	4787.52
990.035	4703
990.332	4721.08
990.63	4678.59
990.927	4641.76
991.224	4654.41
991.521	4625.71
991.819	4573.06
992.116	4567.18
992.413	4561.53
992.71	4531.7
993.006	4521.53
993.303	4474.98
993.6	4476.79
993.897	4474.08
994.193	4456.9
994.49	4402.44
994.787	4356.11
995.083	4321.99
995.379	4322.89
995.676	4299.62
995.972	4297.81
996.268	4212.39
996.565	4214.42
996.861	4217.81
997.157	4204.03
997.453	4116.12
997.749	4148.21
998.044	4080.19
998.34	4083.81
998.636	4036.35
998.932	4056.24
999.227	4022.11
999.523	3987.54
999.818	3972.85
1000.114	3945.28
1000.409	3956.8
1000.704	3875.9
1001	3924.04
1001.295	3877.71
1001.59	3829.57
1001.885	3841.55
1002.18	3797.71
1002.475	3783.02
1002.77	3783.47
1003.065	3732.4
1003.359	3752.06
1003.654	3717.94
1003.949	3712.52
1004.243	3648.11
1004.538	3626.87
1004.832	3584.16
1005.127	3575.57
1005.421	3560.88
1005.715	3561.56
1006.009	3546.42
1006.304	3530.83
1006.598	3456.02
1006.892	3467.32
1007.186	3425.97
1007.48	3436.59
1007.773	3402.69
1008.067	3388.46
1008.361	3360.43
1008.655	3330.83
1008.948	3295.13
1009.242	3289.02
1009.535	3261.91
1009.829	3256.93
1010.122	3232.75
1010.415	3198.86
1010.708	3194.79
1011.001	3209.48
1011.295	3138.75
1011.588	3176.03
1011.881	3089.48
1012.173	3084.51
1012.466	3080.67
1012.759	3069.37
1013.052	3021.46
1013.344	3000.44
1013.637	3006.32
1013.93	2978.75
1014.222	2962.03
1014.514	2944.4
1014.807	2930.62
1015.099	2881.58
1015.391	2874.12
1015.683	2902.37
1015.976	2854.23
1016.268	2826.21
1016.56	2756.61
1016.851	2798.64
1017.143	2795.93
1017.435	2772.88
1017.727	2723.84
1018.018	2690.62
1018.31	2685.65
1018.602	2657.4
1018.893	2627.57
1019.185	2637.29
1019.476	2657.63
1019.767	2617.4
1020.058	2586.67
1020.35	2525.2
1020.641	2574.24
1020.932	2547.12
1021.223	2489.04
1021.514	2468.93
1021.804	2483.17
1022.095	2468.71
1022.386	2441.14
1022.677	2417.41
1022.967	2403.62
1023.258	2356.39
1023.548	2388.03
1023.839	2322.5
1024.129	2333.57
1024.419	2304.87
1024.709	2298.09
1025	2291.76
1025.29	2268.49
1025.58	2248.83
1025.87	2222.84
1026.16	2189.84
1026.449	2181.03
1026.739	2195.04
1027.029	2188.49
1027.319	2145.1
1027.608	2120.92
1027.898	2121.82
1028.187	2146
1028.477	2087.02
1028.766	2075.5
1029.055	2015.84
1029.344	2049.96
1029.634	2014.03
1029.923	2017.87
1030.212	1996.85
1030.501	1990.07
1030.79	1973.13
1031.078	1975.84
1031.367	1953.01
1031.656	1918.66
1031.945	1908.95
1032.233	1892.45
1032.522	1876.86
1032.81	1849.29
1033.099	1887.48
1033.387	1874.15
1033.675	1833.24
1033.963	1852.45
1034.251	1812.9
1034.54	1786.46
1034.828	1793.24
1035.116	1779.91
1035.403	1765.67
1035.691	1741.27
1035.979	1761.61
1036.267	1736.97
1036.554	1717.99
1036.842	1688.84
1037.129	1699.23
1037.417	1703.53
1037.704	1664.89
1037.992	1673.7
1038.279	1618.79
1038.566	1622.4
1038.853	1622.4
1039.14	1622.4
