Data from 15-0543_FLMS001491_004.txt Node
Date: Thu Apr 19 15:41:54 BST 2018
User: hsy
Spectrometer: FLMS00149
Trigger mode: 0
Integration Time (sec): 1.000000E-2
Scans to average: 10
Electric dark correction enabled: true
Nonlinearity correction enabled: false
Boxcar width: 0
XAxis mode: Wavelengths
Number of Pixels in Spectrum: 2048
>>>>>Begin Spectral Data<<<<<
341.393	-11.85
341.776	-11.85
342.16	-11.85
342.543	-63.37
342.927	-60.89
343.31	-83.49
343.693	-61.11
344.077	-75.58
344.46	-62.92
344.843	-59.53
345.226	-39.19
345.61	-24.05
345.993	-25.86
346.376	-22.25
346.759	14.14
347.142	29.96
347.525	27.7
347.908	77.19
348.291	95.27
348.674	95.49
349.057	114.25
349.44	123.29
349.823	140.24
350.206	187.01
350.588	213.68
350.971	244.87
351.354	257.75
351.737	281.25
352.119	286.45
352.502	316.05
352.884	314.7
353.267	312.44
353.65	331.87
354.032	341.59
354.414	373.45
354.797	349.04
355.179	368.93
355.562	364.41
355.944	377.97
356.326	384.3
356.709	390.63
357.091	383.62
357.473	400.34
357.855	394.92
358.238	373.22
358.62	398.08
359.002	396.27
359.384	402.38
359.766	385.2
360.148	395.14
360.53	390.4
360.912	385.43
361.294	382.26
361.676	404.64
362.057	385.88
362.439	393.34
362.821	374.58
363.203	380.91
363.584	394.24
363.966	377.74
364.348	370.96
364.729	380
365.111	362.38
365.493	363.96
365.874	384.75
366.256	366.67
366.637	392.66
367.019	375.03
367.4	373.22
367.781	376.61
368.163	385.2
368.544	387.46
368.925	363.51
369.306	382.49
369.688	377.52
370.069	416.39
370.45	384.52
370.831	392.89
371.212	382.49
371.593	380.91
371.974	364.64
372.355	414.81
372.736	391.3
373.117	406.9
373.498	382.72
373.879	386.56
374.26	399.21
374.641	378.42
375.021	403.28
375.402	410.96
375.783	409.16
376.163	409.61
376.544	393.79
376.925	417.29
377.305	423.84
377.686	416.61
378.066	413
378.447	423.84
378.827	420
379.208	423.84
379.588	421.58
379.968	425.65
380.349	425.88
380.729	435.82
381.109	441.92
381.489	438.08
381.87	436.95
382.25	460.23
382.63	459.55
383.01	427.69
383.39	439.66
383.77	459.55
384.15	446.44
384.53	454.13
384.91	508.81
385.29	462.26
385.67	470.62
386.049	473.34
386.429	465.2
386.809	477.63
387.189	482.37
387.568	501.13
387.948	472.66
388.328	472.88
388.707	487.35
389.087	517.18
389.466	493
389.846	502.94
390.225	520.34
390.605	513.56
390.984	504.97
391.363	504.52
391.743	507.23
392.122	519.21
392.501	513.11
392.881	516.05
393.26	525.54
393.639	561.69
394.018	563.28
394.397	558.3
394.776	569.6
395.155	544.29
395.534	538.64
395.913	536.16
396.292	564.86
396.671	564.41
397.05	581.81
397.429	560.56
397.808	588.13
398.186	565.54
398.565	582.03
398.944	578.19
399.323	596.27
399.701	580.22
400.08	560.34
400.458	575.93
400.837	607.79
401.215	600.34
401.594	623.61
401.972	606.66
402.351	613.44
402.729	614.8
403.107	608.47
403.486	647.57
403.864	629.26
404.242	635.36
404.62	659.09
404.999	647.57
405.377	661.58
405.755	676.72
406.133	660.45
406.511	681.92
406.889	660
407.267	678.75
407.645	713.1
408.023	709.04
408.401	704.29
408.779	721.69
409.156	722.14
409.534	729.15
409.912	731.86
410.29	735.48
410.667	737.96
411.045	744.97
411.422	778.64
411.8	767.56
412.178	789.48
412.555	794.68
412.933	827.68
413.31	802.37
413.687	802.59
414.065	819.31
414.442	809.15
414.819	830.61
415.197	797.62
415.574	861.12
415.951	864.06
416.328	837.17
416.705	854.34
417.082	888.92
417.46	863.16
417.837	900.22
418.214	882.36
418.591	902.7
418.967	890.95
419.344	911.06
419.721	903.15
420.098	912.19
420.475	944.28
420.852	947.45
421.228	933.66
421.605	950.61
421.982	967.33
422.358	971.4
422.735	985.19
423.111	967.11
423.488	989.71
423.864	1015.47
424.241	1001.91
424.617	1020.21
424.994	1007.78
425.37	1044.85
425.746	1027.9
426.123	1037.39
426.499	1048.24
426.875	1058.63
427.251	1072.64
427.627	1100.66
428.003	1083.26
428.379	1107.67
428.756	1122.81
429.132	1127.56
429.507	1173.88
429.883	1159.64
430.259	1168.68
430.635	1179.31
431.011	1193.32
431.387	1214.11
431.763	1246.65
432.138	1233.32
432.514	1281.22
432.89	1251.17
433.265	1269.47
433.641	1296.59
434.016	1282.13
434.392	1309.47
434.767	1355.12
435.143	1344.5
435.518	1357.15
435.894	1382.92
436.269	1375.91
436.644	1431.5
437.02	1404.61
437.395	1396.93
437.77	1426.08
438.145	1436.02
438.52	1440.77
438.895	1465.17
439.271	1496.13
439.646	1509.24
440.021	1510.82
440.395	1505.62
440.77	1535.45
441.145	1499.97
441.52	1567.77
441.895	1572.74
442.27	1522.8
442.645	1576.13
443.019	1600.99
443.394	1596.7
443.769	1604.6
444.143	1576.13
444.518	1610.93
444.892	1617.26
445.267	1620.2
445.641	1632.17
446.016	1664.04
446.39	1673.76
446.764	1666.75
447.139	1671.5
447.513	1698.84
447.887	1718.95
448.262	1712.4
448.636	1720.53
449.01	1757.6
449.384	1758.05
449.758	1732.96
450.132	1810.7
450.506	1800.76
450.88	1823.81
451.254	1847.76
451.628	1845.5
452.002	1815.9
452.376	1871.49
452.75	1891.6
453.123	1929.79
453.497	1939.06
453.871	1974.99
454.244	2007.76
454.618	2005.95
454.992	2052.95
455.365	2054.31
455.739	2093.18
456.112	2098.6
456.486	2137.02
456.859	2144.48
457.232	2212.05
457.606	2243.01
457.979	2228.77
458.352	2258.6
458.725	2305.15
459.099	2292.72
459.472	2321.2
459.845	2388.09
460.218	2424.02
460.591	2430.8
460.964	2428.76
461.337	2487.97
461.71	2535.2
462.083	2577.69
462.456	2546.5
462.829	2568.42
463.201	2621.08
463.574	2624.46
463.947	2708.98
464.32	2726.16
464.692	2749.21
465.065	2761.18
465.438	2797.57
465.81	2866.94
466.183	2840.73
466.555	2908.3
466.928	2947.85
467.3	2945.13
467.672	2986.26
468.045	3049.54
468.417	3035.98
468.789	3087.96
469.161	3127.95
469.534	3136.32
469.906	3188.52
470.278	3255.63
470.65	3301.28
471.022	3325.69
471.394	3394.16
471.766	3445.01
472.138	3465.57
472.51	3571.56
472.882	3601.16
473.253	3638.9
473.625	3695.17
473.997	3761.38
474.369	3820.37
474.74	3820.37
475.112	3907.59
475.484	3986.24
475.855	4034.82
476.227	4077.08
476.598	4184.65
476.97	4212.22
477.341	4342.16
477.713	4369.05
478.084	4431.2
478.455	4538.76
478.827	4604.53
479.198	4710.06
479.569	4749.83
479.94	4855.82
480.311	4955.93
480.682	5059.88
481.053	5170.16
481.424	5270.05
481.795	5323.38
482.166	5434.11
482.537	5531.28
482.908	5639.98
483.279	5771.27
483.65	5846.98
484.021	5924.49
484.391	6032.74
484.762	6139.85
485.133	6235.9
485.503	6339.85
485.874	6510.01
486.244	6611.03
486.615	6792.94
486.985	6801.53
487.356	6990.9
487.726	7069.09
488.097	7302.76
488.467	7414.4
488.837	7582.07
489.207	7755.4
489.578	7940.03
489.948	8069.75
490.318	8187.71
490.688	8322.39
491.058	8505.21
491.428	8687.58
491.798	8849.61
492.168	9095.93
492.538	9177.29
492.908	9358.75
493.278	9561.68
493.648	9716.03
494.017	9824.28
494.387	10090.48
494.757	10199.18
495.126	10416.8
495.496	10591.94
495.866	10728.21
496.235	10931.59
496.605	11108.31
496.974	11379.94
497.344	11546.49
497.713	11721.63
498.082	11820.61
498.452	12096.53
498.821	12362.97
499.19	12451.33
499.559	12743.97
499.928	12912.78
500.298	13203.17
500.667	13445.2
501.036	13566.32
501.405	13868.24
501.774	13983.26
502.143	14283.82
502.512	14418.05
502.88	14803.13
503.249	14871.37
503.618	15111.14
503.987	15304.13
504.356	15605.82
504.724	15820.28
505.093	16023.43
505.462	16391.56
505.83	16498.9
506.199	16740.25
506.567	17031.32
506.936	17330.97
507.304	17626.78
507.672	17738.42
508.041	18050.73
508.409	18329.14
508.777	18585.85
509.145	18773.64
509.514	18896.81
509.882	19190.13
510.25	19495.21
510.618	19693.62
510.986	19840.74
511.354	20225.81
511.722	20396.43
512.09	20816.3
512.458	20820.6
512.826	21096.3
513.193	21368.6
513.561	21526.34
513.929	21750.06
514.297	22051.75
514.664	22264.4
515.032	22560.66
515.4	22642.24
515.767	22915.23
516.135	22991.16
516.502	22972.4
516.869	23498.94
517.237	23726.96
517.604	23607.42
517.972	24135.76
518.339	24127.4
518.706	24464.79
519.073	24498.47
519.44	24787.27
519.808	25125.12
520.175	25143.87
520.542	25512.9
520.909	25711.09
521.276	25770.52
521.643	26143.62
522.009	26269.27
522.376	26534.12
522.743	26561.91
523.11	26976.14
523.477	27281.67
523.843	27417.49
524.21	27630.14
524.577	27963.23
524.943	28157.58
525.31	28201.65
525.676	28574.97
526.043	28831.23
526.409	28959.14
526.776	29233.93
527.142	29393.25
527.508	29510.54
527.874	30008.6
528.241	29997.3
528.607	30219.9
528.973	30427.35
529.339	30468.48
529.705	30866.66
530.071	31049.93
530.437	31225.97
530.803	31413.54
531.169	31472.52
531.535	31551.16
531.901	31784.83
532.267	31928.1
532.632	32169
532.998	32198.6
533.364	32458.03
533.73	32617.57
534.095	32757.68
534.461	32766.05
534.826	32931.46
535.192	33118.8
535.557	33245.13
535.923	33268.63
536.288	33482.18
536.653	33625.91
537.019	33366.03
537.384	33606.48
537.749	33773.02
538.114	33733.03
538.479	33848.5
538.845	34039.68
539.21	33971.89
539.575	34003.75
539.94	34147.03
540.305	34384.53
540.67	34380.01
541.034	34646.45
541.399	34420.01
541.764	34670.4
542.129	34604.19
542.494	34768.93
542.858	34785.65
543.223	34634.02
543.587	35035.82
543.952	34907.01
544.316	34882.15
544.681	34950.17
545.045	35179.77
545.41	35202.14
545.774	35242.14
546.138	35225.64
546.503	35226.32
546.867	35319.65
547.231	35412.53
547.595	35585.18
547.959	35618.17
548.324	35617.95
548.688	35628.12
549.052	35730.94
549.416	35551.28
549.779	35695.91
550.143	35913.76
550.507	35957.37
550.871	35986.75
551.235	35972.74
551.599	36310.58
551.962	36315.56
552.326	36388.1
552.689	36379.74
553.053	36259.96
553.417	36559.39
553.78	36704.02
554.143	36558.26
554.507	36750.8
554.87	36830.35
555.234	37042.77
555.597	36887.07
555.96	36915.31
556.323	37035.09
556.686	37163.67
557.05	37450.44
557.413	37416.54
557.776	37331.8
558.139	37708.06
558.502	37722.98
558.865	37640.27
559.228	37846.36
559.59	37967.49
559.953	37988.73
560.316	38394.37
560.679	38207.26
561.041	38441.83
561.404	38623.52
561.767	38832.55
562.129	38671.43
562.492	38957.75
562.854	38854.25
563.217	39061.47
563.579	39149.38
563.941	39176.72
564.304	39489.03
564.666	39668.46
565.028	39628.24
565.39	39738.97
565.753	40023.71
566.115	39925.63
566.477	40103.25
566.839	40244.04
567.201	40595.44
567.563	40468.44
567.925	40849.9
568.287	40827.98
568.648	41005.15
569.01	41194.52
569.372	41317.68
569.734	41243.34
570.095	41551.8
570.457	41628.41
570.819	41768.75
571.18	41729.43
571.542	41975.29
571.903	42004.9
572.265	42279.47
572.626	42245.34
572.987	42357.21
573.349	42552
573.71	42733.69
574.071	42735.5
574.432	42970.52
574.794	43194.92
575.155	43289.61
575.516	43273.34
575.877	43341.36
576.238	43346.33
576.599	43565.08
576.96	43622.48
577.32	43852.99
577.681	43938.63
578.042	44041.45
578.403	44070.38
578.763	44088.91
579.124	44169.59
579.485	44479.86
579.845	44513.76
580.206	44465.17
580.566	44270.6
580.927	44480.31
581.287	44715.11
581.648	44715.34
582.008	44839.4
582.368	44978.15
582.728	44864.48
583.089	45066.74
583.449	44962.33
583.809	45190.58
584.169	45176.79
584.529	45076.91
584.889	45394.87
585.249	45343.79
585.609	45155.1
585.969	45453.62
586.329	45351.48
586.688	45691.13
587.048	45655.88
587.408	45652.94
587.768	45601.41
588.127	45717.12
588.487	45734.74
588.846	46102.19
589.206	45673.73
589.565	45802.54
589.925	46085.7
590.284	45935.87
590.643	46017.22
591.003	46222.41
591.362	46492.24
591.721	46397.1
592.08	46459.92
592.44	46546.25
592.799	46495.85
593.158	46478.91
593.517	46566.81
593.876	46795.96
594.235	46717.77
594.593	46775.17
594.952	46885.22
595.311	46864.66
595.67	47016.29
596.029	47150.07
596.387	47294.48
596.746	47412.44
597.104	47127.7
597.463	47293.57
597.822	47602.04
598.18	47441.37
598.538	47576.96
598.897	47827.12
599.255	47557.97
599.613	48146.66
599.972	47820.79
600.33	48097.39
600.688	48072.08
601.046	48037.96
601.404	48441.34
601.762	48304.62
602.12	48367.22
602.478	48327.67
602.836	48454.45
603.194	48307.78
603.552	48484.73
603.91	48456.48
604.268	48622.35
604.625	48697.15
604.983	48833.65
605.341	48522.92
605.698	49014.43
606.056	49184.6
606.413	49109.57
606.771	49185.5
607.128	49216.69
607.485	49167.2
607.843	49199.51
608.2	49304.59
608.557	49567.86
608.914	49426.62
609.272	49561.99
609.629	49771.47
609.986	49843.34
610.343	49688.31
610.7	50044.46
611.057	49870
611.414	49841.08
611.771	50124.46
612.127	50189.77
612.484	50165.81
612.841	50302.08
613.198	50066.83
613.554	50215.98
613.911	50504.11
614.267	50436.99
614.624	50514.05
614.98	50612.81
615.337	50783.88
615.693	50698.23
616.05	50810.99
616.406	50914.49
616.762	50894.16
617.118	50866.13
617.475	50853.48
617.831	51120.36
618.187	51091.67
618.543	51105.9
618.899	51345.44
619.255	51259.12
619.611	51254.6
619.967	51364.65
620.323	51506.57
620.678	51480.58
621.034	51429.51
621.39	51365.78
621.746	51457.98
622.101	51769.39
622.457	51534.14
622.812	51661.59
623.168	51676.06
623.523	51694.59
623.879	51833.79
624.234	51608.94
624.589	51668.37
624.945	51705.66
625.3	51747.69
625.655	51737.52
626.01	51668.6
626.365	51746.11
626.72	51717.86
627.075	51765.55
627.43	51787.92
627.785	51773.23
628.14	51682.38
628.495	51900.46
628.85	51874.02
629.205	51768.26
629.559	51871.53
629.914	51758.54
630.269	51767.35
630.623	51549.05
630.978	51521.48
631.332	51679.9
631.687	51684.42
632.041	51544.99
632.396	51572.33
632.75	51531.88
633.104	51564.2
633.459	51332.34
633.813	51427.25
634.167	51388.61
634.521	51386.8
634.875	51321.26
635.229	51313.13
635.583	51111.55
635.937	51207.59
636.291	51084.66
636.645	51184.09
636.999	50898.45
637.352	51068.39
637.706	50757.66
638.06	51067.03
638.413	50839.92
638.767	50818.68
639.121	50869.75
639.474	50656.87
639.828	50610.1
640.181	50688.74
640.534	50782.07
640.888	50584.11
641.241	50527.39
641.594	50518.12
641.947	50710.21
642.301	50406.03
642.654	50528.52
643.007	50317.22
643.36	50477.22
643.713	50368.52
644.066	50532.13
644.419	50228.41
644.771	49820.06
645.124	49543.46
645.477	49614.19
645.83	49392.95
646.182	49392.73
646.535	49296.23
646.888	49430.69
647.24	49373.07
647.593	49612.38
647.945	49404.03
648.298	49180.98
648.65	49059.63
649.002	48893.53
649.355	48832.97
649.707	48768.34
650.059	48823.7
650.411	49154.77
650.763	49485.83
651.115	49991.13
651.467	49834.97
651.819	49849.66
652.171	49822.09
652.523	49668.88
652.875	49764.24
653.227	49532.61
653.578	49837.69
653.93	49806.28
654.282	49637.69
654.633	49617.35
654.985	49615.55
655.337	49689.67
655.688	49664.58
656.039	49791.59
656.391	49396.57
656.742	49538.71
657.094	49599.5
657.445	49624.13
657.796	49625.49
658.147	49370.35
658.498	49592.04
658.849	49715.2
659.2	49627.97
659.551	49531.71
659.902	49663.68
660.253	49504.36
660.604	49621.65
660.955	49460.07
661.306	49673.4
661.656	49485.61
662.007	49572.61
662.358	49598.37
662.708	49577.35
663.059	49619.84
663.409	49484.48
663.76	49682.44
664.11	49631.82
664.461	49723.11
664.811	49737.35
665.161	49708.65
665.511	49643.34
665.862	49695.32
666.212	49689.89
666.562	49772.83
666.912	49657.8
667.262	49591.14
667.612	49610.8
667.962	49681.98
668.312	49609.9
668.662	49791.36
669.011	49821.42
669.361	49713.85
669.711	49688.54
670.06	49561.54
670.41	49512.27
670.76	49550.91
671.109	49780.74
671.459	49601.08
671.808	49533.74
672.157	49547.07
672.507	49383.69
672.856	49427.75
673.205	49449.22
673.554	49540.29
673.904	49488.54
674.253	49716.33
674.602	49459.84
674.951	49018.5
675.3	48661.45
675.649	49508.88
675.998	49307.76
676.346	49308.21
676.695	49430.24
677.044	49120.42
677.393	49129.68
677.741	49340.07
678.09	49253.3
678.438	49190.25
678.787	49218.49
679.135	49129.68
679.484	48914.77
679.832	49010.59
680.181	48899.41
680.529	49001.78
680.877	48701.67
681.225	48799.3
681.573	49031.15
681.922	48683.37
682.27	48668
682.618	48494.45
682.966	48437.5
683.314	48453.09
683.661	48550.04
684.009	48303.26
684.357	48299.2
684.705	48103.72
685.053	48191.63
685.4	47990.28
685.748	47944.86
686.095	47821.02
686.443	47604.53
686.79	47640.91
687.138	47669.38
687.485	47656.95
687.832	47469.61
688.18	47502.61
688.527	47294.7
688.874	47206.57
689.221	47016.52
689.568	46854.04
689.915	46893.81
690.262	46841.83
690.609	46708.28
690.956	46490.66
691.303	46496.31
691.65	46369.3
691.997	46231.23
692.344	45936.09
692.69	45782.2
693.037	45763.9
693.383	45626.95
693.73	45632.15
694.077	45366.17
694.423	45280.74
694.769	45241.88
695.116	45135.44
695.462	44936.57
695.808	44720.99
696.155	44826.07
696.501	44455.68
696.847	44590.14
697.193	44181.34
697.539	44378.4
697.885	43937.95
698.231	43841.69
698.577	43842.36
698.923	43621.13
699.269	43337.97
699.614	43383.17
699.96	43077.41
700.306	43101.14
700.651	43028.83
700.997	42750.87
701.342	42685.78
701.688	42618.44
702.033	42512.68
702.379	42437.43
702.724	42314.95
703.069	42298.68
703.415	41884.68
703.76	41836.77
704.105	41893.94
704.45	41648.75
704.795	41468.42
705.14	41389.1
705.485	41287.4
705.83	40916.57
706.175	41100.29
706.52	40849.45
706.865	40719.51
707.209	40482.45
707.554	40495.56
707.899	40384.83
708.243	40124.04
708.588	40197.49
708.932	39974.9
709.277	40052.63
709.621	39797.27
709.966	39614.45
710.31	39805.63
710.654	39433.67
710.998	39523.83
711.342	39471.86
711.687	39227.57
712.031	39130.17
712.375	39082.72
712.719	39012.66
713.063	38852.44
713.407	39075.03
713.75	38880.69
714.094	38896.96
714.438	38650.18
714.782	38570.64
715.125	38426.91
715.469	38696.51
715.812	38330.64
716.156	38216.98
716.499	38248.39
716.843	38261.49
717.186	37975.63
717.53	38311.44
717.873	38253.13
718.216	38093.59
718.559	37935.85
718.902	37656.99
719.246	37748.97
719.589	37700.6
719.932	37575.41
720.275	37609.99
720.617	37612.7
720.96	37431.69
721.303	37535.19
721.646	37596.43
721.989	37245.02
722.331	37457.9
722.674	37340.39
723.016	37377.22
723.359	37275.76
723.701	37303.1
724.044	37217.68
724.386	37060.62
724.729	37246.83
725.071	37225.81
725.413	37049.55
725.755	36985.14
726.097	36976.1
726.439	36781.76
726.782	36880.51
727.124	37007.06
727.465	36851.14
727.807	36783.34
728.149	36982.66
728.491	36745.6
728.833	36951.47
729.175	36699.95
729.516	36665.15
729.858	36593.74
730.199	36844.81
730.541	36743.12
730.882	36750.57
731.224	36698.37
731.565	36646.62
731.906	36569.79
732.248	36742.21
732.589	36510.13
732.93	36640.07
733.271	36655.21
733.612	36580.86
733.953	36723.68
734.294	36666.28
734.635	36774.75
734.976	36953.73
735.317	36671.48
735.658	36577.47
735.999	36577.24
736.339	36691.82
736.68	36720.52
737.021	36659.28
737.361	36605.27
737.702	37073.05
738.042	36848.88
738.383	36882.55
738.723	37077.8
739.063	36816.33
739.404	37069.66
739.744	36905.15
740.084	37047.97
740.424	37034.63
740.764	37133.61
741.104	37191.92
741.444	37121.64
741.784	36959.16
742.124	37279.82
742.464	37118.47
742.804	37212.26
743.143	37275.98
743.483	37454.28
743.823	37262.65
744.162	37445.02
744.502	37577.44
744.841	37522.3
745.181	37678.91
745.52	37675.52
745.86	37973.82
746.199	37839.13
746.538	37958.68
746.877	38289.52
747.216	38186.92
747.556	38261.27
747.895	38459.23
748.234	38355.28
748.573	38451.55
748.911	38492.22
749.25	38655.16
749.589	38580.81
749.928	38837.75
750.267	39056.5
750.605	39002.94
750.944	39172.66
751.283	39218.08
751.621	39438.86
751.96	39465.3
752.298	39507.79
752.636	39671.4
752.975	39710.04
753.313	39824.84
753.651	40128.79
753.989	40107.1
754.327	40194.78
754.666	39996.82
755.004	40280.2
755.342	40510.7
755.679	40648.1
756.017	40491.94
756.355	40782.11
756.693	40705.05
757.031	41049.22
757.368	40896.23
757.706	41098.03
758.044	41108.88
758.381	41374.63
758.719	41284.01
759.056	41431.81
759.394	41560.62
759.731	41327.18
760.068	41555.64
760.405	41708.86
760.743	41638.35
761.08	41838.35
761.417	41872.47
761.754	41887.39
762.091	41939.14
762.428	41864.11
762.765	41777.79
763.102	42050.32
763.438	41928.06
763.775	41821.4
764.112	41889.87
764.449	42067.04
764.785	41998.57
765.122	41958.35
765.458	41903.88
765.795	41940.72
766.131	42126.48
766.467	41923.09
766.804	41912.25
767.14	41820.04
767.476	41864.56
767.812	41767.39
768.148	41892.81
768.485	41846.71
768.821	41636.77
769.157	41517.45
769.492	41700.95
769.828	41651.46
770.164	41337.8
770.5	41392.26
770.836	41522.65
771.171	41364.01
771.507	41376.89
771.842	41052.61
772.178	41077.24
772.513	41114.07
772.849	40968.32
773.184	40911.82
773.519	40834.53
773.855	40641.77
774.19	40728.77
774.525	40427.76
774.86	40572.62
775.195	40407.2
775.53	40227.09
775.865	40238.62
776.2	39918.85
776.535	39697.16
776.87	39849.47
777.205	39645.64
777.539	39553.44
777.874	39613.32
778.209	39317.74
778.543	39440.67
778.878	39229.15
779.212	39135.6
779.547	38926.56
779.881	38977.63
780.215	38721.37
780.55	38732.44
780.884	38424.88
781.218	38518.44
781.552	38443.64
781.886	38197.31
782.22	38026.92
782.554	37878.45
782.888	37753.03
783.222	37556.88
783.556	37527.73
783.889	37435.98
784.223	37179.94
784.557	37218.13
784.89	37318.24
785.224	37068.98
785.557	36661.31
785.891	36850.23
786.224	36816.56
786.558	36596.9
786.891	36476.46
787.224	36219.29
787.557	36146.97
787.891	36198.05
788.224	36008.45
788.557	35966.87
788.89	35849.35
789.223	35935.91
789.556	35505.18
789.888	35443.71
790.221	35388.8
790.554	35297.96
790.887	35266.77
791.219	35078.07
791.552	34979.77
791.884	34941.36
792.217	34768.03
792.549	34647.8
792.882	34372.78
793.214	34330.98
793.546	34401.48
793.879	34227.48
794.211	33905
794.543	34134.37
794.875	33898.44
795.207	34028.84
795.539	33739.8
795.871	33821.16
796.203	33479.92
796.535	33432.02
796.867	33484.44
797.198	33127.39
797.53	33175.3
797.862	32961.07
798.193	32964.23
798.525	32873.84
798.856	32992.48
799.188	32522.89
799.519	32487.63
799.85	32452.16
800.182	32318.6
800.513	32389.56
800.844	31953.86
801.175	32227.53
801.506	32077.48
801.837	31874.77
802.168	31961.09
802.499	31849.01
802.83	31618.05
803.161	31496.93
803.491	31510.26
803.822	31670.93
804.153	31305.29
804.483	31127.67
804.814	31042.25
805.145	31046.32
805.475	31035.02
805.805	31054.45
806.136	31128.8
806.466	30979.65
806.796	30778.98
807.126	30570.62
807.457	30456.95
807.787	30567.68
808.117	30405.2
808.447	30226.68
808.777	30376.73
809.107	30142.39
809.436	30060.81
809.766	29996.63
810.096	30083.18
810.426	29981.03
810.755	29948.27
811.085	29817.42
811.414	29921.37
811.744	29618.78
812.073	29590.08
812.403	29533.59
812.732	29327.04
813.061	29598.22
813.39	29247.72
813.719	29171.79
814.049	29252.24
814.378	29250.66
814.707	29234.16
815.036	29084.56
815.365	28943.77
815.693	28785.36
816.022	28796.66
816.351	28762.31
816.68	28518.93
817.008	28751.24
817.337	28544.69
817.665	28502.43
817.994	28389.66
818.322	28492.26
818.651	28320.06
818.979	28278.48
819.307	28242.77
819.636	28303.79
819.964	28083
820.292	28268.54
820.62	28014.31
820.948	28349.66
821.276	28191.93
821.604	28049.11
821.932	28337.69
822.259	28134.3
822.587	28020.86
822.915	28131.14
823.243	28121.65
823.57	27888.21
823.898	28278.25
824.225	28108.77
824.553	28006.17
824.88	28007.98
825.207	28043.01
825.535	27885.72
825.862	28087.98
826.189	27957.58
826.516	28211.59
826.843	28139.73
827.17	28179.73
827.497	28216.56
827.824	28107.41
828.151	28214.75
828.478	28116.9
828.805	28267.63
829.131	28048.2
829.458	28144.02
829.785	27967.3
830.111	27976.11
830.438	28246.84
830.764	28188.76
831.09	28245.26
831.417	28044.14
831.743	28362.55
832.069	28088.2
832.395	28003.01
832.722	28190.57
833.048	28027.19
833.374	28164.58
833.7	27867.64
834.026	28012.05
834.351	27952.84
834.677	28057.92
835.003	27958.26
835.329	28005.72
835.654	27934.76
835.98	27809.57
836.306	28008.88
836.631	27749.23
836.956	28045.04
837.282	27846.17
837.607	27697.93
837.932	27798.04
838.258	27573.64
838.583	27574.09
838.908	27522.12
839.233	27664.48
839.558	27490.7
839.883	27363.93
840.208	27294.55
840.533	27383.81
840.858	27353.08
841.182	27264.95
841.507	27401.89
841.832	27185.63
842.156	27062.69
842.481	27151.28
842.805	27085.52
843.13	26872.41
843.454	26893.21
843.778	26873.09
844.103	26951.96
844.427	26696.6
844.751	26852.3
845.075	26646.21
845.399	26699.76
845.723	26675.36
846.047	26518.75
846.371	26429.94
846.695	26205.54
847.019	26104.98
847.343	25888.26
847.666	26008.93
847.99	25739.34
848.313	25642.39
848.637	25588.83
848.96	25702.05
849.284	25566.01
849.607	25384.32
849.931	25302.96
850.254	25062.74
850.577	24980.04
850.9	24811
851.223	24839.47
851.546	24691.68
851.869	24639.71
852.192	24711.79
852.515	24430.45
852.838	24306.83
853.161	24350.45
853.483	24143
853.806	24194.75
854.129	24002.21
854.451	23951.59
854.774	23882.21
855.096	23839.27
855.419	23724.48
855.741	23660.07
856.063	23580.98
856.385	23541.88
856.708	23432.28
857.03	23399.51
857.352	23423.69
857.674	23309.8
857.996	23150.7
858.318	23136.92
858.64	23078.16
858.961	23021.22
859.283	22856.02
859.605	22870.71
859.926	22785.97
860.248	22683.37
860.57	22613.54
860.891	22687.67
861.212	22489.03
861.534	22484.06
861.855	22448.8
862.176	22489.93
862.498	22404.96
862.819	22360.22
863.14	22309.6
863.461	22260.56
863.782	22067.12
864.103	22227.34
864.424	22123.84
864.745	22079.32
865.065	22013.56
865.386	21828.25
865.707	21926.78
866.027	21855.82
866.348	21884.75
866.668	21908.93
866.989	21760.01
867.309	21584.42
867.63	21725.88
867.95	21670.97
868.27	21571.76
868.59	21750.52
868.91	21616.28
869.23	21488.6
869.55	21421.71
869.87	21396.85
870.19	21401.37
870.51	21335.16
870.83	21385.78
871.15	21241.38
871.469	21325.67
871.789	21293.8
872.109	21192.11
872.428	21126.13
872.748	21157.54
873.067	21099.46
873.386	21171.32
873.706	21074.38
874.025	20968.84
874.344	20927.03
874.663	21037.99
874.982	20877.54
875.301	20878.45
875.62	20858.34
875.939	20712.12
876.258	20839.13
876.577	20705.57
876.896	20778.34
877.214	20662.41
877.533	20660.37
877.852	20685.68
878.17	20681.39
878.489	20621.73
878.807	20596.65
879.125	20529.98
879.444	20426.26
879.762	20392.81
880.08	20555.29
880.398	20305.36
880.716	20367.28
881.034	20237.56
881.352	20240.05
881.67	20150.11
881.988	20230.33
882.306	20083.21
882.624	20150.56
882.941	20007.96
883.259	20003.89
883.577	19883.67
883.894	19910.56
884.212	19700.17
884.529	19748.99
884.846	19734.07
885.164	19622.89
885.481	19618.59
885.798	19648.65
886.115	19485.49
886.432	19654.3
886.75	19475.1
887.067	19521.2
887.383	19455.43
887.7	19333.86
888.017	19285.72
888.334	19229.45
888.651	19109.68
888.967	19068.33
889.284	18992.4
889.6	19029.46
889.917	18945.39
890.233	19026.52
890.55	18876.92
890.866	18875.11
891.182	18709.92
891.498	18761.89
891.815	18596.25
892.131	18553.09
892.447	18492.75
892.763	18348.8
893.079	18490.26
893.395	18366.42
893.71	18305.86
894.026	18263.38
894.342	18234
894.657	18129.37
894.973	18047.79
895.289	18064.06
895.604	18027
895.92	17853.89
896.235	17894.35
896.55	17746.55
896.865	17692.09
897.181	17696.84
897.496	17642.6
897.811	17588.37
898.126	17493.45
898.441	17402.16
898.756	17360.35
899.071	17237.41
899.386	17308.15
899.7	17154.93
900.015	17014.59
900.33	16931.66
900.644	16981.6
900.959	17016.4
901.273	16926.46
901.588	16840.81
901.902	16758.78
902.216	16629.97
902.531	16680.82
902.845	16470.88
903.159	16493.7
903.473	16454.84
903.787	16357.44
904.101	16257.55
904.415	16294.61
904.729	16192.24
905.042	16137.33
905.356	16056.43
905.67	16017.79
905.984	16042.64
906.297	15910.44
906.611	15785.93
906.924	15813.72
907.237	15769.43
907.551	15673.39
907.864	15626.16
908.177	15579.83
908.491	15488.08
908.804	15340.97
909.117	15192.72
909.43	15245.15
909.743	15156.11
910.056	15154.98
910.368	15078.83
910.681	15054.42
910.994	14932.16
911.307	14886.06
911.619	14783.92
911.932	14827.99
912.244	14682.9
912.557	14709.12
912.869	14513.64
913.181	14549.12
913.494	14459.18
913.806	14414.66
914.118	14366.08
914.43	14350.26
914.742	14158.17
915.054	14117.72
915.366	14099.87
915.678	14028.91
915.99	14052.19
916.302	13869.14
916.613	13867.56
916.925	13920.67
917.236	13840.44
917.548	13708.92
917.859	13735.59
918.171	13613.78
918.482	13520.68
918.794	13433.45
919.105	13472.32
919.416	13319.55
919.727	13294.69
920.038	13331.53
920.349	13168.37
920.66	13156.62
920.971	13125.43
921.282	13054.02
921.593	13003.63
921.903	12938.54
922.214	12919.34
922.525	12807.7
922.835	12760.24
923.146	12607.25
923.456	12682.96
923.767	12593.47
924.077	12543.53
924.387	12543.3
924.697	12443.64
925.008	12487.93
925.318	12330.2
925.628	12308.5
925.938	12256.75
926.248	12118
926.558	12045.23
926.867	12020.6
927.177	11976.31
927.487	12012.47
927.796	11893.83
928.106	11926.82
928.416	11809.08
928.725	11810.44
929.034	11722.08
929.344	11697.9
929.653	11611.57
929.962	11648.18
930.271	11493.38
930.581	11453.61
930.89	11335.65
931.199	11376.78
931.508	11298.81
931.817	11362.77
932.125	11287.06
932.434	11227.18
932.743	11024.92
933.051	11086.84
933.36	11094.98
933.669	11003.23
933.977	10912.83
934.286	10839.62
934.594	10779.5
934.902	10776.79
935.21	10709.22
935.519	10686.4
935.827	10610.24
936.135	10585.84
936.443	10511.72
936.751	10421.55
937.059	10502.9
937.367	10382.68
937.674	10361.89
937.982	10369.8
938.29	10302.23
938.597	10255.45
938.905	10153.53
939.213	10121.44
939.52	10094.32
939.827	10131.61
940.135	9979.53
940.442	9948.57
940.749	9912.41
941.056	9922.35
941.363	9851.39
941.67	9856.37
941.977	9732.3
942.284	9650.27
942.591	9744.05
942.898	9559.42
943.205	9609.82
943.511	9572.76
943.818	9515.81
944.125	9391.52
944.431	9332.54
944.738	9400.11
945.044	9377.73
945.35	9264.06
945.657	9227
945.963	9205.08
946.269	9186.33
946.575	9151.98
946.881	9075.82
947.187	9063.84
947.493	9042.83
947.799	8972.55
948.105	8897.29
948.41	8875.6
948.716	8822.04
949.022	8792.89
949.327	8804.87
949.633	8695.94
949.938	8718.99
950.244	8628.83
950.549	8614.59
950.854	8587.25
951.16	8608.26
951.465	8465.67
951.77	8433.35
952.075	8482.62
952.38	8379.79
952.685	8391.09
952.99	8302.51
953.294	8233.36
953.599	8179.57
953.904	8253.24
954.209	8081.27
954.513	8159.46
954.818	8178.44
955.122	8059.8
955.426	7972.57
955.731	7935.06
956.035	7971.89
956.339	7823.42
956.643	7895.51
956.948	7838.57
957.252	7731.22
957.556	7744.56
957.86	7701.17
958.163	7707.95
958.467	7611.68
958.771	7637.67
959.075	7599.25
959.378	7552.92
959.682	7565.58
959.985	7500.72
960.289	7389.09
960.592	7380.05
960.896	7351.8
961.199	7345.47
961.502	7373.04
961.805	7305.25
962.108	7248.75
962.411	7188.64
962.714	7157.45
963.017	7132.37
963.32	7158.36
963.623	7091.69
963.926	7071.81
964.228	7040.62
964.531	6994.52
964.833	6993.84
965.136	6884.24
965.438	6885.82
965.741	6860.06
966.043	6787.97
966.345	6808.99
966.648	6730.12
966.95	6777.8
967.252	6677.01
967.554	6725.37
967.856	6643.57
968.158	6658.94
968.46	6618.94
968.761	6538.94
969.063	6524.48
969.365	6500.97
969.666	6438.83
969.968	6347.3
970.269	6350.24
970.571	6354.08
970.872	6296.46
971.174	6287.19
971.475	6253.52
971.776	6270.92
972.077	6231.83
972.378	6186.41
972.679	6161.1
972.98	6170.59
973.281	6063.24
973.582	6096.24
973.883	6082.91
974.183	6021.66
974.484	6013.75
974.785	5950.93
975.085	5979.18
975.386	5963.81
975.686	5889.69
975.986	5856.47
976.287	5867.54
976.587	5757.94
976.887	5767.66
977.187	5802.46
977.487	5772.63
977.787	5681.33
978.087	5661.9
978.387	5650.15
978.687	5621.67
978.987	5580.55
979.286	5588.45
979.586	5530.38
979.885	5530.83
980.185	5464.84
980.484	5475.01
980.784	5457.84
981.083	5381.68
981.382	5389.14
981.682	5338.97
981.981	5308.46
982.28	5329.7
982.579	5264.62
982.878	5272.53
983.177	5232.98
983.475	5269.14
983.774	5211.06
984.073	5196.37
984.372	5130.16
984.67	5123.83
984.969	5063.27
985.267	5088.58
985.566	5050.16
985.864	5055.81
986.162	5016.72
986.461	4961.58
986.759	4917.51
987.057	4901.24
987.355	4857.4
987.653	4881.13
987.951	4808.36
988.249	4808.81
988.547	4828.25
988.844	4757.52
989.142	4764.75
989.44	4739.89
989.737	4725.2
990.035	4731.53
990.332	4645.2
990.63	4649.27
990.927	4630.97
991.224	4611.31
991.521	4559.1
991.819	4535.83
992.116	4567.46
992.413	4479.56
992.71	4488.37
993.006	4479.78
993.303	4408.82
993.6	4434.36
993.897	4366.11
994.193	4419.45
994.49	4363.4
994.787	4331.76
995.083	4246.12
995.379	4268.94
995.676	4291.09
995.972	4217.42
996.268	4185.33
996.565	4212.9
996.861	4169.06
997.157	4153.46
997.453	4141.04
997.749	4083.41
998.044	4055.16
998.34	4086.35
998.636	4060.36
998.932	4017.42
999.227	4022.39
999.523	3956.86
999.818	3935.84
1000.114	3923.64
1000.409	3892.45
1000.704	3884.77
1001	3838.9
1001.295	3828.5
1001.59	3799.35
1001.885	3801.84
1002.18	3797.77
1002.475	3732.01
1002.77	3744.89
1003.065	3723.19
1003.359	3666.7
1003.654	3672.35
1003.949	3628.73
1004.243	3629.41
1004.538	3586.93
1004.832	3626.92
1005.127	3583.99
1005.421	3553.93
1005.715	3496.98
1006.009	3531.56
1006.304	3476.19
1006.598	3436.42
1006.892	3418.79
1007.186	3377.44
1007.48	3392.58
1007.773	3349.64
1008.067	3327.72
1008.361	3319.14
1008.655	3276.65
1008.948	3290.66
1009.242	3258.12
1009.535	3241.4
1009.829	3250.21
1010.122	3187.39
1010.415	3195.3
1010.708	3164.34
1011.001	3182.64
1011.295	3126.6
1011.588	3113.72
1011.881	3102.64
1012.173	3123.21
1012.466	3015.42
1012.759	3054.74
1013.052	3021.74
1013.344	3018.35
1013.637	2990.33
1013.93	2972.93
1014.222	2944
1014.514	2897.9
1014.807	2900.84
1015.099	2864.23
1015.391	2861.75
1015.683	2845.48
1015.976	2826.95
1016.268	2788.75
1016.56	2803.22
1016.851	2781.75
1017.143	2707.63
1017.435	2763.9
1017.727	2697.68
1018.018	2697.68
1018.31	2689.55
1018.602	2661.3
1018.893	2635.09
1019.185	2629.44
1019.476	2603
1019.767	2583.11
1020.058	2547.86
1020.35	2523.22
1020.641	2506.28
1020.932	2505.82
1021.223	2498.14
1021.514	2489.1
1021.804	2435.09
1022.095	2424.02
1022.386	2424.02
1022.677	2409.56
1022.967	2396
1023.258	2357.35
1023.548	2384.25
1023.839	2348.77
1024.129	2318.03
1024.419	2276.45
1024.709	2271.71
1025	2251.82
1025.29	2276.23
1025.58	2231.25
1025.87	2212.27
1026.16	2191.03
1026.449	2187.64
1026.739	2165.04
1027.029	2159.84
1027.319	2146.74
1027.608	2124.37
1027.898	2100.64
1028.187	2109.45
1028.477	2116
1028.766	2063.12
1029.055	2029
1029.344	2047.3
1029.634	2000.98
1029.923	1968.66
1030.212	1966.63
1030.501	1957.82
1030.79	1944.48
1031.078	1932.28
1031.367	1923.69
1031.656	1902
1031.945	1932.28
1032.233	1890.25
1032.522	1863.58
1032.81	1898.83
1033.099	1841.43
1033.387	1824.03
1033.675	1826.07
1033.963	1804.15
1034.251	1816.8
1034.54	1778.61
1034.828	1773.64
1035.116	1754.43
1035.403	1728.67
1035.691	1753.98
1035.979	1737.03
1036.267	1750.59
1036.554	1704.04
1036.842	1671.95
1037.129	1653.42
1037.417	1650.48
1037.704	1641.21
1037.992	1619.29
1038.279	1623.36
1038.566	1609.35
1038.853	1609.35
1039.14	1609.35
