Data from 15-1247_FLMS001491_005.txt Node
Date: Thu Apr 19 16:10:31 BST 2018
User: hsy
Spectrometer: FLMS00149
Trigger mode: 0
Integration Time (sec): 1.000000E-2
Scans to average: 10
Electric dark correction enabled: true
Nonlinearity correction enabled: false
Boxcar width: 0
XAxis mode: Wavelengths
Number of Pixels in Spectrum: 2048
>>>>>Begin Spectral Data<<<<<
341.393	-17.71
341.776	-17.71
342.16	-17.71
342.543	-42.8
342.927	-61.78
343.31	-46.19
343.693	-68.78
344.077	-71.04
344.46	-44.15
344.843	-78.5
345.226	-38.73
345.61	-37.15
345.993	-31.27
346.376	5.34
346.759	2.18
347.142	25
347.525	37.88
347.908	53.47
348.291	76.75
348.674	89.86
349.057	125.34
349.44	122.62
349.823	126.92
350.206	163.75
350.588	217.99
350.971	262.96
351.354	260.25
351.737	255.28
352.119	290.08
352.502	277.87
352.884	305.9
353.267	317.2
353.65	335.27
354.032	328.49
354.414	320.36
354.797	363.75
355.179	353.13
355.562	384.54
355.944	373.01
356.326	365.56
356.709	383.18
357.091	381.6
357.473	388.38
357.855	372.33
358.238	365.33
358.62	405.1
359.002	362.62
359.384	396.97
359.766	389.51
360.148	404.88
360.53	403.75
360.912	378.89
361.294	392.45
361.676	396.51
362.057	377.53
362.439	375.72
362.821	390.64
363.203	384.76
363.584	384.09
363.966	385.67
364.348	416.18
364.729	361.49
365.111	379.34
365.493	381.6
365.874	364.2
366.256	377.98
366.637	386.12
367.019	374.82
367.4	370.08
367.781	369.85
368.163	374.14
368.544	361.49
368.925	355.39
369.306	371.43
369.688	364.65
370.069	373.92
370.45	393.35
370.831	374.37
371.212	406.01
371.593	367.59
371.974	366.01
372.355	349.06
372.736	392.22
373.117	393.8
373.498	382.96
373.879	397.19
374.26	382.96
374.641	373.92
375.021	393.8
375.402	409.4
375.783	384.54
376.163	409.62
376.544	379.57
376.925	391.09
377.305	391.09
377.686	399.68
378.066	391.54
378.447	414.59
378.827	402.16
379.208	395.84
379.588	396.97
379.968	415.05
380.349	416.18
380.729	424.54
381.109	442.84
381.489	417.98
381.87	429.96
382.25	427.25
382.63	425.89
383.01	439.9
383.39	422.05
383.77	435.61
384.15	435.61
384.53	451.65
384.91	438.55
385.29	440.13
385.67	417.76
386.049	452.78
386.429	429.51
386.809	457.53
387.189	440.58
387.568	459.11
387.948	451.65
388.328	473.12
388.707	464.31
389.087	465.67
389.466	482.61
389.846	453.01
390.225	495.5
390.605	485.33
390.984	473.58
391.363	486.46
391.743	479
392.122	478.55
392.501	482.61
392.881	484.42
393.26	494.37
393.639	495.95
394.018	517.19
394.397	510.64
394.776	504.31
395.155	495.5
395.534	531.2
395.913	523.74
396.292	537.98
396.671	525.33
397.05	516.06
397.429	531.2
397.808	548.83
398.186	551.99
398.565	530.75
398.944	563.29
399.323	549.51
399.701	544.31
400.08	544.76
400.458	560.58
400.837	558.54
401.215	546.57
401.594	563.74
401.972	549.96
402.351	562.16
402.729	583.18
403.107	570.3
403.486	577.75
403.864	600.58
404.242	584.53
404.62	600.35
404.999	584.08
405.377	631.99
405.755	597.19
406.133	615.72
406.511	633.57
406.889	618.43
407.267	633.8
407.645	645.32
408.023	633.8
408.401	647.81
408.779	664.76
409.156	645.77
409.534	657.3
409.912	672.21
410.29	678.09
410.667	670.63
411.045	672.21
411.422	709.73
411.8	703.63
412.178	707.24
412.555	739.33
412.933	707.47
413.31	734.81
413.687	740.01
414.065	740.01
414.442	758.54
414.819	760.12
415.197	774.81
415.574	782.04
415.951	798.76
416.328	797.86
416.705	807.8
417.082	800.57
417.46	817.52
417.837	789.72
418.214	808.03
418.591	839.22
418.967	828.82
419.344	847.12
419.721	847.12
420.098	848.48
420.475	884.86
420.852	845.09
421.228	843.73
421.605	882.83
421.982	869.5
422.358	883.28
422.735	886.22
423.111	880.34
423.488	896.84
423.864	897.74
424.241	916.05
424.617	911.3
424.994	918.08
425.37	937.52
425.746	960.79
426.123	948.36
426.499	958.53
426.875	947.01
427.251	972.09
427.627	990.17
428.003	992.43
428.379	999.21
428.756	1006.44
429.132	1022.26
429.507	1041.24
429.883	1056.16
430.259	1083.5
430.635	1076.05
431.011	1062.94
431.387	1097.51
431.763	1092.09
432.138	1117.63
432.514	1111.07
432.89	1140
433.265	1166.66
433.641	1167.79
434.016	1137.06
434.392	1177.06
434.767	1186.78
435.143	1198.98
435.518	1229.26
435.894	1203.73
436.269	1229.26
436.644	1239.43
437.02	1255.7
437.395	1303.16
437.77	1273.78
438.145	1291.86
438.52	1296.6
438.895	1314
439.271	1302.71
439.646	1330.73
440.021	1371.63
440.395	1318.98
440.77	1354.23
441.145	1360.11
441.52	1405.98
441.895	1401.46
442.27	1411.86
442.645	1398.52
443.019	1428.35
443.394	1401.69
443.769	1415.47
444.143	1401.01
444.518	1444.62
444.892	1431.74
445.267	1427
445.641	1440.78
446.016	1457.28
446.39	1483.49
446.764	1486.43
447.139	1487.56
447.513	1511.97
447.887	1495.92
448.262	1509.93
448.636	1535.47
449.01	1516.49
449.384	1540.67
449.758	1543.38
450.132	1554.68
450.506	1589.93
450.88	1606.2
451.254	1550.16
451.628	1618.86
452.002	1606.65
452.376	1668.12
452.75	1666.09
453.123	1675.58
453.497	1696.14
453.871	1697.05
454.244	1721.45
454.618	1734.33
454.992	1758.74
455.365	1762.35
455.739	1780.43
456.112	1816.14
456.486	1831.73
456.859	1839.19
457.232	1894.1
457.606	1897.49
457.979	1933.88
458.352	1946.53
458.725	2000.54
459.099	2015.91
459.472	2035.79
459.845	2031.73
460.218	2050.26
460.591	2047.09
460.964	2071.27
461.337	2137.26
461.71	2135.68
462.083	2217.71
462.456	2172.06
462.829	2212.74
463.201	2248.9
463.574	2256.13
463.947	2274.43
464.32	2298.39
464.692	2339.29
465.065	2326.86
465.438	2371.83
465.81	2396.69
466.183	2424.26
466.555	2488.66
466.928	2490.47
467.3	2471.71
467.672	2520.53
468.045	2537.02
468.417	2573.63
468.789	2596.68
469.161	2635.33
469.534	2639.39
469.906	2709.67
470.278	2707.87
470.65	2724.14
471.022	2756.45
471.394	2817.69
471.766	2801.42
472.138	2861.76
472.51	2927.75
472.882	2969.1
473.253	3023.34
473.625	3012.72
473.997	3085.71
474.369	3110.79
474.74	3161.87
475.112	3182.2
475.484	3241.64
475.855	3324.12
476.227	3279.6
476.598	3395.53
476.97	3464.23
477.341	3525.7
477.713	3563.21
478.084	3619.93
478.455	3644.57
478.827	3688.41
479.198	3825.35
479.569	3883.43
479.94	3919.59
480.311	3977.44
480.682	4066.25
481.053	4195.74
481.424	4172.01
481.795	4254.49
482.166	4338.56
482.537	4422.85
482.908	4551.43
483.279	4614.48
483.65	4613.13
484.021	4735.38
484.391	4797.53
484.762	4816.06
485.133	4924.31
485.503	4971.08
485.874	5115.49
486.244	5192.55
486.615	5256.95
486.985	5363.62
487.356	5501.69
487.726	5581.69
488.097	5702.82
488.467	5722.7
488.837	5869.14
489.207	5912.3
489.578	6062.58
489.948	6178.74
490.318	6204.72
490.688	6341.22
491.058	6423.02
491.428	6590.02
491.798	6598.39
492.168	6772.84
492.538	6854.2
492.908	6999.73
493.278	7147.52
493.648	7186.39
494.017	7291.02
494.387	7424.8
494.757	7517.01
495.126	7644.23
495.496	7785.7
495.866	7823.44
496.235	7941.85
496.605	8072.25
496.974	8129.64
497.344	8273.6
497.713	8400.82
498.082	8502.06
498.452	8606.47
498.821	8661.38
499.19	8795.62
499.559	8966.91
499.928	9090.07
500.298	9175.95
500.667	9235.38
501.036	9316.05
501.405	9442.15
501.774	9563.28
502.143	9698.19
502.512	9815.7
502.88	9910.16
503.249	10010.05
503.618	10128.91
503.987	10223.15
504.356	10330.94
504.724	10434.67
505.093	10516.7
505.462	10591.05
505.83	10711.72
506.199	10850.93
506.567	10987.2
506.936	11144.93
507.304	11278.71
507.672	11321.65
508.041	11442.33
508.409	11558.48
508.777	11617.01
509.145	11794.18
509.514	11857.91
509.882	11881.18
510.25	12048.86
510.618	12132.93
510.986	12191.69
511.354	12346.48
511.722	12529.98
512.09	12651.79
512.458	12725.68
512.826	12866.02
513.193	12883.64
513.561	13054.94
513.929	13037.99
514.297	13242.5
514.664	13422.39
515.032	13431.43
515.4	13531.76
515.767	13633.23
516.135	13741.25
516.502	13656.28
516.869	13942.6
517.237	14051.07
517.604	14052.88
517.972	14296.94
518.339	14323.15
518.706	14430.72
519.073	14542.13
519.44	14563.15
519.808	14788.68
520.175	14885.17
520.542	15081.78
520.909	15106.41
521.276	15166.3
521.643	15396.12
522.009	15458.49
522.376	15649.9
522.743	15673.85
523.11	15833.62
523.477	16036.78
523.843	16121.07
524.21	16326.72
524.577	16432.93
524.943	16601.06
525.31	16698.23
525.676	16935.97
526.043	17038.79
526.409	17077.66
526.776	17310.42
527.142	17460.7
527.508	17474.94
527.874	17657.98
528.241	17782.72
528.607	17862.04
528.973	18200.79
529.339	18092.77
529.705	18346.1
530.071	18476.94
530.437	18485.98
530.803	18746.09
531.169	18799.19
531.535	18954.22
531.901	18911.06
532.267	19141.33
532.632	19214.33
532.998	19326.19
533.364	19437.37
533.73	19499.29
534.095	19781.09
534.461	19701.09
534.826	19898.15
535.192	19898.6
535.557	20163.23
535.923	20139.72
536.288	20291.81
536.653	20318.93
537.019	20362.09
537.384	20531.58
537.749	20596.66
538.114	20706.49
538.479	20706.04
538.845	20724.57
539.21	20797.79
539.575	20807.73
539.94	20990.78
540.305	21152.13
540.67	21111.22
541.034	21193.48
541.399	21324.78
541.764	21383.76
542.129	21344.89
542.494	21565
542.858	21670.31
543.223	21648.84
543.587	21777.42
543.952	21816.74
544.316	21772.22
544.681	21894.48
545.045	22071.88
545.41	22098.32
545.774	22043.18
546.138	22064.65
546.503	22326.33
546.867	22202.95
547.231	22336.73
547.595	22514.35
547.959	22567.23
548.324	22665.76
548.688	22632.54
549.052	22830.5
549.416	22721.8
549.779	22795.93
550.143	22837.05
550.507	22975.58
550.871	22999.76
551.235	23048.35
551.599	23286.76
551.962	23255.57
552.326	23323.82
552.689	23482.01
553.053	23356.14
553.417	23477.72
553.78	23705.28
554.143	23669.12
554.507	23906.18
554.87	23860.53
555.234	24015.33
555.597	23937.14
555.96	24080.41
556.323	24174.42
556.686	24271.37
557.05	24383.45
557.413	24528.76
557.776	24497.8
558.139	24753.61
558.502	24741.86
558.865	24795.42
559.228	25046.49
559.59	25015.3
559.953	25043.55
560.316	25459.58
560.679	25270.89
561.041	25526.93
561.404	25600.15
561.767	25801.04
562.129	25723.08
562.492	25937.54
562.854	25987.48
563.217	26124.65
563.579	26232.9
563.941	26351.31
564.304	26505.66
564.666	26677.63
565.028	26732.32
565.39	26774.58
565.753	26824.29
566.115	26877.63
566.477	27242.14
566.839	27220.89
567.201	27421.79
567.563	27508.12
567.925	27633.31
568.287	27686.64
568.648	27784.95
569.01	28110.36
569.372	28311.71
569.734	28288.21
570.095	28447.3
570.457	28656.79
570.819	28731.82
571.18	28764.36
571.542	29080.73
571.903	29141.97
572.265	29386.49
572.626	29474.62
572.987	29527.95
573.349	29866.47
573.71	30009.07
574.071	30234.15
574.432	30296.07
574.794	30555.04
575.155	30633.46
575.516	30579
575.877	30913.9
576.238	30920.01
576.599	31147.57
576.96	31214.91
577.32	31513.89
577.681	31551.63
578.042	31867.55
578.403	31844.05
578.763	32140.99
579.124	32186.19
579.485	32520.87
579.845	32654.88
580.206	32892.61
580.566	33082.89
580.927	33118.37
581.287	33554.97
581.648	33410.11
582.008	33858.01
582.368	33944.33
582.728	34119.02
583.089	34485.79
583.449	34513.13
583.809	34779.79
584.169	35253.45
584.529	35353.79
584.889	35778.64
585.249	35839.2
585.609	35918.29
585.969	36544.72
586.329	36499.29
586.688	36947.42
587.048	37229.44
587.408	37477.8
587.768	37770
588.127	38046.15
588.487	38386.25
588.846	38897.42
589.206	38807.48
589.565	39349.16
589.925	39823.95
590.284	40096.04
590.643	40501.9
591.003	40935.56
591.362	41438.83
591.721	41576.9
592.08	41834.75
592.44	42490.78
592.799	42736.19
593.158	42931.44
593.517	43310.64
593.876	43709.27
594.235	44003.28
594.593	44449.14
594.952	44893.42
595.311	45103.59
595.67	45543.35
596.029	46163.45
596.387	46422.42
596.746	46924.33
597.104	46991.67
597.463	47303.98
597.822	47788.26
598.18	47964.08
598.538	48359.32
598.897	48747.11
599.255	48855.35
599.613	49576.46
599.972	49475.68
600.33	49949.34
600.688	50067.07
601.046	50399.04
601.404	50859.37
601.762	51052.36
602.12	51443.53
602.478	51759.23
602.836	51864.09
603.194	51886.91
603.552	52234.7
603.91	52449.38
604.268	52758.98
604.625	52874.01
604.983	53214.79
605.341	53280.77
605.698	53603.93
606.056	53961.89
606.413	53987.87
606.771	54219.51
607.128	54486.39
607.485	54500.4
607.843	54637.8
608.2	54991.46
608.557	55171.35
608.914	55165.24
609.272	55400.94
609.629	55626.25
609.986	55829.18
610.343	55973.81
610.7	56236.85
611.057	56293.35
611.414	56324.99
611.771	56665.32
612.127	56705.77
612.484	56913.67
612.841	57010.85
613.198	56993.22
613.554	57098.3
613.911	57410.16
614.267	57520.21
614.624	57533.54
614.98	57787.77
615.337	57895.57
615.693	57936.92
616.05	58060.76
616.406	58257.37
616.762	58229.57
617.118	58333.97
617.475	58330.13
617.831	58557.7
618.187	58592.27
618.543	58760.18
618.899	58943.22
619.255	58960.4
619.611	58960.4
619.967	59140.06
620.323	59250.33
620.678	59206.95
621.034	59239.26
621.39	59328.98
621.746	59342.08
622.101	59666.37
622.457	59462.53
622.812	59707.27
623.168	59723.09
623.523	59757.44
623.879	59784.33
624.234	59709.08
624.589	59904.78
624.945	59932.35
625.3	60039.69
625.655	60049.18
626.01	60020.03
626.365	60033.14
626.72	60048.73
627.075	60040.37
627.43	60120.14
627.785	60112.68
628.14	60137.54
628.495	60159.24
628.85	60182.74
629.205	60187.49
629.559	60300.02
629.914	60206.92
630.269	60226.13
630.623	60097.09
630.978	60095.51
631.332	60307.48
631.687	60260.93
632.041	60225
632.396	60284.66
632.75	60174.6
633.104	60272.23
633.459	60122.18
633.813	60196.98
634.167	60209.86
634.521	60220.03
634.875	60182.97
635.229	60189.07
635.583	60001.95
635.937	60102.97
636.291	60127.15
636.645	60062.74
636.999	59984.33
637.352	60114.04
637.706	60009.18
638.06	60042.18
638.413	59971.45
638.767	59923.31
639.121	60006.25
639.474	59900.26
639.828	59880.37
640.181	59880.37
640.534	59983.2
640.888	59788.17
641.241	59777.78
641.594	59806.7
641.947	59884.67
642.301	59750.66
642.654	59726.48
643.007	59758.12
643.36	59773.26
643.713	59717.44
644.066	59794.28
644.419	59658.46
644.771	59455.08
645.124	59174.18
645.477	59219.6
645.83	59053.5
646.182	59008.08
646.535	58961.3
646.888	58991.36
647.24	58946.16
647.593	59089.66
647.945	58961.53
648.298	58949.78
648.65	58816.22
649.002	58699.61
649.355	58681.76
649.707	58580.97
650.059	58644.47
650.411	59033.84
650.763	59074.29
651.115	59433.61
651.467	59294.4
651.819	59232.93
652.171	59194.97
652.523	59155.87
652.875	59207.17
653.227	59097.8
653.578	59274.29
653.93	59188.42
654.282	59024.8
654.633	59024.8
654.985	59059.38
655.337	59116.33
655.688	59037.68
656.039	59154.29
656.391	58905.71
656.742	58959.27
657.094	58960.85
657.445	58954.75
657.796	59036.33
658.147	58826.17
658.498	58917.24
658.849	58956.78
659.2	58830.01
659.551	58774.64
659.902	58903.45
660.253	58740.97
660.604	58845.6
660.955	58719.5
661.306	58876.79
661.656	58750.01
662.007	58758.6
662.358	58784.13
662.708	58804.7
663.059	58722.89
663.409	58579.62
663.76	58664.81
664.11	58718.6
664.461	58743.68
664.811	58728.54
665.161	58674.53
665.511	58598.15
665.862	58617.36
666.212	58673.4
666.562	58694.19
666.912	58601.31
667.262	58561.54
667.612	58572.16
667.962	58598.37
668.312	58458.27
668.662	58677.92
669.011	58573.74
669.361	58577.36
669.711	58600.41
670.06	58483.58
670.41	58540.97
670.76	58449.23
671.109	58530.81
671.459	58552.05
671.808	58454.88
672.157	58544.59
672.507	58406.29
672.856	58378.04
673.205	58402.67
673.554	58510.24
673.904	58375.33
674.253	58523.57
674.602	58373.52
674.951	58053.08
675.3	57996.81
675.649	58392.96
675.998	58359.96
676.346	58386.4
676.695	58393.86
677.044	58223.02
677.393	58316.12
677.741	58362.22
678.09	58260.08
678.438	58228.89
678.787	58315.67
679.135	58287.2
679.484	58125.39
679.832	58190.48
680.181	58112.29
680.529	58060.54
680.877	58069.57
681.225	58087.2
681.573	58241.77
681.922	58108.22
682.27	58026.86
682.618	58041.1
682.966	57958.17
683.314	57988.22
683.661	57945.74
684.009	57867.09
684.357	57808.34
684.705	57780.77
685.053	57748.91
685.4	57695.35
685.748	57692.18
686.095	57675.91
686.443	57518.18
686.79	57566.09
687.138	57594.56
687.485	57576.48
687.832	57487.9
688.18	57493.09
688.527	57368.8
688.874	57397.28
689.221	57402.02
689.568	57302.36
689.915	57199.32
690.262	57235.25
690.609	57169.26
690.956	57122.03
691.303	57147.57
691.65	57049.71
691.997	57037.74
692.344	56902.15
692.69	56799.33
693.037	56940.11
693.383	56667.13
693.73	56748.71
694.077	56675.71
694.423	56672.55
694.769	56579.44
695.116	56518.88
695.462	56465.55
695.808	56384.42
696.155	56419.22
696.501	56235.72
696.847	56348.72
697.193	56096.29
697.539	56145.56
697.885	56017.65
698.231	56017.88
698.577	56006.8
698.923	55876.19
699.269	55657.66
699.614	55622.86
699.96	55571.11
700.306	55577.89
700.651	55568.85
700.997	55400.72
701.342	55347.84
701.688	55364.11
702.033	55199.59
702.379	55218.8
702.724	55035.53
703.069	55101.52
703.415	54882.09
703.76	54803.9
704.105	54948.53
704.45	54791.47
704.795	54755.09
705.14	54562.1
705.485	54726.61
705.83	54510.57
706.175	54603.45
706.52	54390.12
706.865	54198.49
707.209	54191.94
707.554	54143.35
707.899	54147.64
708.243	53992.62
708.588	54028.1
708.932	53851.38
709.277	53946.75
709.621	53745.62
709.966	53528.45
710.31	53669.69
710.654	53440.09
710.998	53542.24
711.342	53562.35
711.687	53404.61
712.031	53337.72
712.375	53261.11
712.719	53258.4
713.063	53189.93
713.407	53300.89
713.75	53074.68
714.094	52976.6
714.438	52903.83
714.782	52830.16
715.125	52686.67
715.469	52928.69
715.812	52635.14
716.156	52549.27
716.499	52623.62
716.843	52629.94
717.186	52301.14
717.53	52596.05
717.873	52507.24
718.216	52387.01
718.559	52292.33
718.902	52071.77
719.246	52030.19
719.589	52011.2
719.932	51904.09
720.275	52036.06
720.617	51953.58
720.96	51861.38
721.303	51828.61
721.646	51872.22
721.989	51611.21
722.331	51795.84
722.674	51578.67
723.016	51681.04
723.359	51392.91
723.701	51441.5
724.044	51432.01
724.386	51275.86
724.729	51285.57
725.071	51264.33
725.413	51203.09
725.755	51065.92
726.097	51034.28
726.439	50999.7
726.782	50903.89
727.124	51133.26
727.465	50969.65
727.807	50797
728.149	50763.33
728.491	50704.57
728.833	50748.64
729.175	50691.24
729.516	50555.42
729.858	50510.68
730.199	50573.95
730.541	50415.31
730.882	50346.16
731.224	50357.91
731.565	50155.21
731.906	50272.72
732.248	50235.66
732.589	50032.72
732.93	50034.53
733.271	50085.15
733.612	50012.84
733.953	50124.92
734.294	50000.86
734.635	49870.92
734.976	50021.65
735.317	49881.09
735.658	49832.73
735.999	49698.04
736.339	49619.18
736.68	49670.02
737.021	49686.07
737.361	49537.14
737.702	49623.92
738.042	49569.91
738.383	49549.57
738.723	49555.45
739.063	49210.82
739.404	49458.5
739.744	49214.89
740.084	49281.11
740.424	49249.47
740.764	49205.18
741.104	49361.56
741.444	49017.61
741.784	49002.47
742.124	49117.04
742.464	49015.58
742.804	48916.82
743.143	48898.97
743.483	48903.71
743.823	48862.36
744.162	48695.36
744.502	48778.29
744.841	48575.81
745.181	48764.96
745.52	48489.26
745.86	48602.93
746.199	48391.41
746.538	48446.1
746.877	48456.49
747.216	48387.34
747.556	48283.39
747.895	48257.63
748.234	48221.92
748.573	48122.27
748.911	48007.47
749.25	48025.32
749.589	47875.04
749.928	47962.5
750.267	48004.08
750.605	47784.42
750.944	47680.02
751.283	47581.04
751.621	47619
751.96	47429.18
752.298	47321.83
752.636	47502.62
752.975	47258.79
753.313	47202.97
753.651	47353.25
753.989	47158.9
754.327	47137.43
754.666	46789.87
755.004	46954.84
755.342	46995.52
755.679	46811.57
756.017	46422.2
756.355	46676.2
756.693	46511.91
757.031	46559.82
757.368	46346.27
757.706	46465.36
758.044	46092.26
758.381	46152.6
758.719	45984.47
759.056	45962.32
759.394	45862.89
759.731	45415.67
760.068	45592.39
760.405	45462
760.743	45327.31
761.08	45274.66
761.417	45127.99
761.754	44999.64
762.091	45045.96
762.428	44832.63
762.765	44532.76
763.102	44643.49
763.438	44462.47
763.775	44309.71
764.112	44334.34
764.449	44137.51
764.785	44041.02
765.122	43830.4
765.458	43666.11
765.795	43677.41
766.131	43590.41
766.467	43531.43
766.804	43206.24
767.14	43080.82
767.476	42880.14
767.812	42776.42
768.148	42960.59
768.485	42768.28
768.821	42542.75
769.157	42271.12
769.492	42380.95
769.828	42156.55
770.164	41773.51
770.5	41735.77
770.836	41793.84
771.171	41667.52
771.507	41486.06
771.842	41177.36
772.178	41118.83
772.513	40897.14
772.849	40686.08
773.184	40854.89
773.519	40664.83
773.855	40395.92
774.19	40301.68
774.525	40103.72
774.86	39988.69
775.195	39940.79
775.53	39827.34
775.865	39613.34
776.2	39459.89
776.535	39047.02
776.87	39246.11
777.205	38950.3
777.539	38710.54
777.874	38768.61
778.209	38501.5
778.543	38413.82
778.878	38242.98
779.212	38253.15
779.547	37884.79
779.881	37799.83
780.215	37559.83
780.55	37756.89
780.884	37290.91
781.218	37414.3
781.552	37371.36
781.886	37108.09
782.22	36891.83
782.554	36740.19
782.888	36395.34
783.222	36441.44
783.556	36226.99
783.889	36183.82
784.223	35905.86
784.557	36028.8
784.89	35975.01
785.224	35609.83
785.557	35495.25
785.891	35580.45
786.224	35341.13
786.558	35325.54
786.891	35063.4
787.224	34881.26
787.557	34789.73
787.891	34705.22
788.224	34477.88
788.557	34391.1
788.89	34460.7
789.223	34326.24
789.556	34181.39
789.888	34084.89
790.221	33856.88
790.554	33632.48
790.887	33592.7
791.219	33542.31
791.552	33416.66
791.884	33202.66
792.217	33265.71
792.549	33086.73
792.882	32964.47
793.214	32738.26
793.546	32820.75
793.879	32601.09
794.211	32311.61
794.543	32486.74
794.875	32498.95
795.207	32257.6
795.539	32246.3
795.871	32213.53
796.203	32116.81
796.535	31749.59
796.867	31761.11
797.198	31607.67
797.53	31624.85
797.862	31378.07
798.193	31242.26
798.525	31174.91
798.856	31260.56
799.188	30870.29
799.519	30722.95
799.85	30689.5
800.182	30687.24
800.513	30677.3
800.844	30341.72
801.175	30457.19
801.506	30480.24
801.837	30351.89
802.168	30280.02
802.499	30118.45
802.83	29879.13
803.161	29788.96
803.491	29851.79
803.822	29809.07
804.153	29606.14
804.483	29384.45
804.814	29353.49
805.145	29380.39
805.475	29316.21
805.805	29207.28
806.136	29235.08
806.466	29060.62
806.796	29001.41
807.126	28710.57
807.457	28745.6
807.787	28825.6
808.117	28766.16
808.447	28633.06
808.777	28681.42
809.107	28476.91
809.436	28320.3
809.766	28185.84
810.096	28366.85
810.426	28123.02
810.755	28110.59
811.085	27990.82
811.414	28036.24
811.744	27935.68
812.073	27778.39
812.403	27687.77
812.732	27507.67
813.061	27714.44
813.39	27468.12
813.719	27402.13
814.049	27476.71
814.378	27477.61
814.707	27137.96
815.036	27272.19
815.365	27111.29
815.693	26982.03
816.022	26896.16
816.351	26880.79
816.68	26656.62
817.008	26868.81
817.337	26570.52
817.665	26539.78
817.994	26577.75
818.322	26607.35
818.651	26483.51
818.979	26264.76
819.307	26464.08
819.636	26330.3
819.964	26250.75
820.292	26250.52
820.62	26156.29
820.948	26218.89
821.276	26332.1
821.604	26140.92
821.932	26345.89
822.259	26205.33
822.587	26226.12
822.915	26202.84
823.243	26230.86
823.57	26089.85
823.898	26228.15
824.225	26025.45
824.553	26069.74
824.88	26162.39
825.207	26226.8
825.535	26057.99
825.862	26189.06
826.189	26073.35
826.516	26176.18
826.843	26189.28
827.17	26267.02
827.497	26130.3
827.824	26107.93
828.151	26225.21
828.478	26110.87
828.805	26141.83
829.131	26084.43
829.458	26073.35
829.785	25958.1
830.111	26111.32
830.438	26265.89
830.764	26114.03
831.09	26194.71
831.417	25988.84
831.743	26134.82
832.069	26103.64
832.395	25982.51
832.722	26135.5
833.048	26087.59
833.374	26024.99
833.7	25912.91
834.026	26024.54
834.351	25902.96
834.677	26008.72
835.003	25812.8
835.329	25903.41
835.654	25994.94
835.98	25741.84
836.306	25840.59
836.631	25637.43
836.956	25885.79
837.282	25768.73
837.607	25651.9
837.932	25660.03
838.258	25654.38
838.583	25650.54
838.908	25462.97
839.233	25543.65
839.558	25409.64
839.883	25466.82
840.208	25286.48
840.533	25434.95
840.858	25253.04
841.182	25264.79
841.507	25293.94
841.832	25158.8
842.156	25107.05
842.481	25133.04
842.805	25085.81
843.13	24992.48
843.454	24955.87
843.778	24849.21
844.103	24757.68
844.427	24690.11
844.751	24824.35
845.075	24674.52
845.399	24607.86
845.723	24498.93
846.047	24548.2
846.371	24347.07
846.695	24178.49
847.019	24159.28
847.343	24020.3
847.666	23920.87
847.99	23751.38
848.313	23765.84
848.637	23675.45
848.96	23640.88
849.284	23487.89
849.607	23392.97
849.931	23300.09
850.254	23252.19
850.577	23044.51
850.9	22939.88
851.223	22953.44
851.546	22847.45
851.869	22620.11
852.192	22911.63
852.515	22507.12
852.838	22378.31
853.161	22376.73
853.483	22441.59
853.806	22314.13
854.129	22233.91
854.451	22290.63
854.774	22014.48
855.096	22028.71
855.419	21816.97
855.741	21906.01
856.063	21677.09
856.385	21631.21
856.708	21583.3
857.03	21662.85
857.352	21574.49
857.674	21500.14
857.996	21361.84
858.318	21168.85
858.64	21365.91
858.961	21184.44
859.283	21187.15
859.605	20979.02
859.926	21102.41
860.248	20952.58
860.57	20936.09
860.891	20941.51
861.212	20788.3
861.534	20805.02
861.855	20680.28
862.176	20689.77
862.498	20697.9
862.819	20654.97
863.14	20489.55
863.461	20565.02
863.782	20451.58
864.103	20409.32
864.424	20376.33
864.745	20376.55
865.065	20181.76
865.386	20176.56
865.707	20230.12
866.027	20209.55
866.348	20132.27
866.668	20061.53
866.989	20036.45
867.309	19972.5
867.63	19972.95
867.95	20015.89
868.27	19869.22
868.59	19933.63
868.91	19859.96
869.23	19927.75
869.55	19657.03
869.87	19886.62
870.19	19728.44
870.51	19691.83
870.83	19762.33
871.15	19550.59
871.469	19541.1
871.789	19668.78
872.109	19588.1
872.428	19516.92
872.748	19579.74
873.067	19613.41
873.386	19469.91
873.706	19426.52
874.025	19427.88
874.344	19302.91
874.663	19235.34
874.982	19334.55
875.301	19229.24
875.62	19126.87
875.939	19039.64
876.258	19101.79
876.577	19004.39
876.896	19011.17
877.214	18961
877.533	19018.85
877.852	18942.47
878.17	18920.55
878.489	18971.62
878.807	18891.4
879.125	18862.02
879.444	18765.98
879.762	18688.46
880.08	18829.48
880.398	18650.95
880.716	18665.87
881.034	18570.27
881.352	18638.07
881.67	18445.76
881.988	18561.24
882.306	18491.86
882.624	18395.14
882.941	18360.56
883.259	18248.25
883.577	18297.51
883.894	18289.38
884.212	18220
884.529	18128.93
884.846	18143.84
885.164	18152.21
885.481	18010.29
885.798	18048.93
886.115	17926.68
886.432	18012.32
886.75	17964.87
887.067	17931.87
887.383	17831.31
887.7	17813.01
888.017	17638.32
888.334	17622.5
888.651	17655.72
888.967	17597.87
889.284	17604.42
889.6	17452.34
889.917	17370.98
890.233	17374.6
890.55	17315.84
890.866	17365.79
891.182	17256.41
891.498	17227.71
891.815	17087.6
892.131	17080.82
892.447	17056.19
892.763	17018
893.079	16921.28
893.395	16893.03
893.71	16826.82
894.026	16818.91
894.342	16810.77
894.657	16682.64
894.973	16595.19
895.289	16608.97
895.604	16578.69
895.92	16439.26
896.235	16394.74
896.55	16341.86
896.865	16318.36
897.181	16295.53
897.496	16263.22
897.811	16237.23
898.126	16070.45
898.441	16076.1
898.756	16097.57
899.071	15940.74
899.386	16031.58
899.7	15891.7
900.015	15737.13
900.33	15632.72
900.644	15652.61
900.959	15589.11
901.273	15501.65
901.588	15519.28
901.902	15390.02
902.216	15416.91
902.531	15407.19
902.845	15213.3
903.159	15192.96
903.473	15084.49
903.787	15052.63
904.101	15016.92
904.415	14965.17
904.729	14925.17
905.042	14814.67
905.356	14894.66
905.67	14737.38
905.984	14696.25
906.297	14641.34
906.611	14480.89
906.924	14514.34
907.237	14517.95
907.551	14441.8
907.864	14362.02
908.177	14370.38
908.491	14196.83
908.804	14199.77
909.117	14045.2
909.43	13951.86
909.743	13962.71
910.056	13953.45
910.368	13875.93
910.681	13849.95
910.994	13777.18
911.307	13728.59
911.619	13541.03
911.932	13607.24
912.244	13583.96
912.557	13511.88
912.869	13391.88
913.181	13388.49
913.494	13406.12
913.806	13362.73
914.118	13221.04
914.43	13195.05
914.742	13117.08
915.054	13075.28
915.366	12997.31
915.678	13025.79
915.99	12965.45
916.302	12833.7
916.613	12803.65
916.925	12791.67
917.236	12776.3
917.548	12639.13
917.859	12602.3
918.171	12547.61
918.482	12449.31
918.794	12384.45
919.105	12411.11
919.416	12336.31
919.727	12374.28
920.038	12257.67
920.349	12144.45
920.66	12053.38
920.971	12061.07
921.282	11996.21
921.593	11912.82
921.903	11829.21
922.214	11883.44
922.525	11797.8
922.835	11763
923.146	11663.56
923.456	11661.08
923.767	11554.87
924.077	11518.48
924.387	11565.49
924.697	11440.74
925.008	11436.68
925.318	11381.54
925.628	11330.92
925.938	11286.17
926.248	11187.64
926.558	11090.25
926.867	11165.72
927.177	11038.27
927.487	10910.14
927.796	10868.56
928.106	10969.34
928.416	10863.13
928.725	10801.67
929.034	10756.24
929.344	10788.78
929.653	10745.4
929.962	10625.62
930.271	10611.16
930.581	10593.08
930.89	10489.81
931.199	10465.18
931.508	10364.39
931.817	10387.21
932.125	10324.39
932.434	10293.66
932.743	10196.03
933.051	10191.06
933.36	10104.96
933.669	10072.87
933.977	10073.77
934.286	10026.32
934.594	9971.63
934.902	9937.73
935.21	9882.37
935.519	9780.22
935.827	9866.32
936.135	9727.12
936.443	9643.96
936.751	9649.15
937.059	9645.99
937.367	9565.99
937.674	9587.46
937.982	9558.31
938.29	9472.89
938.597	9397.41
938.905	9378.2
939.213	9318.99
939.52	9312.44
939.827	9278.99
940.135	9232.67
940.442	9191.99
940.749	9200.58
941.056	9155.61
941.363	9020.92
941.67	8948.15
941.977	9025.21
942.284	8891.43
942.591	8901.15
942.898	8845.33
943.205	8899.57
943.511	8819.12
943.818	8796.52
944.125	8659.57
944.431	8700.7
944.738	8661.61
945.044	8578.45
945.35	8491.44
945.657	8532.12
945.963	8445.34
946.269	8397.21
946.575	8432.69
946.881	8347.04
947.187	8339.58
947.493	8291.67
947.799	8241.96
948.105	8188.63
948.41	8114.96
948.716	8107.72
949.022	8077.44
949.327	8136.42
949.633	7985.92
949.938	7973.26
950.244	7965.81
950.549	7861.18
950.854	7908.18
951.16	7820.05
951.465	7786.83
951.77	7799.94
952.075	7809.2
952.38	7672.03
952.685	7689.2
952.99	7553.61
953.294	7591.81
953.599	7558.59
953.904	7554.07
954.209	7506.84
954.513	7492.15
954.818	7452.15
955.122	7377.12
955.426	7368.08
955.731	7289.44
956.035	7292.38
956.339	7277.01
956.643	7216.45
956.948	7183.46
957.252	7152.95
957.556	7167.86
957.86	7127.41
958.163	7091.71
958.467	7032.95
958.771	6983.46
959.075	7066.17
959.378	6950.92
959.682	6961.99
959.985	6841.32
960.289	6827.53
960.592	6781.88
960.896	6812.62
961.199	6765.16
961.502	6702.56
961.805	6718.61
962.108	6660.53
962.411	6637.71
962.714	6596.35
963.017	6621.21
963.32	6529.01
963.623	6546.86
963.926	6491.04
964.228	6464.83
964.531	6460.08
964.833	6460.76
965.136	6371.27
965.438	6311.16
965.741	6284.95
966.043	6279.98
966.345	6224.38
966.648	6269.13
966.95	6172.18
967.252	6171.05
967.554	6162.47
967.856	6107.1
968.158	6105.97
968.46	6082.24
968.761	6006.54
969.063	6017.38
969.365	5989.36
969.666	5944.84
969.968	5907.56
970.269	5920.21
970.571	5886.09
970.872	5890.16
971.174	5803.83
971.475	5825.52
971.776	5747.33
972.077	5734.45
972.378	5680.9
972.679	5670.95
972.98	5666.88
973.281	5655.13
973.582	5655.36
973.883	5554.8
974.183	5545.76
974.484	5538.98
974.785	5522.71
975.085	5464.63
975.386	5487.23
975.686	5438.19
975.986	5447
976.287	5418.98
976.587	5378.98
976.887	5360.9
977.187	5354.12
977.487	5359.32
977.787	5257.63
978.087	5215.37
978.387	5206.33
978.687	5199.78
978.987	5209.95
979.286	5163.4
979.586	5059.67
979.885	5115.03
980.185	5056.51
980.484	5066.67
980.784	5041.82
981.083	5027.58
981.382	5012.89
981.682	4938.09
981.981	4935.38
982.28	4943.29
982.579	4882.27
982.878	4885.44
983.177	4816.29
983.475	4820.13
983.774	4804.31
984.073	4805.66
984.372	4755.04
984.67	4751.65
984.969	4715.27
985.267	4720.92
985.566	4672.56
985.864	4626.01
986.162	4610.19
986.461	4601.15
986.759	4591.43
987.057	4524.09
987.355	4536.07
987.653	4509.4
987.951	4477.76
988.249	4458.56
988.547	4457.43
988.844	4406.81
989.142	4389.86
989.44	4316.19
989.737	4366.13
990.035	4314.83
990.332	4332.91
990.63	4306.69
990.927	4306.47
991.224	4253.81
991.521	4223.31
991.819	4186.92
992.116	4174.95
992.413	4200.93
992.71	4130.2
993.006	4154.16
993.303	4139.92
993.6	4112.35
993.897	4072.8
994.193	4040.49
994.49	4049.07
994.787	4031.9
995.083	3966.14
995.379	3992.8
995.676	3957.1
995.972	3964.1
996.268	3910.09
996.565	3906.93
996.861	3882.53
997.157	3863.77
997.453	3816.76
997.749	3821.51
998.044	3766.6
998.34	3746.71
998.636	3744
998.932	3751.68
999.227	3685.24
999.523	3711.23
999.818	3686.37
1000.114	3679.37
1000.409	3617.22
1000.704	3609.54
1001	3581.97
1001.295	3532.48
1001.59	3570.89
1001.885	3532.93
1002.18	3508.52
1002.475	3503.1
1002.77	3468.98
1003.065	3442.31
1003.359	3422.2
1003.654	3420.84
1003.949	3380.17
1004.243	3361.86
1004.538	3325.7
1004.832	3304.46
1005.127	3327.29
1005.421	3309.88
1005.715	3273.73
1006.009	3264.46
1006.304	3218.81
1006.598	3214.07
1006.892	3198.25
1007.186	3134.97
1007.48	3112.6
1007.773	3107.18
1008.067	3133.84
1008.361	3089.1
1008.655	3056.33
1008.948	3050.91
1009.242	3024.92
1009.535	3026.28
1009.829	3013.85
1010.122	2939.5
1010.415	2972.49
1010.708	2913.74
1011.001	2933.17
1011.295	2909.22
1011.588	2900.63
1011.881	2867.41
1012.173	2888.2
1012.466	2843
1012.759	2826.51
1013.052	2804.14
1013.344	2766.4
1013.637	2784.02
1013.93	2733.4
1014.222	2712.16
1014.514	2717.13
1014.807	2687.53
1015.099	2694.99
1015.391	2634.42
1015.683	2636.46
1015.976	2623.12
1016.268	2602.11
1016.56	2586.74
1016.851	2574.99
1017.143	2582.45
1017.435	2523.46
1017.727	2482.34
1018.018	2480.08
1018.31	2500.19
1018.602	2499.28
1018.893	2466.74
1019.185	2417.03
1019.476	2426.29
1019.767	2393.52
1020.058	2365.28
1020.35	2411.6
1020.641	2359.4
1020.932	2355.33
1021.223	2319.85
1021.514	2302.45
1021.804	2224.72
1022.095	2280.76
1022.386	2250.03
1022.677	2238.5
1022.967	2223.36
1023.258	2231.27
1023.548	2164.38
1023.839	2173.64
1024.129	2170.93
1024.419	2163.02
1024.709	2138.62
1025	2128.67
1025.29	2098.39
1025.58	2090.48
1025.87	2051.84
1026.16	2058.39
1026.449	2010.71
1026.739	2026.98
1027.029	2022.91
1027.319	2009.13
1027.608	1988.34
1027.898	1944.95
1028.187	1964.38
1028.477	1935.23
1028.766	1941.79
1029.055	1904.5
1029.344	1907.44
1029.634	1890.94
1029.923	1859.98
1030.212	1866.31
1030.501	1840.32
1030.79	1798.06
1031.078	1817.72
1031.367	1798.29
1031.656	1811.17
1031.945	1754.45
1032.233	1767.78
1032.522	1772.52
1032.81	1745.86
1033.099	1731.62
1033.387	1730.49
1033.675	1706.54
1033.963	1702.02
1034.251	1678.06
1034.54	1683.71
1034.828	1671.28
1035.116	1622.7
1035.403	1641.91
1035.691	1634.67
1035.979	1590.38
1036.267	1624.73
1036.554	1609.14
1036.842	1592.42
1037.129	1564.39
1037.417	1570.04
1037.704	1526.43
1037.992	1541.8
1038.279	1496.6
1038.566	1523.94
1038.853	1523.94
1039.14	1523.94
