Data from 15-1247_FLMS001491_009.txt Node
Date: Thu Apr 19 16:10:40 BST 2018
User: hsy
Spectrometer: FLMS00149
Trigger mode: 0
Integration Time (sec): 1.000000E-2
Scans to average: 10
Electric dark correction enabled: true
Nonlinearity correction enabled: false
Boxcar width: 0
XAxis mode: Wavelengths
Number of Pixels in Spectrum: 2048
>>>>>Begin Spectral Data<<<<<
341.393	-16.71
341.776	-16.71
342.16	-16.71
342.543	-58.06
342.927	-52.64
343.31	-62.58
343.693	-60.78
344.077	-72.75
344.46	-55.35
344.843	-37.95
345.226	-58.74
345.61	-28.46
345.993	-25.75
346.376	-7.44
346.759	15.38
347.142	25.78
347.525	30.07
347.908	51.76
348.291	84.76
348.674	90.18
349.057	111.88
349.44	109.84
349.823	145.32
350.206	188.94
350.588	247.92
350.971	245.66
351.354	266.22
351.737	255.15
352.119	299.67
352.502	311.19
352.884	334.92
353.267	308.93
353.65	337.63
354.032	337.86
354.414	341.25
354.797	365.43
355.179	376.05
355.562	356.16
355.944	352.55
356.326	383.96
356.709	382.15
357.091	361.13
357.473	367.91
357.855	355.49
358.238	404.52
358.62	413.34
359.002	396.16
359.384	388.25
359.766	364.3
360.148	379.21
360.53	393.9
360.912	369.95
361.294	369.04
361.676	368.59
362.057	362.72
362.439	390.74
362.821	401.59
363.203	373.56
363.584	385.31
363.966	385.09
364.348	384.41
364.729	396.16
365.111	372.21
365.493	380.57
365.874	355.03
366.256	363.85
366.637	382.83
367.019	352.77
367.4	372.89
367.781	393.22
368.163	367.69
368.544	370.85
368.925	384.86
369.306	370.4
369.688	363.62
370.069	350.29
370.45	395.48
370.831	383.73
371.212	385.54
371.593	387.35
371.974	369.72
372.355	375.37
372.736	385.99
373.117	399.55
373.498	361.36
373.879	402.49
374.26	378.76
374.641	383.96
375.021	377.41
375.402	409.49
375.783	386.44
376.163	409.49
376.544	416.27
376.925	388.03
377.305	404.75
377.686	402.26
378.066	392.77
378.447	412.88
378.827	400.23
379.208	404.75
379.588	413.11
379.968	412.21
380.349	409.49
380.729	408.82
381.109	434.8
381.489	417.18
381.87	409.04
382.25	433.68
382.63	439.78
383.01	417.63
383.39	443.17
383.77	452.43
384.15	436.39
384.53	434.35
384.91	444.75
385.29	448.14
385.67	452.66
386.049	456.5
386.429	443.17
386.809	471.41
387.189	458.99
387.568	472.09
387.948	459.89
388.328	463.96
388.707	470.74
389.087	484.3
389.466	487.23
389.846	479.55
390.225	505.99
390.605	479.78
390.984	490.85
391.363	480.45
391.743	492.66
392.122	495.37
392.501	500.57
392.881	507.8
393.26	521.13
393.639	519.32
394.018	511.87
394.397	509.38
394.776	503.5
395.155	538.08
395.534	519.55
395.913	516.16
396.292	520
396.671	543.73
397.05	544.63
397.429	534.24
397.808	536.27
398.186	542.6
398.565	539.66
398.944	556.16
399.323	562.71
399.701	545.31
400.08	554.35
400.458	588.93
400.837	576.5
401.215	585.54
401.594	560.9
401.972	598.64
402.351	582.6
402.729	606.55
403.107	591.19
403.486	604.74
403.864	585.08
404.242	638.19
404.62	603.84
404.999	604.52
405.377	630.51
405.755	632.54
406.133	622.14
406.511	618.08
406.889	652.65
407.267	658.98
407.645	654.23
408.023	659.21
408.401	667.12
408.779	662.6
409.156	695.14
409.534	687.91
409.912	692.88
410.29	715.02
410.667	717.51
411.045	717.74
411.422	715.25
411.8	734.91
412.178	730.62
412.555	750.73
412.933	751.63
413.31	769.71
413.687	766.55
414.065	769.94
414.442	792.31
414.819	770.84
415.197	795.7
415.574	818.3
415.951	826.66
416.328	803.38
416.705	801.35
417.082	851.29
417.46	824.63
417.837	823.5
418.214	863.27
418.591	857.84
418.967	836.83
419.344	883.15
419.721	858.52
420.098	904.62
420.475	891.06
420.852	908.24
421.228	884.96
421.605	889.26
421.982	905.75
422.358	943.94
422.735	935.58
423.111	937.16
423.488	918.86
423.864	946.66
424.241	999.99
424.617	936.94
424.994	971.97
425.37	995.47
425.746	986.2
426.123	1003.83
426.499	969.25
426.875	1016.26
427.251	1023.49
427.627	1057.61
428.003	1046.99
428.379	1060.33
428.756	1055.58
429.132	1058.97
429.507	1096.71
429.883	1126.76
430.259	1130.15
430.635	1130.15
431.011	1115.24
431.387	1150.94
431.763	1162.7
432.138	1167.67
432.514	1192.3
432.89	1197.27
433.265	1199.08
433.641	1234.33
434.016	1272.3
434.392	1290.15
434.767	1242.02
435.143	1242.69
435.518	1265.74
435.894	1296.03
436.269	1316.14
436.644	1343.48
437.02	1307.78
437.395	1351.62
437.77	1332.18
438.145	1376.48
438.52	1366.98
438.895	1413.76
439.271	1375.12
439.646	1437.72
440.021	1439.98
440.395	1443.14
440.77	1421.67
441.145	1450.15
441.52	1447.43
441.895	1468.45
442.27	1459.41
442.645	1460.09
443.019	1467.55
443.394	1500.77
443.769	1515.45
444.143	1501.67
444.518	1544.15
444.892	1506.87
445.267	1515.91
445.641	1541.44
446.016	1567.88
446.39	1576.92
446.764	1542.57
447.139	1588.45
447.513	1583.7
447.887	1606.98
448.262	1618.95
448.636	1627.32
449.01	1610.14
449.384	1633.64
449.758	1649.46
450.132	1682.46
450.506	1710.93
450.88	1710.25
451.254	1680.42
451.628	1700.08
452.002	1710.48
452.376	1764.26
452.75	1763.58
453.123	1791.61
453.497	1789.12
453.871	1822.34
454.244	1910.02
454.618	1844.94
454.992	1871.38
455.365	1911.6
455.739	1947.99
456.112	1950.02
456.486	1971.26
456.859	1961.77
457.232	2023.92
457.606	2038.6
457.979	2070.47
458.352	2093.52
458.725	2125.61
459.099	2139.84
459.472	2138.94
459.845	2189.79
460.218	2222.55
460.591	2188.21
460.964	2242.89
461.337	2281.31
461.71	2313.63
462.083	2332.16
462.456	2348.43
462.829	2359.95
463.201	2436.79
463.574	2380.29
463.947	2468.2
464.32	2506.16
464.692	2494.86
465.065	2517.24
465.438	2559.72
465.81	2572.15
466.183	2591.36
466.555	2643.11
466.928	2666.84
467.3	2685.82
467.672	2709.32
468.045	2752.03
468.417	2790.9
468.789	2747.96
469.161	2844.01
469.534	2838.81
469.906	2886.94
470.278	2942.99
470.65	2948.41
471.022	3001.29
471.394	3084.9
471.766	3081.74
472.138	3127.39
472.51	3195.18
472.882	3202.42
473.253	3214.17
473.625	3304.56
473.997	3331.45
474.369	3355.41
474.74	3393.6
475.112	3427.49
475.484	3543.88
475.855	3577.55
476.227	3602.41
476.598	3694.61
476.97	3758.79
477.341	3822.96
477.713	3868.84
478.084	3890.31
478.455	3991.77
478.827	4042.62
479.198	4167.14
479.569	4151.77
479.94	4309.51
480.311	4301.37
480.682	4422.5
481.053	4528.71
481.424	4610.51
481.795	4626.33
482.166	4698.87
482.537	4749.95
482.908	4861.81
483.279	4948.81
483.65	5010.05
484.021	5156.94
484.391	5243.72
484.762	5315.81
485.133	5368.91
485.503	5438.97
485.874	5570.72
486.244	5581.34
486.615	5722.58
486.985	5798.96
487.356	5906.98
487.726	6014.32
488.097	6159.17
488.467	6220.87
488.837	6321.2
489.207	6426.51
489.578	6562.55
489.948	6676.9
490.318	6798.25
490.688	6840.74
491.058	7013.62
491.428	7052.48
491.798	7217.68
492.168	7346.26
492.538	7448.63
492.908	7552.13
493.278	7693.82
493.648	7821.73
494.017	7925.23
494.387	8062.18
494.757	8122.96
495.126	8219.91
495.496	8359.79
495.866	8475.05
496.235	8559.79
496.605	8678.43
496.974	8735.15
497.344	9005.65
497.713	9014.01
498.082	9110.28
498.452	9337.85
498.821	9373.1
499.19	9386.43
499.559	9549.82
499.928	9617.84
500.298	9842.02
500.667	9969.7
501.036	10050.37
501.405	10102.8
501.774	10247.2
502.143	10296.47
502.512	10466.63
502.88	10579.4
503.249	10659.17
503.618	10730.81
503.987	10833.63
504.356	11034.3
504.724	11080.85
505.093	11190.45
505.462	11333.28
505.83	11416.44
506.199	11589.77
506.567	11689.2
506.936	11778.46
507.304	12012.35
507.672	12104.55
508.041	12089.41
508.409	12272.69
508.777	12420.03
509.145	12504.09
509.514	12587.71
509.882	12694.37
510.25	12818.89
510.618	12904.53
510.986	12947.02
511.354	13100.91
511.722	13241.47
512.09	13379.78
512.458	13403.96
512.826	13557.85
513.193	13613.44
513.561	13762.59
513.929	13876.94
514.297	13977.73
514.664	14068.12
515.032	14228.79
515.4	14404.16
515.767	14445.74
516.135	14534.77
516.502	14432.63
516.869	14771.15
517.237	14785.84
517.604	14766.63
517.972	15005.27
518.339	15129.33
518.706	15246.17
519.073	15318.93
519.44	15392.6
519.808	15669.88
520.175	15683.44
520.542	15837.56
520.909	15964.79
521.276	16033.94
521.643	16294.5
522.009	16275.29
522.376	16407.72
522.743	16591.22
523.11	16767.71
523.477	16869.4
523.843	17055.61
524.21	17270.97
524.577	17344.19
524.943	17466.67
525.31	17537.41
525.676	17724.75
526.043	17910.96
526.409	17978.3
526.776	18253.55
527.142	18256.71
527.508	18451.28
527.874	18628.9
528.241	18705.74
528.607	18782.57
528.973	19079.51
529.339	19066.86
529.705	19303.01
530.071	19463.91
530.437	19608.54
530.803	19698.25
531.169	19857.35
531.535	19761.98
531.901	19858.25
532.267	20125.36
532.632	20321.06
532.998	20316.99
533.364	20447.16
533.73	20439.25
534.095	20729.41
534.461	20765.34
534.826	20884.89
535.192	21005.11
535.557	21337.98
535.923	21125.56
536.288	21215.5
536.653	21359
537.019	21330.53
537.384	21509.51
537.749	21615.94
538.114	21770.52
538.479	21761.48
538.845	21858.2
539.21	21846.9
539.575	21911.53
539.94	21987.68
540.305	22136.38
540.67	22197.85
541.034	22317.17
541.399	22318.52
541.764	22383.83
542.129	22556.48
542.494	22567.56
542.858	22629.93
543.223	22658.85
543.587	22792.18
543.952	22772.97
544.316	22761.68
544.681	22892.29
545.045	23100.65
545.41	23180.2
545.774	23119.18
546.138	23186.98
546.503	23282.79
546.867	23321.43
547.231	23423.58
547.595	23485.95
547.959	23506.06
548.324	23590.58
548.688	23621.31
549.052	23814.08
549.416	23680.75
549.779	23799.39
550.143	23851.82
550.507	23961.42
550.871	24137.46
551.235	23977.91
551.599	24247.96
551.962	24408.64
552.326	24349.43
552.689	24477.34
553.053	24271.01
553.417	24457.68
553.78	24693.6
554.143	24658.8
554.507	24680.5
554.87	24899.92
555.234	25027.38
555.597	24913.94
555.96	25107.83
556.323	25226.24
556.686	25258.79
557.05	25418.33
557.413	25419.23
557.776	25619.68
558.139	25733.8
558.502	25816.28
558.865	25841.14
559.228	25940.57
559.59	26080.68
559.953	26184.18
560.316	26462.14
560.679	26464.63
561.041	26574.46
561.404	26706.88
561.767	26782.36
562.129	26884.28
562.492	27103.48
562.854	27086.99
563.217	27077.95
563.579	27267.77
563.941	27492.17
564.304	27542.34
564.666	27797.25
565.028	27784.59
565.39	27888.55
565.753	28107.07
566.115	28068.43
566.477	28251.7
566.839	28372.6
567.201	28616.44
567.563	28562.43
567.925	28798.8
568.287	28942.08
568.648	28989.76
569.01	29091.9
569.372	29566.02
569.734	29359.69
570.095	29659.12
570.457	29857.53
570.819	29910.64
571.18	30003.52
571.542	30217.75
571.903	30320.35
572.265	30625.42
572.626	30723.05
572.987	30702.48
573.349	31086.2
573.71	31101.8
574.071	31311.28
574.432	31456.59
574.794	31823.58
575.155	31882.79
575.516	31778.84
575.877	32042.56
576.238	32086.63
576.599	32340.18
576.96	32464.47
577.32	32601.87
577.681	32798.02
578.042	33170.67
578.403	33237.11
578.763	33231.23
579.124	33507.83
579.485	33899.24
579.845	34087.03
580.206	34222.39
580.566	34180.36
580.927	34473.01
581.287	34754.58
581.648	34805.88
582.008	35173.78
582.368	35343.04
582.728	35507.33
583.089	35738.06
583.449	35966.53
583.809	36175.56
584.169	36585.27
584.529	36591.14
584.889	37241.29
585.249	37133.05
585.609	37246.94
585.969	37822.52
586.329	37994.72
586.688	38331.89
587.048	38620.92
587.408	38887.58
587.768	39137.29
588.127	39463.38
588.487	39641.91
588.846	40326.64
589.206	40330.93
589.565	40726.63
589.925	41327.97
590.284	41626.49
590.643	41830.33
591.003	42281.16
591.362	42768.83
591.721	43145.32
592.08	43201.82
592.44	43882.7
592.799	44172.86
593.158	44487.88
593.517	44761.78
593.876	45217.36
594.235	45461.64
594.593	45787.06
594.952	46210.1
595.311	46418
595.67	46867.03
596.029	47332.55
596.387	47725.76
596.746	48115.59
597.104	48150.84
597.463	48525.29
597.822	48885.73
598.18	49199.85
598.538	49371.37
598.897	49923.22
599.255	49887.74
599.613	50582.41
599.972	50652.69
600.33	50890.65
600.688	51153.25
601.046	51373.8
601.404	51816.96
601.762	51990.06
602.12	52362.71
602.478	52457.17
602.836	52828.68
603.194	52813.99
603.552	53080.88
603.91	53179.41
604.268	53475.44
604.625	53681.54
604.983	53965.37
605.341	53933.06
605.698	54348.42
606.056	54633.15
606.413	54548.18
606.771	54914.5
607.128	55046.25
607.485	55080.37
607.843	55293.02
608.2	55583.19
608.557	55790.64
608.914	55805.33
609.272	56060.24
609.629	56291.64
609.986	56467.68
610.343	56495.03
610.7	56855.69
611.057	56885.52
611.414	56962.13
611.771	57181.79
612.127	57266.53
612.484	57400.09
612.841	57680.76
613.198	57577.03
613.554	57736.12
613.911	57892.5
614.267	58054.98
614.624	58090.46
614.98	58232.16
615.337	58464.69
615.693	58532.94
616.05	58595.54
616.406	58741.75
616.762	58736.32
617.118	58881.4
617.475	58858.35
617.831	59063.55
618.187	59152.36
618.543	59211.11
618.899	59369.53
619.255	59416.98
619.611	59451.33
619.967	59624.21
620.323	59760.7
620.678	59677.99
621.034	59701.04
621.39	59740.59
621.746	59797.09
622.101	60078.21
622.457	59842.51
622.812	60133.35
623.168	60128.38
623.523	60154.36
623.879	60264.19
624.234	60202.72
624.589	60295.38
624.945	60328.15
625.3	60351.42
625.655	60420.57
626.01	60400.01
626.365	60547.35
626.72	60483.85
627.075	60507.12
627.43	60559.1
627.785	60569.95
628.14	60585.77
628.495	60636.39
628.85	60691.3
629.205	60644.52
629.559	60763.84
629.914	60609.72
630.269	60696.95
630.623	60607.23
630.978	60622.15
631.332	60731.52
631.687	60783.27
632.041	60684.29
632.396	60751.41
632.75	60715.93
633.104	60719.32
633.459	60593.68
633.813	60663.28
634.167	60591.19
634.521	60673.67
634.875	60685.88
635.229	60607.69
635.583	60518.87
635.937	60556.16
636.291	60569.72
636.645	60575.82
636.999	60489.72
637.352	60586.9
637.706	60395.49
638.06	60515.49
638.413	60388.71
638.767	60345.32
639.121	60450.18
639.474	60336.28
639.828	60394.58
640.181	60284.53
640.534	60383.51
640.888	60317.3
641.241	60245.21
641.594	60249.05
641.947	60368.82
642.301	60224.87
642.654	60238.88
643.007	60212.44
643.36	60204.31
643.713	60186.91
644.066	60228.94
644.419	60091.99
644.771	59855.16
645.124	59617.43
645.477	59656.3
645.83	59521.16
646.182	59513.25
646.535	59424.44
646.888	59448.62
647.24	59395.97
647.593	59439.36
647.945	59418.79
648.298	59339.24
648.65	59206.14
649.002	59109.87
649.355	59061.74
649.707	59018.58
650.059	59065.13
650.411	59374.05
650.763	59469.64
651.115	59806.58
651.467	59729.97
651.819	59732.45
652.171	59628.5
652.523	59609.75
652.875	59611.55
653.227	59475.96
653.578	59687.94
653.93	59633.47
654.282	59501.73
654.633	59505.12
654.985	59538.11
655.337	59496.75
655.688	59480.03
656.039	59520.03
656.391	59309.19
656.742	59360.49
657.094	59359.81
657.445	59386.02
657.796	59352.13
658.147	59289.3
658.498	59305.12
658.849	59391.67
659.2	59301.73
659.551	59220.38
659.902	59287.49
660.253	59188.51
660.604	59379.02
660.955	59119.59
661.306	59274.84
661.656	59105.13
662.007	59179.48
662.358	59203.2
662.708	59143.32
663.059	59151
663.409	59029.65
663.76	59092.25
664.11	59127.95
664.461	59148.97
664.811	59135.41
665.161	59115.75
665.511	59040.5
665.862	59026.71
666.212	59122.53
666.562	59115.97
666.912	59038.24
667.262	58956.88
667.612	59021.06
667.962	59075.75
668.312	58948.07
668.662	59069.42
669.011	59067.39
669.361	59022.19
669.711	59076.2
670.06	59004.79
670.41	58941.52
670.76	58901.06
671.109	59027.16
671.459	58959.82
671.808	58922.31
672.157	59000.95
672.507	58784.23
672.856	58789.88
673.205	58873.95
673.554	59001.17
673.904	58799.37
674.253	58977.9
674.602	58795.98
674.951	58537.01
675.3	58362.32
675.649	58832.37
675.998	58781.97
676.346	58794.85
676.695	58848.41
677.044	58700.84
677.393	58733.84
677.741	58777.45
678.09	58774.29
678.438	58632.82
678.787	58753.95
679.135	58720.5
679.484	58626.27
679.832	58658.81
680.181	58594.86
680.529	58524.58
680.877	58509.66
681.225	58500.17
681.573	58712.14
681.922	58554.41
682.27	58398.93
682.618	58397.8
682.966	58441.87
683.314	58438.48
683.661	58384.47
684.009	58321.64
684.357	58196.68
684.705	58236.9
685.053	58326.16
685.4	58125.04
685.748	58135.21
686.095	58078.71
686.443	58012.95
686.79	58024.25
687.138	58105.38
687.485	58030.35
687.832	57922.56
688.18	57940.64
688.527	57857.02
688.874	57844.59
689.221	57866.52
689.568	57759.85
689.915	57635.56
690.262	57754.2
690.609	57730.47
690.956	57618.16
691.303	57598.73
691.65	57482.34
691.997	57447.09
692.344	57343.37
692.69	57320.54
693.037	57395.34
693.383	57157.83
693.73	57239.41
694.077	57094.11
694.423	57083.48
694.769	56990.15
695.116	57013.43
695.462	56950.83
695.808	56847.11
696.155	56849.37
696.501	56691.63
696.847	56829.71
697.193	56587.45
697.539	56641.01
697.885	56465.65
698.231	56396.27
698.577	56443.5
698.923	56383.16
699.269	56261.59
699.614	56128.48
699.96	56074.47
700.306	56111.08
700.651	55931.42
700.997	55964.42
701.342	55868.6
701.688	55890.3
702.033	55705.89
702.379	55799.45
702.724	55632.68
703.069	55720.36
703.415	55408.05
703.76	55423.64
704.105	55430.65
704.45	55310.88
704.795	55190.65
705.14	55126.7
705.485	55101.62
705.83	54995.18
706.175	55121.28
706.52	54927.16
706.865	54780.04
707.209	54741.63
707.554	54733.04
707.899	54707.73
708.243	54585.7
708.588	54524
708.932	54464.34
709.277	54465.93
709.621	54336.21
709.966	54201.98
710.31	54186.61
710.654	54027.52
710.998	54089.89
711.342	54076.11
711.687	53929.9
712.031	53850.35
712.375	53795.89
712.719	53647.64
713.063	53641.09
713.407	53804.93
713.75	53574.65
714.094	53522.22
714.438	53430.93
714.782	53510.92
715.125	53222.34
715.469	53310.7
715.812	53155.68
716.156	53098.5
716.499	53060.54
716.843	53044.5
717.186	52927.66
717.53	53017.6
717.873	53048.56
718.216	52937.83
718.559	52744.39
718.902	52644.73
719.246	52625.52
719.589	52439.31
719.932	52473.66
720.275	52478.86
720.617	52463.27
720.96	52361.58
721.303	52397.05
721.646	52294.68
721.989	52139.89
722.331	52186.66
722.674	52120.45
723.016	52180.34
723.359	51992.32
723.701	52054.24
724.044	51885.43
724.386	51781.7
724.729	51990.06
725.071	51844.07
725.413	51812.89
725.755	51787.35
726.097	51712.78
726.439	51519.34
726.782	51569.28
727.124	51679.56
727.465	51450.64
727.807	51433.01
728.149	51455.84
728.491	51355.05
728.833	51456.74
729.175	51365.44
729.516	51204.77
729.858	51111.66
730.199	51249.97
730.541	51167.26
730.882	51032.34
731.224	51060.14
731.565	50939.92
731.906	50933.36
732.248	50937.43
732.589	50758.68
732.93	50738.12
733.271	50633.03
733.612	50677.33
733.953	50770.43
734.294	50633.49
734.635	50405.69
734.976	50674.39
735.317	50389.88
735.658	50416.77
735.999	50229.88
736.339	50268.3
736.68	50324.57
737.021	50254.74
737.361	50058.58
737.702	50290.44
738.042	50136.55
738.383	50076.66
738.723	50183.1
739.063	49967.51
739.404	50067.4
739.744	49996.21
740.084	49983.33
740.424	49969.77
740.764	49849.32
741.104	49973.84
741.444	49703.79
741.784	49689.1
742.124	49754.19
742.464	49726.39
742.804	49553.51
743.143	49607.98
743.483	49523.46
743.823	49407.53
744.162	49382.67
744.502	49404.36
744.841	49354.2
745.181	49413.18
745.52	49069.23
745.86	49221.32
746.199	49070.59
746.538	49092.06
746.877	49206.63
747.216	49129.34
747.556	49001.66
747.895	49102.45
748.234	48877.37
748.573	48806.87
748.911	48761.44
749.25	48715.34
749.589	48668.56
749.928	48669.02
750.267	48494.56
750.605	48532.3
750.944	48459.3
751.283	48349.93
751.621	48469.93
751.96	48189.71
752.298	48191.29
752.636	48083.5
752.975	47996.27
753.313	47963.05
753.651	48044.4
753.989	47805.54
754.327	47901.35
754.666	47581.14
755.004	47713.56
755.342	47619.33
755.679	47604.41
756.017	47335.27
756.355	47506.79
756.693	47393.8
757.031	47475.83
757.368	47048.95
757.706	47105.89
758.044	47008.27
758.381	46913.13
758.719	46845.79
759.056	46801.5
759.394	46607.38
759.731	46443.99
760.068	46341.39
760.405	46477.44
760.743	46175.98
761.08	46299.14
761.417	46058.01
761.754	45885.14
762.091	45829.32
762.428	45615.31
762.765	45434.75
763.102	45443.57
763.438	45453.73
763.775	45012.16
764.112	45156.79
764.449	45044.25
764.785	44881.55
765.122	44689.91
765.458	44460.09
765.795	44449.24
766.131	44432.97
766.467	44231.39
766.804	43990.04
767.14	44027.33
767.476	43825.75
767.812	43624.4
768.148	43804.96
768.485	43538.53
768.821	43258.99
769.157	43290.4
769.492	43043.18
769.828	42964.08
770.164	42624.66
770.5	42594.83
770.836	42532
771.171	42338.34
771.507	42181.28
771.842	41909.87
772.178	41827.61
772.513	41726.83
772.849	41504.23
773.184	41509.66
773.519	41378.59
773.855	41168.2
774.19	41242.77
774.525	41127.29
774.86	41054.53
775.195	40825.61
775.53	40621.32
775.865	40439.4
776.2	40088.23
776.535	40015.01
776.87	39847.55
777.205	39680.1
777.539	39515.81
777.874	39672.19
778.209	39186.78
778.543	39257.96
778.878	39001.93
779.212	38983.17
779.547	38582.95
779.881	38721.93
780.215	38372.11
780.55	38502.73
780.884	38071.56
781.218	38100.03
781.552	38213.02
781.886	37846.7
782.22	37667.05
782.554	37562.87
782.888	37229.54
783.222	37198.58
783.556	36982.32
783.889	36942.09
784.223	36526.29
784.557	36593.4
784.89	36721.99
785.224	36357.93
785.557	36153.87
785.891	36198.61
786.224	36107.54
786.558	35997.94
786.891	35718.17
787.224	35605.63
787.557	35403.38
787.891	35331.29
788.224	35144.85
788.557	35016.49
788.89	35007
789.223	34993.67
789.556	34701.02
789.888	34545.77
790.221	34572.44
790.554	34288.6
790.887	34356.4
791.219	34174.03
791.552	34179.68
791.884	33890.87
792.217	33733.36
792.549	33714.61
792.882	33457.44
793.214	33329.76
793.546	33360.49
793.879	33154.4
794.211	32905.36
794.543	33132.93
794.875	32937.23
795.207	32981.75
795.539	32638.03
795.871	32800.96
796.203	32546.28
796.535	32247.53
796.867	32283.91
797.198	32030.58
797.53	32132.5
797.862	31784.26
798.193	31977.48
798.525	31806.86
798.856	31864.04
799.188	31370.94
799.519	31458.17
799.85	31303.6
800.182	31355.12
800.513	31330.72
800.844	30991.97
801.175	31049.82
801.506	30956.94
801.837	30895.7
802.168	30833.78
802.499	30792.42
802.83	30467.01
803.161	30481.7
803.491	30409.84
803.822	30498.65
804.153	30140.24
804.483	30033.57
804.814	29829.51
805.145	29893.69
805.475	29889.62
805.805	29942.5
806.136	29784.77
806.466	29779.57
806.796	29679.01
807.126	29343.88
807.457	29405.34
807.787	29345.68
808.117	29180.49
808.447	29020.04
808.777	29259.81
809.107	28843.1
809.436	28766.72
809.766	28900.95
810.096	28844.23
810.426	28632.48
810.755	28725.36
811.085	28644.23
811.414	28580.28
811.744	28408.98
812.073	28375.99
812.403	28310.46
812.732	28135.55
813.061	28263.23
813.39	28025.94
813.719	27895.1
814.049	28099.61
814.378	28006.74
814.707	27696.91
815.036	27787.53
815.365	27580.08
815.693	27459.86
816.022	27449.69
816.351	27440.42
816.68	27192.29
817.008	27359.29
817.337	27184.16
817.665	27234.1
817.994	27143.93
818.322	27136.7
818.651	26954.11
818.979	26883.38
819.307	26783.26
819.636	26834.11
819.964	26750.05
820.292	26809.93
820.62	26714.57
820.948	26763.15
821.276	26862.13
821.604	26630.05
821.932	26938.74
822.259	26770.61
822.587	26700.33
822.915	26531.07
823.243	26739.88
823.57	26574.23
823.898	26808.35
824.225	26525.42
824.553	26503.27
824.88	26705.07
825.207	26729.93
825.535	26549.82
825.862	26692.87
826.189	26523.84
826.516	26717.05
826.843	26738.97
827.17	26806.54
827.497	26769.48
827.824	26688.8
828.151	26786.65
828.478	26657.62
828.805	26797.05
829.131	26705.53
829.458	26643.61
829.785	26494.91
830.111	26645.64
830.438	26817.84
830.764	26624.4
831.09	26729.48
831.417	26497.62
831.743	26722.48
832.069	26510.73
832.395	26606.09
832.722	26641.57
833.048	26507.79
833.374	26594.12
833.7	26458.98
834.026	26573.78
834.351	26429.83
834.677	26526.77
835.003	26454.01
835.329	26413.78
835.654	26272.54
835.98	26271.19
836.306	26350.28
836.631	26308.47
836.956	26503.95
837.282	26371.07
837.607	26285.65
837.932	26277.06
838.258	26191.19
838.583	26120.23
838.908	26013.79
839.233	26118.65
839.558	25917.52
839.883	25958.2
840.208	25887.92
840.533	25906.9
840.858	25776.51
841.182	25984.42
841.507	25753.69
841.832	25574.93
842.156	25693.8
842.481	25590.53
842.805	25555.27
843.13	25414.71
843.454	25474.82
843.778	25411.1
844.103	25446.58
844.427	25302.85
844.751	25252.01
845.075	25259.91
845.399	25057.43
845.723	25010.43
846.047	25077.55
846.371	24863.32
846.695	24740.83
847.019	24698.57
847.343	24498.58
847.666	24453.83
847.99	24380.39
848.313	24325.02
848.637	24441.86
848.96	24088.87
849.284	24202.32
849.607	23892.27
849.931	23878.93
850.254	23699.96
850.577	23598.94
850.9	23329.12
851.223	23458.15
851.546	23311.27
851.869	23189.91
852.192	23371.6
852.515	23081.44
852.838	23001.67
853.161	23016.13
853.483	22763.48
853.806	22786.08
854.129	22690.72
854.451	22534.56
854.774	22436.94
855.096	22380.44
855.419	22418.86
855.741	22285.3
856.063	22294.57
856.385	22078.3
856.708	22030.62
857.03	22043.5
857.352	22059.77
857.674	21956.05
857.996	21839.21
858.318	21672.66
858.64	21720.8
858.961	21599.9
859.283	21625.89
859.605	21468.6
859.926	21482.16
860.248	21460.01
860.57	21440.58
860.891	21338.66
861.212	21237.87
861.534	21162.17
861.855	21084.88
862.176	21101.15
862.498	21028.61
862.819	21087.6
863.14	20926.92
863.461	20975.06
863.782	20887.37
864.103	20838.11
864.424	20818
864.745	20831.56
865.065	20752.01
865.386	20673.14
865.707	20651
866.027	20672.69
866.348	20614.39
866.668	20455.52
866.989	20512.7
867.309	20384.11
867.63	20374.62
867.95	20473.83
868.27	20276.32
868.59	20382.3
868.91	20234.28
869.23	20289.42
869.55	20126.26
869.87	20268.41
870.19	20173.27
870.51	20085.59
870.83	20011.24
871.15	19924.24
871.469	19975.31
871.789	19993.39
872.109	19914.74
872.428	19837.46
872.748	19849.21
873.067	19745.26
873.386	19813.73
873.706	19722.21
874.025	19635.2
874.344	19514.3
874.663	19652.83
874.982	19655.54
875.301	19475.43
875.62	19538.03
875.939	19340.07
876.258	19419.16
876.577	19422.1
876.896	19406.74
877.214	19251.03
877.533	19321.09
877.852	19337.81
878.17	19338.26
878.489	19372.61
878.807	19263.46
879.125	19258.72
879.444	19155.22
879.762	19085.61
880.08	19155.22
880.398	19025.73
880.716	19048.55
881.034	19007.2
881.352	18882.91
881.67	18968.33
881.988	18962.23
882.306	18903.02
882.624	18867.77
882.941	18728.56
883.259	18593.2
883.577	18671.84
883.894	18671.84
884.212	18556.81
884.529	18596.81
884.846	18527.21
885.164	18488.57
885.481	18422.58
885.798	18384.84
886.115	18270.27
886.432	18304.62
886.75	18209.48
887.067	18235.47
887.383	18214
887.7	18211.51
888.017	17926.55
888.334	18032.53
888.651	17940.11
888.967	17890.84
889.284	17843.84
889.6	17774.24
889.917	17717.51
890.233	17803.16
890.55	17755.71
890.866	17676.61
891.182	17619.21
891.498	17545.77
891.815	17481.14
892.131	17451.31
892.447	17338.54
892.763	17284.98
893.079	17191.88
893.395	17256.96
893.71	17071.66
894.026	17054.93
894.342	17062.39
894.657	16881.15
894.973	17014.93
895.289	16950.3
895.604	16901.49
895.92	16733.59
896.235	16771.32
896.55	16666.24
896.865	16574.27
897.181	16541.05
897.496	16557.77
897.811	16427.83
898.126	16296.53
898.441	16364.1
898.756	16285.91
899.071	16247.5
899.386	16231.23
899.7	16066.94
900.015	15978.8
900.33	15944.68
900.644	15836.43
900.959	15892.48
901.273	15842.08
901.588	15805.93
901.902	15701.07
902.216	15649.32
902.531	15599.6
902.845	15593.05
903.159	15416.56
903.473	15451.13
903.787	15441.64
904.101	15268.99
904.415	15234.42
904.729	15226.73
905.042	15162.55
905.356	15081.88
905.67	15054.99
905.984	15067.41
906.297	15021.09
906.611	14874.43
906.924	14830.58
907.237	14848.89
907.551	14775.67
907.864	14721.89
908.177	14612.96
908.491	14514.21
908.804	14452.74
909.117	14375.46
909.43	14271.5
909.743	14330.48
910.056	14288.45
910.368	14207.32
910.681	14184.05
910.994	14092.98
911.307	13959.65
911.619	13815.02
911.932	13965.07
912.244	13862.02
912.557	13765.08
912.869	13737.28
913.181	13615.7
913.494	13668.58
913.806	13542.26
914.118	13491.18
914.43	13429.94
914.742	13406.89
915.054	13306.78
915.366	13234.24
915.678	13231.08
915.99	13146.11
916.302	13081.25
916.613	13008.26
916.925	13026.79
917.236	13037.41
917.548	12883.29
917.859	12886.68
918.171	12818.21
918.482	12682.39
918.794	12662.73
919.105	12657.31
919.416	12463.64
919.727	12519.91
920.038	12566.92
920.349	12388.16
920.66	12290.54
920.971	12324.44
921.282	12283.08
921.593	12163.08
921.903	12082.41
922.214	12098.23
922.525	12030.43
922.835	12015.29
923.146	11883.77
923.456	11807.61
923.767	11847.39
924.077	11760.61
924.387	11764.9
924.697	11681.51
925.008	11632.7
925.318	11573.72
925.628	11573.72
925.938	11486.72
926.248	11423.89
926.558	11326.27
926.867	11338.47
927.177	11229.55
927.487	11230.68
927.796	11150.68
928.106	11128.54
928.416	11126.5
928.725	11051.7
929.034	11032.49
929.344	10987.52
929.653	10946.84
929.962	10840.63
930.271	10887.86
930.581	10721.77
930.89	10669.34
931.199	10612.84
931.508	10599.51
931.817	10669.56
932.125	10547.53
932.434	10551.38
932.743	10467.08
933.051	10444.26
933.36	10382.34
933.669	10238.39
933.977	10249.24
934.286	10257.15
934.594	10162.23
934.902	10164.04
935.21	10106.19
935.519	9996.14
935.827	10018.51
936.135	9991.84
936.443	9885.4
936.751	9872.07
937.059	9787.1
937.367	9806.31
937.674	9690.61
937.982	9748.68
938.29	9703.94
938.597	9557.05
938.905	9490.61
939.213	9553.44
939.52	9500.33
939.827	9464.85
940.135	9405.87
940.442	9338.53
940.749	9306.66
941.056	9329.49
941.363	9176.04
941.67	9144.86
941.977	9146.89
942.284	9065.76
942.591	9042.49
942.898	9032.54
943.205	8995.48
943.511	8968.37
943.818	8934.47
944.125	8868.48
944.431	8809.95
944.738	8802.49
945.044	8728.15
945.35	8706.9
945.657	8621.26
945.963	8655.61
946.269	8596.17
946.575	8544.87
946.881	8516.63
947.187	8450.87
947.493	8398.44
947.799	8375.39
948.105	8360.7
948.41	8319.34
948.716	8322.51
949.022	8289.51
949.327	8235.96
949.633	8149.86
949.938	8168.61
950.244	8165.22
950.549	8096.98
950.854	7981.73
951.16	8051.55
951.465	7916.19
951.77	7890.65
952.075	7880.94
952.38	7830.77
952.685	7849.53
952.99	7727.72
953.294	7775.18
953.599	7669.19
953.904	7652.02
954.209	7596.2
954.513	7665.58
954.818	7600.94
955.122	7519.36
955.426	7511.68
955.731	7465.81
956.035	7449.08
956.339	7408.63
956.643	7422.42
956.948	7273.72
957.252	7273.5
957.556	7288.18
957.86	7274.17
958.163	7231.91
958.467	7138.58
958.771	7109.21
959.075	7081.41
959.378	7022.65
959.682	7047.51
959.985	6982.43
960.289	6972.03
960.592	6940.62
960.896	6886.61
961.199	6904.24
961.502	6882.55
961.805	6830.57
962.108	6760.29
962.411	6748.31
962.714	6748.54
963.017	6720.74
963.32	6733.85
963.623	6656.11
963.926	6596.9
964.228	6569.33
964.531	6518.26
964.833	6537.7
965.136	6492.95
965.438	6497.02
965.741	6417.92
966.043	6422.22
966.345	6339.96
966.648	6370.47
966.95	6369.56
967.252	6274.88
967.554	6274.65
967.856	6214.99
968.158	6235.56
968.46	6186.07
968.761	6137.48
969.063	6095.67
969.365	6110.81
969.666	6049.8
969.968	6004.83
970.269	6024.49
970.571	5959.18
970.872	6022.45
971.174	5907.2
971.475	5931.16
971.776	5865.17
972.077	5862.01
972.378	5853.42
972.679	5812.97
972.98	5812.06
973.281	5775.23
973.582	5690.03
973.883	5683.48
974.183	5658.62
974.484	5682.58
974.785	5579.53
975.085	5631.5
975.386	5530.04
975.686	5555.35
975.986	5507.89
976.287	5482.81
976.587	5408.69
976.887	5430.83
977.187	5449.14
977.487	5391.51
977.787	5281.01
978.087	5357.61
978.387	5322.81
978.687	5325.07
978.987	5276.71
979.286	5212.31
979.586	5234.9
979.885	5168.69
980.185	5161.46
980.484	5121.91
980.784	5129.82
981.083	5115.13
981.382	5095.93
981.682	5074.23
981.981	4992.65
982.28	4998.53
982.579	4996.27
982.878	4950.62
983.177	4896.83
983.475	4902.26
983.774	4853.9
984.073	4827.46
984.372	4799.66
984.67	4833.11
984.969	4768.7
985.267	4750.4
985.566	4686.9
985.864	4706.56
986.162	4697.97
986.461	4680.12
986.759	4602.15
987.057	4628.59
987.355	4540.46
987.653	4605.77
987.951	4594.92
988.249	4566.67
988.547	4529.61
988.844	4497.3
989.142	4515.83
989.44	4463.17
989.737	4431.54
990.035	4447.81
990.332	4396.73
990.63	4333.23
990.927	4366.9
991.224	4357.87
991.521	4281.48
991.819	4289.62
992.116	4243.74
992.413	4264.08
992.71	4219.11
993.006	4210.98
993.303	4170.75
993.6	4186.34
993.897	4163.07
994.193	4124.2
994.49	4132.11
994.787	4070.42
995.083	4051.66
995.379	3961.04
995.676	3981.6
995.972	4019.8
996.268	4016.86
996.565	3952.23
996.861	3919.91
997.157	3913.81
997.453	3889.18
997.749	3857.54
998.044	3830.2
998.34	3875.17
998.636	3794.94
998.932	3791.78
999.227	3740.48
999.523	3725.79
999.818	3742.97
1000.114	3710.88
1000.409	3695.28
1000.704	3659.58
1001	3641.05
1001.295	3635.62
1001.59	3591.56
1001.885	3606.02
1002.18	3561.28
1002.475	3555.4
1002.77	3548.62
1003.065	3505.01
1003.359	3477.89
1003.654	3447.16
1003.949	3410.32
1004.243	3398.34
1004.538	3382.98
1004.832	3368.51
1005.127	3366.93
1005.421	3362.64
1005.715	3274.5
1006.009	3334.62
1006.304	3262.3
1006.598	3225.47
1006.892	3244.9
1007.186	3182.08
1007.48	3239.48
1007.773	3193.15
1008.067	3161.29
1008.361	3116.54
1008.655	3109.76
1008.948	3116.32
1009.242	3079.71
1009.535	3088.07
1009.829	3050.56
1010.122	3024.79
1010.415	3008.07
1010.708	3006.49
1011.001	2979.82
1011.295	2971.01
1011.588	2974.63
1011.881	2923.78
1012.173	2905.25
1012.466	2891.01
1012.759	2900.28
1013.052	2848.53
1013.344	2814.18
1013.637	2814.18
1013.93	2780.05
1014.222	2773.5
1014.514	2753.39
1014.807	2740.28
1015.099	2724.24
1015.391	2697.57
1015.683	2669.55
1015.976	2665.71
1016.268	2659.15
1016.56	2652.37
1016.851	2649.44
1017.143	2606.27
1017.435	2562.43
1017.727	2521.08
1018.018	2550.68
1018.31	2509.78
1018.602	2519.5
1018.893	2498.48
1019.185	2450.57
1019.476	2478.37
1019.767	2428.88
1020.058	2453.06
1020.35	2393.85
1020.641	2408.09
1020.932	2349.1
1021.223	2369.67
1021.514	2340.29
1021.804	2315.21
1022.095	2296.68
1022.386	2300.29
1022.677	2305.49
1022.967	2236.79
1023.258	2226.85
1023.548	2227.75
1023.839	2201.54
1024.129	2197.92
1024.419	2172.16
1024.709	2181.88
1025	2123.57
1025.29	2145.72
1025.58	2114.76
1025.87	2089.45
1026.16	2085.83
1026.449	2092.39
1026.739	2068.21
1027.029	2061.43
1027.319	2018.49
1027.608	2030.92
1027.898	1985.5
1028.187	1991.83
1028.477	1984.82
1028.766	1944.6
1029.055	1948.66
1029.344	1926.52
1029.634	1881.77
1029.923	1882
1030.212	1874.32
1030.501	1880.19
1030.79	1854.88
1031.078	1844.71
1031.367	1823.92
1031.656	1822.57
1031.945	1804.49
1032.233	1804.49
1032.522	1762
1032.81	1755.22
1033.099	1757.26
1033.387	1777.59
1033.675	1719.06
1033.963	1686.98
1034.251	1707.99
1034.54	1708.9
1034.828	1673.19
1035.116	1665.73
1035.403	1646.3
1035.691	1634.77
1035.979	1613.08
1036.267	1625.06
1036.554	1611.95
1036.842	1604.72
1037.129	1592.29
1037.417	1575.79
1037.704	1564.94
1037.992	1529.24
1038.279	1535.34
1038.566	1536.24
1038.853	1536.24
1039.14	1536.24
