Data from 15-1247_FLMS001491_002.txt Node
Date: Thu Apr 19 16:10:23 BST 2018
User: hsy
Spectrometer: FLMS00149
Trigger mode: 0
Integration Time (sec): 1.000000E-2
Scans to average: 10
Electric dark correction enabled: true
Nonlinearity correction enabled: false
Boxcar width: 0
XAxis mode: Wavelengths
Number of Pixels in Spectrum: 2048
>>>>>Begin Spectral Data<<<<<
341.393	-19.59
341.776	-19.59
342.16	-19.59
342.543	-67.95
342.927	-75.63
343.31	-55.75
343.693	-60.72
344.077	-56.88
344.46	-67.95
344.843	-54.62
345.226	-43.32
345.61	-35.63
345.993	-44.67
346.376	-5.13
346.759	10.01
347.142	11.82
347.525	42.78
347.908	60.18
348.291	69.9
348.674	114.19
349.057	115.77
349.44	119.16
349.823	151.71
350.206	177.92
350.588	208.2
350.971	252.04
351.354	271.02
351.737	274.19
352.119	311.25
352.502	288.42
352.884	320.74
353.267	311.93
353.65	332.04
354.032	337.24
354.414	351.93
354.797	349.44
355.179	346.05
355.562	387.18
355.944	374.07
356.326	383.11
356.709	382.89
357.091	390.34
357.473	382.66
357.855	392.15
358.238	405.26
358.62	407.29
359.002	399.38
359.384	386.28
359.766	383.56
360.148	374.52
360.53	401.64
360.912	370.68
361.294	383.56
361.676	377.01
362.057	392.38
362.439	391.92
362.821	366.61
363.203	379.27
363.584	390.57
363.966	381.76
364.348	381.08
364.729	368.65
365.111	353.96
365.493	387.63
365.874	365.48
366.256	370.68
366.637	374.52
367.019	357.58
367.4	373.17
367.781	374.98
368.163	387.41
368.544	386.28
368.925	359.16
369.306	373.39
369.688	359.61
370.069	390.57
370.45	371.81
370.831	374.75
371.212	378.14
371.593	370.46
371.974	362.77
372.355	391.47
372.736	365.03
373.117	395.99
373.498	374.3
373.879	395.09
374.26	389.44
374.641	391.25
375.021	356.45
375.402	391.47
375.783	413.62
376.163	411.59
376.544	396.22
376.925	401.64
377.305	396.67
377.686	385.82
378.066	407.97
378.447	408.2
378.827	415.88
379.208	384.69
379.588	406.84
379.968	395.31
380.349	417.23
380.729	424.47
381.109	408.87
381.489	399.16
381.87	406.61
382.25	424.92
382.63	426.27
383.01	418.59
383.39	420.85
383.77	423.56
384.15	397.8
384.53	433.73
384.91	435.31
385.29	431.7
385.67	436.44
386.049	446.39
386.429	445.03
386.809	458.36
387.189	447.52
387.568	454.3
387.948	468.98
388.328	446.16
388.707	450
389.087	466.27
389.466	478.93
389.846	457.69
390.225	463.79
390.605	469.66
390.984	464.92
391.363	479.61
391.743	476.22
392.122	483
392.501	489.32
392.881	497.68
393.26	504.24
393.639	479.83
394.018	508.31
394.397	504.46
394.776	498.14
395.155	510.34
395.534	485.93
395.913	508.53
396.292	513.5
396.671	512.37
397.05	526.61
397.429	531.36
397.808	519.83
398.186	534.97
398.565	526.61
398.944	545.59
399.323	561.19
399.701	540.4
400.08	531.13
400.458	536.33
400.837	555.08
401.215	549.21
401.594	560.73
401.972	576.1
402.351	558.25
402.729	551.92
403.107	576.78
403.486	580.39
403.864	576.1
404.242	597.34
404.62	582.88
404.999	588.53
405.377	586.95
405.755	598.02
406.133	617.46
406.511	651.8
406.889	631.01
407.267	619.49
407.645	663.33
408.023	647.29
408.401	674.63
408.779	644.8
409.156	643.67
409.534	653.39
409.912	683.67
410.29	668.98
410.667	683.67
411.045	698.81
411.422	677.11
411.8	719.37
412.178	694.74
412.555	710.56
412.933	717.34
413.31	729.09
413.687	726.15
414.065	748.07
414.442	735.64
414.819	786.49
415.197	789.88
415.574	773.84
415.951	758.92
416.328	806.6
416.705	790.78
417.082	782.2
417.46	763.67
417.837	825.59
418.214	827.85
418.591	809.31
418.967	814.29
419.344	820.84
419.721	858.13
420.098	845.92
420.475	849.09
420.852	854.51
421.228	871.01
421.605	861.29
421.982	895.41
422.358	881.18
422.735	898.13
423.111	895.41
423.488	897.22
423.864	881.86
424.241	902.87
424.617	928.18
424.994	933.38
425.37	936.54
425.746	932.7
426.123	981.51
426.499	943.55
426.875	953.49
427.251	1003.21
427.627	1002.53
428.003	1015.86
428.379	1003.66
428.756	1012.93
429.132	1025.81
429.507	1040.5
429.883	1036.65
430.259	1042.3
430.635	1098.35
431.011	1081.62
431.387	1105.35
431.763	1092.92
432.138	1121.17
432.514	1153.49
432.89	1138.12
433.265	1169.98
433.641	1190.55
434.016	1146.93
434.392	1228.96
434.767	1213.15
435.143	1218.34
435.518	1193.94
435.894	1261.51
436.269	1250.43
436.644	1247.27
437.02	1253.15
437.395	1270.77
437.77	1292.24
438.145	1311.22
438.52	1304.44
438.895	1355.29
439.271	1312.13
439.646	1321.17
440.021	1347.15
440.395	1351.45
440.77	1333.37
441.145	1353.93
441.52	1382.41
441.895	1369.3
442.27	1376.31
442.645	1383.09
443.019	1409.53
443.394	1411.78
443.769	1423.31
444.143	1422.18
444.518	1433.48
444.892	1419.47
445.267	1458.56
445.641	1475.51
446.016	1464.89
446.39	1478
446.764	1506.02
447.139	1481.16
447.513	1485.91
447.887	1526.13
448.262	1514.83
448.636	1518.45
449.01	1564.55
449.384	1563.19
449.758	1564.78
450.132	1599.12
450.506	1562.52
450.88	1607.71
451.254	1595.28
451.628	1616.3
452.002	1628.28
452.376	1627.37
452.75	1663.53
453.123	1700.82
453.497	1702.62
453.871	1719.57
454.244	1779.91
454.618	1754.83
454.992	1776.3
455.365	1768.84
455.739	1843.19
456.112	1797.09
456.486	1819.68
456.859	1866.01
457.232	1897.65
457.606	1911.21
457.979	1948.04
458.352	1948.49
458.725	1986.91
459.099	1972.67
459.472	1994.14
459.845	2058.55
460.218	2051.54
460.591	2079.34
460.964	2105.78
461.337	2111.65
461.71	2170.86
462.083	2169.73
462.456	2169.73
462.829	2203.4
463.201	2232.78
463.574	2252.67
463.947	2306.45
464.32	2307.58
464.692	2315.49
465.065	2337.18
465.438	2355.26
465.81	2368.37
466.183	2420.35
466.555	2462.38
466.928	2494.92
467.3	2451.08
467.672	2476.16
468.045	2558.65
468.417	2548.7
468.789	2583.51
469.161	2633.22
469.534	2651.98
469.906	2702.82
470.278	2705.08
470.65	2762.03
471.022	2798.42
471.394	2817.62
471.766	2829.37
472.138	2878.86
472.51	2966.77
472.882	2966.09
473.253	2985.08
473.625	3052.65
473.997	3106.2
474.369	3122.93
474.74	3141
475.112	3211.96
475.484	3261.68
475.855	3285.86
476.227	3336.25
476.598	3428.46
476.97	3464.39
477.341	3557.27
477.713	3573.76
478.084	3561.33
478.455	3726.75
478.827	3718.84
479.198	3792.97
479.569	3831.61
479.94	3952.28
480.311	3976.24
480.682	4053.52
481.053	4140.07
481.424	4244.7
481.795	4233.86
482.166	4313.86
482.537	4375.77
482.908	4482.21
483.279	4519.5
483.65	4655.09
484.021	4747.97
484.391	4808.76
484.762	4852.6
485.133	4881.07
485.503	4994.06
485.874	5154.29
486.244	5157.45
486.615	5265.69
486.985	5338.01
487.356	5475.63
487.726	5584.78
488.097	5683.09
488.467	5747.72
488.837	5847.83
489.207	5925.79
489.578	6018.22
489.948	6132.11
490.318	6224.54
490.688	6304.31
491.058	6428.83
491.428	6534.36
491.798	6602.16
492.168	6774.81
492.538	6801.02
492.908	7009.38
493.278	7053.44
493.648	7123.73
494.017	7300.22
494.387	7387
494.757	7441.46
495.126	7557.39
495.496	7641.23
495.866	7757.83
496.235	7847.55
496.605	8019.97
496.974	8070.14
497.344	8225.17
497.713	8303.13
498.082	8392.84
498.452	8508.55
498.821	8615.66
499.19	8787.64
499.559	8881.19
499.928	8980.85
500.298	9041.64
500.667	9181.52
501.036	9285.48
501.405	9389.65
501.774	9466.71
502.143	9558.69
502.512	9670.55
502.88	9838.68
503.249	9902.86
503.618	10016.08
503.987	10093.59
504.356	10255.39
504.724	10309.63
505.093	10415.39
505.462	10519.12
505.83	10618.1
506.199	10699.68
506.567	10894.02
506.936	10942.16
507.304	11135.15
507.672	11228.25
508.041	11279.55
508.409	11375.36
508.777	11527.9
509.145	11714.34
509.514	11725.19
509.882	11781.23
510.25	11935.12
510.618	12010.15
510.986	12094.44
511.354	12273.65
511.722	12373.53
512.09	12488.1
512.458	12461.89
512.826	12685.39
513.193	12746.63
513.561	12863.46
513.929	12851.26
514.297	13040.86
514.664	13159.95
515.032	13246.05
515.4	13327.63
515.767	13421.64
516.135	13638.58
516.502	13559.49
516.869	13783.89
517.237	13834.51
517.604	13806.49
517.972	14071.57
518.339	14021.85
518.706	14186.82
519.073	14298.23
519.44	14419.8
519.808	14553.59
520.175	14611.89
520.542	14807.82
520.909	14961.71
521.276	14902.05
521.643	15122.38
522.009	15216.17
522.376	15405.99
522.743	15441.25
523.11	15711.3
523.477	15885.75
523.843	15853.89
524.21	16106.77
524.577	16206.88
524.943	16355.35
525.31	16364.84
525.676	16656.36
526.043	16721.89
526.409	16843.92
526.776	17001.66
527.142	17042.79
527.508	17183.35
527.874	17367.3
528.241	17446.17
528.607	17546.73
528.973	17760.73
529.339	17777.46
529.705	17980.39
530.071	18169.76
530.437	18244.79
530.803	18501.28
531.169	18525.23
531.535	18571.79
531.901	18680.48
532.267	18722.06
532.632	18862.85
532.998	18967.26
533.364	19113.01
533.73	19153.47
534.095	19345.78
534.461	19380.58
534.826	19467.81
535.192	19548.71
535.557	19702.83
535.923	19761.58
536.288	19869.83
536.653	19908.47
537.019	20061.92
537.384	20173.78
537.749	20218.75
538.114	20286.32
538.479	20251.52
538.845	20399.53
539.21	20380.1
539.575	20486.31
539.94	20559.53
540.305	20674.78
540.67	20744.61
541.034	20895.79
541.399	20862.57
541.764	20947.99
542.129	21077.93
542.494	21077.71
542.858	21134.43
543.223	21103.02
543.587	21362.45
543.952	21389.56
544.316	21423.69
544.681	21359.73
545.045	21480.64
545.41	21582.78
545.774	21627.07
546.138	21604.93
546.503	21753.85
546.867	21740.29
547.231	22018.93
547.595	21985.93
547.959	22074.74
548.324	22003.79
548.688	22082.65
549.052	22133.95
549.416	22231.35
549.779	22236.1
550.143	22326.49
550.507	22462.08
550.871	22512.92
551.235	22391.35
551.599	22702.52
551.962	22735.29
552.326	22771.9
552.689	22750.88
553.053	22685.12
553.417	22773.48
553.78	23068.39
554.143	23048.28
554.507	23225.22
554.87	23259.12
555.234	23498.89
555.597	23284.88
555.96	23372.79
556.323	23492.33
556.686	23584.31
557.05	23783.17
557.413	23767.58
557.776	23702.05
558.139	23992.43
558.502	23953.34
558.865	24085.31
559.228	24296.38
559.59	24300.67
559.953	24252.31
560.316	24729.59
560.679	24654.56
561.041	24772.53
561.404	24923.71
561.767	24952.63
562.129	24980.2
562.492	25196.7
562.854	25181.56
563.217	25192.85
563.579	25355.11
563.941	25524.82
564.304	25633.75
564.666	25906.28
565.028	25901.54
565.39	25916.45
565.753	26184.24
566.115	26275.76
566.477	26441.64
566.839	26498.13
567.201	26793.94
567.563	26552.14
567.925	26931.79
568.287	26973.82
568.648	27021.96
569.01	27178.34
569.372	27348.05
569.734	27476.86
570.095	27549.63
570.457	27801.15
570.819	27765.22
571.18	27964.53
571.542	28071.2
571.903	28280.46
572.265	28454.92
572.626	28809.71
572.987	28730.61
573.349	28762.7
573.71	29101
574.071	29133.54
574.432	29186.42
574.794	29588.9
575.155	29521.55
575.516	29700.08
575.877	29784.15
576.238	29968.77
576.599	30100.97
576.96	30275.43
577.32	30468.2
577.681	30558.36
578.042	30898.24
578.403	30938.47
578.763	30976.66
579.124	31125.81
579.485	31449.64
579.845	31721.5
580.206	31655.06
580.566	31896.41
580.927	32023.41
581.287	32354.7
581.648	32524.87
582.008	32794.24
582.368	33039.65
582.728	33264.73
583.089	33290.04
583.449	33610.94
583.809	33871.5
584.169	34081.43
584.529	34163.92
584.889	34694.07
585.249	34702.21
585.609	34824.69
585.969	35285.7
586.329	35594.16
586.688	35835.06
587.048	36178.55
587.408	36370.41
587.768	36698.09
588.127	37138.3
588.487	37202.71
588.846	37821.22
589.206	37898.06
589.565	38211.95
589.925	38811.25
590.284	39060.74
590.643	39335.76
591.003	39625.92
591.362	40356.3
591.721	40387.26
592.08	40753.58
592.44	41382.94
592.799	41609.15
593.158	41943.37
593.517	42443.47
593.876	42638.27
594.235	43058.37
594.593	43363.45
594.952	43758.92
595.311	43989.42
595.67	44532.68
596.029	45021.71
596.387	45365.21
596.746	45771.75
597.104	45948.92
597.463	46370.6
597.822	46815.11
598.18	46969.68
598.538	47329
598.897	47751.13
599.255	47942.31
599.613	48620.26
599.972	48680.15
600.33	49023.87
600.688	49264.76
601.046	49674.24
601.404	50098.64
601.762	50241.69
602.12	50541.79
602.478	50857.94
602.836	51161.21
603.194	51115.79
603.552	51435.78
603.91	51731.82
604.268	52009.78
604.625	52177.68
604.983	52587.16
605.341	52545.13
605.698	53039.58
606.056	53188.28
606.413	53242.51
606.771	53612.45
607.128	53749.84
607.485	53919.78
607.843	54008.59
608.2	54396.61
608.557	54552.08
608.914	54556.38
609.272	54910.04
609.629	55151.16
609.986	55317.49
610.343	55447.43
610.7	55692.17
611.057	55743.46
611.414	55954.76
611.771	56207.86
612.127	56319.27
612.484	56467.29
612.841	56616.44
613.198	56560.39
613.554	56606.72
613.911	56987.72
614.267	57127.83
614.624	57135.29
614.98	57237.44
615.337	57467.94
615.693	57554.26
616.05	57714.94
616.406	57847.82
616.762	57884.88
617.118	57912.45
617.475	57952.9
617.831	58157.86
618.187	58335.03
618.543	58342.27
618.899	58547.23
619.255	58607.8
619.611	58568.7
619.967	58784.29
620.323	58826.32
620.678	58748.13
621.034	58822.03
621.39	58909.71
621.746	58952.64
622.101	59278.96
622.457	58996.03
622.812	59267.66
623.168	59326.42
623.523	59339.75
623.879	59483.7
624.234	59390.6
624.589	59433.99
624.945	59558.05
625.3	59537.94
625.655	59588.79
626.01	59629.92
626.365	59685.73
626.72	59713.3
627.075	59722.79
627.43	59721.66
627.785	59726.86
628.14	59843.47
628.495	59841.44
628.85	59888.67
629.205	59807.31
629.559	59975.89
629.914	59901.09
630.269	59892.96
630.623	59800.31
630.978	59813.41
631.332	59947.42
631.687	59937.25
632.041	59938.61
632.396	59942
632.75	59866.97
633.104	59910.13
633.459	59850.7
633.813	59859.97
634.167	59826.97
634.521	59847.08
634.875	59924.37
635.229	59862.45
635.583	59752.85
635.937	59734.77
636.291	59768.67
636.645	59809.8
636.999	59695.9
637.352	59760.31
637.706	59671.72
638.06	59773.87
638.413	59720.53
638.767	59678.28
639.121	59687.54
639.474	59590.59
639.828	59531.84
640.181	59574.32
640.534	59653.19
640.888	59537.26
641.241	59378.62
641.594	59466.53
641.947	59593.76
642.301	59448.23
642.654	59534.78
643.007	59435.8
643.36	59459.3
643.713	59380.2
644.066	59533.42
644.419	59281.9
644.771	59045.52
645.124	58773.67
645.477	58851.4
645.83	58669.26
646.182	58655.93
646.535	58567.57
646.888	58713.33
647.24	58631.3
647.593	58694.35
647.945	58589.72
648.298	58619.55
648.65	58427.69
649.002	58322.38
649.355	58340.46
649.707	58301.59
650.059	58285.77
650.411	58624.29
650.763	58653.9
651.115	59068.8
651.467	58985.86
651.819	58943.83
652.171	58892.53
652.523	58853.66
652.875	58840.78
653.227	58784.06
653.578	58953.55
653.93	58800.78
654.282	58749.49
654.633	58653.9
654.985	58715.81
655.337	58733.44
655.688	58645.31
656.039	58811.41
656.391	58509.04
656.742	58604.63
657.094	58607.34
657.445	58593.11
657.796	58537.97
658.147	58473.34
658.498	58536.38
658.849	58623.16
659.2	58500.45
659.551	58516.5
659.902	58625.65
660.253	58385.43
660.604	58479.21
660.955	58368.03
661.306	58481.92
661.656	58381.36
662.007	58398.54
662.358	58350.4
662.708	58405.09
663.059	58423.85
663.409	58219.33
663.76	58332.55
664.11	58422.04
664.461	58349.04
664.811	58319.44
665.161	58325.99
665.511	58266.56
665.862	58352.43
666.212	58360.57
666.562	58332.55
666.912	58189.5
667.262	58150.18
667.612	58184.3
667.962	58206.45
668.312	58168.48
668.662	58382.94
669.011	58200.12
669.361	58230.4
669.711	58269.72
670.06	58142.5
670.41	58075.38
670.76	58104.53
671.109	58208.03
671.459	58098.88
671.808	58093.23
672.157	58241.03
672.507	57995.16
672.856	58013.91
673.205	58045.55
673.554	58128.03
673.904	58058.66
674.253	58223.4
674.602	58007.58
674.951	57724.2
675.3	57612.79
675.649	58037.87
675.998	58050.07
676.346	58052.33
676.695	58028.6
677.044	57893.92
677.393	57920.36
677.741	57990.86
678.09	57928.72
678.438	57917.19
678.787	57915.16
679.135	57961.26
679.484	57753.35
679.832	57810.3
680.181	57768.5
680.529	57791.55
680.877	57730.08
681.225	57705.9
681.573	57862.28
681.922	57713.36
682.27	57771.66
682.618	57745.67
682.966	57566.69
683.314	57643.07
683.661	57579.8
684.009	57549.74
684.357	57467.94
684.705	57395.17
685.053	57537.31
685.4	57422.29
685.748	57342.52
686.095	57359.24
686.443	57203.54
686.79	57245.35
687.138	57244.22
687.485	57218.68
687.832	57097.33
688.18	57210.32
688.527	57061.62
688.874	57120.38
689.221	57094.61
689.568	56993.6
689.915	56924.68
690.262	56954.73
690.609	56883.55
690.956	56780.95
691.303	56811.01
691.65	56736.21
691.997	56673.83
692.344	56507.06
692.69	56538.7
693.037	56535.76
693.383	56388.64
693.73	56401.53
694.077	56328.31
694.423	56286.73
694.769	56193.4
695.116	56145.04
695.462	56108.88
695.808	56009.22
696.155	56123.34
696.501	55862.33
696.847	55917.02
697.193	55825.95
697.539	55794.99
697.885	55556.58
698.231	55547.08
698.577	55544.15
698.923	55526.52
699.269	55409.01
699.614	55298.73
699.96	55290.37
700.306	55197.94
700.651	55128.11
700.997	55008.57
701.342	54973.99
701.688	55011.73
702.033	54892.64
702.379	54911.17
702.724	54716.82
703.069	54784.62
703.415	54403.16
703.76	54476.15
704.105	54432.99
704.45	54333.33
704.795	54349.6
705.14	54131.3
705.485	54187.12
705.83	53975.83
706.175	54134.47
706.52	54087.69
706.865	53905.09
707.209	53759.34
707.554	53682.73
707.899	53745.78
708.243	53626.68
708.588	53612.67
708.932	53463.07
709.277	53475.27
709.621	53379.46
709.966	53200.71
710.31	53241.16
710.654	53020.82
710.998	53023.08
711.342	53183.3
711.687	52970.2
712.031	52890.43
712.375	52760.04
712.719	52815.86
713.063	52651.34
713.407	52792.58
713.75	52470.78
714.094	52567.5
714.438	52468.75
714.782	52501.97
715.125	52272.82
715.469	52432.14
715.812	52074.63
716.156	52015.65
716.499	52137
716.843	52191.92
717.186	51936.56
717.53	52024.01
717.873	51998.48
718.216	51836.9
718.559	51829.44
718.902	51462.45
719.246	51588.09
719.589	51563.46
719.932	51439.62
720.275	51406.18
720.617	51409.57
720.96	51381.54
721.303	51422.9
721.646	51362.79
721.989	51121.44
722.331	51158.27
722.674	51089.12
723.016	51101.33
723.359	50894.55
723.701	50959.41
724.044	50812.07
724.386	50574.11
724.729	50759.64
725.071	50814.33
725.413	50677.83
725.755	50658.17
726.097	50533.88
726.439	50425.64
726.782	50283.49
727.124	50601.23
727.465	50421.8
727.807	50241.46
728.149	50453.43
728.491	50272.65
728.833	50204.17
729.175	50210.28
729.516	50051.18
729.858	50086.44
730.199	50046.21
730.541	50131.63
730.882	50015.48
731.224	49998.08
731.565	49780.68
731.906	49885.54
732.248	49745.43
732.589	49738.65
732.93	49629.95
733.271	49568.48
733.612	49573.46
733.953	49710.63
734.294	49490.52
734.635	49426.34
734.976	49484.87
735.317	49333.24
735.658	49224.31
735.999	49130.3
736.339	49237.19
736.68	49120.81
737.021	49172.79
737.361	48942.06
737.702	49133.02
738.042	49020.02
738.383	49033.58
738.723	48997.2
739.063	48780.26
739.404	48895.51
739.744	48855.96
740.084	48729.86
740.424	48819.58
740.764	48631.11
741.104	48786.58
741.444	48516.31
741.784	48383.88
742.124	48558.34
742.464	48446.71
742.804	48366.03
743.143	48402.19
743.483	48450.77
743.823	48265.47
744.162	48212.81
744.502	48191.57
744.841	48090.78
745.181	48199.71
745.52	48075.42
745.86	48084.23
746.199	48055.76
746.538	47987.96
746.877	47940.5
747.216	47927.4
747.556	47759.72
747.895	47846.72
748.234	47698.7
748.573	47584.36
748.911	47550.68
749.25	47612.6
749.589	47348.2
749.928	47411.48
750.267	47351.59
750.605	47247.64
750.944	47262.33
751.283	46984.6
751.621	47223.01
751.96	46887.43
752.298	46930.81
752.636	46911.15
752.975	46754.32
753.313	46637.94
753.651	46885.17
753.989	46508.23
754.327	46569.47
754.666	46393.65
755.004	46531.5
755.342	46319.76
755.679	46344.84
756.017	46002.25
756.355	46111.17
756.693	46066.2
757.031	46037.28
757.368	45816.04
757.706	45835.25
758.044	45540.12
758.381	45475.26
758.719	45334.25
759.056	45442.94
759.394	45226.9
759.731	44966.8
760.068	45010.19
760.405	44941.26
760.743	44696.52
761.08	44801.15
761.417	44522.74
761.754	44379.92
762.091	44285.91
762.428	44138.12
762.765	44013.83
763.102	43986.48
763.438	43878.92
763.775	43739.49
764.112	43671.24
764.449	43620.62
764.785	43546.27
765.122	43255.2
765.458	43194.64
765.795	43047.3
766.131	42984.7
766.467	42777.02
766.804	42594.66
767.14	42509.91
767.476	42519.63
767.812	42359.41
768.148	42425.4
768.485	42123.71
768.821	41911.06
769.157	41716.49
769.492	41655.7
769.828	41646.21
770.164	41271.98
770.5	41215.26
770.836	41180.91
771.171	41009.84
771.507	40838.32
771.842	40548.61
772.178	40558.1
772.513	40469.06
772.849	40215.51
773.184	40230.2
773.519	40018.91
773.855	39924.67
774.19	39783.43
774.525	39630.22
774.86	39598.58
775.195	39408.75
775.53	39288.76
775.865	39062.32
776.2	38822.78
776.535	38702.33
776.87	38669.79
777.205	38365.84
777.539	38331.72
777.874	38385.95
778.209	38051.5
778.543	37964.5
778.878	37682.47
779.212	37745.74
779.547	37450.84
779.881	37622.36
780.215	37108.47
780.55	37196.83
780.884	36952.09
781.218	36860.12
781.552	36842.04
781.886	36725.66
782.22	36420.81
782.554	36215.84
782.888	35913.25
783.222	35990.08
783.556	35723.88
783.889	35817.43
784.223	35386.26
784.557	35461.96
784.89	35519.81
785.224	35144.23
785.557	35082.99
785.891	34929.77
786.224	34850.23
786.558	34791.92
786.891	34570.01
787.224	34384.03
787.557	34267.87
787.891	34122.79
788.224	34084.82
788.557	34004.15
788.89	33925.28
789.223	33898.16
789.556	33556.02
789.888	33498.4
790.221	33378.18
790.554	33243.26
790.887	33171.18
791.219	33150.61
791.552	32915.59
791.884	32777.06
792.217	32710.17
792.549	32572.77
792.882	32457.97
793.214	32292.55
793.546	32266.79
793.879	32093.46
794.211	31794.26
794.543	32072
794.875	31868.16
795.207	31793.58
795.539	31627.49
795.871	31760.59
796.203	31528.06
796.535	31159.7
796.867	31301.85
797.198	31036.99
797.53	31008.07
797.862	30800.84
798.193	30785.93
798.525	30692.14
798.856	30745.7
799.188	30333.96
799.519	30309.78
799.85	30128.09
800.182	30239.95
800.513	30256.68
800.844	29786.18
801.175	30011.48
801.506	29922.45
801.837	29718.39
802.168	29784.15
802.499	29692.85
802.83	29402.24
803.161	29452.63
803.491	29262.58
803.822	29540.31
804.153	29064.84
804.483	29043.83
804.814	28867.11
805.145	28870.72
805.475	28955.69
805.805	28694.23
806.136	28828.47
806.466	28631.86
806.796	28604.29
807.126	28511.86
807.457	28387.35
807.787	28439.55
808.117	28276.84
808.447	28074.81
808.777	28176.5
809.107	27847.25
809.436	27895.61
809.766	27788.04
810.096	27931.09
810.426	27663.52
810.755	27794.37
811.085	27742.62
811.414	27674.15
811.744	27440.03
812.073	27436.64
812.403	27225.57
812.732	27227.6
813.061	27361.61
813.39	27015.41
813.719	26986.93
814.049	27096.08
814.378	26933.6
814.707	26702.87
815.036	26823.77
815.365	26587.17
815.693	26616.32
816.022	26515.31
816.351	26488.87
816.68	26415.2
817.008	26477.57
817.337	26136.78
817.665	26026.96
817.994	26245.48
818.322	26145.6
818.651	26064.02
818.979	25919.62
819.307	25927.3
819.636	25889.11
819.964	25757.36
820.292	25906.06
820.62	25769.11
820.948	25844.81
821.276	25986.73
821.604	25758.72
821.932	26068.99
822.259	25824.48
822.587	25656.8
822.915	25734.54
823.243	25798.26
823.57	25588.55
823.898	25709.9
824.225	25714.2
824.553	25632.17
824.88	25766.85
825.207	25715.55
825.535	25640.07
825.862	25840.52
826.189	25767.75
826.516	25872.16
826.843	25794.42
827.17	25907.86
827.497	25723.91
827.824	25742.22
828.151	25860.18
828.478	25703.8
828.805	25898.82
829.131	25795.32
829.458	25830.13
829.785	25614.76
830.111	25718.94
830.438	25799.39
830.764	25659.28
831.09	25776.57
831.417	25648.89
831.743	25792.84
832.069	25660.19
832.395	25646.18
832.722	25744.93
833.048	25613.18
833.374	25622.9
833.7	25582.22
834.026	25548.1
834.351	25579.29
834.677	25551.26
835.003	25467.42
835.329	25492.28
835.654	25540.19
835.98	25322.34
836.306	25412.74
836.631	25358.5
836.956	25466.52
837.282	25426.52
837.607	25344.26
837.932	25290.25
838.258	25191.27
838.583	25125.06
838.908	25023.14
839.233	25203.93
839.558	25051.84
839.883	25014.78
840.208	24781.57
840.533	24972.97
840.858	24917.16
841.182	24818.63
841.507	24939.53
841.832	24677.39
842.156	24785.86
842.481	24676.48
842.805	24584.28
843.13	24577.28
843.454	24499.54
843.778	24518.07
844.103	24510.84
844.427	24392.2
844.751	24424.29
845.075	24298.87
845.399	24292.31
845.723	24180.45
846.047	24259.55
846.371	23920.12
846.695	23825.66
847.019	23892.32
847.343	23610.75
847.666	23584.99
847.99	23487.59
848.313	23399
848.637	23271.1
848.96	23393.81
849.284	23289.4
849.607	22963.76
849.931	22882.86
850.254	22818.45
850.577	22730.77
850.9	22586.6
851.223	22547.05
851.546	22551.79
851.869	22480.84
852.192	22531.23
852.515	22241.07
852.838	22191.58
853.161	22100.51
853.483	22011.24
853.806	21882.21
854.129	21906.84
854.451	21910.91
854.774	21717.92
855.096	21626.17
855.419	21555.21
855.741	21508.21
856.063	21394.31
856.385	21330.13
856.708	21275.67
857.03	21246.07
857.352	21278.38
857.674	21152.06
857.996	21120.42
858.318	20987.09
858.64	21055.56
858.961	20818.73
859.283	20731.05
859.605	20675.69
859.926	20726.98
860.248	20645.63
860.57	20552.75
860.891	20544.16
861.212	20492.64
861.534	20365.41
861.855	20421.68
862.176	20345.07
862.498	20326.99
862.819	20380.78
863.14	20231.63
863.461	20183.72
863.782	20116.6
864.103	20071.18
864.424	20024.85
864.745	20019.88
865.065	19911.64
865.386	19851.3
865.707	19958.42
866.027	19821.92
866.348	19878.87
866.668	19789.38
866.989	19804.07
867.309	19670.74
867.63	19647.24
867.95	19729.27
868.27	19562.95
868.59	19696.28
868.91	19510.74
869.23	19573.79
869.55	19386.91
869.87	19473
870.19	19310.52
870.51	19436.17
870.83	19421.93
871.15	19280.24
871.469	19151.21
871.789	19309.62
872.109	19284.76
872.428	19111.66
872.748	19286.57
873.067	19158.44
873.386	19107.14
873.706	19078.67
874.025	18977.2
874.344	19061.72
874.663	19021.04
874.982	18904.43
875.301	18956.86
875.62	18805.9
875.939	18747.15
876.258	18807.49
876.577	18703.31
876.896	18741.27
877.214	18649.98
877.533	18638
877.852	18685.91
878.17	18670.99
878.489	18640.03
878.807	18623.31
879.125	18622.18
879.444	18573.14
879.762	18503.76
880.08	18486.82
880.398	18371.79
880.716	18341.51
881.034	18336.54
881.352	18288.4
881.67	18179.93
881.988	18261.96
882.306	18155.75
882.624	18148.52
882.941	18056.77
883.259	18030.78
883.577	17942.42
883.894	17865.59
884.212	17900.62
884.529	17962.54
884.846	17720.28
885.164	17790.79
885.481	17701.3
885.798	17760.06
886.115	17537.01
886.432	17718.7
886.75	17631.25
887.067	17631.7
887.383	17580.63
887.7	17550.57
888.017	17354.64
888.334	17380.4
888.651	17369.11
888.967	17311.03
889.284	17229.9
889.6	17236.23
889.917	17062.9
890.233	17109.23
890.55	17055.22
890.866	17040.75
891.182	16969.79
891.498	16941.55
891.815	16811.83
892.131	16712.63
892.447	16668.33
892.763	16578.84
893.079	16657.71
893.395	16557.83
893.71	16481.67
894.026	16461.11
894.342	16464.27
894.657	16304.27
894.973	16371.39
895.289	16248
895.604	16250.94
895.92	16143.83
896.235	16030.16
896.55	15971.4
896.865	16033.77
897.181	15899.54
897.496	15925.53
897.811	15870.16
898.126	15834.68
898.441	15706.78
898.756	15736.61
899.071	15580.45
899.386	15690.05
899.7	15569.83
900.015	15539.55
900.33	15449.16
900.644	15363.51
900.959	15318.76
901.273	15254.58
901.588	15186.11
901.902	15159.9
902.216	15149.95
902.531	15077.41
902.845	15060.92
903.159	14872.67
903.473	14939.79
903.787	14743.64
904.101	14729.4
904.415	14743.19
904.729	14769.17
905.042	14570.53
905.356	14561.72
905.67	14587.71
905.984	14563.76
906.297	14443.31
906.611	14358.79
906.924	14235.63
907.237	14237.21
907.551	14260.03
907.864	14203.09
908.177	14125.35
908.491	14060.27
908.804	14033.6
909.117	13878.12
909.43	13832.02
909.743	13819.14
910.056	13799.93
910.368	13782.76
910.681	13698.47
910.994	13636.55
911.307	13477
911.619	13426.61
911.932	13402.66
912.244	13343.45
912.557	13340.74
912.869	13279.95
913.181	13197.69
913.494	13143.68
913.806	13114.53
914.118	13066.17
914.43	13001.76
914.742	12941.88
915.054	12861.65
915.366	12809
915.678	12750.24
915.99	12729.45
916.302	12684.26
916.613	12599.51
916.925	12595.22
917.236	12560.42
917.548	12456.01
917.859	12466.64
918.171	12324.72
918.482	12299.86
918.794	12170.6
919.105	12175.57
919.416	12093.54
919.727	12086.08
920.038	12025.07
920.349	11975.12
920.66	11891.51
920.971	11886.54
921.282	11841.34
921.593	11747.33
921.903	11694.68
922.214	11698.75
922.525	11639.31
922.835	11564.51
923.146	11435.93
923.456	11484.51
923.767	11350.51
924.077	11347.79
924.387	11265.76
924.697	11231.41
925.008	11244.97
925.318	11132.89
925.628	11197.29
925.938	11106.9
926.248	11004.53
926.558	10989.39
926.867	10942.83
927.177	10895.83
927.487	10822.38
927.796	10772.67
928.106	10789.17
928.416	10686.57
928.725	10732.9
929.034	10661.03
929.344	10544.2
929.653	10567.7
929.962	10482.96
930.271	10447.71
930.581	10429.63
930.89	10424.88
931.199	10321.83
931.508	10253.36
931.817	10186.02
932.125	10229.18
932.434	10101.5
932.743	10037.77
933.051	10012.69
933.36	9884.78
933.669	9934.05
933.977	9896.76
934.286	9847.95
934.594	9811.34
934.902	9709.87
935.21	9686.6
935.519	9636.2
935.827	9622.42
936.135	9605.92
936.443	9449.31
936.751	9483.89
937.059	9506.26
937.367	9373.84
937.674	9457.9
937.982	9386.94
938.29	9360.5
938.597	9279.83
938.905	9204.12
939.213	9125.93
939.52	9113.28
939.827	9128.64
940.135	9103.56
940.442	8978.37
940.749	9006.39
941.056	9056.1
941.363	8876.22
941.67	8860.85
941.977	8827.64
942.284	8730.69
942.591	8760.52
942.898	8712.16
943.205	8676.45
943.511	8639.39
943.818	8612.73
944.125	8513.97
944.431	8488.43
944.738	8472.84
945.044	8457.25
945.35	8353.98
945.657	8407.53
945.963	8347.65
946.269	8384.03
946.575	8310.13
946.881	8213.19
947.187	8170.25
947.493	8117.82
947.799	8142.91
948.105	8058.84
948.41	8020.88
948.716	8010.71
949.022	7947.21
949.327	7974.78
949.633	7824.95
949.938	7840.54
950.244	7878.06
950.549	7697.27
950.854	7741.79
951.16	7741.56
951.465	7676.7
951.77	7617.95
952.075	7595.8
952.38	7523.49
952.685	7528.01
952.99	7526.65
953.294	7514.9
953.599	7459.76
953.904	7419.31
954.209	7302.93
954.513	7330.95
954.818	7369.82
955.122	7285.75
955.426	7282.14
955.731	7220.45
956.035	7179.77
956.339	7130.5
956.643	7126.44
956.948	7019.77
957.252	7004.18
957.556	7036.72
957.86	6978.19
958.163	6953.11
958.467	6974.12
958.771	6854.13
959.075	6877.4
959.378	6802.83
959.682	6886.44
959.985	6764.86
960.289	6740.46
960.592	6675.6
960.896	6624.3
961.199	6615.26
961.502	6596.51
961.805	6613
962.108	6527.13
962.411	6520.13
962.714	6521.03
963.017	6473.57
963.32	6437.19
963.623	6437.19
963.926	6395.38
964.228	6372.33
964.531	6339.56
964.833	6332.79
965.136	6290.53
965.438	6245.33
965.741	6223.18
966.043	6149.74
966.345	6145.45
966.648	6125.33
966.95	6118.1
967.252	6086.24
967.554	6015.05
967.856	6011.44
968.158	5984.77
968.46	5931.89
968.761	5927.82
969.063	5927.37
969.365	5888.73
969.666	5867.94
969.968	5850.31
970.269	5778.45
970.571	5799.47
970.872	5763.99
971.174	5729.86
971.475	5720.6
971.776	5725.8
972.077	5668.17
972.378	5603.54
972.679	5601.28
972.98	5537.33
973.281	5545.69
973.582	5552.24
973.883	5513.37
974.183	5477.67
974.484	5462.3
974.785	5442.64
975.085	5410.78
975.386	5385.01
975.686	5341.63
975.986	5317.9
976.287	5275.41
976.587	5251.46
976.887	5222.31
977.187	5269.54
977.487	5228.18
977.787	5204.91
978.087	5183.21
978.387	5109.99
978.687	5086.04
978.987	5121.52
979.286	5067.06
979.586	4996.1
979.885	5013.05
980.185	4993.84
980.484	4862.54
980.784	4982.09
981.083	4930.34
981.382	4908.42
981.682	4866.16
981.981	4895.08
982.28	4882.2
982.579	4824.35
982.878	4794.97
983.177	4805.37
983.475	4757.91
983.774	4692.6
984.073	4718.59
984.372	4658.03
984.67	4651.47
984.969	4682.43
985.267	4618.48
985.566	4638.59
985.864	4571.48
986.162	4523.57
986.461	4499.16
986.759	4494.19
987.057	4520.18
987.355	4430.69
987.653	4418.03
987.951	4424.36
988.249	4371.48
988.547	4351.37
988.844	4362.67
989.142	4352.5
989.44	4301.43
989.737	4290.81
990.035	4302.56
990.332	4211.03
990.63	4211.71
990.927	4229.34
991.224	4215.33
991.521	4157.93
991.819	4138.72
992.116	4140.07
992.413	4108.89
992.71	4083.35
993.006	4070.47
993.303	4034.54
993.6	4044.71
993.897	4031.15
994.193	4011.26
994.49	3967.65
994.787	3942.34
995.083	3928.55
995.379	3896.92
995.676	3880.42
995.972	3885.17
996.268	3834.32
996.565	3835
996.861	3811.72
997.157	3824.83
997.453	3738.05
997.749	3737.37
998.044	3663.93
998.34	3687.21
998.636	3699.86
998.932	3658.28
999.227	3637.94
999.523	3614.66
999.818	3589.58
1000.114	3602.24
1000.409	3553.2
1000.704	3544.38
1001	3529.47
1001.295	3508.23
1001.59	3477.72
1001.885	3480.66
1002.18	3427.1
1002.475	3442.92
1002.77	3435.01
1003.065	3402.47
1003.359	3375.35
1003.654	3345.29
1003.949	3345.52
1004.243	3347.78
1004.538	3277.95
1004.832	3267.33
1005.127	3247.22
1005.421	3218.07
1005.715	3209.25
1006.009	3213.55
1006.304	3201.57
1006.598	3187.56
1006.892	3148.24
1007.186	3114.79
1007.48	3142.36
1007.773	3060.78
1008.067	3070.27
1008.361	3047
1008.655	3011.52
1008.948	2998.64
1009.242	2978.75
1009.535	2972.65
1009.829	2952.31
1010.122	2894.01
1010.415	2921.8
1010.708	2877.06
1011.001	2894.23
1011.295	2850.39
1011.588	2869.6
1011.881	2856.94
1012.173	2785.08
1012.466	2803.16
1012.759	2775.14
1013.052	2751.41
1013.344	2755.7
1013.637	2739.66
1013.93	2669.6
1014.222	2708.25
1014.514	2646.78
1014.807	2656.5
1015.099	2632.09
1015.391	2608.36
1015.683	2626.67
1015.976	2561.13
1016.268	2550.51
1016.56	2550.96
1016.851	2513.45
1017.143	2551.87
1017.435	2504.41
1017.727	2492.43
1018.018	2485.88
1018.31	2483.62
1018.602	2455.15
1018.893	2438.2
1019.185	2407.46
1019.476	2404.08
1019.767	2381.25
1020.058	2390.97
1020.35	2296.73
1020.641	2334.7
1020.932	2300.12
1021.223	2299.45
1021.514	2272.55
1021.804	2236.62
1022.095	2225.77
1022.386	2235.72
1022.677	2215.38
1022.967	2198.88
1023.258	2198.43
1023.548	2129.51
1023.839	2149.84
1024.129	2118.88
1024.419	2143.97
1024.709	2093.8
1025	2087.25
1025.29	2077.3
1025.58	2028.04
1025.87	2021.49
1026.16	2029.17
1026.449	2008.61
1026.739	2023.52
1027.029	2007.48
1027.319	1947.82
1027.608	1955.5
1027.898	1979.23
1028.187	1905.56
1028.477	1913.47
1028.766	1898.33
1029.055	1913.47
1029.344	1878.44
1029.634	1873.02
1029.923	1848.38
1030.212	1820.59
1030.501	1821.27
1030.79	1790.53
1031.078	1784.66
1031.367	1787.37
1031.656	1776.3
1031.945	1765.9
1032.233	1767.71
1032.522	1698.11
1032.81	1699.23
1033.099	1686.35
1033.387	1675.28
1033.675	1694.94
1033.963	1656.52
1034.251	1645.68
1034.54	1655.17
1034.828	1642.29
1035.116	1610.2
1035.403	1619.46
1035.691	1592.8
1035.979	1601.61
1036.267	1564.1
1036.554	1567.71
1036.842	1552.57
1037.129	1548.28
1037.417	1512.8
1037.704	1512.12
1037.992	1541.72
1038.279	1516.87
1038.566	1478.45
1038.853	1478.45
1039.14	1478.45
