Data from 15-1247_FLMS001491_006.txt Node
Date: Thu Apr 19 16:10:33 BST 2018
User: hsy
Spectrometer: FLMS00149
Trigger mode: 0
Integration Time (sec): 1.000000E-2
Scans to average: 10
Electric dark correction enabled: true
Nonlinearity correction enabled: false
Boxcar width: 0
XAxis mode: Wavelengths
Number of Pixels in Spectrum: 2048
>>>>>Begin Spectral Data<<<<<
341.393	-6.88
341.776	-6.88
342.16	-6.88
342.543	-50.04
342.927	-68.57
343.31	-63.83
343.693	-75.35
344.077	-68.35
344.46	-55.92
344.843	-58.85
345.226	-49.36
345.61	-23.83
345.993	-25.41
346.376	-13.88
346.759	14.82
347.142	31.99
347.525	54.36
347.908	50.75
348.291	77.64
348.674	97.98
349.057	107.24
349.44	127.36
349.823	127.81
350.206	166.68
350.588	200.35
350.971	243.51
351.354	270.63
351.737	278.76
352.119	295.26
352.502	313.57
352.884	311.76
353.267	311.76
353.65	341.36
354.032	353.11
354.414	341.36
354.797	361.93
355.179	344.75
355.562	352.66
355.944	373.45
356.326	380.46
356.709	368.03
357.091	395.82
357.473	385.65
357.855	376.16
358.238	380.23
358.62	384.98
359.002	397.18
359.384	416.84
359.766	396.5
360.148	398.99
360.53	390.85
360.912	378.42
361.294	391.53
361.676	398.08
362.057	373.22
362.439	375.03
362.821	385.88
363.203	378.2
363.584	378.65
363.966	371.64
364.348	373.22
364.729	373.9
365.111	364.86
365.493	380.46
365.874	384.52
366.256	379.78
366.637	407.12
367.019	363.28
367.4	366.9
367.781	362.15
368.163	357.41
368.544	370.74
368.925	374.13
369.306	368.48
369.688	383.17
370.069	367.12
370.45	378.65
370.831	375.48
371.212	368.93
371.593	370.74
371.974	362.15
372.355	388.59
372.736	381.13
373.117	402.15
373.498	375.71
373.879	388.37
374.26	383.17
374.641	372.09
375.021	372.55
375.402	417.74
375.783	401.7
376.163	397.18
376.544	389.27
376.925	377.74
377.305	413
377.686	403.05
378.066	405.31
378.447	386.78
378.827	416.16
379.208	438.53
379.588	426.78
379.968	426.56
380.349	415.26
380.729	421.58
381.109	435.82
381.489	409.83
381.87	418.87
382.25	441.25
382.63	418.65
383.01	429.04
383.39	424.52
383.77	412.55
384.15	413.9
384.53	431.53
384.91	450.28
385.29	439.44
385.67	442.6
386.049	449.61
386.429	467.46
386.809	456.16
387.189	456.16
387.568	439.66
387.948	442.83
388.328	464.75
388.707	454.13
389.087	460.91
389.466	485.76
389.846	469.72
390.225	467.91
390.605	468.82
390.984	474.01
391.363	459.1
391.743	497.74
392.122	503.39
392.501	523.73
392.881	483.05
393.26	497.97
393.639	502.49
394.018	513.79
394.397	510.17
394.776	500.45
395.155	509.49
395.534	495.26
395.913	520.11
396.292	525.54
396.671	522.6
397.05	523.96
397.429	536.61
397.808	537.74
398.186	565.76
398.565	555.82
398.944	542.71
399.323	541.81
399.701	549.49
400.08	560.11
400.458	578.64
400.837	548.81
401.215	565.31
401.594	556.95
401.972	579.09
402.351	581.35
402.729	598.08
403.107	586.1
403.486	550.4
403.864	568.7
404.242	590.62
404.62	594.69
404.999	595.14
405.377	627.23
405.755	603.28
406.133	628.13
406.511	647.57
406.889	622.71
407.267	651.41
407.645	659.09
408.023	627.91
408.401	646.66
408.779	672.43
409.156	686.89
409.534	678.75
409.912	669.49
410.29	698.41
410.667	698.19
411.045	694.35
411.422	702.71
411.8	708.13
412.178	729.15
412.555	745.42
412.933	754.91
413.31	744.29
413.687	756.72
414.065	742.25
414.442	772.08
414.819	751.75
415.197	770.28
415.574	777.73
415.951	781.35
416.328	772.76
416.705	781.8
417.082	808.02
417.46	788.58
417.837	832.65
418.214	841.91
418.591	836.49
418.967	834.91
419.344	821.8
419.721	828.81
420.098	852.99
420.475	845.3
420.852	867.67
421.228	892.53
421.605	878.07
421.982	897.73
422.358	916.26
422.735	921.01
423.111	897.28
423.488	933.89
423.864	928.24
424.241	936.37
424.617	935.47
424.994	930.27
425.37	948.35
425.746	955.58
426.123	968.46
426.499	979.99
426.875	975.47
427.251	1003.49
427.627	996.03
428.003	1003.94
428.379	1026.54
428.756	1030.61
429.132	1059.53
429.507	1050.72
429.883	1065.18
430.259	1071.06
430.635	1075.13
431.011	1103.37
431.387	1123.71
431.763	1124.62
432.138	1138.18
432.514	1147.89
432.89	1150.15
433.265	1185.86
433.641	1193.99
434.016	1197.61
434.392	1243.26
434.767	1233.54
435.143	1262.47
435.518	1248.23
435.894	1237.83
436.269	1276.93
436.644	1288.68
437.02	1318.74
437.395	1320.77
437.77	1327.78
438.145	1322.35
438.52	1327.32
438.895	1360.54
439.271	1366.64
439.646	1377.94
440.021	1388.34
440.395	1390.83
440.77	1385.18
441.145	1396.47
441.52	1412.75
441.895	1411.16
442.27	1431.05
442.645	1405.74
443.019	1447.55
443.394	1461.11
443.769	1491.61
444.143	1448.9
444.518	1469.92
444.892	1447.09
445.267	1488
445.641	1478.51
446.016	1500.88
446.39	1503.82
446.764	1525.28
447.139	1531.16
447.513	1528.22
447.887	1523.25
448.262	1527.09
448.636	1537.94
449.01	1591.5
449.384	1575.23
449.758	1611.16
450.132	1627.88
450.506	1611.61
450.88	1631.04
451.254	1655.45
451.628	1631.04
452.002	1678.73
452.376	1698.16
452.75	1725.51
453.123	1724.15
453.497	1731.38
453.871	1752.4
454.244	1807.09
454.618	1794.88
454.992	1812.28
455.365	1822
455.739	1889.79
456.112	1888.21
456.486	1895.67
456.859	1920.3
457.232	1937.7
457.606	1987.19
457.979	1988.32
458.352	2047.76
458.725	2026.97
459.099	2037.14
459.472	2102.67
459.845	2107.64
460.218	2120.07
460.591	2168.43
460.964	2127.53
461.337	2163.46
461.71	2252.95
462.083	2237.58
462.456	2226.28
462.829	2267.41
463.201	2311.7
463.574	2297.92
463.947	2353.96
464.32	2376.56
464.692	2420.4
465.065	2442.32
465.438	2460.4
465.81	2478.93
466.183	2513.28
466.555	2543.11
466.928	2565.48
467.3	2575.43
467.672	2600.96
468.045	2658.36
468.417	2640.28
468.789	2664.69
469.161	2735.42
469.534	2739.04
469.906	2811.8
470.278	2806.61
470.65	2831.69
471.022	2881.41
471.394	2951.46
471.766	2990.1
472.138	2993.27
472.51	3012.25
472.882	3067.62
473.253	3062.87
473.625	3144.23
473.997	3209.31
474.369	3168.41
474.74	3256.99
475.112	3347.61
475.484	3378.8
475.855	3458.57
476.227	3479.58
476.598	3522.52
476.97	3582.41
477.341	3674.38
477.713	3720.03
478.084	3751.21
478.455	3805.9
478.827	3859.46
479.198	3991.43
479.569	3986.24
479.94	4051.32
480.311	4143.97
480.682	4198.66
481.053	4324.76
481.424	4350.3
481.795	4449.28
482.166	4512.78
482.537	4590.06
482.908	4708.48
483.279	4711.42
483.65	4846.78
484.021	4922.94
484.391	4971.3
484.762	5096.49
485.133	5115.02
485.503	5239.31
485.874	5342.81
486.244	5422.58
486.615	5503.71
486.985	5577.61
487.356	5702.8
487.726	5759.98
488.097	5946.86
488.467	5993.87
488.837	6105.73
489.207	6207.87
489.578	6320.64
489.948	6444.48
490.318	6543.23
490.688	6593.63
491.058	6720.18
491.428	6792.94
491.798	6930.57
492.168	7108.41
492.538	7144.35
492.908	7290.56
493.278	7417.79
493.648	7400.16
494.017	7593.6
494.387	7696.87
494.757	7825.91
495.126	7946.36
495.496	8045.57
495.866	8157.65
496.235	8300.02
496.605	8416.18
496.974	8478.1
497.344	8627.47
497.713	8734.81
498.082	8851.65
498.452	8921.93
498.821	8987.91
499.19	9119.89
499.559	9314.91
499.928	9376.83
500.298	9490.05
500.667	9645.75
501.036	9698.63
501.405	9810.72
501.774	9926.19
502.143	10015.46
502.512	10151.5
502.88	10320.76
503.249	10364.37
503.618	10524.82
503.987	10498.38
504.356	10732.73
504.724	10820.63
505.093	10923.23
505.462	10990.8
505.83	11104.02
506.199	11253.84
506.567	11509.65
506.936	11488.64
507.304	11624.91
507.672	11780.83
508.041	11856.31
508.409	11940.15
508.777	12080.26
509.145	12266.47
509.514	12258.11
509.882	12404.09
510.25	12569.74
510.618	12672.79
510.986	12723.41
511.354	12779.9
511.722	12964.76
512.09	13117.52
512.458	13146
512.826	13305.31
513.193	13328.14
513.561	13428.02
513.929	13583.95
514.297	13731.97
514.664	13778.3
515.032	13975.35
515.4	14060.32
515.767	14116.82
516.135	14192.97
516.502	14214.22
516.869	14455.57
517.237	14652.17
517.604	14524.72
517.972	14833.41
518.339	14844.03
518.706	14980.75
519.073	15133.97
519.44	15105.72
519.808	15424.81
520.175	15398.59
520.542	15623.67
520.909	15638.81
521.276	15733.5
521.643	15948.63
522.009	16131.45
522.376	16207.38
522.743	16264.11
523.11	16566.92
523.477	16676.07
523.843	16722.4
524.21	16960.36
524.577	17057.53
524.943	17219.79
525.31	17333.91
525.676	17493
526.043	17740.68
526.409	17762.6
526.776	17977.51
527.142	18003.27
527.508	18123.49
527.874	18361
528.241	18426.08
528.607	18447.1
528.973	18844.6
529.339	18796.92
529.705	18998.05
530.071	19120.53
530.437	19213.86
530.803	19371.37
531.169	19475.55
531.535	19598.26
531.901	19662.89
532.267	19695.2
532.632	19957.12
532.998	20067.17
533.364	20094.74
533.73	20253.38
534.095	20480.72
534.461	20456.76
534.826	20514.39
535.192	20589.87
535.557	20780.82
535.923	20753.25
536.288	20946.69
536.653	20989.86
537.019	21071.21
537.384	21199.8
537.749	21239.79
538.114	21370.19
538.479	21348.94
538.845	21579.22
539.21	21596.17
539.575	21666.22
539.94	21668.26
540.305	21922.71
540.67	21885.65
541.034	21917.06
541.399	22002.71
541.764	22163.84
542.129	22191.63
542.494	22168.58
542.858	22383.49
543.223	22222.59
543.587	22515.69
543.952	22394.34
544.316	22642.47
544.681	22468.01
545.045	22750.49
545.41	22904.84
545.774	22800.43
546.138	22845.85
546.503	22911.16
546.867	23015.12
547.231	23198.61
547.595	23303.92
547.959	23280.42
548.324	23333.98
548.688	23318.16
549.052	23517.02
549.416	23377.59
549.779	23587.53
550.143	23599.28
550.507	23622.1
550.871	23752.27
551.235	23740.29
551.599	24038.37
551.962	24068.19
552.326	23979.61
552.689	24164.24
553.053	23996.33
553.417	24156.1
553.78	24481.97
554.143	24414.85
554.507	24619.59
554.87	24570.33
555.234	24838.57
555.597	24768.74
555.96	24721.74
556.323	24806.03
556.686	24980.49
557.05	25088.51
557.413	25205.11
557.776	25276.75
558.139	25353.13
558.502	25449.4
558.865	25643.97
559.228	25692.11
559.59	25793.35
559.953	25827.7
560.316	26092.32
560.679	26050.74
561.041	26239.89
561.404	26322.82
561.767	26514.23
562.129	26449.6
562.492	26815.92
562.854	26781.12
563.217	26798.29
563.579	26891.17
563.941	27001
564.304	27167.32
564.666	27526.41
565.028	27445.96
565.39	27510.36
565.753	27716.69
566.115	27775.89
566.477	27923.69
566.839	27994.65
567.201	28168.88
567.563	28226.28
567.925	28465.14
568.287	28314.18
568.648	28617.45
569.01	28786.71
569.372	29081.85
569.734	29026.93
570.095	29255.86
570.457	29380.6
570.819	29619.91
571.18	29511.44
571.542	29965.21
571.903	29896.06
572.265	30033.01
572.626	30277.98
572.987	30339.44
573.349	30529.49
573.71	30659.66
574.071	30822.37
574.432	31118.63
574.794	31248.57
575.155	31270.04
575.516	31397.49
575.877	31594.32
576.238	31656.92
576.599	31942.56
576.96	31947.08
577.32	32201.09
577.681	32447.64
578.042	32627.97
578.403	32704.35
578.763	32930.79
579.124	33052.14
579.485	33312.47
579.845	33569.41
580.206	33649.86
580.566	33750.2
580.927	33942.74
581.287	34174.82
581.648	34370.52
582.008	34476.28
582.368	34731.64
582.728	34967.34
583.089	35149.26
583.449	35476.26
583.809	35619.98
584.169	35821.56
584.529	36010.48
584.889	36593.74
585.249	36509
585.609	36581.09
585.969	37110.79
586.329	37203.89
586.688	37693.15
587.048	37944.21
587.408	38228.5
587.768	38186.69
588.127	38882.95
588.487	39040.23
588.846	39659.2
589.206	39643.6
589.565	40039.07
589.925	40497.37
590.284	40769.68
590.643	41077.24
591.003	41494.18
591.362	41981.17
591.721	42115.18
592.08	42564.66
592.44	43170.97
592.799	43271.98
593.158	43647.34
593.517	43948.12
593.876	44309.02
594.235	44760.31
594.593	45096.12
594.952	45439.38
595.311	45776.1
595.67	46211.34
596.029	46636.19
596.387	46855.39
596.746	47380.12
597.104	47471.42
597.463	47919.32
597.822	48380.55
598.18	48553.65
598.538	48734.21
598.897	49223.92
599.255	49212.17
599.613	50086.27
599.972	49975.08
600.33	50381.4
600.688	50446.94
601.046	50848.28
601.404	51349.51
601.762	51511.32
602.12	51821.82
602.478	52030.85
602.836	52235.59
603.194	52278.75
603.552	52629.03
603.91	52678.52
604.268	53018.85
604.625	53194.66
604.983	53500.64
605.341	53416.12
605.698	53902.66
606.056	54153.96
606.413	54180.85
606.771	54516.21
607.128	54657.67
607.485	54703.55
607.843	54956.87
608.2	55271.89
608.557	55350.54
608.914	55469.86
609.272	55670.08
609.629	55908.71
609.986	56156.84
610.343	56128.59
610.7	56416.95
611.057	56474.12
611.414	56569.71
611.771	56845.64
612.127	56964.28
612.484	57062.36
612.841	57196.36
613.198	57156.59
613.554	57278.85
613.911	57566.3
614.267	57707.99
614.624	57709.57
614.98	57865.95
615.337	58056.23
615.693	58080.86
616.05	58202.89
616.406	58364.92
616.762	58403.11
617.118	58517.01
617.475	58483.11
617.831	58727.62
618.187	58821.41
618.543	58922.65
618.899	59108.18
619.255	59081.06
619.611	59115.18
619.967	59281.96
620.323	59469.75
620.678	59361.73
621.034	59439.24
621.39	59426.36
621.746	59567.15
622.101	59881.94
622.457	59629.75
622.812	59796.52
623.168	59883.07
623.523	59889.4
623.879	60038.1
624.234	59902.73
624.589	60060.47
624.945	60091.2
625.3	60132.56
625.655	60229.05
626.01	60249.16
626.365	60328.71
626.72	60242.16
627.075	60255.49
627.43	60298.65
627.785	60329.61
628.14	60341.14
628.495	60424.98
628.85	60369.16
629.205	60363.74
629.559	60521.7
629.914	60420.91
630.269	60432.89
630.623	60349.5
630.978	60369.39
631.332	60526.67
631.687	60480.12
632.041	60480.57
632.396	60457.07
632.75	60433.57
633.104	60521.25
633.459	60411.65
633.813	60467.46
634.167	60343.4
634.521	60393.12
634.875	60421.59
635.229	60373
635.583	60278.54
635.937	60326.9
636.291	60281.25
636.645	60318.77
636.999	60229.96
637.352	60295.94
637.706	60159.68
638.06	60265.21
638.413	60202.39
638.767	60115.61
639.121	60203.52
639.474	60075.84
639.828	60109.73
640.181	60088.04
640.534	60203.29
640.888	60064.99
641.241	59968.95
641.594	60036.06
641.947	60018.66
642.301	59980.02
642.654	59951.32
643.007	59857.31
643.36	60000.13
643.713	59915.16
644.066	59989.06
644.419	59860.7
644.771	59604.21
645.124	59351.11
645.477	59330.54
645.83	59265.46
646.182	59241.96
646.535	59238.57
646.888	59238.57
647.24	59144.79
647.593	59295.29
647.945	59168.06
648.298	59117.22
648.65	58916.54
649.002	58945.7
649.355	58984.79
649.707	58816.89
650.059	58830.9
650.411	59221.39
650.763	59286.7
651.115	59610.54
651.467	59452.12
651.819	59509.3
652.171	59436.08
652.523	59308.4
652.875	59329.87
653.227	59307.49
653.578	59390.88
653.93	59328.96
654.282	59206.48
654.633	59195.63
654.985	59236.08
655.337	59257.55
655.688	59191.34
656.039	59282.64
656.391	59013.26
656.742	59077.9
657.094	59047.61
657.445	59127.39
657.796	59070.66
658.147	59035.19
658.498	59049.2
658.849	59134.39
659.2	59039.25
659.551	58980.5
659.902	59044
660.253	58954.96
660.604	59022.76
660.955	58969.65
661.306	59018.91
661.656	58859.14
662.007	58866.15
662.358	58995.64
662.708	58945.7
663.059	58987.5
663.409	58766.72
663.76	58890.78
664.11	58907.73
664.461	58842.42
664.811	58846.94
665.161	58845.36
665.511	58720.39
665.862	58791.58
666.212	58849.2
666.562	58872.7
666.912	58813.04
667.262	58728.53
667.612	58681.52
667.962	58766.27
668.312	58702.54
668.662	58827.73
669.011	58793.84
669.361	58716.78
669.711	58770.11
670.06	58664.57
670.41	58706.61
670.76	58607.17
671.109	58735.08
671.459	58642.88
671.808	58697.11
672.157	58747.73
672.507	58561.3
672.856	58592.03
673.205	58603.78
673.554	58678.58
673.904	58524.92
674.253	58817.11
674.602	58581.41
674.951	58249.89
675.3	58168.54
675.649	58602.65
675.998	58617.12
676.346	58590.9
676.695	58582.09
677.044	58440.85
677.393	58442.66
677.741	58585.25
678.09	58445.37
678.438	58339.16
678.787	58502.54
679.135	58442.88
679.484	58291.93
679.832	58456.44
680.181	58377.12
680.529	58411.02
680.877	58330.57
681.225	58244.25
681.573	58413.28
681.922	58269.78
682.27	58233.62
682.618	58218.48
682.966	58189.33
683.314	58187.98
683.661	58163.8
684.009	58100.52
684.357	57998.38
684.705	58009.9
685.053	58020.75
685.4	57910.92
685.748	57878.83
686.095	57856.68
686.443	57759.51
686.79	57695.11
687.138	57800.42
687.485	57772.62
687.832	57686.52
688.18	57730.36
688.527	57597.48
688.874	57587.31
689.221	57583.25
689.568	57549.12
689.915	57427.09
690.262	57464.83
690.609	57398.39
690.956	57295.8
691.303	57279.07
691.65	57183.48
691.997	57208.79
692.344	57085.86
692.69	57005.41
693.037	57108
693.383	56835.24
693.73	56941
694.077	56757.05
694.423	56825.53
694.769	56716.15
695.116	56722.25
695.462	56651.74
695.808	56571.3
696.155	56619.88
696.501	56365.42
696.847	56462.15
697.193	56322.26
697.539	56338.76
697.885	56193.9
698.231	56065.77
698.577	56086.56
698.923	55964.31
699.269	55796.4
699.614	55818.09
699.96	55763.41
700.306	55724.31
700.651	55659.68
700.997	55591.66
701.342	55581.72
701.688	55433.47
702.033	55325.45
702.379	55417.65
702.724	55251.1
703.069	55369.74
703.415	54965.24
703.76	55012.69
704.105	55065.12
704.45	54871.68
704.795	54874.39
705.14	54723.66
705.485	54776.31
705.83	54579.71
706.175	54697.45
706.52	54548.75
706.865	54440.73
707.209	54318.7
707.554	54296.78
707.899	54285.48
708.243	54160.28
708.588	54121.64
708.932	53944.7
709.277	54088.87
709.621	53898.82
709.966	53750.13
710.31	53761.65
710.654	53600.53
710.998	53651.6
711.342	53683.46
711.687	53509.68
712.031	53556.69
712.375	53312.17
712.719	53233.3
713.063	53226.3
713.407	53311.27
713.75	53261.1
714.094	53235.11
714.438	53093.19
714.782	53056.36
715.125	52856.82
715.469	53062.91
715.812	52720.32
716.156	52735.24
716.499	52652.3
716.843	52786.08
717.186	52569.59
717.53	52731.17
717.873	52679.42
718.216	52538.41
718.559	52384.29
718.902	52126.67
719.246	52203.95
719.589	52220.22
719.932	52055.93
720.275	52111.53
720.617	52039.44
720.96	51900.23
721.303	52012.09
721.646	52072.2
721.989	51744.98
722.331	51863.17
722.674	51720.35
723.016	51745.66
723.359	51575.49
723.701	51695.04
724.044	51555.61
724.386	51378.89
724.729	51514.93
725.071	51461.15
725.413	51399.91
725.755	51319.91
726.097	51171.44
726.439	51201.49
726.782	51044.66
727.124	51250.3
727.465	51000.59
727.807	51034.04
728.149	50913.14
728.491	50827.49
728.833	50901.39
729.175	50818
729.516	50753.37
729.858	50695.52
730.199	50799.02
730.541	50727.15
730.882	50565.8
731.224	50601.28
731.565	50496.2
731.906	50583.66
732.248	50446.48
732.589	50269.09
732.93	50229.54
733.271	50329.43
733.612	50248.3
733.953	50381.63
734.294	50158.81
734.635	49930.34
734.976	50271.12
735.317	50080.84
735.658	49937.8
735.999	49966.72
736.339	49930.79
736.68	49906.84
737.021	49840.62
737.361	49650.57
737.702	50006.95
738.042	49705.49
738.383	49701.42
738.723	49860.29
739.063	49648.99
739.404	49642.89
739.744	49463.91
740.084	49527.19
740.424	49617.13
740.764	49393.18
741.104	49376.91
741.444	49231.6
741.784	49098.72
742.124	49332.84
742.464	49252.84
742.804	49069.8
743.143	49066.18
743.483	49026.86
743.823	48825.06
744.162	48836.58
744.502	48882.01
744.841	48664.61
745.181	48831.16
745.52	48657.83
745.86	48862.8
746.199	48681.11
746.538	48621.22
746.877	48728.56
747.216	48464.84
747.556	48392.3
747.895	48537.16
748.234	48275.24
748.573	48354.34
748.911	48267.78
749.25	48202.02
749.589	47900.56
749.928	47994.35
750.267	48028.69
750.605	47998.87
750.944	47839.32
751.283	47690.85
751.621	47918.42
751.96	47686.78
752.298	47674.81
752.636	47631.87
752.975	47485.43
753.313	47399.78
753.651	47564.53
753.989	47213.8
754.327	47393.68
754.666	46991.66
755.004	47153.01
755.342	47109.17
755.679	47134.03
756.017	46971.55
756.355	46929.06
756.693	46634.38
757.031	46855.39
757.368	46407.95
757.706	46558.68
758.044	46352.58
758.381	46355.07
758.719	46241.4
759.056	46176.54
759.394	46069.65
759.731	45747.4
760.068	45816.78
760.405	45661.53
760.743	45412.94
761.08	45486.39
761.417	45382.89
761.754	45229.9
762.091	45254.76
762.428	45026.97
762.765	44819.51
763.102	44846.41
763.438	44732.28
763.775	44386.98
764.112	44443.93
764.449	44495.68
764.785	44235.8
765.122	44040.78
765.458	44023.15
765.795	43875.13
766.131	43762.14
766.467	43584.74
766.804	43420.23
767.14	43286.67
767.476	43316.5
767.812	43066.57
768.148	43184.08
768.485	42847.36
768.821	42628.84
769.157	42552.68
769.492	42530.76
769.828	42425
770.164	42094.84
770.5	41887.61
770.836	41978.68
771.171	41811.91
771.507	41804.9
771.842	41402.65
772.178	41396.33
772.513	41370.79
772.849	41055.09
773.184	41006.51
773.519	40945.72
773.855	40719.06
774.19	40507.76
774.525	40470.48
774.86	40486.97
775.195	40208.11
775.53	40083.14
775.865	39978.28
776.2	39686.54
776.535	39458.07
776.87	39336.27
777.205	39231.19
777.539	38932.44
777.874	39114.13
778.209	38743.74
778.543	38873.23
778.878	38481.38
779.212	38380.36
779.547	38247.93
779.881	38189.18
780.215	37831
780.55	37974.04
780.884	37684.33
781.218	37593.94
781.552	37554.17
781.886	37287.51
782.22	37076.44
782.554	37084.35
782.888	36686.17
783.222	36730.69
783.556	36449.34
783.889	36249.57
784.223	36083.02
784.557	36222.68
784.89	36212.96
785.224	35784.72
785.557	35711.5
785.891	35735.68
786.224	35641.22
786.558	35671.96
786.891	35356.71
787.224	34964.41
787.557	34891.64
787.891	34853.45
788.224	34730.97
788.557	34739.78
788.89	34599.44
789.223	34445.78
789.556	34308.83
789.888	34122.39
790.221	34070.42
790.554	33890.31
790.887	33943.19
791.219	33563.54
791.552	33497.1
791.884	33368.97
792.217	33379.14
792.549	33241.74
792.882	32905.48
793.214	32908.19
793.546	32871.81
793.879	32783.67
794.211	32412.61
794.543	32651.25
794.875	32491.25
795.207	32432.95
795.539	32329.9
795.871	32248.77
796.203	32109.11
796.535	31837.93
796.867	31945.28
797.198	31586.42
797.53	31701.21
797.862	31421.22
798.193	31521.33
798.525	31176.93
798.856	31268.91
799.188	30972.65
799.519	30832.31
799.85	30849.03
800.182	30779.2
800.513	30861.24
800.844	30429.84
801.175	30592.09
801.506	30598.42
801.837	30289.5
802.168	30159.33
802.499	30287.24
802.83	30073.01
803.161	29948.49
803.491	30064.65
803.822	30092.67
804.153	29704.88
804.483	29568.39
804.814	29470.76
805.145	29380.37
805.475	29412.69
805.805	29348.51
806.136	29401.39
806.466	29097.22
806.796	29217.66
807.126	28904.23
807.457	28898.8
807.787	28952.59
808.117	28787.84
808.447	28644.35
808.777	28770.22
809.107	28435.31
809.436	28316.44
809.766	28334.98
810.096	28497.91
810.426	28226.05
810.755	28228.31
811.085	28085.49
811.414	28232.61
811.744	28031.03
812.073	27997.58
812.403	27889.56
812.732	27600.53
813.061	27920.52
813.39	27581.55
813.719	27546.52
814.049	27574.32
814.378	27468.78
814.707	27309.24
815.036	27288.68
815.365	27286.42
815.693	26996.93
816.022	27071.28
816.351	26953.54
816.68	26801
817.008	26913.32
817.337	26617.51
817.665	26692.76
817.994	26723.04
818.322	26850.27
818.651	26608.02
818.979	26480.11
819.307	26398.3
819.636	26436.95
819.964	26264.97
820.292	26299.77
820.62	26391.98
820.948	26405.08
821.276	26422.94
821.604	26224.3
821.932	26455.02
822.259	26304.97
822.587	26300.68
822.915	26235.82
823.243	26243.05
823.57	26097.75
823.898	26474.69
824.225	26103.62
824.553	26161.02
824.88	26254.58
825.207	26382.71
825.535	26066.79
825.862	26292.54
826.189	26123.96
826.516	26366.44
826.843	26307.01
827.17	26265.65
827.497	26248.02
827.824	26261.81
828.151	26309.04
828.478	26184.07
828.805	26314.01
829.131	26270.4
829.458	26315.37
829.785	26149.5
830.111	26336.16
830.438	26244.41
830.764	26193.79
831.09	26365.76
831.417	26149.72
831.743	26366.44
832.069	26219.55
832.395	26204.41
832.722	26198.99
833.048	26051.87
833.374	26176.39
833.7	26099.33
834.026	26222.26
834.351	26119.89
834.677	26156.28
835.003	26043.74
835.329	26014.81
835.654	25971.65
835.98	25766.46
836.306	26109.95
836.631	25896.17
836.956	25980.46
837.282	25888.94
837.607	25865.21
837.932	25756.74
838.258	25786.79
838.583	25759.22
838.908	25719.68
839.233	25679.68
839.558	25530.3
839.883	25551.32
840.208	25332.79
840.533	25455.73
840.858	25437.42
841.182	25444.88
841.507	25462.51
841.832	25223.87
842.156	25287.6
842.481	25199.69
842.805	25097.09
843.13	24952.47
843.454	25091.67
843.778	24978
844.103	24958.34
844.427	24869.08
844.751	24872.47
845.075	24773.26
845.399	24662.53
845.723	24597.67
846.047	24616.43
846.371	24323.56
846.695	24422.76
847.019	24203.56
847.343	24085.6
847.666	24028.87
847.99	23957.46
848.313	23894.64
848.637	23840.4
848.96	23799.5
849.284	23702.1
849.607	23619.62
849.931	23519.28
850.254	23428.89
850.577	23239.29
850.9	22974.21
851.223	23024.61
851.546	22954.33
851.869	22883.82
852.192	22954.33
852.515	22714.56
852.838	22554.11
853.161	22648.12
853.483	22357.96
853.806	22358.86
854.129	22337.84
854.451	22204.97
854.774	22109.6
855.096	22148.02
855.419	22011.07
855.741	21981.02
856.063	21885.43
856.385	21706.22
856.708	21750.29
857.03	21643.4
857.352	21698.31
857.674	21543.29
857.996	21471.2
858.318	21349.4
858.64	21306.01
858.961	21275.05
859.283	21203.41
859.605	21060.59
859.926	21187.59
860.248	21028.5
860.57	20950.08
860.891	20973.13
861.212	20928.16
861.534	20856.75
861.855	20811.56
862.176	20768.85
862.498	20761.16
862.819	20660.15
863.14	20620.6
863.461	20554.39
863.782	20476.65
864.103	20549.87
864.424	20443.66
864.745	20521.17
865.065	20377.44
865.386	20183.55
865.707	20315.07
866.027	20220.16
866.348	20190.33
866.668	20199.82
866.989	20242.53
867.309	19974.74
867.63	19974.52
867.95	20049.54
868.27	19954.4
868.59	20040.05
868.91	20019.71
869.23	20004.35
869.55	19819.49
869.87	19951.69
870.19	19736.56
870.51	19788.31
870.83	19760.51
871.15	19571.82
871.469	19634.41
871.789	19594.41
872.109	19655.88
872.428	19462.44
872.748	19570.69
873.067	19560.74
873.386	19571.14
873.706	19468.09
874.025	19407.3
874.344	19359.62
874.663	19391.03
874.982	19375.89
875.301	19298.15
875.62	19224.93
875.939	19191.03
876.258	19199.85
876.577	19105.61
876.896	19176.8
877.214	19078.72
877.533	19141.32
877.852	19088.44
878.17	19063.35
878.489	19130.25
878.807	18984.26
879.125	18891.38
879.444	18896.58
879.762	18817.94
880.08	18936.35
880.398	18768.67
880.716	18770.71
881.034	18732.97
881.352	18769.35
881.67	18634.89
881.988	18538.62
882.306	18529.36
882.624	18637.6
882.941	18365.75
883.259	18356.93
883.577	18447.1
883.894	18377.72
884.212	18340.89
884.529	18300.66
884.846	18229.03
885.164	18156.94
885.481	18135.47
885.798	18181.57
886.115	17909.49
886.432	18091.4
886.75	17990.61
887.067	17956.94
887.383	17916.94
887.7	17923.05
888.017	17695.48
888.334	17786.55
888.651	17714.24
888.967	17761.92
889.284	17610.06
889.6	17591.08
889.917	17477.41
890.233	17431.31
890.55	17448.03
890.866	17319.67
891.182	17260.92
891.498	17265.21
891.815	17166.68
892.131	17126
892.447	17125.78
892.763	17093.91
893.079	17062.05
893.395	16881.27
893.71	16943.18
894.026	16879.68
894.342	16837.65
894.657	16613.7
894.973	16631.78
895.289	16603.31
895.604	16513.14
895.92	16594.49
896.235	16372.8
896.55	16505.68
896.865	16313.14
897.181	16319.47
897.496	16218.23
897.811	16153.37
898.126	16081.96
898.441	16128.74
898.756	16134.17
899.071	15888.3
899.386	16051.91
899.7	15827.51
900.015	15716.55
900.33	15766.94
900.644	15608.08
900.959	15572.82
901.273	15596.33
901.588	15564.46
901.902	15448.08
902.216	15391.59
902.531	15377.58
902.845	15236.11
903.159	15200.63
903.473	15114.53
903.787	15102.78
904.101	15031.6
904.415	15084.48
904.729	14917.02
905.042	14898.94
905.356	14855.78
905.67	14863.69
905.984	14793.18
906.297	14697.14
906.611	14592.51
906.924	14615.34
907.237	14549.58
907.551	14509.8
907.864	14459.41
908.177	14376.02
908.491	14358.85
908.804	14270.49
909.117	14131.73
909.43	14054.22
909.743	13969.48
910.056	13944.85
910.368	13905.3
910.681	13954.56
910.994	13804.51
911.307	13750.95
911.619	13700.11
911.932	13683.61
912.244	13526.55
912.557	13521.58
912.869	13548.7
913.181	13432.99
913.494	13435.25
913.806	13352.77
914.118	13288.59
914.43	13156.39
914.742	13201.59
915.054	13055.15
915.366	13085.88
915.678	12978.77
915.99	12924.31
916.302	12843.63
916.613	12774.48
916.925	12885.44
917.236	12737.19
917.548	12544.88
917.859	12699.23
918.171	12561.38
918.482	12490.65
918.794	12533.81
919.105	12411.78
919.416	12341.05
919.727	12255.4
920.038	12307.15
920.349	12173.82
920.66	12135.63
920.971	12090.88
921.282	12106.93
921.593	11948.06
921.903	12009.08
922.214	11897.22
922.525	11830.78
922.835	11795.75
923.146	11684.79
923.456	11655.41
923.767	11572.7
924.077	11631.69
924.387	11560.05
924.697	11508.53
925.008	11440.73
925.318	11395.08
925.628	11456.1
925.938	11350.79
926.248	11325.48
926.558	11174.97
926.867	11221.75
927.177	11114.41
927.487	11003.23
927.796	10951.48
928.106	10971.14
928.416	10841.42
928.725	10781.31
929.034	10826.06
929.344	10789.22
929.653	10657.02
929.962	10639.4
930.271	10643.92
930.581	10590.36
930.89	10590.81
931.199	10506.97
931.508	10434.66
931.817	10450.25
932.125	10469.46
932.434	10333.87
932.743	10253.87
933.051	10295.9
933.36	10191.95
933.669	10107.21
933.977	10093.42
934.286	10050.03
934.594	9937.04
934.902	9981.79
935.21	9904.5
935.519	9911.96
935.827	9801.9
936.135	9769.59
936.443	9706.99
936.751	9642.81
937.059	9657.5
937.367	9658.4
937.674	9634
937.982	9524.85
938.29	9507
938.597	9488.24
938.905	9391.97
939.213	9306.55
939.52	9250.28
939.827	9349.03
940.135	9306.1
940.442	9257.96
940.749	9175.48
941.056	9242.37
941.363	9050.96
941.67	9094.58
941.977	8962.6
942.284	9031.08
942.591	8954.92
942.898	8986.78
943.205	8849.84
943.511	8797.18
943.818	8837.41
944.125	8745.89
944.431	8636.51
944.738	8633.35
945.044	8639.45
945.35	8539.34
945.657	8518.32
945.963	8554.25
946.269	8498.21
946.575	8403.52
946.881	8352.45
947.187	8401.71
947.493	8311.77
947.799	8273.81
948.105	8248.5
948.41	8174.83
948.716	8220.48
949.022	8099.35
949.327	8144.09
949.633	7990.2
949.938	8037.43
950.244	8035.62
950.549	7900.26
950.854	7881.05
951.16	7869.98
951.465	7809.41
951.77	7803.09
952.075	7804.22
952.38	7757.89
952.685	7731.22
952.99	7619.36
953.294	7692.58
953.599	7562.64
953.904	7528.29
954.209	7454.39
954.513	7472.02
954.818	7410.55
955.122	7435.86
955.426	7438.12
955.731	7340.95
956.035	7292.59
956.339	7322.65
956.643	7276.32
956.948	7208.98
957.252	7216.21
957.556	7123.56
957.86	7102.99
958.163	7101.41
958.467	7080.84
958.771	7070.45
959.075	7021.86
959.378	6910.23
959.682	6970.34
959.985	6990.45
960.289	6867.74
960.592	6893.28
960.896	6803.56
961.199	6752.72
961.502	6793.39
961.805	6732.61
962.108	6666.17
962.411	6645.83
962.714	6558.15
963.017	6565.6
963.32	6625.94
963.623	6546.4
963.926	6505.04
964.228	6426.17
964.531	6436.79
964.833	6478.15
965.136	6407.42
965.438	6342.11
965.741	6273.41
966.043	6265.5
966.345	6273.63
966.648	6246.52
966.95	6224.14
967.252	6202.22
967.554	6186.86
967.856	6131.72
968.158	6079.97
968.46	6071.38
968.761	6053.98
969.063	6002.91
969.365	5978.73
969.666	5988.9
969.968	5919.97
970.269	5891.95
970.571	5922.23
970.872	5826.41
971.174	5829.8
971.475	5807.21
971.776	5799.52
972.077	5734.89
972.378	5708.45
972.679	5741.9
972.98	5672.52
973.281	5637.27
973.582	5643.14
973.883	5596.82
974.183	5550.26
974.484	5522.02
974.785	5436.14
975.085	5504.39
975.386	5496.03
975.686	5373.77
975.986	5422.36
976.287	5396.14
976.587	5390.49
976.887	5360.89
977.187	5295.13
977.487	5298.07
977.787	5318.18
978.087	5249.03
978.387	5231.4
978.687	5231.18
978.987	5157.28
979.286	5134.68
979.586	5160.22
979.885	5103.5
980.185	5078.19
980.484	5028.02
980.784	5039.32
981.083	5017.4
981.382	4975.14
981.682	4976.95
981.981	4911.41
982.28	4890.85
982.579	4895.14
982.878	4905.31
983.177	4855.14
983.475	4849.27
983.774	4771.75
984.073	4786.67
984.372	4717.52
984.67	4735.82
984.969	4691.76
985.267	4718.87
985.566	4674.35
985.864	4619.67
986.162	4596.16
986.461	4574.47
986.759	4577.18
987.057	4545.77
987.355	4491.76
987.653	4507.81
987.951	4498.99
988.249	4473.23
988.547	4437.75
988.844	4411.08
989.142	4428.94
989.44	4361.82
989.737	4383.29
990.035	4307.58
990.332	4318.88
990.63	4306.68
990.927	4252.9
991.224	4255.16
991.521	4239.11
991.819	4205.21
992.116	4213.8
992.413	4213.58
992.71	4109.62
993.006	4134.71
993.303	4133.8
993.6	4069.85
993.897	4098.55
994.193	4066.69
994.49	4021.49
994.787	4018.1
995.083	3969.29
995.379	4000.7
995.676	3962.51
995.972	3891.1
996.268	3877.31
996.565	3856.52
996.861	3833.7
997.157	3877.31
997.453	3818.33
997.749	3788.95
998.044	3800.93
998.34	3775.62
998.636	3712.8
998.932	3676.64
999.227	3661.27
999.523	3673.7
999.818	3646.81
1000.114	3620.37
1000.409	3620.82
1000.704	3624.66
1001	3568.85
1001.295	3564.78
1001.59	3518
1001.885	3542.63
1002.18	3528.17
1002.475	3459.02
1002.77	3471.67
1003.065	3432.13
1003.359	3429.19
1003.654	3423.31
1003.949	3395.07
1004.243	3373.6
1004.538	3325.69
1004.832	3338.12
1005.127	3299.7
1005.421	3310.77
1005.715	3293.6
1006.009	3276.2
1006.304	3247.5
1006.598	3207.95
1006.892	3192.36
1007.186	3190.1
1007.48	3149.87
1007.773	3143.55
1008.067	3121.85
1008.361	3094.28
1008.655	3083.44
1008.948	3043.44
1009.242	3071.23
1009.535	3028.52
1009.829	2993.49
1010.122	2969.99
1010.415	2954.63
1010.708	2952.82
1011.001	2946.94
1011.295	2913.04
1011.588	2939.94
1011.881	2842.09
1012.173	2871.24
1012.466	2848.87
1012.759	2835.31
1013.052	2824.69
1013.344	2802.54
1013.637	2780.17
1013.93	2770
1014.222	2729.09
1014.514	2682.99
1014.807	2687.51
1015.099	2699.72
1015.391	2636.22
1015.683	2669.89
1015.976	2643
1016.268	2620.4
1016.56	2588.99
1016.851	2585.14
1017.143	2556.9
1017.435	2568.65
1017.727	2535.2
1018.018	2529.55
1018.31	2522.09
1018.602	2469.89
1018.893	2463.57
1019.185	2439.84
1019.476	2409.56
1019.767	2417.92
1020.058	2381.99
1020.35	2342.21
1020.641	2384.02
1020.932	2358.03
1021.223	2331.14
1021.514	2284.36
1021.804	2295.43
1022.095	2260.41
1022.386	2271.03
1022.677	2262.21
1022.967	2208.43
1023.258	2205.27
1023.548	2186.96
1023.839	2197.58
1024.129	2150.81
1024.419	2169.79
1024.709	2131.6
1025	2138.6
1025.29	2108.55
1025.58	2061.99
1025.87	2031.49
1026.16	2066.06
1026.449	2060.19
1026.739	2029.9
1027.029	2021.32
1027.319	2017.25
1027.608	1983.58
1027.898	1965.05
1028.187	1958.72
1028.477	1933.41
1028.766	1959.17
1029.055	1895.9
1029.344	1880.3
1029.634	1911.26
1029.923	1868.33
1030.212	1880.76
1030.501	1857.03
1030.79	1830.14
1031.078	1827.42
1031.367	1811.15
1031.656	1786.07
1031.945	1778.61
1032.233	1778.61
1032.522	1756.47
1032.81	1757.82
1033.099	1706.52
1033.387	1742.45
1033.675	1726.64
1033.963	1699.29
1034.251	1656.35
1034.54	1670.82
1034.828	1669.69
1035.116	1646.19
1035.403	1633.98
1035.691	1603.93
1035.979	1636.24
1036.267	1618.62
1036.554	1586.07
1036.842	1582.91
1037.129	1574.55
1037.417	1523.7
1037.704	1537.49
1037.992	1519.41
1038.279	1490.26
1038.566	1479.86
1038.853	1479.86
1039.14	1479.86
