Data from 15-1247_FLMS001491_003.txt Node
Date: Thu Apr 19 16:10:26 BST 2018
User: hsy
Spectrometer: FLMS00149
Trigger mode: 0
Integration Time (sec): 1.000000E-2
Scans to average: 10
Electric dark correction enabled: true
Nonlinearity correction enabled: false
Boxcar width: 0
XAxis mode: Wavelengths
Number of Pixels in Spectrum: 2048
>>>>>Begin Spectral Data<<<<<
341.393	-14.73
341.776	-14.73
342.16	-14.73
342.543	-77.78
342.927	-62.64
343.31	-53.83
343.693	-65.8
344.077	-92.24
344.46	-56.54
344.843	-50.89
345.226	-39.14
345.61	-51.57
345.993	-22.19
346.376	-12.7
346.759	24.36
347.142	27.98
347.525	30.47
347.908	54.42
348.291	78.37
348.674	97.13
349.057	132.16
349.44	136.9
349.823	137.36
350.206	186.17
350.588	202.89
350.971	241.53
351.354	262.1
351.737	276.33
352.119	280.4
352.502	309.33
352.884	322.21
353.267	311.81
353.65	316.56
354.032	339.84
354.414	341.87
354.797	352.26
355.179	348.88
355.562	347.97
355.944	365.82
356.326	395.65
356.709	391.59
357.091	373.06
357.473	367.86
357.855	405.14
358.238	404.01
358.62	376.67
359.002	377.8
359.384	387.07
359.766	388.65
360.148	373.06
360.53	394.98
360.912	386.16
361.294	371.7
361.676	382.09
362.057	381.42
362.439	373.28
362.821	385.26
363.203	375.09
363.584	378.7
363.966	379.83
364.348	389.55
364.729	365.82
365.111	374.41
365.493	372.83
365.874	388.42
366.256	372.83
366.637	373.06
367.019	401.53
367.4	363.11
367.781	390.23
368.163	378.03
368.544	367.63
368.925	354.07
369.306	374.86
369.688	355.65
370.069	369.89
370.45	387.07
370.831	370.34
371.212	389.55
371.593	381.87
371.974	388.2
372.355	366.5
372.736	380.51
373.117	351.36
373.498	394.98
373.879	399.04
374.26	389.55
374.641	358.59
375.021	393.85
375.402	394.52
375.783	410.57
376.163	392.72
376.544	400.85
376.925	404.01
377.305	423
377.686	390.91
378.066	397.46
378.447	416.67
378.827	407.18
379.208	401.98
379.588	408.76
379.968	424.58
380.349	414.64
380.729	423
381.109	408.08
381.489	422.77
381.87	427.97
382.25	398.14
382.63	421.42
383.01	396.11
383.39	417.8
383.77	452.38
384.15	427.52
384.53	433.17
384.91	429.78
385.29	461.64
385.67	440.17
386.049	442.43
386.429	441.75
386.809	456.89
387.189	427.97
387.568	483.56
387.948	452.15
388.328	451.7
388.707	478.59
389.087	489.66
389.466	470.68
389.846	476.33
390.225	493.05
390.605	486.72
390.984	485.82
391.363	491.92
391.743	486.5
392.122	501.41
392.501	484.69
392.881	488.53
393.26	513.84
393.639	520.4
394.018	510.9
394.397	521.98
394.776	524.69
395.155	531.92
395.534	544.58
395.913	519.49
396.292	535.31
396.671	542.09
397.05	523.33
397.429	523.79
397.808	534.63
398.186	544.58
398.565	538.47
398.944	527.63
399.323	534.63
399.701	545.25
400.08	550.23
400.458	556.55
400.837	575.31
401.215	567.4
401.594	573.28
401.972	555.42
402.351	571.92
402.729	592.48
403.107	596.33
403.486	594.07
403.864	577.12
404.242	580.51
404.62	606.27
404.999	576.89
405.377	618.92
405.755	607.17
406.133	623.9
406.511	618.25
406.889	621.64
407.267	610.34
407.645	664.35
408.023	662.99
408.401	661.64
408.779	651.01
409.156	679.94
409.534	669.32
409.912	672.93
410.29	694.63
410.667	710
411.045	713.39
411.422	730.56
411.8	708.19
412.178	707.74
412.555	736.21
412.933	761.07
413.31	746.38
413.687	759.26
414.065	761.97
414.442	771.46
414.819	757.68
415.197	794.51
415.574	816.21
415.951	806.72
416.328	807.39
416.705	818.69
417.082	814.63
417.46	822.76
417.837	855.98
418.214	844.91
418.591	825.92
418.967	854.17
419.344	841.74
419.721	842.2
420.098	864.12
420.475	882.87
420.852	866.15
421.228	877.22
421.605	884.68
421.982	863.66
422.358	923.32
422.735	914.06
423.111	909.54
423.488	913.38
423.864	928.29
424.241	933.49
424.617	932.59
424.994	928.52
425.37	951.57
425.746	961.74
426.123	974.17
426.499	970.33
426.875	1013.72
427.251	1018.69
427.627	996.54
428.003	1011.91
428.379	1060.72
428.756	1037.67
429.132	1060.72
429.507	1083.77
429.883	1074.73
430.259	1087.61
430.635	1122.64
431.011	1089.19
431.387	1124.22
431.763	1114.5
432.138	1127.39
432.514	1135.75
432.89	1162.19
433.265	1202.41
433.641	1215.29
434.016	1200.15
434.392	1243.77
434.767	1238.57
435.143	1205.8
435.518	1250.77
435.894	1293.93
436.269	1245.12
436.644	1292.58
437.02	1294.39
437.395	1302.52
437.77	1279.02
438.145	1352.24
438.52	1349.75
438.895	1331.45
439.271	1363.99
439.646	1359.92
440.021	1410.54
440.395	1380.94
440.77	1371
441.145	1400.82
441.52	1429.98
441.895	1415.51
442.27	1437.21
442.645	1434.27
443.019	1454.16
443.394	1433.82
443.769	1434.72
444.143	1459.58
444.518	1485.57
444.892	1515.17
445.267	1501.39
445.641	1489.64
446.016	1526.25
446.39	1550.65
446.764	1534.15
447.139	1519.92
447.513	1539.8
447.887	1535.06
448.262	1572.8
448.636	1550.43
449.01	1589.75
449.384	1601.95
449.758	1596.98
450.132	1630.42
450.506	1633.14
450.88	1652.57
451.254	1655.73
451.628	1666.13
452.002	1691.66
452.376	1698.9
452.75	1734.38
453.123	1742.74
453.497	1736.64
453.871	1754.49
454.244	1804.88
454.618	1821.38
454.992	1851.89
455.365	1830.42
455.739	1848.95
456.112	1893.24
456.486	1919.91
456.859	1911.09
457.232	1935.27
457.606	1973.92
457.979	2009.4
458.352	2013.01
458.725	2069.51
459.099	2050.98
459.472	2107.92
459.845	2107.02
460.218	2101.82
460.591	2161.93
460.964	2149.51
461.337	2202.39
461.71	2210.75
462.083	2232.89
462.456	2275.83
462.829	2275.38
463.201	2321.03
463.574	2321.03
463.947	2366.9
464.32	2383.85
464.692	2450.51
465.065	2420.46
465.438	2462.27
465.81	2494.58
466.183	2505.88
466.555	2566.67
466.928	2575.94
467.3	2567.57
467.672	2623.17
468.045	2645.31
468.417	2660.9
468.789	2700.68
469.161	2706.33
469.534	2752.65
469.906	2817.06
470.278	2855.7
470.65	2864.29
471.022	2896.15
471.394	2930.5
471.766	2986.55
472.138	3005.75
472.51	3082.36
472.882	3121.91
473.253	3094.79
473.625	3149.48
473.997	3229.03
474.369	3292.98
474.74	3293.43
475.112	3344.5
475.484	3395.8
475.855	3430.83
476.227	3519.19
476.598	3555.34
476.97	3603.7
477.341	3727.32
477.713	3742.68
478.084	3727.09
478.455	3845.96
478.827	3900.42
479.198	4013.41
479.569	4014.09
479.94	4077.82
480.311	4178.15
480.682	4244.37
481.053	4330.01
481.424	4387.19
481.795	4455.66
482.166	4542.66
482.537	4598.93
482.908	4695.65
483.279	4760.28
483.65	4890.9
484.021	5010.45
484.391	5050.45
484.762	5116.66
485.133	5176.09
485.503	5261.97
485.874	5388.97
486.244	5435.75
486.615	5589.64
486.985	5639.58
487.356	5688.17
487.726	5852.01
488.097	5986.92
488.467	6031.21
488.837	6156.86
489.207	6222.17
489.578	6355.72
489.948	6465.55
490.318	6598.88
490.688	6610.18
491.058	6782.15
491.428	6951.87
491.798	7035.25
492.168	7142.59
492.538	7212.42
492.908	7331.52
493.278	7441.8
493.648	7541.45
494.017	7698.51
494.387	7785.29
494.757	7837.49
495.126	8045.17
495.496	8128.33
495.866	8235.45
496.235	8361.09
496.605	8502.33
496.974	8589.34
497.344	8723.12
497.713	8842.66
498.082	8860.74
498.452	9035.43
498.821	9095.31
499.19	9289.43
499.559	9362.88
499.928	9528.97
500.298	9573.72
500.667	9749.53
501.036	9785.69
501.405	9973.48
501.774	10081.05
502.143	10223.42
502.512	10238.78
502.88	10410.53
503.249	10468.38
503.618	10617.53
503.987	10775.95
504.356	10861.14
504.724	11042.15
505.093	11057.75
505.462	11135.94
505.83	11264.75
506.199	11450.73
506.567	11602.36
506.936	11749.25
507.304	11738.63
507.672	11896.37
508.041	12008.91
508.409	12236.47
508.777	12262.46
509.145	12375.23
509.514	12455.9
509.882	12606.86
510.25	12770.02
510.618	12847.53
510.986	12930.69
511.354	13036.9
511.722	13228.54
512.09	13344.01
512.458	13285.94
512.826	13544.69
513.193	13584.01
513.561	13698.58
513.929	13824.45
514.297	13938.8
514.664	14054.73
515.032	14186.7
515.4	14367.94
515.767	14408.39
516.135	14493.81
516.502	14445
516.869	14727.71
517.237	14877.08
517.604	14802.05
517.972	15046.34
518.339	15141.03
518.706	15215.6
519.073	15359.78
519.44	15451.08
519.808	15654.69
520.175	15725.87
520.542	15898.3
520.909	16073.43
521.276	16068.69
521.643	16294.22
522.009	16310.49
522.376	16529.24
522.743	16664.38
523.11	16778.5
523.477	17006.29
523.843	17049.23
524.21	17363.34
524.577	17369.67
524.943	17521.08
525.31	17700.28
525.676	17848.08
526.043	17940.28
526.409	18045.58
526.776	18380.94
527.142	18386.59
527.508	18499.36
527.874	18692.57
528.241	18800.37
528.607	18870.65
528.973	19150.87
529.339	19102.51
529.705	19383.85
530.071	19422.05
530.437	19637.41
530.803	19777.52
531.169	19942.71
531.535	19964.86
531.901	20038.53
532.267	20128.24
532.632	20414.79
532.998	20377.27
533.364	20596.7
533.73	20589.47
534.095	20832.63
534.461	20912.85
534.826	20960.76
535.192	21102.91
535.557	21304.71
535.923	21283.24
536.288	21481.2
536.653	21518.71
537.019	21508.54
537.384	21555.78
537.749	21746.96
538.114	21868.76
538.479	21861.76
538.845	21953.28
539.21	21936.1
539.575	22112.6
539.94	22182.65
540.305	22300.16
540.67	22365.25
541.034	22356.21
541.399	22452.93
541.764	22598.91
542.129	22536.99
542.494	22678.91
542.858	22859.24
543.223	22709.87
543.587	22871.22
543.952	23000.71
544.316	22995.96
544.681	23078.9
545.045	23234.83
545.41	23339.46
545.774	23221.49
546.138	23323.64
546.503	23392.34
546.867	23416.52
547.231	23593.46
547.595	23639.11
547.959	23676.85
548.324	23761.82
548.688	23777.41
549.052	23943.73
549.416	23823.96
549.779	23914.81
550.143	23944.19
550.507	24205.42
550.871	24272.31
551.235	24259.88
551.599	24548.24
551.962	24442.7
552.326	24615.36
552.689	24625.98
553.053	24533.55
553.417	24664.17
553.78	24831.17
554.143	24878.63
554.507	24963.82
554.87	25038.62
555.234	25296.47
555.597	25169.92
555.96	25350.25
556.323	25403.81
556.686	25489.46
557.05	25685.38
557.413	25830.01
557.776	25903.91
558.139	26062.1
558.502	25972.16
558.865	26118.14
559.228	26225.93
559.59	26321.75
559.953	26293.5
560.316	26734.85
560.679	26661.86
561.041	26848.07
561.404	26892.36
561.767	27098.45
562.129	27005.12
562.492	27300.03
562.854	27377.32
563.217	27429.07
563.579	27487.6
563.941	27714.71
564.304	27756.29
564.666	27949.51
565.028	28003.52
565.39	28145.66
565.753	28368.03
566.115	28400.79
566.477	28575.25
566.839	28719.65
567.201	28895.24
567.563	28950.38
567.925	29179.3
568.287	29177.04
568.648	29289.81
569.01	29485.74
569.372	29727.76
569.734	29897.93
570.095	29942.9
570.457	30211.14
570.819	30395.54
571.18	30276.22
571.542	30564.58
571.903	30701.75
572.265	30869.2
572.626	31108.74
572.987	31129.08
573.349	31359.81
573.71	31469.86
574.071	31567.49
574.432	31908.5
574.794	32072.79
575.155	32223.29
575.516	32263.06
575.877	32425.77
576.238	32525.88
576.599	32797.29
576.96	32936.49
577.32	33155.47
577.681	33202.93
578.042	33506.2
578.403	33675.68
578.763	33693.99
579.124	33899.41
579.485	34081.77
579.845	34454.42
580.206	34478.15
580.566	34630.91
580.927	34877.46
581.287	35064.57
581.648	35092.37
582.008	35531.68
582.368	35613.94
582.728	35869.75
583.089	35964.66
583.449	36260.47
583.809	36413.01
584.169	36888.71
584.529	36841.02
584.889	37336.38
585.249	37404.17
585.609	37562.59
585.969	38002.8
586.329	38082.57
586.688	38507.65
587.048	38741.54
587.408	39070.34
587.768	39151.7
588.127	39668.29
588.487	39814.05
588.846	40311.21
589.206	40420.82
589.565	40650.64
589.925	41488.36
590.284	41504.18
590.643	41737.62
591.003	42214.89
591.362	42710.47
591.721	42881.99
592.08	43239.27
592.44	43729.66
592.799	43945.92
593.158	44331.67
593.517	44551.78
593.876	45176.4
594.235	45298.65
594.593	45706.33
594.952	46086.2
595.311	46299.08
595.67	46591.73
596.029	47179.06
596.387	47491.82
596.746	47846.61
597.104	47860.85
597.463	48258.12
597.822	48911.89
598.18	48894.49
598.538	49240.7
598.897	49665.32
599.255	49688.59
599.613	50402.7
599.972	50388.92
600.33	50666.2
600.688	50767.44
601.046	51115
601.404	51523.57
601.762	51706.85
602.12	52013.73
602.478	52142.99
602.836	52495.3
603.194	52503.21
603.552	52806.7
603.91	52934.16
604.268	53229.74
604.625	53494.82
604.983	53697.3
605.341	53647.59
605.698	54016.62
606.056	54369.6
606.413	54372.31
606.771	54657.96
607.128	54856.37
607.485	54883.03
607.843	55089.13
608.2	55351.27
608.557	55572.28
608.914	55631.26
609.272	55856.57
609.629	56114.87
609.986	56288.87
610.343	56320.51
610.7	56580.84
611.057	56630.78
611.414	56712.36
611.771	56956.2
612.127	57101.06
612.484	57232.58
612.841	57388.96
613.198	57357.32
613.554	57547.6
613.911	57770.42
614.267	57868.04
614.624	57869.62
614.98	58094.25
615.337	58277.75
615.693	58338.76
616.05	58354.58
616.406	58591.41
616.762	58601.58
617.118	58731.52
617.475	58729.94
617.831	58887.45
618.187	58964.06
618.543	59047.9
618.899	59195.46
619.255	59198.85
619.611	59228
619.967	59392.07
620.323	59502.12
620.678	59409.24
621.034	59507.09
621.39	59574.89
621.746	59587.09
622.101	59929.68
622.457	59707.09
622.812	59869.8
623.168	59981.43
623.523	59978.95
623.879	60093.29
624.234	59952.28
624.589	60099.39
624.945	60128.09
625.3	60145.49
625.655	60234.98
626.01	60274.3
626.365	60239.96
626.72	60252.16
627.075	60331.25
627.43	60287.41
627.785	60377.13
628.14	60423.68
628.495	60409.22
628.85	60452.38
629.205	60413.74
629.559	60503
629.914	60473.85
630.269	60503
630.623	60371.48
630.978	60339.39
631.332	60513.85
631.687	60498.93
632.041	60461.87
632.396	60511.13
632.75	60444.47
633.104	60457.8
633.459	60345.94
633.813	60373.74
634.167	60353.17
634.521	60352.72
634.875	60406.05
635.229	60372.61
635.583	60272.95
635.937	60236.79
636.291	60297.36
636.645	60287.86
636.999	60182.33
637.352	60320.41
637.706	60154.08
638.06	60294.19
638.413	60180.97
638.767	60118.38
639.121	60135.78
639.474	60054.42
639.828	60074.31
640.181	60040.41
640.534	60163.12
640.888	59972.17
641.241	59923.13
641.594	60012.62
641.947	60072.73
642.301	59938.72
642.654	60018.49
643.007	59955.9
643.36	59976.46
643.713	59917.7
644.066	59966.06
644.419	59793.64
644.771	59576.02
645.124	59345.29
645.477	59337.15
645.83	59247.89
646.182	59240.66
646.535	59126.99
646.888	59225.29
647.24	59108.46
647.593	59261
647.945	59131.96
648.298	59037.73
648.65	58982.81
649.002	58860.56
649.355	58893.32
649.707	58776.04
650.059	58804.51
650.411	59129.25
650.763	59248.8
651.115	59616.7
651.467	59444.27
651.819	59516.36
652.171	59441.33
652.523	59292.41
652.875	59382.58
653.227	59260.32
653.578	59443.37
653.93	59356.81
654.282	59277.04
654.633	59235.91
654.985	59248.34
655.337	59238.4
655.688	59191.4
656.039	59246.54
656.391	59030.95
656.742	59085.64
657.094	59109.14
657.445	59105.97
657.796	59151.85
658.147	59018.97
658.498	59037.95
658.849	59112.08
659.2	58992.76
659.551	58968.35
659.902	59064.17
660.253	58927.22
660.604	59005.41
660.955	58888.13
661.306	58989.14
661.656	58879.77
662.007	58959.76
662.358	58969.25
662.708	58981.46
663.059	58871.86
663.409	58795.02
663.76	58881.57
664.11	58919.54
664.461	58928.13
664.811	58959.76
665.161	58906.43
665.511	58833.89
665.862	58831.63
666.212	58891.74
666.562	58885.19
666.912	58839.54
667.262	58794.8
667.612	58807.9
667.962	58841.8
668.312	58733.78
668.662	58933.32
669.011	58782.14
669.361	58827.34
669.711	58817.17
670.06	58736.49
670.41	58686.32
670.76	58638.64
671.109	58794.12
671.459	58728.36
671.808	58702.37
672.157	58703.27
672.507	58605.87
672.856	58586.44
673.205	58645.87
673.554	58655.82
673.904	58617.85
674.253	58750.73
674.602	58591.64
674.951	58334.47
675.3	58195.49
675.649	58644.29
675.998	58571.07
676.346	58595.71
676.695	58642.94
677.044	58413.79
677.393	58514.13
677.741	58552.54
678.09	58447.69
678.438	58375.82
678.787	58454.24
679.135	58484.3
679.484	58325.2
679.832	58368.14
680.181	58343.73
680.529	58337.18
680.877	58262.83
681.225	58274.36
681.573	58427.12
681.922	58259.22
682.27	58187.81
682.618	58243.85
682.966	58202.5
683.314	58174.93
683.661	58094.93
684.009	58095.83
684.357	58013.35
684.705	57949.17
685.053	58017.64
685.4	57907.14
685.748	57905.78
686.095	57902.62
686.443	57746.46
686.79	57705.56
687.138	57852
687.485	57793.47
687.832	57670.31
688.18	57680.93
688.527	57579.91
688.874	57622.17
689.221	57512.57
689.568	57418.56
689.915	57426.02
690.262	57512.8
690.609	57414.72
690.956	57228.06
691.303	57294.04
691.65	57173.6
691.997	57232.13
692.344	57106.48
692.69	57057.89
693.037	57048.4
693.383	56929.99
693.73	56902.19
694.077	56785.13
694.423	56788.52
694.769	56713.95
695.116	56698.58
695.462	56620.39
695.808	56530.67
696.155	56568.64
696.501	56363.9
696.847	56469.66
697.193	56238.93
697.539	56319.38
697.885	56087.75
698.231	56018.15
698.577	56049.11
698.923	56037.81
699.269	55820.64
699.614	55735.89
699.96	55746.74
700.306	55750.36
700.651	55593.75
700.997	55520.53
701.342	55453.19
701.688	55479.85
702.033	55282.57
702.379	55313.08
702.724	55244.38
703.069	55325.06
703.415	54980.88
703.76	54978.17
704.105	55002.58
704.45	54911.51
704.795	54681.68
705.14	54622.48
705.485	54654.34
705.83	54546.09
706.175	54630.84
706.52	54415.02
706.865	54438.75
707.209	54291.86
707.554	54252.54
707.899	54319.66
708.243	54123.96
708.588	54134.35
708.932	53897.98
709.277	54007.13
709.621	53903.85
709.966	53717.87
710.31	53780.24
710.654	53531.66
710.998	53679.9
711.342	53530.3
711.687	53510.64
712.031	53399.46
712.375	53221.16
712.719	53294.38
713.063	53171.44
713.407	53277.65
713.75	53128.28
714.094	53066.36
714.438	53033.37
714.782	53054.83
715.125	52889.19
715.469	53012.58
715.812	52603.09
716.156	52620.27
716.499	52600.61
716.843	52697.1
717.186	52444.23
717.53	52645.13
717.873	52628.63
718.216	52473.83
718.559	52321.29
718.902	52084.92
719.246	52199.94
719.589	52168.3
719.932	52090.34
720.275	52064.8
720.617	51981.64
720.96	51834.07
721.303	51916.56
721.646	51965.82
721.989	51681.08
722.331	51780.97
722.674	51696.68
723.016	51637.02
723.359	51521.99
723.701	51591.82
724.044	51482.67
724.386	51266.41
724.729	51456.46
725.071	51454.2
725.413	51259.4
725.755	51239.06
726.097	51220.08
726.439	51057.15
726.782	51045.85
727.124	51187.99
727.465	51079.29
727.807	50834.78
728.149	51004.72
728.491	50681.56
728.833	50827.1
729.175	50771.05
729.516	50548.91
729.858	50635.46
730.199	50705.29
730.541	50592.75
730.882	50473.66
731.224	50494
731.565	50283.16
731.906	50305.75
732.248	50329.26
732.589	50211.52
732.93	50087.45
733.271	50228.69
733.612	50107.11
733.953	50072.09
734.294	50028.7
734.635	49898.76
734.976	49952.99
735.317	49979.66
735.658	49807.24
735.999	49720.68
736.339	49756.39
736.68	49707.13
737.021	49722.72
737.361	49542.61
737.702	49729.5
738.042	49558.43
738.383	49561.59
738.723	49646.34
739.063	49530.41
739.404	49550.97
739.744	49413.57
740.084	49199.79
740.424	49341.94
740.764	49201.15
741.104	49383.07
741.444	49184.2
741.784	48967.94
742.124	49154.82
742.464	49097.65
742.804	49061.94
743.143	48982.85
743.483	48978.1
743.823	48741.73
744.162	48732.91
744.502	48866.24
744.841	48664.44
745.181	48939.01
745.52	48689.07
745.86	48676.64
746.199	48637.77
746.538	48577.66
746.877	48671.9
747.216	48371.57
747.556	48322.08
747.895	48319.37
748.234	48292.02
748.573	48175.64
748.911	48166.37
749.25	48186.26
749.589	47913.73
749.928	48045.47
750.267	48066.04
750.605	47810
750.944	47815.88
751.283	47734.97
751.621	47805.71
751.96	47522.1
752.298	47556.22
752.636	47665.6
752.975	47443.68
753.313	47271.48
753.651	47474.64
753.989	47319.62
754.327	47235.55
754.666	46857.93
755.004	47064.71
755.342	47063.13
755.679	47005.28
756.017	46777.94
756.355	46869.91
756.693	46677.6
757.031	46699.97
757.368	46347.44
757.706	46338.63
758.044	46292.3
758.381	46381.56
758.719	46234
759.056	46177.5
759.394	45995.13
759.731	45682.15
760.068	45745.65
760.405	45612.54
760.743	45510.63
761.08	45368.03
761.417	45316.05
761.754	45173.69
762.091	45129.84
762.428	44866.12
762.765	44734.83
763.102	44723.75
763.438	44724.88
763.775	44380.49
764.112	44349.07
764.449	44218.68
764.785	44238.79
765.122	43990.21
765.458	43818.92
765.795	43802.42
766.131	43820.05
766.467	43683.78
766.804	43355.65
767.14	43159.95
767.476	43014.19
767.812	43094.64
768.148	42977.13
768.485	42803.13
768.821	42619.4
769.157	42632.73
769.492	42482
769.828	42344.38
770.164	41962.24
770.5	41792.08
770.836	41940.32
771.171	41749.82
771.507	41599.77
771.842	41387.34
772.178	41174.24
772.513	41003.17
772.849	40904.87
773.184	40818.09
773.519	40799.11
773.855	40579.23
774.19	40563.18
774.525	40215.62
774.86	40367.94
775.195	40176.3
775.53	39986.93
775.865	39770.66
776.2	39510.11
776.535	39399.6
776.87	39225.37
777.205	39139.04
777.539	39020.17
777.874	38971.81
778.209	38680.97
778.543	38720.75
778.878	38476.46
779.212	38523.46
779.547	38277.14
779.881	38070.82
780.215	37779.53
780.55	37882.8
780.884	37489.82
781.218	37413.44
781.552	37467.45
781.886	37228.81
782.22	37020.23
782.554	36932.32
782.888	36728.48
783.222	36605.32
783.556	36398.55
783.889	36389.28
784.223	36224.77
784.557	36009.41
784.89	36109.97
785.224	35851.22
785.557	35576.2
785.891	35577.1
786.224	35568.29
786.558	35273.38
786.891	35135.98
787.224	34942.54
787.557	34816.22
787.891	34862.09
788.224	34647.86
788.557	34624.13
788.89	34507.98
789.223	34372.61
789.556	34240.41
789.888	34199.28
790.221	33903.7
790.554	33731.05
790.887	33852.63
791.219	33590.26
791.552	33462.58
791.884	33247.45
792.217	33228.01
792.549	33229.59
792.882	32992.31
793.214	32788.25
793.546	32742.6
793.879	32690.62
794.211	32421.7
794.543	32605.88
794.875	32319.79
795.207	32199.34
795.539	32101.26
795.871	32174.93
796.203	31912.56
796.535	31756.86
796.867	31673.7
797.198	31641.61
797.53	31546.92
797.862	31388.96
798.193	31346.03
798.525	31238.23
798.856	31220.38
799.188	30879.15
799.519	30750.11
799.85	30653.39
800.182	30638.02
800.513	30757.57
800.844	30282.33
801.175	30674.63
801.506	30480.51
801.837	30233.06
802.168	30221.76
802.499	30294.75
802.83	29943.8
803.161	29861.55
803.491	29893.18
803.822	29906.97
804.153	29657.93
804.483	29495.91
804.814	29233.77
805.145	29461.78
805.475	29353.31
805.805	29412.52
806.136	29360.99
806.466	28965.98
806.796	29130.94
807.126	28808.47
807.457	28686.89
807.787	29032.19
808.117	28678.98
808.447	28631.97
808.777	28702.48
809.107	28363.51
809.436	28327.35
809.766	28357.63
810.096	28325.99
810.426	28210.29
810.755	28186.11
811.085	28107.92
811.414	28105.21
811.744	27823.41
812.073	27867.47
812.403	27725.78
812.732	27653.24
813.061	27847.59
813.39	27449.18
813.719	27479.46
814.049	27579.35
814.378	27391.1
814.707	27236.53
815.036	27302.52
815.365	27065.69
815.693	26942.75
816.022	26896.65
816.351	26831.34
816.68	26873.38
817.008	26833.6
817.337	26669.09
817.665	26563.78
817.994	26516.55
818.322	26677.45
818.651	26680.16
818.979	26426.16
819.307	26506.38
819.636	26355.65
819.964	26281.98
820.292	26296.22
820.62	26219.83
820.948	26310.45
821.276	26407.17
821.604	26136.45
821.932	26424.35
822.259	26255.76
822.587	26133.51
822.915	26132.15
823.243	26173.28
823.57	26163.11
823.898	26083.11
824.225	26137.8
824.553	26124.47
824.88	26238.36
825.207	26227.74
825.535	26071.36
825.862	26239.95
826.189	26138.03
826.516	26234.52
826.843	26190.46
827.17	26332.82
827.497	26159.27
827.824	26232.26
828.151	26368.53
828.478	26172.15
828.805	26337.57
829.131	26182.77
829.458	26165.15
829.785	26061.42
830.111	26166.28
830.438	26283.79
830.764	26110.23
831.09	26294.18
831.417	26173.51
831.743	26289.66
832.069	26056.45
832.395	26094.64
832.722	26152.72
833.048	26079.5
833.374	26161.76
833.7	25940.07
834.026	25976
834.351	26025.94
834.677	26082.66
835.003	26087.63
835.329	25942.78
835.654	25986.39
835.98	25692.39
836.306	26012.83
836.631	25758.15
836.956	26016
837.282	25864.81
837.607	25762.22
837.932	25798.6
838.258	25672.05
838.583	25612.39
838.908	25567.65
839.233	25611.49
839.558	25520.42
839.883	25584.37
840.208	25321.78
840.533	25448.1
840.858	25436.35
841.182	25448.78
841.507	25308.44
841.832	25187.77
842.156	25242.23
842.481	25225.06
842.805	25076.36
843.13	25042.24
843.454	25011.28
843.778	24897.38
844.103	24971.05
844.427	24771.96
844.751	24849.93
845.075	24714.34
845.399	24690.16
845.723	24485.87
846.047	24619.88
846.371	24431.86
846.695	24370.16
847.019	24242.94
847.343	24150.28
847.666	24098.76
847.99	23890.18
848.313	23882.27
848.637	23862.83
848.96	23669.39
849.284	23728.15
849.607	23433.24
849.931	23468.95
850.254	23294.49
850.577	23041.16
850.9	23061.95
851.223	22965.91
851.546	22906.7
851.869	22747.83
852.192	22928.62
852.515	22708.06
852.838	22521.63
853.161	22478.01
853.483	22314.63
853.806	22365.47
854.129	22319.82
854.451	22285.93
854.774	22136.55
855.096	22103.11
855.419	22040.06
855.741	21871.02
856.063	21818.37
856.385	21736.34
856.708	21778.59
857.03	21777.24
857.352	21666.96
857.674	21634.42
857.996	21610.01
858.318	21428.09
858.64	21434.2
858.961	21284.82
859.283	21112.4
859.605	21049.57
859.926	21155.79
860.248	21039.86
860.57	21043.25
860.891	20984.49
861.212	20907.43
861.534	20812.29
861.855	20725.51
862.176	20793.76
862.498	20746.08
862.819	20726.42
863.14	20591.05
863.461	20612.75
863.782	20471.51
864.103	20614.56
864.424	20434
864.745	20499.31
865.065	20411.62
865.386	20247.79
865.707	20357.84
866.027	20312.87
866.348	20278.07
866.668	20083.5
866.989	20115.36
867.309	19982.94
867.63	20025.19
867.95	19971.86
868.27	19858.87
868.59	19960.56
868.91	19838.08
869.23	19894.35
869.55	19785.88
869.87	19919.89
870.19	19800.34
870.51	19781.13
870.83	19688.48
871.15	19635.15
871.469	19706.78
871.789	19686.45
872.109	19598.54
872.428	19564.19
872.748	19514.02
873.067	19463.63
873.386	19528.48
873.706	19438.54
874.025	19395.61
874.344	19309.73
874.663	19401.03
874.982	19267.47
875.301	19260.69
875.62	19286.68
875.939	19147.93
876.258	19193.8
876.577	19132.79
876.896	19070.64
877.214	19022.28
877.533	19097.99
877.852	19141.15
878.17	18953.81
878.489	19023.41
878.807	18879.69
879.125	18922.85
879.444	18991.77
879.762	18727.37
880.08	18882.4
880.398	18773.7
880.716	18809.41
881.034	18665.46
881.352	18676.98
881.67	18593.82
881.988	18610.77
882.306	18571.45
882.624	18564.44
882.941	18402.86
883.259	18342.98
883.577	18356.31
883.894	18198.35
884.212	18265.47
884.529	18224.56
884.846	18295.52
885.164	18103.66
885.481	18097.56
885.798	18088.3
886.115	17964.91
886.432	17938.92
886.75	17964.23
887.067	17972.59
887.383	17785.93
887.7	17781.41
888.017	17735.54
888.334	17741.86
888.651	17677.68
888.967	17712.94
889.284	17582.55
889.6	17613.05
889.917	17340.52
890.233	17397.24
890.55	17335.32
890.866	17303.23
891.182	17381.87
891.498	17283.8
891.815	17301.2
892.131	17055.33
892.447	17141.65
892.763	16983.24
893.079	16856.46
893.395	16897.14
893.71	16838.16
894.026	16898.04
894.342	16815.11
894.657	16610.37
894.973	16718.84
895.289	16734.66
895.604	16556.58
895.92	16510.71
896.235	16490.15
896.55	16428.45
896.865	16333.54
897.181	16312.75
897.496	16292.64
897.811	16160.21
898.126	16145.97
898.441	16114.79
898.756	16026.88
899.071	15955.47
899.386	15989.37
899.7	15841.57
900.015	15800.67
900.33	15731.97
900.644	15665.99
900.959	15628.93
901.273	15643.16
901.588	15588.7
901.902	15493.56
902.216	15394.81
902.531	15361.81
902.845	15319.1
903.159	15204.08
903.473	15176.28
903.787	15140.8
904.101	14986.91
904.415	15066.45
904.729	14985.1
905.042	14871.43
905.356	14859.91
905.67	14880.02
905.984	14786.24
906.297	14767.25
906.611	14691.55
906.924	14524.1
907.237	14522.29
907.551	14543.08
907.864	14448.39
908.177	14355.96
908.491	14377.88
908.804	14238.45
909.117	14124.56
909.43	14015.86
909.743	14023.54
910.056	14058.8
910.368	13938.35
910.681	13922.53
910.994	13818.58
911.307	13787.17
911.619	13729.09
911.932	13725.47
912.244	13630.33
912.557	13571.35
912.869	13385.14
913.181	13484.8
913.494	13355.09
913.806	13339.72
914.118	13280.96
914.43	13248.65
914.742	13236.9
915.054	13206.84
915.366	13147.41
915.678	13089.56
915.99	12955.55
916.302	12817.7
916.613	12822.9
916.925	12882.1
917.236	12747.87
917.548	12680.08
917.859	12614.09
918.171	12535.45
918.482	12503.58
918.794	12470.14
919.105	12472.85
919.416	12341.33
919.727	12322.8
920.038	12311.5
920.349	12182.46
920.66	12121.45
920.971	12170.03
921.282	12060.88
921.593	12018.4
921.903	11914.67
922.214	11840.1
922.525	11805.3
922.835	11762.36
923.146	11776.15
923.456	11668.8
923.767	11576.38
924.077	11620.67
924.387	11567.11
924.697	11530.5
925.008	11412.99
925.318	11446.66
925.628	11387
925.938	11307
926.248	11208.7
926.558	11104.75
926.867	11192.88
927.177	11080.12
927.487	11006.9
927.796	11007.13
928.106	10951.08
928.416	10812.78
928.725	10898.65
929.034	10834.7
929.344	10870.86
929.653	10796.51
929.962	10627.25
930.271	10680.35
930.581	10590.64
930.89	10484.65
931.199	10454.37
931.508	10450.53
931.817	10464.09
932.125	10372.34
932.434	10354.26
932.743	10211.89
933.051	10240.37
933.36	10196.53
933.669	10140.93
933.977	10058.68
934.286	9966.02
934.594	10003.76
934.902	9968.28
935.21	9913.14
935.519	9866.36
935.827	9888.29
936.135	9788.85
936.443	9733.94
936.751	9655.75
937.059	9696.2
937.367	9590.44
937.674	9580.5
937.982	9537.33
938.29	9483.55
938.597	9370.78
938.905	9386.6
939.213	9347.06
939.52	9323.1
939.827	9325.36
940.135	9331.69
940.442	9149.55
940.749	9195.65
941.056	9208.76
941.363	9064.8
941.67	9075.88
941.977	9046.05
942.284	9007.18
942.591	8969.21
942.898	8864.81
943.205	8884.24
943.511	8841.53
943.818	8843.11
944.125	8770.12
944.431	8674.76
944.738	8686.51
945.044	8625.95
945.35	8541.65
945.657	8543.24
945.963	8459.85
946.269	8435.22
946.575	8455.55
946.881	8331.94
947.187	8385.27
947.493	8316.12
947.799	8313.86
948.105	8250.81
948.41	8162.45
948.716	8205.39
949.022	8123.36
949.327	8122.23
949.633	8019.63
949.938	8051.72
950.244	7963.36
950.549	7933.76
950.854	7925.85
951.16	7909.81
951.465	7783.03
951.77	7839.3
952.075	7766.76
952.38	7762.92
952.685	7736.93
952.99	7637.04
953.294	7671.62
953.599	7608.8
953.904	7584.16
954.209	7549.36
954.513	7505.3
954.818	7479.76
955.122	7432.08
955.426	7425.3
955.731	7313.66
956.035	7287.9
956.339	7280.67
956.643	7302.14
956.948	7183.72
957.252	7185.76
957.556	7144.4
957.86	7180.56
958.163	7136.27
958.467	7046.78
958.771	7053.56
959.075	6990.28
959.378	6970.4
959.682	6971.98
959.985	6882.94
960.289	6865.54
960.592	6824.64
960.896	6830.29
961.199	6749.61
961.502	6733.79
961.805	6786.9
962.108	6685.43
962.411	6691.08
962.714	6608.15
963.017	6584.19
963.32	6651.31
963.623	6567.24
963.926	6483.85
964.228	6528.6
964.531	6455.38
964.833	6466.91
965.136	6402.95
965.438	6355.5
965.741	6350.07
966.043	6302.62
966.345	6284.76
966.648	6244.54
966.95	6286.35
967.252	6203.18
967.554	6182.17
967.856	6206.12
968.158	6113.24
968.46	6087.03
968.761	6073.47
969.063	6051.1
969.365	6004.09
969.666	5983.08
969.968	5908.05
970.269	5928.16
970.571	5899.01
970.872	5895.17
971.174	5832.8
971.475	5813.82
971.776	5829.41
972.077	5765.23
972.378	5757.32
972.679	5715.06
972.98	5702.63
973.281	5691.79
973.582	5662.18
973.883	5615.86
974.183	5620.6
974.484	5569.75
974.785	5540.15
975.085	5511.45
975.386	5474.39
975.686	5466.25
975.986	5466.71
976.287	5416.76
976.587	5376.77
976.887	5363.43
977.187	5351.68
977.487	5293.6
977.787	5254.51
978.087	5279.59
978.387	5237.11
978.687	5271.01
978.987	5215.19
979.286	5147.84
979.586	5139.48
979.885	5152.36
980.185	5114.85
980.484	5063.33
980.784	5067.62
981.083	4997.57
981.382	5021.52
981.682	4979.94
981.981	4950.34
982.28	4918.02
982.579	4911.47
982.878	4849.77
983.177	4915.53
983.475	4861.07
983.774	4820.62
984.073	4855.42
984.372	4768.65
984.67	4747.18
984.969	4744.69
985.267	4707.86
985.566	4635.09
985.864	4673.96
986.162	4650.68
986.461	4640.74
986.759	4601.87
987.057	4559.61
987.355	4544.7
987.653	4565.04
987.951	4487.75
988.249	4470.8
988.547	4476.45
988.844	4416.11
989.142	4446.62
989.44	4365.72
989.737	4361.65
990.035	4375.66
990.332	4322.78
990.63	4343.35
990.927	4358.04
991.224	4253.63
991.521	4256.12
991.819	4207.98
992.116	4231.71
992.413	4170.02
992.71	4159.62
993.006	4151.94
993.303	4164.14
993.6	4129.79
993.897	4109
994.193	4029.46
994.49	4069.91
994.787	4077.82
995.083	4027.87
995.379	3981.1
995.676	3949.01
995.972	3970.47
996.268	3949.01
996.565	3909.01
996.861	3889.12
997.157	3878.95
997.453	3815.45
997.749	3835.79
998.044	3788.33
998.34	3777.03
998.636	3784.94
998.932	3726.19
999.227	3730.03
999.523	3670.14
999.818	3688.9
1000.114	3675.79
1000.409	3651.39
1000.704	3614.33
1001	3622.24
1001.295	3568.23
1001.59	3558.51
1001.885	3529.58
1002.18	3516.7
1002.475	3527.1
1002.77	3488.68
1003.065	3471.28
1003.359	3462.92
1003.654	3448.45
1003.949	3349.93
1004.243	3353.99
1004.538	3354.22
1004.832	3344.5
1005.127	3281.91
1005.421	3301.34
1005.715	3262.24
1006.009	3280.78
1006.304	3262.92
1006.598	3229.25
1006.892	3233.09
1007.186	3212.53
1007.48	3166.65
1007.773	3160.1
1008.067	3123.27
1008.361	3110.38
1008.655	3088.69
1008.948	3039.2
1009.242	3036.94
1009.535	3055.47
1009.829	3006.43
1010.122	3021.8
1010.415	2967.34
1010.708	2963.04
1011.001	2953.78
1011.295	2950.39
1011.588	2896.83
1011.881	2878.07
1012.173	2879.88
1012.466	2891.41
1012.759	2827
1013.052	2827.91
1013.344	2794.23
1013.637	2755.37
1013.93	2732.32
1014.222	2773.44
1014.514	2705.65
1014.807	2666.78
1015.099	2704.52
1015.391	2696.84
1015.683	2660
1015.976	2654.13
1016.268	2632.88
1016.56	2565.54
1016.851	2561.25
1017.143	2575.71
1017.435	2559.21
1017.727	2569.16
1018.018	2523.06
1018.31	2498.2
1018.602	2490.74
1018.893	2488.93
1019.185	2429.27
1019.476	2459.1
1019.767	2427.46
1020.058	2410.52
1020.35	2404.19
1020.641	2340.24
1020.932	2356.51
1021.223	2296.39
1021.514	2302.04
1021.804	2295.26
1022.095	2248.49
1022.386	2297.52
1022.677	2233.8
1022.967	2244.87
1023.258	2213.91
1023.548	2192.22
1023.839	2178.88
1024.129	2187.24
1024.419	2185.44
1024.709	2147.25
1025	2120.81
1025.29	2136.17
1025.58	2135.27
1025.87	2065.44
1026.16	2044.65
1026.449	2072.9
1026.739	2029.96
1027.029	2004.88
1027.319	2022.73
1027.608	1992
1027.898	1997.87
1028.187	1978.44
1028.477	1971.88
1028.766	1947.48
1029.055	1935.27
1029.344	1938.44
1029.634	1873.81
1029.923	1869.29
1030.212	1840.36
1030.501	1840.81
1030.79	1831.32
1031.078	1833.13
1031.367	1798.33
1031.656	1807.37
1031.945	1799.46
1032.233	1780.93
1032.522	1767.82
1032.81	1751.78
1033.099	1727.14
1033.387	1733.7
1033.675	1747.71
1033.963	1710.65
1034.251	1673.81
1034.54	1673.59
1034.828	1703.19
1035.116	1626.81
1035.403	1642.17
1035.691	1620.25
1035.979	1632.91
1036.267	1606.7
1036.554	1562.85
1036.842	1608.5
1037.129	1585
1037.417	1533.02
1037.704	1562.85
1037.992	1556.07
1038.279	1530.54
1038.566	1492.57
1038.853	1492.57
1039.14	1492.57
