Data from 15-1247_FLMS001491_004.txt Node
Date: Thu Apr 19 16:10:28 BST 2018
User: hsy
Spectrometer: FLMS00149
Trigger mode: 0
Integration Time (sec): 1.000000E-2
Scans to average: 10
Electric dark correction enabled: true
Nonlinearity correction enabled: false
Boxcar width: 0
XAxis mode: Wavelengths
Number of Pixels in Spectrum: 2048
>>>>>Begin Spectral Data<<<<<
341.393	-12.94
341.776	-12.94
342.16	-12.94
342.543	-64.91
342.927	-64.46
343.31	-76.21
343.693	-56.33
344.077	-59.72
344.46	-76.66
344.843	-72.82
345.226	-45.03
345.61	-31.24
345.993	-16.78
346.376	-5.48
346.759	5.82
347.142	39.04
347.525	55.54
347.908	78.13
348.291	62.09
348.674	79.26
349.057	120.39
349.44	137.79
349.823	134.86
350.206	149.54
350.588	222.31
350.971	264.34
351.354	287.62
351.737	271.12
352.119	282.42
352.502	322.87
352.884	307.73
353.267	322.42
353.65	346.38
354.032	352.7
354.414	347.5
354.797	331.46
355.179	366.94
355.562	351.8
355.944	375.07
356.326	371.46
356.709	361.97
357.091	369.88
357.473	380.27
357.855	396.54
358.238	397.22
358.62	388.86
359.002	380.05
359.384	376.66
359.766	378.92
360.148	379.59
360.53	418.92
360.912	380.95
361.294	390.44
361.676	389.31
362.057	376.88
362.439	374.85
362.821	371.69
363.203	380.05
363.584	378.46
363.966	358.58
364.348	371.23
364.729	377.33
365.111	359.93
365.493	362.19
365.874	372.59
366.256	380.72
366.637	366.26
367.019	357.45
367.4	369.88
367.781	386.6
368.163	382.31
368.544	357
368.925	363.55
369.306	378.92
369.688	380.5
370.069	345.92
370.45	380.5
370.831	369.43
371.212	383.21
371.593	370.56
371.974	373.27
372.355	363.32
372.736	386.6
373.117	389.31
373.498	372.36
373.879	365.58
374.26	362.19
374.641	371.01
375.021	388.18
375.402	387.5
375.783	394.96
376.163	398.58
376.544	401.29
376.925	406.94
377.305	400.84
377.686	392.93
378.066	381.85
378.447	399.93
378.827	411.91
379.208	414.62
379.588	421.4
379.968	402.19
380.349	416.88
380.729	425.7
381.109	391.12
381.489	414.62
381.87	427.5
382.25	424.57
382.63	432.47
383.01	426.15
383.39	415.75
383.77	423.89
384.15	432.47
384.53	442.87
384.91	427.28
385.29	424.57
385.67	432.02
386.049	478.8
386.429	435.86
386.809	455.52
387.189	457.33
387.568	470.67
387.948	456.2
388.328	456.65
388.707	476.77
389.087	473.83
389.466	465.69
389.846	480.38
390.225	467.28
390.605	473.15
390.984	495.98
391.363	483.09
391.743	503.21
392.122	492.59
392.501	499.82
392.881	492.59
393.26	518.12
393.639	498.24
394.018	484.9
394.397	513.38
394.776	512.47
395.155	505.24
395.534	514.05
395.913	524.68
396.292	518.57
396.671	530.78
397.05	537.56
397.429	538.23
397.808	522.42
398.186	540.95
398.565	559.7
398.944	563.77
399.323	553.83
399.701	546.37
400.08	539.36
400.458	557.89
400.837	545.92
401.215	585.92
401.594	550.66
401.972	566.93
402.351	585.69
402.729	573.26
403.107	576.88
403.486	583.43
403.864	602.64
404.242	617.78
404.62	587.72
404.999	606.03
405.377	600.38
405.755	616.2
406.133	629.31
406.511	608.52
406.889	608.97
407.267	646.93
407.645	637.44
408.023	650.55
408.401	682.86
408.779	670.21
409.156	666.14
409.534	664.78
409.912	670.66
410.29	691.68
410.667	705.69
411.045	722.64
411.422	721.73
411.8	713.6
412.178	728.96
412.555	738.68
412.933	725.12
413.31	749.53
413.687	770.77
414.065	776.87
414.442	782.07
414.819	786.36
415.197	777.32
415.574	796.76
415.951	794.95
416.328	780.04
416.705	824.1
417.082	793.82
417.46	801.5
417.837	832.92
418.214	822.07
418.591	849.41
418.967	861.16
419.344	850.99
419.721	860.71
420.098	850.32
420.475	882.63
420.852	866.59
421.228	872.01
421.605	876.08
421.982	888.96
422.358	920.37
422.735	903.42
423.111	907.72
423.488	922.86
423.864	938.45
424.241	941.39
424.617	942.29
424.994	946.13
425.37	946.13
425.746	966.47
426.123	965.57
426.499	996.3
426.875	978.45
427.251	1025.23
427.627	1004.66
428.003	1023.19
428.379	1045.34
428.756	1041.27
429.132	1065.68
429.507	1061.16
429.883	1071.33
430.259	1093.02
430.635	1106.81
431.011	1130.54
431.387	1121.5
431.763	1132.34
432.138	1165.79
432.514	1168.05
432.89	1167.37
433.265	1202.62
433.641	1203.3
434.016	1189.74
434.392	1213.02
434.767	1247.37
435.143	1254.83
435.518	1237.88
435.894	1273.36
436.269	1295.28
436.644	1298.67
437.02	1317.87
437.395	1296.18
437.77	1356.74
438.145	1323.07
438.52	1367.82
438.895	1359
439.271	1366.69
439.646	1366.69
440.021	1418.44
440.395	1400.58
440.77	1382.51
441.145	1412.56
441.52	1414.82
441.895	1407.36
442.27	1423.86
442.645	1446.23
443.019	1447.82
443.394	1472.45
443.769	1489.17
444.143	1466.35
444.518	1480.81
444.892	1484.88
445.267	1476.29
445.641	1493.69
446.016	1536.4
446.39	1526.01
446.764	1539.11
447.139	1532.11
447.513	1549.06
447.887	1569.39
448.262	1544.08
448.636	1560.13
449.01	1593.12
449.384	1672.22
449.758	1615.95
450.132	1669.96
450.506	1647.36
450.88	1661.14
451.254	1643.97
451.628	1668.83
452.002	1695.27
452.376	1716.51
452.75	1712.67
453.123	1715.83
453.497	1754.02
453.871	1775.04
454.244	1841.25
454.618	1825.88
454.992	1858.65
455.365	1861.82
455.739	1915.83
456.112	1904.98
456.486	1935.03
456.859	1940.91
457.232	1980.68
457.606	2003.28
457.979	1991.08
458.352	2032.88
458.725	2073.56
459.099	2074.92
459.472	2095.93
459.845	2151.07
460.218	2139.32
460.591	2154.69
460.964	2186.55
461.337	2205.31
461.71	2246.66
462.083	2268.36
462.456	2299.32
462.829	2309.49
463.201	2364.18
463.574	2357.17
463.947	2365.08
464.32	2422.25
464.692	2441.01
465.065	2449.82
465.438	2468.35
465.81	2501.57
466.183	2539.09
466.555	2540.22
466.928	2591.29
467.3	2556.03
467.672	2607.56
468.045	2675.81
468.417	2707.44
468.789	2736.14
469.161	2725.52
469.534	2760.1
469.906	2833.99
470.278	2860.89
470.65	2859.53
471.022	2942.24
471.394	2960.32
471.766	3001.9
472.138	3042.58
472.51	3078.96
472.882	3117.83
473.253	3172.97
473.625	3202.12
473.997	3263.59
474.369	3249.8
474.74	3338.61
475.112	3416.58
475.484	3410.7
475.855	3449.34
476.227	3488.67
476.598	3604.37
476.97	3635.78
477.341	3724.59
477.713	3751.48
478.084	3803.91
478.455	3894.76
478.827	3945.6
479.198	4038.93
479.569	4049.55
479.94	4140.85
480.311	4222.66
480.682	4269.89
481.053	4398.7
481.424	4465.14
481.795	4532.93
482.166	4590.33
482.537	4652.93
482.908	4740.61
483.279	4824
483.65	4904.67
484.021	5031.68
484.391	5067.61
484.762	5149.86
485.133	5189.64
485.503	5315.06
485.874	5422.85
486.244	5525.22
486.615	5658.78
486.985	5667.37
487.356	5766.57
487.726	5921.37
488.097	6021.03
488.467	6052.89
488.837	6239.1
489.207	6262.15
489.578	6484.52
489.948	6520
490.318	6652.88
490.688	6663.95
491.058	6827.11
491.428	6958.86
491.798	7019.87
492.168	7162.24
492.538	7264.39
492.908	7415.57
493.278	7559.74
493.648	7605.39
494.017	7749.8
494.387	7796.57
494.757	7968.32
495.126	8032.27
495.496	8178.71
495.866	8270.46
496.235	8368.31
496.605	8516.1
496.974	8622.09
497.344	8766.04
497.713	8882.42
498.082	8981.18
498.452	9081.51
498.821	9237.21
499.19	9289.87
499.559	9510.65
499.928	9520.37
500.298	9679.91
500.667	9741.16
501.036	9836.75
501.405	9972.34
501.774	10068.61
502.143	10228.15
502.512	10274.02
502.88	10495.49
503.249	10467.92
503.618	10675.14
503.987	10687.35
504.356	10911.52
504.724	11008.69
505.093	11096.15
505.462	11186.09
505.83	11323.26
506.199	11518.96
506.567	11555.8
506.936	11556.7
507.304	11786.3
507.672	11907.65
508.041	12040.53
508.409	12157.82
508.777	12271.71
509.145	12409.11
509.514	12501.31
509.882	12596.45
510.25	12723.22
510.618	12801.64
510.986	12940.85
511.354	12983.78
511.722	13180.39
512.09	13370.21
512.458	13274.4
512.826	13494.73
513.193	13552.81
513.561	13675.29
513.929	13722.07
514.297	13937.88
514.664	14090.42
515.032	14182.4
515.4	14299.91
515.767	14308.95
516.135	14475.27
516.502	14380.58
516.869	14700.8
517.237	14784.41
517.604	14735.38
517.972	14985.09
518.339	15096.95
518.706	15167.68
519.073	15231.18
519.44	15373.32
519.808	15617.61
520.175	15667.33
520.542	15792.52
520.909	15922.91
521.276	16022.12
521.643	16175.79
522.009	16335.79
522.376	16423.47
522.743	16545.72
523.11	16695.32
523.477	16865.04
523.843	16964.7
524.21	17219.38
524.577	17247.17
524.943	17496.88
525.31	17496.43
525.676	17691.23
526.043	17879.7
526.409	18025.46
526.776	18203.53
527.142	18213.93
527.508	18459.8
527.874	18557.87
528.241	18594.71
528.607	18805.55
528.973	18961.48
529.339	19048.48
529.705	19321.02
530.071	19475.82
530.437	19549.26
530.803	19657.05
531.169	19763.27
531.535	19880.1
531.901	19948.8
532.267	19988.8
532.632	20185.4
532.998	20359.41
533.364	20426.98
533.73	20475.11
534.095	20680.08
534.461	20713.75
534.826	20901.31
535.192	20967.75
535.557	21141.53
535.923	21089.11
536.288	21252.04
536.653	21376.1
537.019	21325.94
537.384	21404.58
537.749	21627.62
538.114	21617.45
538.479	21612.03
538.845	21822.42
539.21	21863.78
539.575	21903.55
539.94	21982.42
540.305	22093.83
540.67	22257.21
541.034	22232.81
541.399	22292.01
541.764	22360.94
542.129	22461.05
542.494	22516.19
542.858	22666.92
543.223	22648.16
543.587	22772.45
543.952	22835.73
544.316	22915.05
544.681	22873.01
545.045	23054.7
545.41	23107.36
545.774	23082.5
546.138	23094.93
546.503	23330.4
546.867	23273.46
547.231	23473.22
547.595	23577.63
547.959	23502.15
548.324	23523.39
548.688	23766.78
549.052	23871.41
549.416	23706.21
549.779	23871.18
550.143	23961.8
550.507	24038.18
550.871	24084.28
551.235	24094.23
551.599	24392.07
551.962	24354.78
552.326	24475.91
552.689	24515.23
553.053	24332.19
553.417	24627.77
553.78	24798.61
554.143	24861.21
554.507	24834.77
554.87	25011.04
555.234	25180.75
555.597	24989.12
555.96	25057.82
556.323	25203.8
556.686	25420.07
557.05	25459.16
557.413	25589.1
557.776	25575.32
558.139	25855.99
558.502	25891.92
558.865	25994.51
559.228	26087.39
559.59	26178.69
559.953	26012.14
560.316	26495.29
560.679	26530.09
561.041	26581.39
561.404	26761.73
561.767	27003.98
562.129	26937.31
562.492	27175.27
562.854	27130.98
563.217	27151.32
563.579	27410.07
563.941	27554.25
564.304	27536.39
564.666	27879.66
565.028	27905.65
565.39	27927.12
565.753	28159.43
566.115	28239.2
566.477	28534.33
566.839	28504.73
567.201	28768.9
567.563	28728.45
567.925	28985.85
568.287	28995.57
568.648	29115.34
569.01	29458.83
569.372	29605.27
569.734	29567.3
570.095	29937.91
570.457	29996.44
570.819	30030.34
571.18	30161.18
571.542	30398.01
571.903	30415.19
572.265	30744.9
572.626	30830.32
572.987	30868.51
573.349	31193.93
573.71	31399.8
574.071	31373.13
574.432	31707.36
574.794	31971.08
575.155	32060.57
575.516	32065.77
575.877	32228.47
576.238	32385.76
576.599	32478.64
576.96	32717.5
577.32	32858.74
577.681	32948.68
578.042	33144.83
578.403	33178.51
578.763	33368.33
579.124	33494.66
579.485	33866.4
579.845	33968.54
580.206	34055.77
580.566	34188.65
580.927	34355.2
581.287	34709.77
581.648	34785.02
582.008	35146.36
582.368	35231.56
582.728	35484.21
583.089	35641.94
583.449	35971.88
583.809	36084.19
584.169	36365.77
584.529	36435.82
584.889	36955.36
585.249	37063.6
585.609	37076.48
585.969	37611.84
586.329	37732.96
586.688	38040.75
587.048	38400.74
587.408	38708.08
587.768	38936.32
588.127	39224.9
588.487	39531.56
588.846	40006.35
589.206	40016.07
589.565	40455.6
589.925	40933.33
590.284	41135.36
590.643	41457.38
591.003	41987.31
591.362	42337.36
591.721	42647.64
592.08	42907.06
592.44	43429.08
592.799	43609.42
593.158	44109.97
593.517	44270.64
593.876	44767.81
594.235	45013.45
594.593	45344.06
594.952	45819.08
595.311	45860.21
595.67	46319.4
596.029	46816.11
596.387	47239.83
596.746	47523.89
597.104	47579.94
597.463	48003.43
597.822	48480.48
598.18	48617.65
598.538	48953.01
598.897	49529.94
599.255	49529.26
599.613	50125.86
599.972	50144.16
600.33	50409.24
600.688	50564.94
601.046	50951.6
601.404	51414.18
601.762	51487.4
602.12	51821.41
602.478	52028.86
602.836	52279.25
603.194	52277.66
603.552	52536.42
603.91	52747.94
604.268	53045.55
604.625	53217.08
604.983	53556.95
605.341	53516.5
605.698	53902.03
606.056	54189.71
606.413	54165.3
606.771	54521.45
607.128	54654.33
607.485	54639.41
607.843	54910.59
608.2	55122.56
608.557	55448.66
608.914	55469.45
609.272	55747.4
609.629	55838.93
609.986	56062.88
610.343	56142.65
610.7	56482.07
611.057	56443.88
611.414	56548.06
611.771	56807.04
612.127	56966.13
612.484	57055.62
612.841	57207.93
613.198	57219.68
613.554	57289.06
613.911	57579.9
614.267	57690.4
614.624	57752.32
614.98	57916.16
615.337	58105.08
615.693	58158.41
616.05	58256.04
616.406	58407.22
616.762	58452.42
617.118	58525.18
617.475	58562.7
617.831	58715.69
618.187	58822.13
618.543	58922.69
618.899	59113.42
619.255	59092.63
619.611	59145.96
619.967	59373.98
620.323	59401.77
620.678	59370.59
621.034	59367.42
621.39	59468.44
621.746	59503.46
622.101	59786.62
622.457	59614.65
622.812	59837.47
623.168	59905.94
623.523	59838.6
623.879	59950.01
624.234	59837.69
624.589	59995.88
624.945	60012.15
625.3	60094.18
625.655	60108.42
626.01	60165.59
626.365	60260.73
626.72	60122.2
627.075	60182.54
627.43	60250.11
627.785	60248.08
628.14	60256.44
628.495	60314.29
628.85	60333.5
629.205	60272.93
629.559	60427.73
629.914	60308.64
630.269	60392.25
630.623	60292.14
630.978	60268.64
631.332	60415.76
631.687	60405.13
632.041	60413.72
632.396	60348.19
632.75	60368.75
633.104	60380.05
633.459	60228.42
633.813	60300.05
634.167	60348.41
634.521	60288.3
634.875	60356.55
635.229	60392.71
635.583	60211.02
635.937	60204.69
636.291	60258.25
636.645	60291.69
636.999	60126.95
637.352	60287.17
637.706	60166.5
638.06	60213.5
638.413	60188.19
638.767	60112.04
639.121	60146.16
639.474	60017.8
639.828	60122.2
640.181	60039.27
640.534	60091.24
640.888	59972.83
641.241	59907.52
641.594	59863.23
641.947	60000.17
642.301	59904.58
642.654	59943.23
643.007	59879.95
643.36	59976.67
643.713	59897.13
644.066	59955.2
644.419	59729.67
644.771	59565.38
645.124	59277.03
645.477	59295.56
645.83	59194.55
646.182	59179.86
646.535	59132.63
646.888	59142.34
647.24	59118.84
647.593	59235.22
647.945	59122.23
648.298	59029.58
648.65	58958.62
649.002	58802.24
649.355	58847.44
649.707	58771.51
650.059	58785.97
650.411	59125.17
650.763	59166.3
651.115	59552.95
651.467	59421.21
651.819	59372.17
652.171	59356.35
652.523	59255.79
652.875	59291.72
653.227	59209.91
653.578	59423.24
653.93	59311.83
654.282	59223.02
654.633	59092.85
654.985	59254.43
655.337	59204.71
655.688	59125.39
656.039	59235.22
656.391	58996.36
656.742	59111.61
657.094	59067.32
657.445	59048.79
657.796	59075.45
658.147	58997.94
658.498	59071.61
658.849	59102.57
659.2	58963.36
659.551	58883.59
659.902	58995.45
660.253	58846.76
660.604	58919.07
660.955	58847.66
661.306	58967.21
661.656	58823.48
662.007	58833.2
662.358	58906.87
662.708	58898.28
663.059	58866.87
663.409	58623.03
663.76	58786.42
664.11	58752.3
664.461	58811.28
664.811	58815.8
665.161	58809.24
665.511	58746.87
665.862	58718.17
666.212	58760.66
666.562	58802.92
666.912	58658.51
667.262	58693.09
667.612	58636.14
667.962	58701.68
668.312	58621.9
668.662	58706.65
669.011	58652.19
669.361	58627.78
669.711	58640.66
670.06	58622.36
670.41	58534.22
670.76	58647.67
671.109	58651.06
671.459	58589.36
671.808	58564.05
672.157	58622.81
672.507	58462.59
672.856	58460.78
673.205	58490.38
673.554	58651.06
673.904	58452.42
674.253	58633.43
674.602	58491.96
674.951	58267.56
675.3	58083.84
675.649	58581.23
675.998	58556.82
676.346	58544.84
676.695	58544.17
677.044	58433.21
677.393	58412.87
677.741	58540.78
678.09	58446.77
678.438	58353.89
678.787	58405.41
679.135	58415.13
679.484	58303.95
679.832	58304.63
680.181	58233.67
680.529	58258.98
680.877	58194.12
681.225	58197.74
681.573	58404.06
681.922	58165.42
682.27	58180.56
682.618	58175.59
682.966	58150.73
683.314	58121.58
683.661	58120.9
684.009	58053.11
684.357	58000.68
684.705	57979.21
685.053	57936.5
685.4	57872.55
685.748	57880.91
686.095	57817.86
686.443	57713.91
686.79	57758.88
687.138	57772.21
687.485	57748.93
687.832	57614.02
688.18	57693.12
688.527	57631.65
688.874	57561.59
689.221	57496.74
689.568	57460.35
689.915	57442.5
690.262	57478.88
690.609	57350.53
690.956	57358.66
691.303	57329.96
691.65	57124.77
691.997	57187.82
692.344	57108.72
692.69	57089.52
693.037	57147.59
693.383	56886.36
693.73	56942.85
694.077	56841.84
694.423	56786.25
694.769	56680.49
695.116	56746.7
695.462	56548.74
695.808	56570.66
696.155	56593.48
696.501	56400.72
696.847	56452.47
697.193	56293.6
697.539	56309.65
697.885	56148.3
698.231	56130.45
698.577	56074.63
698.923	56062.42
699.269	55858.59
699.614	55756.22
699.96	55601.87
700.306	55682.55
700.651	55645.49
700.997	55546.96
701.342	55546.73
701.688	55463.12
702.033	55436.9
702.379	55413.85
702.724	55264.25
703.069	55267.87
703.415	54941.32
703.76	55043.47
704.105	54985.84
704.45	54931.61
704.795	54819.07
705.14	54741.78
705.485	54785.85
705.83	54559.41
706.175	54721.22
706.52	54525.97
706.865	54449.36
707.209	54378.85
707.554	54357.84
707.899	54359.87
708.243	54204.17
708.588	54152.87
708.932	53952.65
709.277	54044.4
709.621	53904.29
709.966	53781.13
710.31	53870.17
710.654	53590.85
710.998	53675.14
711.342	53638.08
711.687	53546.11
712.031	53543.62
712.375	53364.64
712.719	53333.68
713.063	53242.16
713.407	53455.49
713.75	53198.77
714.094	53114.93
714.438	53062.73
714.782	53038.77
715.125	52859.57
715.469	53009.17
715.812	52747.71
716.156	52709.29
716.499	52668.84
716.843	52723.3
717.186	52428.85
717.53	52659.58
717.873	52650.08
718.216	52595.85
718.559	52368.06
718.902	52134.39
719.246	52170.32
719.589	52207.38
719.932	52126.93
720.275	52080.83
720.617	52032.93
720.96	51947.96
721.303	51891.69
721.646	51953.61
721.989	51729.2
722.331	51760.84
722.674	51666.38
723.016	51649.43
723.359	51647.85
723.701	51612.37
724.044	51410.12
724.386	51361.76
724.729	51420.74
725.071	51446.05
725.413	51313.4
725.755	51288.31
726.097	51186.39
726.439	51027.75
726.782	50979.62
727.124	51166.73
727.465	51064.59
727.807	50793.18
728.149	50897.14
728.491	50751.6
728.833	50752.73
729.175	50724.71
729.516	50743.47
729.858	50658.72
730.199	50712.96
730.541	50670.02
730.882	50425.28
731.224	50524.04
731.565	50389.35
731.906	50433.42
732.248	50420.76
732.589	50137.16
732.93	50172.18
733.271	50193.88
733.612	50091.96
733.953	50322.24
734.294	50013.09
734.635	50000.66
734.976	50128.57
735.317	49901.23
735.658	49874.56
735.999	49743.04
736.339	49732.65
736.68	49832.53
737.021	49859.42
737.361	49703.5
737.702	49724.29
738.042	49676.15
738.383	49604.74
738.723	49638.41
739.063	49324.75
739.404	49571.97
739.744	49411.3
740.084	49309.83
740.424	49282.72
740.764	49238.87
741.104	49548.47
741.444	49158.42
741.784	48975.38
742.124	49218.99
742.464	49117.07
742.804	48989.16
743.143	49036.85
743.483	48897.19
743.823	48964.53
744.162	48813.58
744.502	48888.83
744.841	48819.22
745.181	48914.59
745.52	48650.64
745.86	48765.89
746.199	48593.92
746.538	48609.51
746.877	48776.74
747.216	48628.5
747.556	48513.02
747.895	48478.22
748.234	48404.32
748.573	48244.55
748.911	48177.66
749.25	48084.55
749.589	48116.64
749.928	48135.4
750.267	48208.62
750.605	47940.83
750.944	47901.28
751.283	47665.81
751.621	47876.2
751.96	47637.79
752.298	47643.21
752.636	47613.38
752.975	47458.13
753.313	47321.19
753.651	47524.8
753.989	47245.25
754.327	47255.2
754.666	47024.47
755.004	47177.69
755.342	46988.31
755.679	46968.65
756.017	46785.61
756.355	46931.59
756.693	46820.63
757.031	46912.61
757.368	46422.9
757.706	46531.38
758.044	46296.58
758.381	46374.77
758.719	46292.96
759.056	46210.25
759.394	45993.76
759.731	45736.14
760.068	45802.81
760.405	45719.65
760.743	45468.35
761.08	45604.62
761.417	45455.92
761.754	45352.88
762.091	45259.77
762.428	44944.98
762.765	44852.32
763.102	45083.73
763.438	44725.32
763.775	44394.03
764.112	44476.29
764.449	44459.79
764.785	44298.21
765.122	44089.18
765.458	43977.54
765.795	43902.74
766.131	43911.33
766.467	43871.33
766.804	43392.7
767.14	43427.5
767.476	43384.79
767.812	43084.69
768.148	43177.34
768.485	43045.82
768.821	42538.71
769.157	42557.69
769.492	42517.24
769.828	42437.92
770.164	41979.63
770.5	41927.2
770.836	41957.26
771.171	41828.45
771.507	41697.38
771.842	41402.47
772.178	41366.54
772.513	41146.66
772.849	41066.43
773.184	41051.07
773.519	40798.64
773.855	40669.61
774.19	40523.4
774.525	40524.3
774.86	40375.15
775.195	40333.57
775.53	40022.62
775.865	39892.23
776.2	39575.85
776.535	39361.62
776.87	39280.04
777.205	39115.75
777.539	39090.44
777.874	39134.51
778.209	38804.57
778.543	38794.18
778.878	38369.33
779.212	38479.16
779.547	38302.67
779.881	38242.78
780.215	37960.3
780.55	38074.42
780.884	37592.63
781.218	37573.19
781.552	37659.29
781.886	37341.33
782.22	37159.42
782.554	36916.94
782.888	36612.31
783.222	36571.41
783.556	36512.2
783.889	36406.9
784.223	36089.62
784.557	36250.74
784.89	36149.5
785.224	35897.3
785.557	35699.12
785.891	35668.38
786.224	35668.61
786.558	35484.66
786.891	35257.55
787.224	35072.47
787.557	34914.73
787.891	34860.5
788.224	34637
788.557	34731.46
788.89	34707.96
789.223	34445.14
789.556	34140.29
789.888	34152.94
790.221	33950.69
790.554	33995.43
790.887	33840.64
791.219	33757.93
791.552	33627.53
791.884	33420.31
792.217	33184.83
792.549	33150.94
792.882	32980.55
793.214	32947.55
793.546	32893.54
793.879	32767.22
794.211	32499.88
794.543	32670.72
794.875	32437.96
795.207	32377.62
795.539	32190.96
795.871	32353.22
796.203	32136.27
796.535	31849.28
796.867	31755.04
797.198	31642.5
797.53	31590.07
797.862	31350.31
798.193	31495.61
798.525	31197.09
798.856	31360.02
799.188	30888.17
799.519	30750.77
799.85	30774.5
800.182	30712.81
800.513	30731.34
800.844	30277.34
801.175	30822.18
801.506	30591
801.837	30338.58
802.168	30137.23
802.499	30262.88
802.83	30095.65
803.161	29912.15
803.491	29944.47
803.822	29966.16
804.153	29748.99
804.483	29587.64
804.814	29416.8
805.145	29452.05
805.475	29565.27
805.805	29392.84
806.136	29397.36
806.466	29272.39
806.796	29291.6
807.126	29054.77
807.457	28895
807.787	28806.87
808.117	28832.63
808.447	28711.05
808.777	28737.94
809.107	28528.68
809.436	28348.35
809.766	28373.43
810.096	28394
810.426	28174.12
810.755	28294.11
811.085	28293.21
811.414	28220.22
811.744	28206.43
812.073	27993.11
812.403	27850.06
812.732	27721.47
813.061	27928.25
813.39	27530.52
813.719	27609.16
814.049	27676.05
814.378	27507.47
814.707	27347.02
815.036	27340.02
815.365	27351.77
815.693	27002.62
816.022	27122.62
816.351	26924.66
816.68	26877.2
817.008	26963.08
817.337	26753.14
817.665	26645.34
817.994	26737.09
818.322	26795.17
818.651	26639.7
818.979	26632.01
819.307	26563.31
819.636	26580.94
819.964	26300.72
820.292	26388.63
820.62	26392.92
820.948	26382.3
821.276	26501.39
821.604	26359.93
821.932	26445.35
822.259	26227.73
822.587	26259.37
822.915	26253.26
823.243	26351.34
823.57	26161.52
823.898	26379.59
824.225	26257.78
824.553	26305.01
824.88	26278.57
825.207	26339.14
825.535	26232.93
825.862	26333.04
826.189	26129.65
826.516	26428.63
826.843	26399.7
827.17	26378.46
827.497	26436.08
827.824	26280.38
828.151	26304.11
828.478	26303.66
828.805	26439.47
829.131	26341.17
829.458	26253.94
829.785	26154.96
830.111	26261.4
830.438	26291.46
830.764	26256.65
831.09	26215.53
831.417	26217.11
831.743	26302.75
832.069	26234.51
832.395	26111.35
832.722	26230.44
833.048	26096.21
833.374	26093.04
833.7	25967.62
834.026	26084.46
834.351	25945.25
834.677	26161.29
835.003	26003.78
835.329	25996.32
835.654	25973.95
835.98	25769.21
836.306	25937.79
836.631	25874.07
836.956	25990.9
837.282	25918.13
837.607	25750.23
837.932	25797.68
838.258	25710.68
838.583	25676.33
838.908	25661.64
839.233	25673.84
839.558	25532.38
839.883	25525.6
840.208	25477.24
840.533	25472.95
840.858	25461.65
841.182	25368.77
841.507	25404.47
841.832	25253.29
842.156	25298.94
842.481	25255.32
842.805	25143.01
843.13	24994.54
843.454	25124.93
843.778	25028.44
844.103	24993.41
844.427	24977.59
844.751	24874.32
845.075	24842.91
845.399	24698.5
845.723	24486.76
846.047	24691.27
846.371	24400.43
846.695	24390.49
847.019	24227.56
847.343	24170.16
847.666	24104.39
847.99	23945.3
848.313	23892.2
848.637	23782.14
848.96	23734.91
849.284	23724.29
849.607	23420.8
849.931	23558.19
850.254	23284.53
850.577	23207.24
850.9	23059.45
851.223	23032.33
851.546	23045.67
851.869	22844.09
852.192	22957.53
852.515	22726.35
852.838	22588.05
853.161	22610.2
853.483	22454.27
853.806	22495.62
854.129	22288.62
854.451	22221.51
854.774	22136.76
855.096	22117.55
855.419	22026.48
855.741	21989.42
856.063	21817.9
856.385	21791.23
856.708	21701.29
857.03	21767.51
857.352	21746.26
857.674	21699.94
857.996	21401.64
858.318	21363.9
858.64	21474.86
858.961	21224.92
859.283	21271.02
859.605	21160.29
859.926	21168.88
860.248	20989.45
860.57	21051.14
860.891	20969.56
861.212	20894.54
861.534	20865.38
861.855	20840.53
862.176	20878.26
862.498	20805.95
862.819	20793.97
863.14	20651.15
863.461	20638.72
863.782	20650.02
864.103	20592.17
864.424	20421.78
864.745	20470.82
865.065	20408.67
865.386	20229.92
865.707	20337.04
866.027	20294.1
866.348	20301.56
866.668	20225.4
866.989	20153.09
867.309	20095.23
867.63	20127.55
867.95	20078.51
868.27	20060.88
868.59	20130.04
868.91	19887.1
869.23	19964.16
869.55	19947.22
869.87	19996.71
870.19	19842.81
870.51	19847.56
870.83	19796.71
871.15	19690.05
871.469	19677.17
871.789	19724.4
872.109	19680.78
872.428	19648.01
872.748	19627.9
873.067	19496.61
873.386	19648.47
873.706	19509.49
874.025	19467
874.344	19359.21
874.663	19428.36
874.982	19314.69
875.301	19421.35
875.62	19328.02
875.939	19232.66
876.258	19250.51
876.577	19085.32
876.896	19127.8
877.214	19135.49
877.533	19092.1
877.852	19084.87
878.17	19056.62
878.489	19061.59
878.807	18989.27
879.125	18898.2
879.444	18928.49
879.762	18915.83
880.08	18880.58
880.398	18777.3
880.716	18836.06
881.034	18742.73
881.352	18794.03
881.67	18695.27
881.988	18766.46
882.306	18594.03
882.624	18619.57
882.941	18471.55
883.259	18399.46
883.577	18448.27
883.894	18415.73
884.212	18277.2
884.529	18285.11
884.846	18263.87
885.164	18145.23
885.481	18112.69
885.798	18123.53
886.115	18152.46
886.432	18045.34
886.75	17920.6
887.067	18102.97
887.383	17987.95
887.7	17973.03
888.017	17789.31
888.334	17805.58
888.651	17746.6
888.967	17639.03
889.284	17613.72
889.6	17643.55
889.917	17525.13
890.233	17553.61
890.55	17448.98
890.866	17512.03
891.182	17430.22
891.498	17299.38
891.815	17291.24
892.131	17143.9
892.447	17079.04
892.763	17054.18
893.079	17068.87
893.395	16932.83
893.71	16951.36
894.026	16883.79
894.342	16798.6
894.657	16622.78
894.973	16666.17
895.289	16716.57
895.604	16658.94
895.92	16487.42
896.235	16480.19
896.55	16421.66
896.865	16437.93
897.181	16412.62
897.496	16320.19
897.811	16239.97
898.126	16200.2
898.441	16225.51
898.756	16122.68
899.071	15978.51
899.386	16050.82
899.7	15930.15
900.015	15888.34
900.33	15697.38
900.644	15760.21
900.959	15697.38
901.273	15651.06
901.588	15534.45
901.902	15510.72
902.216	15407.67
902.531	15361.8
902.845	15330.39
903.159	15244.74
903.473	15179.21
903.787	15153.67
904.101	15065.54
904.415	15151.41
904.729	15051.75
905.042	15040.45
905.356	14891.98
905.67	14886.11
905.984	14896.95
906.297	14828.25
906.611	14642.72
906.924	14693.57
907.237	14654.02
907.551	14611.08
907.864	14454.03
908.177	14471.2
908.491	14309.4
908.804	14256.29
909.117	14129.52
909.43	14079.12
909.743	14047.94
910.056	13986.24
910.368	13960.25
910.681	13881.16
910.994	13812.24
911.307	13792.35
911.619	13766.14
911.932	13711
912.244	13582.41
912.557	13667.15
912.869	13424.9
913.181	13482.07
913.494	13435.75
913.806	13402.53
914.118	13287.05
914.43	13245.24
914.742	13220.39
915.054	13122.08
915.366	13102.65
915.678	13010.9
915.99	12993.95
916.302	12927.29
916.613	12869.66
916.925	12885.93
917.236	12903.56
917.548	12681.64
917.859	12730.46
918.171	12586.05
918.482	12557.58
918.794	12527.98
919.105	12460.86
919.416	12353.97
919.727	12380.63
920.038	12374.76
920.349	12180.41
920.66	12157.59
920.971	12136.35
921.282	12072.17
921.593	12062
921.903	11969.35
922.214	11957.37
922.525	11853.87
922.835	11825.85
923.146	11736.13
923.456	11628.79
923.767	11641.67
924.077	11677.6
924.387	11657.94
924.697	11515.57
925.008	11508.57
925.318	11399.19
925.628	11353.77
925.938	11368.23
926.248	11224.28
926.558	11212.76
926.867	11160.1
927.177	11121.46
927.487	11021.35
927.796	10952.65
928.106	10994.68
928.416	10989.71
928.725	10920.11
929.034	10845.31
929.344	10883.05
929.653	10776.38
929.962	10707.68
930.271	10770.73
930.581	10638.08
930.89	10559.44
931.199	10469.5
931.508	10459.33
931.817	10454.36
932.125	10475.83
932.434	10387.47
932.743	10186.57
933.051	10288.94
933.36	10242.39
933.669	10145.44
933.977	10123.75
934.286	10064.54
934.594	10048.49
934.902	10044.65
935.21	9895.28
935.519	9853.24
935.827	9948.38
936.135	9782.74
936.443	9751.1
936.751	9721.95
937.059	9697.99
937.367	9578.9
937.674	9654.38
937.982	9653.25
938.29	9560.6
938.597	9528.05
938.905	9430.66
939.213	9414.84
939.52	9355.86
939.827	9394.27
940.135	9292.81
940.442	9214.62
940.749	9163.77
941.056	9243.32
941.363	9101.85
941.67	9121.51
941.977	9027.73
942.284	8984.57
942.591	8987.28
942.898	8988.63
943.205	8893.27
943.511	8890.11
943.818	8841.97
944.125	8771.69
944.431	8687.4
944.738	8651.47
945.044	8676.1
945.35	8568.98
945.657	8537.35
945.963	8541.87
946.269	8463
946.575	8455.54
946.881	8363.11
947.187	8375.54
947.493	8309.33
947.799	8340.74
948.105	8300.97
948.41	8192.04
948.716	8142.1
949.022	8142.33
949.327	8086.51
949.633	7982.33
949.938	8044.03
950.244	8007.87
950.549	7894.65
950.854	7890.36
951.16	7889.68
951.465	7868.44
951.77	7797.03
952.075	7849.23
952.38	7753.19
952.685	7703.24
952.99	7678.16
953.294	7645.39
953.599	7604.94
953.904	7509.12
954.209	7479.75
954.513	7517.26
954.818	7401.33
955.122	7418.73
955.426	7439.07
955.731	7364.27
956.035	7338.73
956.339	7259.64
956.643	7282.24
956.948	7287.44
957.252	7243.59
957.556	7183.48
957.86	7140.77
958.163	7054.67
958.467	7096.03
958.771	7058.06
959.075	7037.95
959.378	6917.95
959.682	7004.73
959.985	6870.95
960.289	6897.62
960.592	6843.15
960.896	6825.75
961.199	6802.48
961.502	6736.72
961.805	6765.87
962.108	6676.83
962.411	6712.99
962.714	6652.42
963.017	6582.82
963.32	6605.19
963.623	6569.04
963.926	6588.47
964.228	6476.38
964.531	6508.47
964.833	6455.37
965.136	6408.59
965.438	6369.49
965.741	6287.69
966.043	6325.2
966.345	6294.92
966.648	6261.25
966.95	6256.05
967.252	6176.28
967.554	6169.27
967.856	6168.14
968.158	6106.68
968.46	6098.09
968.761	6089.27
969.063	6033.91
969.365	6033.68
969.666	5954.14
969.968	5873.46
970.269	5884.76
970.571	5905.55
970.872	5888.6
971.174	5859.22
971.475	5836.4
971.776	5743.52
972.077	5778.1
972.378	5754.82
972.679	5726.12
972.98	5706.01
973.281	5642.51
973.582	5662.17
973.883	5619
974.183	5590.53
974.484	5588.72
974.785	5556.41
975.085	5493.36
975.386	5508.73
975.686	5461.49
975.986	5421.95
976.287	5415.39
976.587	5318.67
976.887	5369.52
977.187	5336.07
977.487	5330.2
977.787	5259.69
978.087	5233.7
978.387	5220.15
978.687	5242.97
978.987	5234.83
979.286	5153.48
979.586	5159.81
979.885	5109.64
980.185	5116.87
980.484	5009.76
980.784	5062.41
981.083	5035.52
981.382	4983.09
981.682	4945.8
981.981	4996.87
982.28	4923.66
982.579	4875.75
982.878	4909.42
983.177	4902.41
983.475	4834.62
983.774	4824.45
984.073	4781.96
984.372	4792.59
984.67	4771.57
984.969	4743.55
985.267	4727.05
985.566	4705.58
985.864	4659.93
986.162	4685.92
986.461	4583.78
986.759	4585.59
987.057	4569.77
987.355	4538.81
987.653	4519.6
987.951	4470.33
988.249	4493.84
988.547	4449.32
988.844	4486.83
989.142	4403.44
989.44	4401.41
989.737	4380.85
990.035	4348.3
990.332	4346.95
990.63	4319.6
990.927	4304.92
991.224	4275.54
991.521	4273.73
991.819	4249.32
992.116	4174.75
992.413	4192.83
992.71	4172.94
993.006	4183.56
993.303	4134.3
993.6	4152.15
993.897	4050.68
994.193	4084.36
994.49	4042.32
994.787	4032.61
995.083	3967.07
995.379	3957.58
995.676	3963.68
995.972	3961.42
996.268	3930.46
996.565	3927.07
996.861	3844.59
997.157	3834.19
997.453	3870.58
997.749	3822.67
998.044	3819.73
998.34	3802.33
998.636	3724.14
998.932	3727.3
999.227	3693.41
999.523	3695.89
999.818	3669.23
1000.114	3654.08
1000.409	3599.4
1000.704	3602.79
1001	3614.76
1001.295	3557.36
1001.59	3545.84
1001.885	3536.35
1002.18	3508.33
1002.475	3541.32
1002.77	3463.81
1003.065	3448.44
1003.359	3466.75
1003.654	3425.39
1003.949	3395.11
1004.243	3398.05
1004.538	3342.23
1004.832	3359.4
1005.127	3330.48
1005.421	3310.82
1005.715	3281.67
1006.009	3264.72
1006.304	3234.89
1006.598	3235.56
1006.892	3205.96
1007.186	3200.76
1007.48	3174.55
1007.773	3177.71
1008.067	3144.72
1008.361	3099.75
1008.655	3109.24
1008.948	3071.95
1009.242	3115.57
1009.535	3045.97
1009.829	3004.16
1010.122	2987.44
1010.415	2989.7
1010.708	2935.46
1011.001	2960.32
1011.295	2919.64
1011.588	2916.25
1011.881	2852.98
1012.173	2888
1012.466	2861.56
1012.759	2838.29
1013.052	2848.68
1013.344	2822.92
1013.637	2777.95
1013.93	2784.05
1014.222	2738.63
1014.514	2733.43
1014.807	2731.85
1015.099	2681.68
1015.391	2682.81
1015.683	2666.09
1015.976	2670.61
1016.268	2617.73
1016.56	2602.59
1016.851	2589.03
1017.143	2570.72
1017.435	2527.33
1017.727	2524.17
1018.018	2488.24
1018.31	2496.83
1018.602	2544.06
1018.893	2493.44
1019.185	2449.37
1019.476	2418.41
1019.767	2426.32
1020.058	2406.43
1020.35	2362.37
1020.641	2330.5
1020.932	2329.15
1021.223	2307.91
1021.514	2326.66
1021.804	2297.74
1022.095	2283.05
1022.386	2278.08
1022.677	2254.8
1022.967	2229.26
1023.258	2220.68
1023.548	2227.23
1023.839	2173.67
1024.129	2184.52
1024.419	2158.76
1024.709	2129.83
1025	2106.55
1025.29	2113.11
1025.58	2111.07
1025.87	2094.35
1026.16	2053.9
1026.449	2028.82
1026.739	2025.65
1027.029	2031.98
1027.319	2024.3
1027.608	1989.72
1027.898	1977.97
1028.187	1930.51
1028.477	1964.64
1028.766	1903.4
1029.055	1900.01
1029.344	1890.97
1029.634	1918.54
1029.923	1874.7
1030.212	1872.44
1030.501	1876.05
1030.79	1835.6
1031.078	1832.66
1031.367	1826.11
1031.656	1815.49
1031.945	1780.91
1032.233	1775.72
1032.522	1780.69
1032.81	1757.19
1033.099	1745.43
1033.387	1709.96
1033.675	1713.8
1033.963	1711.31
1034.251	1701.82
1034.54	1660.69
1034.828	1671.09
1035.116	1646.91
1035.403	1625.44
1035.691	1628.83
1035.979	1604.2
1036.267	1609.39
1036.554	1597.64
1036.842	1577.76
1037.129	1581.6
1037.417	1572.33
1037.704	1544.99
1037.992	1532.33
1038.279	1510.64
1038.566	1527.36
1038.853	1527.36
1039.14	1527.36
