Data from 15-1247_FLMS001491_001.txt Node
Date: Thu Apr 19 16:10:20 BST 2018
User: hsy
Spectrometer: FLMS00149
Trigger mode: 0
Integration Time (sec): 1.000000E-2
Scans to average: 10
Electric dark correction enabled: true
Nonlinearity correction enabled: false
Boxcar width: 0
XAxis mode: Wavelengths
Number of Pixels in Spectrum: 2048
>>>>>Begin Spectral Data<<<<<
341.393	-0.9
341.776	-0.9
342.16	-0.9
342.543	-48.81
342.927	-70.05
343.31	-68.92
343.693	-77.51
344.077	-54.24
344.46	-48.59
344.843	-59.43
345.226	-28.7
345.61	-49.49
345.993	-19.89
346.376	-21.24
346.759	31.41
347.142	14.01
347.525	38.64
347.908	78.87
348.291	72.99
348.674	91.3
349.057	100.79
349.44	130.17
349.823	154.8
350.206	169.26
350.588	220.79
350.971	239.99
351.354	268.47
351.737	283.16
352.119	293.1
352.502	316.83
352.884	321.35
353.267	336.71
353.65	318.41
354.032	342.59
354.414	332.87
354.797	336.94
355.179	365.19
355.562	386.88
355.944	354.57
356.326	371.06
356.709	384.85
357.091	386.66
357.473	383.04
357.855	398.41
358.238	389.82
358.62	388.92
359.002	390.72
359.384	392.98
359.766	402.93
360.148	404.51
360.53	414.23
360.912	396.37
361.294	408.8
361.676	381.23
362.057	388.92
362.439	389.14
362.821	388.92
363.203	399.99
363.584	369.26
363.966	388.92
364.348	391.85
364.729	384.62
365.111	366.77
365.493	371.97
365.874	379.88
366.256	369.71
366.637	378.3
367.019	378.75
367.4	368.8
367.781	380.55
368.163	384.17
368.544	378.97
368.925	376.94
369.306	388.46
369.688	383.49
370.069	393.66
370.45	383.94
370.831	374
371.212	387.79
371.593	379.43
371.974	368.8
372.355	354.79
372.736	382.81
373.117	384.17
373.498	399.99
373.879	379.65
374.26	369.03
374.641	368.13
375.021	386.43
375.402	384.4
375.783	407.67
376.163	407.67
376.544	391.85
376.925	377.62
377.305	390.05
377.686	404.28
378.066	399.99
378.447	396.37
378.827	407.67
379.208	403.15
379.588	419.42
379.968	426.66
380.349	424.17
380.729	412.19
381.109	413.32
381.489	416.71
381.87	420.33
382.25	404.51
382.63	443.15
383.01	417.84
383.39	418.97
383.77	435.24
384.15	436.37
384.53	458.29
384.91	469.37
385.29	462.13
385.67	432.98
386.049	468.01
386.429	466.2
386.809	470.5
387.189	439.54
387.568	462.36
387.948	460.1
388.328	463.72
388.707	458.97
389.087	471.4
389.466	494.22
389.846	478.41
390.225	501.68
390.605	481.57
390.984	496.03
391.363	500.1
391.743	499.42
392.122	489.25
392.501	505.3
392.881	505.3
393.26	530.83
393.639	520.66
394.018	495.81
394.397	508.46
394.776	522.02
395.155	525.64
395.534	526.54
395.913	515.92
396.292	522.02
396.671	531.29
397.05	530.83
397.429	521.57
397.808	543.04
398.186	509.37
398.565	556.37
398.944	552.3
399.323	544.62
399.701	542.13
400.08	553.88
400.458	546.88
400.837	584.17
401.215	559.99
401.594	577.16
401.972	602.47
402.351	570.38
402.729	560.21
403.107	586.65
403.486	589.36
403.864	615.58
404.242	604.96
404.62	615.58
404.999	612.64
405.377	600.66
405.755	611.96
406.133	636.82
406.511	629.36
406.889	641.34
407.267	635.24
407.645	634.11
408.023	659.64
408.401	670.94
408.779	654.45
409.156	676.14
409.534	669.59
409.912	675.24
410.29	706.65
410.667	689.7
411.045	739.19
411.422	705.52
411.8	720.43
412.178	734.22
412.555	758.17
412.933	740.32
413.31	723.82
413.687	745.97
414.065	786.42
414.442	768.57
414.819	785.29
415.197	788.68
415.574	800.66
415.951	812.86
416.328	800.2
416.705	790.49
417.082	813.09
417.46	841.79
417.837	828.45
418.214	849.7
418.591	840.43
418.967	850.37
419.344	830.94
419.721	832.75
420.098	850.15
420.475	870.49
420.852	866.19
421.228	906.64
421.605	903.48
421.982	861.9
422.358	903.03
422.735	929.69
423.111	898.51
423.488	936.02
423.864	934.66
424.241	932.4
424.617	949.81
424.994	933.53
425.37	966.53
425.746	963.59
426.123	973.53
426.499	988.45
426.875	994.32
427.251	1007.21
427.627	1009.01
428.003	1014.21
428.379	1040.65
428.756	1041.1
429.132	1041.33
429.507	1063.02
429.883	1063.93
430.259	1071.38
430.635	1077.03
431.011	1092.85
431.387	1132.63
431.763	1122.23
432.138	1143.02
432.514	1150.25
432.89	1153.19
433.265	1182.57
433.641	1210.14
434.016	1214.21
434.392	1220.08
434.767	1241.32
435.143	1222.11
435.518	1225.96
435.894	1263.47
436.269	1247.42
436.644	1304.82
437.02	1293.53
437.395	1276.8
437.77	1345.28
438.145	1343.02
438.52	1319.51
438.895	1343.24
439.271	1350.92
439.646	1371.94
440.021	1378.95
440.395	1374.88
440.77	1373.07
441.145	1401.32
441.52	1437.02
441.895	1426.18
442.27	1438.15
442.645	1429.11
443.019	1420.08
443.394	1467.31
443.769	1452.17
444.143	1463.46
444.518	1483.8
444.892	1481.32
445.267	1494.42
445.641	1496.01
446.016	1521.09
446.39	1517.02
446.764	1490.36
447.139	1526.06
447.513	1524.25
447.887	1529.9
448.262	1569.22
448.636	1558.83
449.01	1573.07
449.384	1585.27
449.758	1592.95
450.132	1623.69
450.506	1637.7
450.88	1620.97
451.254	1657.58
451.628	1653.97
452.002	1685.38
452.376	1684.02
452.75	1701.42
453.123	1724.02
453.497	1742.55
453.871	1744.59
454.244	1755.43
454.618	1811.48
454.992	1829.78
455.365	1811.03
455.739	1867.52
456.112	1895.32
456.486	1888.09
456.859	1898.48
457.232	1929.67
457.606	1966.73
457.979	1987.97
458.352	2050.12
458.725	2026.16
459.099	2023
459.472	2060.96
459.845	2101.64
460.218	2121.75
460.591	2159.72
460.964	2154.07
461.337	2168.76
461.71	2240.62
462.083	2265.03
462.456	2264.12
462.829	2235.2
463.201	2307.06
463.574	2317.68
463.947	2321.29
464.32	2392.25
464.692	2372.14
465.065	2394.74
465.438	2446.49
465.81	2493.95
466.183	2505.24
466.555	2509.54
466.928	2533.49
467.3	2525.81
467.672	2612.36
468.045	2638.12
468.417	2640.16
468.789	2674.51
469.161	2657.56
469.534	2709.99
469.906	2724.9
470.278	2805.12
470.65	2814.84
471.022	2851.9
471.394	2919.25
471.766	2948.4
472.138	2990.88
472.51	2988.62
472.882	3071.33
473.253	3064.55
473.625	3138
473.997	3151.33
474.369	3204.66
474.74	3275.62
475.112	3290.08
475.484	3328.95
475.855	3425.67
476.227	3431.55
476.598	3525.78
476.97	3561.26
477.341	3636.97
477.713	3717.64
478.084	3733.01
478.455	3820.24
478.827	3842.16
479.198	3936.17
479.569	4015.49
479.94	4056.16
480.311	4120.8
480.682	4230.17
481.053	4285.09
481.424	4380
481.795	4396.49
482.166	4504.74
482.537	4547.68
482.908	4663.61
483.279	4680.1
483.65	4811.17
484.021	4883.94
484.391	4928.68
484.762	5010.26
485.133	5080.09
485.503	5200.09
485.874	5299.07
486.244	5338.62
486.615	5484.38
486.985	5558.5
487.356	5699.06
487.726	5762.56
488.097	5903.35
488.467	5987.87
488.837	6041.42
489.207	6165.04
489.578	6267.63
489.948	6383.56
490.318	6491.13
490.688	6518.25
491.058	6667.85
491.428	6748.75
491.798	6813.38
492.168	7002.08
492.538	7092.69
492.908	7176.53
493.278	7330.88
493.648	7402.07
494.017	7574.94
494.387	7636.41
494.757	7703.3
495.126	7868.72
495.496	7929.51
495.866	8082.73
496.235	8206.79
496.605	8270.07
496.974	8378.54
497.344	8558.87
497.713	8604.07
498.082	8683.16
498.452	8861.01
498.821	8901.23
499.19	9007.67
499.559	9180.32
499.928	9280.66
500.298	9356.36
500.667	9550.94
501.036	9593.19
501.405	9714.77
501.774	9726.98
502.143	9896.46
502.512	9988.89
502.88	10121.09
503.249	10162.44
503.618	10319.05
503.987	10399.05
504.356	10480.63
504.724	10621.87
505.093	10734.41
505.462	10774.86
505.83	10873.39
506.199	11103.44
506.567	11278.57
506.936	11245.58
507.304	11378.68
507.672	11491.45
508.041	11644.21
508.409	11672.69
508.777	11883.53
509.145	11921.27
509.514	12013.24
509.882	12179.34
510.25	12314.25
510.618	12348.38
510.986	12401.93
511.354	12573
511.722	12700.91
512.09	12885.99
512.458	12817.29
512.826	12992.2
513.193	13086.21
513.561	13255.24
513.929	13325.07
514.297	13374.34
514.664	13518.06
515.032	13636.48
515.4	13761.9
515.767	13798.96
516.135	13852.74
516.502	13958.28
516.869	14139.97
517.237	14265.39
517.604	14253.41
517.972	14459.51
518.339	14517.81
518.706	14585.15
519.073	14678.71
519.44	14855.88
519.808	14939.27
520.175	14969.1
520.542	15199.83
520.909	15260.39
521.276	15432.81
521.643	15551.23
522.009	15688.4
522.376	15863.31
522.743	15831.67
523.11	16042.52
523.477	16171.1
523.843	16363.64
524.21	16562.5
524.577	16639.79
524.943	16821.03
525.31	16829.39
525.676	17102.38
526.043	17146.22
526.409	17309.6
526.776	17465.76
527.142	17538.97
527.508	17767.67
527.874	17899.87
528.241	17962.24
528.607	18059.19
528.973	18313.42
529.339	18324.04
529.705	18617.14
530.071	18654.42
530.437	18763.12
530.803	18939.39
531.169	19047.86
531.535	19145.26
531.901	19184.58
532.267	19250.34
532.632	19450.79
532.998	19642.42
533.364	19723.1
533.73	19809.87
534.095	19984.33
534.461	20020.04
534.826	20102.52
535.192	20167.61
535.557	20321.95
535.923	20324.21
536.288	20485.11
536.653	20591.1
537.019	20591.55
537.384	20767.59
537.749	20807.36
538.114	20933.01
538.479	20902.73
538.845	21035.83
539.21	20994.48
539.575	21097.52
539.94	21201.48
540.305	21393.34
540.67	21422.26
541.034	21452.54
541.399	21551.98
541.764	21475.37
542.129	21694.57
542.494	21748.13
542.858	21792.65
543.223	21857.28
543.587	22019.76
543.952	22020.89
544.316	22059.31
544.681	22011.85
545.045	22380.65
545.41	22306.76
545.774	22383.37
546.138	22328.23
546.503	22567.99
546.867	22487.32
547.231	22657.94
547.595	22658.39
547.959	22762.11
548.324	22822.22
548.688	22885.05
549.052	22994.88
549.416	22975.22
549.779	23066.74
550.143	23099.28
550.507	23281.2
550.871	23438.03
551.235	23393.74
551.599	23582.66
551.962	23521.64
552.326	23567.74
552.689	23720.28
553.053	23533.39
553.417	23754.63
553.78	23954.17
554.143	23980.39
554.507	24056.32
554.87	24080.72
555.234	24413.6
555.597	24197.78
555.96	24363.65
556.323	24493.59
556.686	24504.89
557.05	24680.03
557.413	24699.24
557.776	24774.49
558.139	24838.67
558.502	25016.74
558.865	25144.88
559.228	25230.3
559.59	25237.3
559.953	25262.61
560.316	25617.41
560.679	25630.29
561.041	25770.62
561.404	25881.13
561.767	26024.85
562.129	25891.3
562.492	26210.16
562.854	26240.21
563.217	26309.59
563.579	26407.44
563.941	26596.36
564.304	26755
564.666	26971.72
565.028	26972.85
565.39	26974.66
565.753	27168.78
566.115	27325.38
566.477	27448.54
566.839	27564.25
567.201	27813.28
567.563	27786.39
567.925	28118.81
568.287	27968.3
568.648	28151.35
569.01	28296.66
569.372	28618.23
569.734	28549.76
570.095	28784.33
570.457	28900.48
570.819	29080.59
571.18	29106.81
571.542	29457.08
571.903	29487.59
572.265	29769.39
572.626	29876.5
572.987	29925.09
573.349	30111.3
573.71	30185.87
574.071	30377.96
574.432	30597.39
574.794	30842.13
575.155	30929.13
575.516	30989.24
575.877	31162.12
576.238	31178.84
576.599	31449.34
576.96	31617.47
577.32	31751.48
577.681	31931.14
578.042	32123.45
578.403	32257.91
578.763	32424.68
579.124	32508.75
579.485	32825.13
579.845	33119.36
580.206	33159.35
580.566	33242.97
580.927	33445
581.287	33643.64
581.648	33804.53
582.008	34097.63
582.368	34308.93
582.728	34489.94
583.089	34592.31
583.449	34838.86
583.809	35055.8
584.169	35420.76
584.529	35557.48
584.889	36040.86
585.249	36038.83
585.609	36133.29
585.969	36493.73
586.329	36712.03
586.688	37192.24
587.048	37380.94
587.408	37633.81
587.768	37927.59
588.127	38250.52
588.487	38439.89
588.846	39084.85
589.206	38918.52
589.565	39391.73
589.925	39979.06
590.284	40122.33
590.643	40621.98
591.003	40863.78
591.362	41492.02
591.721	41626.02
592.08	42096.07
592.44	42476.62
592.799	42668.93
593.158	43143.05
593.517	43344.4
593.876	43908.45
594.235	44145.96
594.593	44516.8
594.952	44894.19
595.311	45164.24
595.67	45568.07
596.029	46112.69
596.387	46395.84
596.746	46782.27
597.104	46943.4
597.463	47372.31
597.822	47915.35
598.18	48035.12
598.538	48319.18
598.897	48834.65
599.255	48826.51
599.613	49623.78
599.972	49483.67
600.33	49884.11
600.688	50176.99
601.046	50463.08
601.404	50865.56
601.762	50978.77
602.12	51390.74
602.478	51585.08
602.836	51873.89
603.194	51910.05
603.552	52114.79
603.91	52285.63
604.268	52684.72
604.625	52842.23
604.983	53177.81
605.341	53171.26
605.698	53518.14
606.056	53870.9
606.413	53909.99
606.771	54197.9
607.128	54387.27
607.485	54398.34
607.843	54611.9
608.2	54958.1
608.557	55106.35
608.914	55246.91
609.272	55420.69
609.629	55669.5
609.986	55826.1
610.343	55866.1
610.7	56208.92
611.057	56292.76
611.414	56379.99
611.771	56516.93
612.127	56775.91
612.484	56803.25
612.841	57020.87
613.198	57046.86
613.554	57100.65
613.911	57292.73
614.267	57531.82
614.624	57532.95
614.98	57758.71
615.337	57946.27
615.693	57958.7
616.05	58008.87
616.406	58289.77
616.762	58160.28
617.118	58399.59
617.475	58331.12
617.831	58604.33
618.187	58631.9
618.543	58759.81
618.899	58921.16
619.255	58986.02
619.611	59028.73
619.967	59060.59
620.323	59190.53
620.678	59225.56
621.034	59159.35
621.39	59270.31
621.746	59377.65
622.101	59622.84
622.457	59446.8
622.812	59600.24
623.168	59694.7
623.523	59681.59
623.879	59810.18
624.234	59790.52
624.589	59880.46
624.945	59898.31
625.3	60004.98
625.655	60017.63
626.01	60027.35
626.365	60064.64
626.72	60057.63
627.075	60089.49
627.43	60102.83
627.785	60206.1
628.14	60194.35
628.495	60254.91
628.85	60228.25
629.205	60196.61
629.559	60339.43
629.914	60225.08
630.269	60248.13
630.623	60192.99
630.978	60097.85
631.332	60315.48
631.687	60269.83
632.041	60312.09
632.396	60289.49
632.75	60257.85
633.104	60285.65
633.459	60129.27
633.813	60178.08
634.167	60241.13
634.521	60280.22
634.875	60235.03
635.229	60201.58
635.583	60085.43
635.937	60133.56
636.291	60169.04
636.645	60172.88
636.999	60028.25
637.352	60164.75
637.706	59994.35
638.06	60095.14
638.413	60044.07
638.767	60045.2
639.121	60098.76
639.474	59938.76
639.828	59924.3
640.181	59937.18
640.534	59994.58
640.888	59987.8
641.241	59808.82
641.594	59865.77
641.947	59947.12
642.301	59816.28
642.654	59804.98
643.007	59779.9
643.36	59880.46
643.713	59769.95
644.066	59914.81
644.419	59738.77
644.771	59431.21
645.124	59225.79
645.477	59241.38
645.83	59145.11
646.182	59053.81
646.535	59054.04
646.888	59106.24
647.24	59042.06
647.593	59185.11
647.945	59037.32
648.298	58937.89
648.65	58843.88
649.002	58793.03
649.355	58708.51
649.707	58680.94
650.059	58725.46
650.411	59056.75
650.763	59105.34
651.115	59485.44
651.467	59315.73
651.819	59360.02
652.171	59266.46
652.523	59225.34
652.875	59296.29
653.227	59153.02
653.578	59338.1
653.93	59269.18
654.282	59126.35
654.633	59171.33
654.985	59150.08
655.337	59164.55
655.688	59073.02
656.039	59165.22
656.391	58962.52
656.742	59010.65
657.094	59004.78
657.445	58976.3
657.796	59002.06
658.147	58883.65
658.498	58993.7
658.849	58950.99
659.2	58953.03
659.551	58828.06
659.902	58911.22
660.253	58788.06
660.604	58963.42
660.955	58747.83
661.306	58891.78
661.656	58789.87
662.007	58740.6
662.358	58803.43
662.708	58805.46
663.059	58755.74
663.409	58632.81
663.76	58751.68
664.11	58692.24
664.461	58774.5
664.811	58760.94
665.161	58730.43
665.511	58647.95
665.862	58670.1
666.212	58690.66
666.562	58712.13
666.912	58689.76
667.262	58605.69
667.612	58608.63
667.962	58613.15
668.312	58572.25
668.662	58730.43
669.011	58673.49
669.361	58574.73
669.711	58647.05
670.06	58571.34
670.41	58549.19
670.76	58504.9
671.109	58531.12
671.459	58581.51
671.808	58522.08
672.157	58565.47
672.507	58369.31
672.856	58388.3
673.205	58488.86
673.554	58546.71
673.904	58393.04
674.253	58642.98
674.602	58445.69
674.951	58078.47
675.3	57982.66
675.649	58443.44
675.998	58394.4
676.346	58440.72
676.695	58430.78
677.044	58297
677.393	58390.1
677.741	58347.84
678.09	58356.66
678.438	58219.26
678.787	58348.3
679.135	58298.35
679.484	58194.18
679.832	58362.76
680.181	58205.7
680.529	58279.15
680.877	58179.04
681.225	58116.66
681.573	58358.47
681.922	58185.59
682.27	58125.7
682.618	58129.09
682.966	58058.13
683.314	58133.61
683.661	58078.92
684.009	57959.38
684.357	57942.43
684.705	57970.23
685.053	57913.51
685.4	57855.43
685.748	57802.77
686.095	57873.73
686.443	57716
686.79	57678.94
687.138	57790.8
687.485	57759.84
687.832	57627.86
688.18	57687.97
688.527	57554.87
688.874	57586.28
689.221	57519.62
689.568	57435.55
689.915	57397.36
690.262	57396.68
690.609	57367.08
690.956	57326.63
691.303	57315.56
691.65	57144.03
691.997	57134.77
692.344	57026.07
692.69	57023.36
693.037	57046.41
693.383	56836.7
693.73	56884.38
694.077	56725.97
694.423	56803.93
694.769	56659.08
695.116	56670.6
695.462	56525.52
695.808	56499.53
696.155	56625.18
696.501	56327.56
696.847	56527.55
697.193	56276.49
697.539	56264.74
697.885	56149.48
698.231	56100.45
698.577	56035.36
698.923	56062.03
699.269	55802.6
699.614	55859.1
699.96	55760.57
700.306	55703.39
700.651	55629.5
700.997	55524.87
701.342	55576.62
701.688	55505.89
702.033	55371.88
702.379	55399.9
702.724	55163.97
703.069	55372.1
703.415	54942.74
703.76	54957.88
704.105	55030.87
704.45	54902.96
704.795	54768.05
705.14	54679.69
705.485	54750.88
705.83	54522.18
706.175	54592.69
706.52	54484.22
706.865	54406.25
707.209	54339.81
707.554	54262.08
707.899	54215.3
708.243	54132.81
708.588	54129.42
708.932	53954.06
709.277	54014.17
709.621	53861.41
709.966	53677.68
710.31	53775.54
710.654	53550.91
710.998	53552.72
711.342	53678.14
711.687	53417.35
712.031	53418.26
712.375	53275.89
712.719	53293.06
713.063	53132.84
713.407	53322.89
713.75	53116.12
714.094	53085.16
714.438	52932.17
714.782	53025.27
715.125	52876.58
715.469	53029.79
715.812	52752.96
716.156	52682.23
716.499	52657.6
716.843	52686.75
717.186	52502.12
717.53	52620.76
717.873	52544.16
718.216	52457.83
718.559	52345.52
718.902	52163.83
719.246	52173.32
719.589	52116.37
719.932	51988.24
720.275	52130.61
720.617	52118.18
720.96	51855.81
721.303	51956.37
721.646	51950.05
721.989	51701.01
722.331	51738.3
722.674	51657.62
723.016	51599.1
723.359	51501.7
723.701	51603.16
724.044	51505.31
724.386	51285.21
724.729	51460.12
725.071	51318.2
725.413	51257.64
725.755	51238.88
726.097	51167.02
726.439	51007.7
726.782	51049.28
727.124	51095.15
727.465	50996.85
727.807	50902.84
728.149	50888.15
728.491	50777.87
728.833	50771.32
729.175	50707.37
729.516	50545.79
729.858	50548.95
730.199	50708.72
730.541	50522.29
730.882	50496.07
731.224	50582.85
731.565	50375.85
731.906	50414.49
732.248	50455.85
732.589	50173.6
732.93	50221.96
733.271	50154.39
733.612	50207.72
733.953	50263.99
734.294	50039.14
734.635	50073.26
734.976	50218.34
735.317	49873.49
735.658	49929.08
735.999	49870.55
736.339	49945.81
736.68	49833.72
737.021	49819.03
737.361	49718.01
737.702	49940.83
738.042	49636.21
738.383	49719.82
738.723	49589.88
739.063	49489.77
739.404	49621.07
739.744	49529.09
740.084	49285.71
740.424	49426.95
740.764	49360.51
741.104	49350.34
741.444	49275.99
741.784	49103.79
742.124	49133.4
742.464	49068.09
742.804	49008.65
743.143	48941.09
743.483	49094.08
743.823	48794.2
744.162	48800.52
744.502	48803.24
744.841	48723.24
745.181	48923.91
745.52	48615.9
745.86	48640.53
746.199	48698.61
746.538	48576.35
746.877	48582
747.216	48572.96
747.556	48500.65
747.895	48398.05
748.234	48271.73
748.573	48371.16
748.911	48247.77
749.25	48181.33
749.589	48032.18
749.928	48152.86
750.267	48131.84
750.605	47970.94
750.944	47992.64
751.283	47819.53
751.621	47873.09
751.96	47748.58
752.298	47653.89
752.636	47701.34
752.975	47489.15
753.313	47354.69
753.651	47668.13
753.989	47308.36
754.327	47355.37
754.666	47071.3
755.004	47092.77
755.342	47179.32
755.679	47124.41
756.017	46766
756.355	47051.19
756.693	46806.9
757.031	46851.2
757.368	46487.37
757.706	46628.15
758.044	46439.23
758.381	46447.37
758.719	46250.99
759.056	46253.93
759.394	46170.99
759.731	45988.17
760.068	45867.72
760.405	45869.08
760.743	45565.81
761.08	45699.82
761.417	45456.88
761.754	45378.02
762.091	45255.53
762.428	45095.31
762.765	44840.63
763.102	45009.21
763.438	44774.87
763.775	44581.65
764.112	44611.93
764.449	44414.43
764.785	44360.64
765.122	44214.2
765.458	43953.87
765.795	43924.04
766.131	43950.26
766.467	43721.34
766.804	43453.55
767.14	43238.41
767.476	43199.99
767.812	43048.81
768.148	43099.66
768.485	43007.91
768.821	42625.77
769.157	42615.6
769.492	42487.47
769.828	42341.94
770.164	42002.06
770.5	41938.78
770.836	41964.55
771.171	41776.08
771.507	41548.74
771.842	41283.66
772.178	41260.38
772.513	41173.61
772.849	41110.78
773.184	40908.3
773.519	40767.29
773.855	40558.71
774.19	40528.65
774.525	40305.38
774.86	40245.04
775.195	40227.42
775.53	40066.29
775.865	39741.78
776.2	39515.8
776.535	39285.29
776.87	39302.24
777.205	39073.77
777.539	38973.66
777.874	39094.11
778.209	38714.91
778.543	38648.93
778.878	38394.47
779.212	38575.48
779.547	38175.27
779.881	38211.42
780.215	37938.66
780.55	37939.34
780.884	37624.77
781.218	37516.53
781.552	37580.93
781.886	37200.38
782.22	37194.5
782.554	36900.5
782.888	36615.53
783.222	36724.68
783.556	36396.11
783.889	36351.13
784.223	35974.42
784.557	36193.4
784.89	36226.17
785.224	35834.76
785.557	35731.04
785.891	35583.47
786.224	35575.11
786.558	35611.94
786.891	35286.3
787.224	34988.46
787.557	34885.41
787.891	34943.26
788.224	34630.5
788.557	34755.7
788.89	34501.24
789.223	34514.8
789.556	34241.59
789.888	34204.07
790.221	33917.75
790.554	33964.08
790.887	33897.41
791.219	33620.81
791.552	33557.54
791.884	33348.05
792.217	33342.17
792.549	33221.27
792.882	32962.75
793.214	33016.53
793.546	32863.99
793.879	32694.06
794.211	32567.05
794.543	32759.82
794.875	32453.16
795.207	32349.88
795.539	32169.55
795.871	32354.4
796.203	32020.85
796.535	31916.9
796.867	31956.9
797.198	31633.74
797.53	31640.3
797.862	31383.58
798.193	31370.7
798.525	31218.61
798.856	31357.59
799.188	30930.49
799.519	30852.3
799.85	30761.23
800.182	30758.29
800.513	30886.19
800.844	30376.38
801.175	30661.57
801.506	30537.73
801.837	30298.19
802.168	30324.63
802.499	30157.17
802.83	30026.78
803.161	30130.51
803.491	30041.7
803.822	30005.99
804.153	29804.64
804.483	29609.39
804.814	29479.9
805.145	29435.38
805.475	29483.52
805.805	29337.53
806.136	29360.36
806.466	29161.27
806.796	29085.56
807.126	28969.86
807.457	28842.18
807.787	29050.08
808.117	28887.15
808.447	28654.61
808.777	28712.01
809.107	28500.04
809.436	28447.84
809.766	28427.28
810.096	28436.54
810.426	28270.67
810.755	28342.98
811.085	28111.35
811.414	28110.45
811.744	28116.55
812.073	27899.83
812.403	27987.06
812.732	27832.71
813.061	27875.43
813.39	27606.96
813.719	27659.84
814.049	27672.72
814.378	27497.13
814.707	27361.54
815.036	27338.26
815.365	27248.55
815.693	26958.84
816.022	27069.12
816.351	27021.44
816.68	26732.63
817.008	27032.06
817.337	26725.4
817.665	26700.77
817.994	26798.62
818.322	26826.64
818.651	26637.72
818.979	26519.98
819.307	26462.58
819.636	26428.23
819.964	26304.85
820.292	26438.17
820.62	26454.9
820.948	26369.25
821.276	26497.16
821.604	26259.65
821.932	26303.04
822.259	26408.8
822.587	26258.74
822.915	26216.71
823.243	26235.02
823.57	26164.51
823.898	26391.85
824.225	26230.27
824.553	26237.05
824.88	26292.42
825.207	26432.98
825.535	26143.95
825.862	26241.8
826.189	26289.25
826.516	26390.49
826.843	26342.58
827.17	26407.89
827.497	26251.51
827.824	26361.34
828.151	26338.97
828.478	26290.16
828.805	26305.75
829.131	26281.12
829.458	26240.89
829.785	26105.98
830.111	26288.12
830.438	26454.22
830.764	26239.99
831.09	26262.13
831.417	26155.92
831.743	26356.6
832.069	26318.4
832.395	26262.13
832.722	26261
833.048	26030.95
833.374	26288.12
833.7	26094.91
834.026	26162.02
834.351	26109.82
834.677	26155.02
835.003	26107.11
835.329	26120.67
835.654	26078.18
835.98	25955.48
836.306	26050.84
836.631	25854.24
836.956	26164.28
837.282	26023.04
837.607	25834.8
837.932	25746.44
838.258	25751.87
838.583	25702.83
838.908	25677.06
839.233	25833.67
839.558	25681.58
839.883	25479.78
840.208	25490.4
840.533	25513.23
840.858	25449.95
841.182	25532.89
841.507	25452.66
841.832	25201.15
842.156	25252.44
842.481	25250.41
842.805	25081.83
843.13	25124.54
843.454	25101.49
843.778	24901.72
844.103	24915.5
844.427	24903.98
844.751	24945.78
845.075	24781.04
845.399	24849.97
845.723	24743.3
846.047	24746.24
846.371	24448.17
846.695	24398
847.019	24308.29
847.343	24142.87
847.666	24196.2
847.99	23977.22
848.313	23955.53
848.637	23975.87
848.96	23776.32
849.284	23736.1
849.607	23560.28
849.931	23596.22
850.254	23348.54
850.577	23211.82
850.9	23064.93
851.223	23216.34
851.546	23019.06
851.869	22895.9
852.192	23045.04
852.515	22720.53
852.838	22695.9
853.161	22699.06
853.483	22552.63
853.806	22427.43
854.129	22406.64
854.451	22331.39
854.774	22169.13
855.096	22078.29
855.419	22015.92
855.741	21919.65
856.063	21923.27
856.385	21721.24
856.708	21774.12
857.03	21781.8
857.352	21606.44
857.674	21649.6
857.996	21474.46
858.318	21351.53
858.64	21419.32
858.961	21355.37
859.283	21256.39
859.605	21143.62
859.926	21202.83
860.248	21096.17
860.57	21048.71
860.891	20995.15
861.212	20979.79
861.534	20932.56
861.855	20715.16
862.176	20835.38
862.498	20742.51
862.819	20794.48
863.14	20580.25
863.461	20677.42
863.782	20553.13
864.103	20476.3
864.424	20536.86
864.745	20655.95
865.065	20400.37
865.386	20290.09
865.707	20376.64
866.027	20287.15
866.348	20267.26
866.668	20142.3
866.989	20189.53
867.309	19985.24
867.63	20048.29
867.95	20135.74
868.27	19860.95
868.59	20002.64
868.91	19891.68
869.23	19860.95
869.55	19786.82
869.87	19881.74
870.19	19853.26
870.51	19746.37
870.83	19764
871.15	19657.34
871.469	19635.19
871.789	19693.27
872.109	19607.17
872.428	19556.1
872.748	19567.85
873.067	19526.49
873.386	19567.17
873.706	19498.02
874.025	19400.62
874.344	19346.38
874.663	19478.81
874.982	19338.25
875.301	19345.93
875.62	19293.96
875.939	19254.63
876.258	19307.97
876.577	19077.69
876.896	19160.63
877.214	19070.68
877.533	19045.6
877.852	19015.77
878.17	19026.62
878.489	19081.08
878.807	18932.61
879.125	18999.27
879.444	19019.16
879.762	18836.34
880.08	18967.41
880.398	18854.87
880.716	18771.26
881.034	18679.96
881.352	18715.67
881.67	18658.27
881.988	18728.55
882.306	18623.24
882.624	18551.83
882.941	18485.84
883.259	18389.57
883.577	18418.72
883.894	18320.87
884.212	18282.01
884.529	18283.81
884.846	18166.53
885.164	18228
885.481	18142.57
885.798	18182.57
886.115	17970.83
886.432	18070.03
886.75	17937.16
887.067	18037.72
887.383	17992.07
887.7	17973.76
888.017	17705.3
888.334	17792.98
888.651	17808.35
888.967	17664.39
889.284	17591.63
889.6	17596.6
889.917	17439.54
890.233	17496.49
890.55	17373.78
890.866	17393.89
891.182	17389.37
891.498	17354.35
891.815	17248.13
892.131	17183.5
892.447	17216.95
892.763	17061.02
893.079	17073
893.395	17090.4
893.71	16945.54
894.026	16888.14
894.342	16968.37
894.657	16735.38
894.973	16729.28
895.289	16709.39
895.604	16748.49
895.92	16544.88
896.235	16487.02
896.55	16491.54
896.865	16382.17
897.181	16311.66
897.496	16320.93
897.811	16226.92
898.126	16221.49
898.441	16158.67
898.756	16121.84
899.071	16000.71
899.386	16023.08
899.7	15974.72
900.015	15881.84
900.33	15751
900.644	15776.08
900.959	15687.27
901.273	15637.1
901.588	15592.36
901.902	15565.01
902.216	15532.7
902.531	15457.22
902.845	15459.93
903.159	15265.59
903.473	15302.42
903.787	15194.18
904.101	15057.68
904.415	15141.97
904.729	15017.68
905.042	14972.49
905.356	14884.58
905.67	14892.49
905.984	14873.96
906.297	14772.94
906.611	14712.61
906.924	14665.38
907.237	14597.58
907.551	14500.64
907.864	14474.42
908.177	14480.52
908.491	14426.51
908.804	14324.82
909.117	14283.47
909.43	14140.19
909.743	14157.14
910.056	14050.25
910.368	14053.64
910.681	13956.7
910.994	13885.28
911.307	13781.78
911.619	13709.24
911.932	13744.5
912.244	13556.93
912.557	13652.97
912.869	13483.04
913.181	13511.96
913.494	13534.56
913.806	13392.87
914.118	13308.12
914.43	13271.97
914.742	13184.51
915.054	13211.4
915.366	13122.82
915.678	13068.13
915.99	13059.54
916.302	12928.7
916.613	12838.08
916.925	12819.55
917.236	12837.4
917.548	12749.27
917.859	12739.1
918.171	12569.84
918.482	12555.83
918.794	12627.24
919.105	12475.83
919.416	12336.17
919.727	12301.37
920.038	12370.97
920.349	12237.87
920.66	12179.79
920.971	12144.31
921.282	12090.08
921.593	12037.65
921.903	11982.06
922.214	11980.25
922.525	11908.16
922.835	11784.55
923.146	11775.74
923.456	11762.85
923.767	11613.71
924.077	11558.57
924.387	11571.9
924.697	11484.44
925.008	11457.33
925.318	11449.19
925.628	11394.28
925.938	11444.67
926.248	11259.82
926.558	11200.16
926.867	11245.81
927.177	11137.11
927.487	11017.56
927.796	10971.69
928.106	10975.53
928.416	10942.76
928.725	10840.39
929.034	10865.7
929.344	10865.03
929.653	10785.71
929.962	10736.21
930.271	10676.1
930.581	10636.1
930.89	10595.2
931.199	10539.61
931.508	10497.8
931.817	10451.25
932.125	10478.59
932.434	10395.43
932.743	10234.76
933.051	10284.02
933.36	10231.37
933.669	10159.28
933.977	10201.99
934.286	10116.34
934.594	10070.47
934.902	9951.15
935.21	9966.97
935.519	9922.22
935.827	9865.96
936.135	9814.43
936.443	9738.95
936.751	9704.83
937.059	9706.86
937.367	9631.84
937.674	9679.75
937.982	9583.02
938.29	9570.82
938.597	9475.68
938.905	9479.98
939.213	9422.8
939.52	9346.19
939.827	9409.24
940.135	9274.33
940.442	9232.75
940.749	9222.58
941.056	9251.06
941.363	9080.67
941.67	9126.09
941.977	9025.98
942.284	9004.51
942.591	8987.11
942.898	8996.6
943.205	8873.66
943.511	8831.18
943.818	8861.69
944.125	8694.01
944.431	8773.33
944.738	8635.25
945.044	8627.12
945.35	8621.47
945.657	8525.88
945.963	8575.37
946.269	8525.65
946.575	8477.29
946.881	8380.57
947.187	8392.55
947.493	8365.43
947.799	8338.54
948.105	8259.9
948.41	8194.81
948.716	8233.91
949.022	8192.1
949.327	8155.49
949.633	8031.43
949.938	8040.69
950.244	8040.47
950.549	7954.82
950.854	7890.19
951.16	7893.58
951.465	7865.1
951.77	7824.43
952.075	7702.4
952.38	7731.32
952.685	7780.81
952.99	7610.2
953.294	7660.59
953.599	7602.96
953.904	7609.52
954.209	7497.43
954.513	7522.51
954.818	7533.59
955.122	7492.01
955.426	7465.79
955.731	7433.93
956.035	7311.9
956.339	7314.61
956.643	7276.19
956.948	7188.29
957.252	7276.42
957.556	7212.01
957.86	7150.09
958.163	7110.55
958.467	7090.66
958.771	7054.73
959.075	7000.95
959.378	6970.44
959.682	6954.39
959.985	6929.76
960.289	6897.67
960.592	6802.31
960.896	6818.8
961.199	6788.07
961.502	6789.43
961.805	6723.44
962.108	6677.56
962.411	6677.56
962.714	6621.07
963.017	6612.93
963.32	6573.84
963.623	6547.85
963.926	6473.73
964.228	6525.48
964.531	6499.49
964.833	6447.29
965.136	6361.64
965.438	6372.71
965.741	6352.6
966.043	6305.37
966.345	6328.87
966.648	6257.69
966.95	6255.2
967.252	6195.32
967.554	6150.12
967.856	6147.41
968.158	6106.28
968.46	6080.29
968.761	6086.85
969.063	6061.99
969.365	5993.74
969.666	5994.87
969.968	5971.14
970.269	5925.27
970.571	5983.12
970.872	5878.72
971.174	5877.81
971.475	5866.29
971.776	5778.61
972.077	5773.63
972.378	5753.3
972.679	5717.14
972.98	5739.06
973.281	5691.15
973.582	5688.89
973.883	5606.86
974.183	5556.92
974.484	5580.64
974.785	5496.8
975.085	5544.49
975.386	5555.56
975.686	5457.48
975.986	5462.68
976.287	5409.8
976.587	5391.5
976.887	5349.69
977.187	5367.09
977.487	5361.89
977.787	5293.87
978.087	5263.82
978.387	5212.29
978.687	5208.68
978.987	5164.61
979.286	5171.84
979.586	5155.8
979.885	5106.53
980.185	5109.7
980.484	5092.07
980.784	5040.32
981.083	5019.3
981.382	5048.68
981.682	4999.42
981.981	4983.15
982.28	4963.03
982.579	4900.21
982.878	4940.66
983.177	4927.78
983.475	4878.52
983.774	4791.51
984.073	4830.83
984.372	4770.27
984.67	4803.26
984.969	4774.56
985.267	4729.14
985.566	4731.4
985.864	4708.35
986.162	4649.82
986.461	4638.75
986.759	4601.23
987.057	4567.56
987.355	4548.81
987.653	4547.68
987.951	4501.58
988.249	4510.84
988.547	4485.31
988.844	4448.47
989.142	4443.5
989.44	4403.5
989.737	4312.2
990.035	4419.32
990.332	4332.09
990.63	4340.9
990.927	4347.68
991.224	4258.42
991.521	4261.81
991.819	4319.43
992.116	4234.92
992.413	4234.69
992.71	4175.94
993.006	4181.13
993.303	4153.11
993.6	4127.8
993.897	4132.77
994.193	4103.62
994.49	4055.49
994.787	4007.13
995.083	3961.48
995.379	3955.83
995.676	4001.7
995.972	3925.32
996.268	3985.66
996.565	3897.52
996.861	3874.7
997.157	3886.23
997.453	3876.28
997.749	3799.67
998.044	3805.1
998.34	3820.69
998.636	3769.84
998.932	3761.71
999.227	3715.38
999.523	3703.86
999.818	3659.34
1000.114	3651.2
1000.409	3634.71
1000.704	3633.58
1001	3592.22
1001.295	3576.86
1001.59	3586.57
1001.885	3536.86
1002.18	3535.27
1002.475	3464.32
1002.77	3482.85
1003.065	3499.34
1003.359	3445.33
1003.654	3451.66
1003.949	3409.63
1004.243	3363.98
1004.538	3330.31
1004.832	3345.45
1005.127	3316.52
1005.421	3288.5
1005.715	3259.12
1006.009	3272.23
1006.304	3228.16
1006.598	3274.04
1006.892	3196.75
1007.186	3196.75
1007.48	3159.92
1007.773	3145.68
1008.067	3124.89
1008.361	3114.72
1008.655	3098.22
1008.948	3058.22
1009.242	3068.62
1009.535	3019.36
1009.829	3017.32
1010.122	3021.39
1010.415	2981.39
1010.708	2964.89
1011.001	2949.75
1011.295	2915.63
1011.588	2939.58
1011.881	2886.93
1012.173	2899.36
1012.466	2868.17
1012.759	2884.22
1013.052	2824.33
1013.344	2800.83
1013.637	2783.43
1013.93	2795.63
1014.222	2748.85
1014.514	2736.65
1014.807	2719.93
1015.099	2695.52
1015.391	2700.72
1015.683	2665.69
1015.976	2633.83
1016.268	2654.17
1016.56	2640.16
1016.851	2589.76
1017.143	2592.47
1017.435	2567.39
1017.727	2524
1018.018	2535.53
1018.31	2495.75
1018.602	2495.75
1018.893	2495.3
1019.185	2453.27
1019.476	2434.29
1019.767	2403.55
1020.058	2429.31
1020.35	2364.01
1020.641	2390.9
1020.932	2361.29
1021.223	2329.66
1021.514	2318.58
1021.804	2293.95
1022.095	2291.01
1022.386	2278.58
1022.677	2240.85
1022.967	2261.41
1023.258	2246.04
1023.548	2222.54
1023.839	2234.07
1024.129	2189.55
1024.419	2149.55
1024.709	2127.63
1025	2111.81
1025.29	2113.39
1025.58	2106.61
1025.87	2126.05
1026.16	2050.57
1026.449	2037.46
1026.739	2040.4
1027.029	2007.63
1027.319	2026.84
1027.608	2004.02
1027.898	1976.45
1028.187	1984.58
1028.477	1950.46
1028.766	1927.41
1029.055	1914.75
1029.344	1921.53
1029.634	1877.46
1029.923	1888.09
1030.212	1888.99
1030.501	1869.78
1030.79	1851.02
1031.078	1830.23
1031.367	1788.43
1031.656	1808.31
1031.945	1788.65
1032.233	1790.46
1032.522	1765.38
1032.81	1761.31
1033.099	1742.55
1033.387	1733.74
1033.675	1713.63
1033.963	1723.12
1034.251	1688.09
1034.54	1676.57
1034.828	1663.91
1035.116	1638.6
1035.403	1675.21
1035.691	1624.82
1035.979	1610.58
1036.267	1617.13
1036.554	1589.11
1036.842	1589.11
1037.129	1577.36
1037.417	1564.7
1037.704	1529.45
1037.992	1547.3
1038.279	1537.13
1038.566	1506.18
1038.853	1506.18
1039.14	1506.18
