Data from 15-5210_FLMS001491_006.txt Node
Date: Thu Apr 19 16:48:27 BST 2018
User: hsy
Spectrometer: FLMS00149
Trigger mode: 0
Integration Time (sec): 1.000000E-2
Scans to average: 10
Electric dark correction enabled: true
Nonlinearity correction enabled: false
Boxcar width: 0
XAxis mode: Wavelengths
Number of Pixels in Spectrum: 2048
>>>>>Begin Spectral Data<<<<<
341.393	-24.6
341.776	-24.6
342.16	-24.6
342.543	-49.01
342.927	-70.7
343.31	-69.8
343.693	-75.68
344.077	-73.19
344.46	-64.6
344.843	-54.43
345.226	-32.06
345.61	-56.92
345.993	-2.01
346.376	-15.11
346.759	24.43
347.142	20.14
347.525	42.96
347.908	68.05
348.291	76.86
348.674	102.62
349.057	108.73
349.44	130.65
349.823	142.85
350.206	184.43
350.588	204.77
350.971	261.94
351.354	261.04
351.737	274.6
352.119	303.98
352.502	330.42
352.884	299.23
353.267	318.89
353.65	338.78
354.032	339.68
354.414	350.08
354.797	366.57
355.179	346.46
355.562	376.29
355.944	367.48
356.326	370.19
356.709	367.48
357.091	390.3
357.473	358.66
357.855	388.49
358.238	397.08
358.62	410.41
359.002	390.3
359.384	404.99
359.766	373.8
360.148	376.97
360.53	376.74
360.912	387.36
361.294	361.15
361.676	379.91
362.057	370.64
362.439	398.66
362.821	366.8
363.203	372.45
363.584	393.46
363.966	368.15
364.348	367.7
364.729	367.02
365.111	366.12
365.493	382.39
365.874	376.06
366.256	381.49
366.637	369.96
367.019	352.56
367.4	358.21
367.781	367.48
368.163	353.69
368.544	372.9
368.925	353.92
369.306	387.59
369.688	358.66
370.069	376.29
370.45	369.06
370.831	361.37
371.212	371.32
371.593	372.22
371.974	379.68
372.355	362.28
372.736	385.1
373.117	387.36
373.498	376.52
373.879	363.86
374.26	370.41
374.641	379
375.021	374.26
375.402	380.81
375.783	391.88
376.163	387.36
376.544	381.04
376.925	386.91
377.305	391.66
377.686	412.9
378.066	402.73
378.447	389.17
378.827	411.54
379.208	415.16
379.588	370.87
379.968	395.27
380.349	396.85
380.729	412.9
381.109	420.81
381.489	427.81
381.87	408.61
382.25	407.93
382.63	402.28
383.01	405.44
383.39	424.2
383.77	436.4
384.15	405.89
384.53	453.12
384.91	451.54
385.29	454.03
385.67	440.24
386.049	461.49
386.429	434.59
386.809	457.42
387.189	465.33
387.568	470.07
387.948	475.95
388.328	488.38
388.707	466.46
389.087	487.93
389.466	494.03
389.846	484.99
390.225	474.59
390.605	488.6
390.984	497.19
391.363	471.2
391.743	491.54
392.122	505.33
392.501	511.43
392.881	508.72
393.26	499.45
393.639	511.2
394.018	502.16
394.397	508.72
394.776	530.41
395.155	526.79
395.534	550.52
395.913	542.84
396.292	549.84
396.671	549.84
397.05	534.48
397.429	563.18
397.808	555.95
398.186	571.54
398.565	571.31
398.944	561.6
399.323	566.12
399.701	587.13
400.08	601.14
400.458	601.82
400.837	603.63
401.215	608.6
401.594	608.6
401.972	603.4
402.351	643.18
402.729	629.16
403.107	619.22
403.486	647.69
403.864	646.79
404.242	635.94
404.62	652.44
404.999	656.73
405.377	682.95
405.755	681.14
406.133	665.77
406.511	684.08
406.889	695.83
407.267	706.45
407.645	715.72
408.023	734.7
408.401	736.73
408.779	739.22
409.156	756.62
409.534	774.25
409.912	786.22
410.29	797.75
410.667	793.23
411.045	817.18
411.422	830.06
411.8	829.16
412.178	882.94
412.555	899.21
412.933	902.6
413.31	902.83
413.687	904.19
414.065	906.22
414.442	950.74
414.819	944.64
415.197	949.16
415.574	956.61
415.951	978.31
416.328	979.21
416.705	984.64
417.082	1009.49
417.46	1035.03
417.837	1016.27
418.214	1047.01
418.591	1056.95
418.967	1067.34
419.344	1058.98
419.721	1081.58
420.098	1082.94
420.475	1087.91
420.852	1120.68
421.228	1102.82
421.605	1138.76
421.982	1145.99
422.358	1166.78
422.735	1178.98
423.111	1182.37
423.488	1217.4
423.864	1201.58
424.241	1223.05
424.617	1251.07
424.994	1249.03
425.37	1260.33
425.746	1242.93
426.123	1316.38
426.499	1291.97
426.875	1340.11
427.251	1340.78
427.627	1362.25
428.003	1388.01
428.379	1414.23
428.756	1404.06
429.132	1432.76
429.507	1447
429.883	1491.06
430.259	1488.12
430.635	1522.25
431.011	1518.41
431.387	1538.52
431.763	1576.26
432.138	1567.67
432.514	1577.61
432.89	1588.24
433.265	1676.14
433.641	1697.16
434.016	1668.46
434.392	1700.1
434.767	1747.1
435.143	1729.93
435.518	1757.5
435.894	1799.75
436.269	1839.75
436.644	1869.81
437.02	1894.22
437.395	1882.24
437.77	1897.38
438.145	1910.49
438.52	1950.26
438.895	1973.31
439.271	1981.45
439.646	2026.64
440.021	2021.67
440.395	2055.79
440.77	2044.72
441.145	2084.49
441.52	2105.96
441.895	2104.83
442.27	2129.69
442.645	2122.68
443.019	2154.55
443.394	2166.07
443.769	2175.11
444.143	2172.17
444.518	2233.87
444.892	2244.04
445.267	2217.6
445.641	2267.77
446.016	2279.97
446.39	2287.65
446.764	2323.13
447.139	2289.01
447.513	2335.11
447.887	2331.04
448.262	2354.99
448.636	2384.15
449.01	2416.46
449.384	2419.17
449.758	2430.02
450.132	2490.13
450.506	2529.45
450.88	2511.83
451.254	2482.45
451.628	2552.73
452.002	2573.75
452.376	2634.31
452.75	2629.34
453.123	2655.33
453.497	2684.25
453.871	2689.45
454.244	2757.02
454.618	2810.12
454.992	2841.54
455.365	2867.52
455.739	2920.4
456.112	2969.89
456.486	2932.15
456.859	2996.11
457.232	3085.82
457.606	3066.84
457.979	3109.1
458.352	3172.15
458.725	3208.76
459.099	3255.31
459.472	3256.67
459.845	3296.21
460.218	3364.23
460.591	3394.06
460.964	3398.81
461.337	3473.38
461.71	3554.74
462.083	3585.7
462.456	3582.53
462.829	3604.91
463.201	3676.32
463.574	3700.27
463.947	3757.9
464.32	3818.01
464.692	3858.68
465.065	3891.45
465.438	3933.94
465.81	3926.93
466.183	3996.08
466.555	4067.49
466.928	4131.67
467.3	4085.8
467.672	4194.04
468.045	4272.46
468.417	4286.7
468.789	4283.53
469.161	4367.6
469.534	4427.93
469.906	4508.84
470.278	4585.67
470.65	4586.57
471.022	4692.56
471.394	4769.17
471.766	4791.31
472.138	4881.71
472.51	4974.36
472.882	5029.95
473.253	5071.99
473.625	5114.02
473.997	5203.73
474.369	5273.56
474.74	5309.72
475.112	5437.4
475.484	5504.52
475.855	5615.93
476.227	5606.21
476.598	5811.4
476.97	5875.35
477.341	5983.15
477.713	6032.41
478.084	6073.09
478.455	6284.61
478.827	6353.08
479.198	6535
479.569	6487.77
479.94	6711.94
480.311	6815.67
480.682	6915.33
481.053	7080.29
481.424	7200.52
481.795	7298.14
482.166	7420.85
482.537	7445.03
482.908	7673.72
483.279	7742.42
483.65	7933.6
484.021	8077.1
484.391	8158.46
484.762	8320.49
485.133	8249.08
485.503	8457.43
485.874	8710.53
486.244	8790.31
486.615	8968.15
486.985	9075.5
487.356	9278.2
487.726	9374.7
488.097	9600.45
488.467	9682.26
488.837	9863.95
489.207	9986.43
489.578	10168.8
489.948	10336.71
490.318	10552.52
490.688	10579.41
491.058	10794.09
491.428	11000.87
491.798	10980.3
492.168	11247.64
492.538	11462.78
492.908	11561.08
493.278	11717.69
493.648	11722.66
494.017	12055.53
494.387	12130.33
494.757	12234.51
495.126	12436.76
495.496	12557.44
495.866	12735.51
496.235	12776.19
496.605	13024.54
496.974	13106.12
497.344	13260.92
497.713	13386.79
498.082	13509.96
498.452	13661.14
498.821	13802.6
499.19	13948.36
499.559	14063.16
499.928	14108.36
500.298	14236.94
500.667	14444.62
501.036	14490.27
501.405	14726.19
501.774	14807.1
502.143	14941.78
502.512	15089.57
502.88	15103.81
503.249	15273.3
503.618	15412.28
503.987	15417.93
504.356	15568.21
504.724	15688.66
505.093	15801.42
505.462	15939.5
505.83	15932.72
506.199	16151.02
506.567	16435.3
506.936	16422.42
507.304	16673.26
507.672	16621.51
508.041	16826.25
508.409	16971.79
508.777	17071.9
509.145	17263.53
509.514	17200.93
509.882	17472.34
510.25	17445.67
510.618	17622.39
510.986	17727.47
511.354	17839.56
511.722	18020.12
512.09	18213.56
512.458	18099.44
512.826	18330.39
513.193	18397.74
513.561	18571.74
513.929	18648.35
514.297	18813.09
514.664	18983.26
515.032	19016.93
515.4	19194.55
515.767	19330.37
516.135	19251.95
516.502	19284.49
516.869	19651.04
517.237	19649.68
517.604	19659.4
517.972	19968.54
518.339	19981.65
518.706	20163.11
519.073	20239.5
519.44	20265.26
519.808	20555.19
520.175	20483.56
520.542	20867.95
520.909	20691.01
521.276	20966.26
521.643	21035.18
522.009	21239.24
522.376	21354.72
522.743	21485.57
523.11	21631.1
523.477	21865.44
523.843	21918.32
524.21	22076.06
524.577	22292.1
524.943	22399.44
525.31	22456.61
525.676	22794.01
526.043	22765.53
526.409	22879.43
526.776	23099.99
527.142	23138.85
527.508	23223.82
527.874	23562.8
528.241	23523.7
528.607	23629.69
528.973	23840.31
529.339	23850.93
529.705	24001.43
530.071	24166.85
530.437	24226.74
530.803	24403
531.169	24467.41
531.535	24523
531.901	24507.41
532.267	24690.45
532.632	24819.04
532.998	24873.05
533.364	25017.9
533.73	25133.38
534.095	25212.7
534.461	25131.12
534.826	25271
535.192	25329.31
535.557	25404.33
535.923	25493.37
536.288	25476.42
536.653	25536.76
537.019	25595.06
537.384	25583.76
537.749	25715.06
538.114	25844.77
538.479	25842.96
538.845	25755.28
539.21	25675.51
539.575	25764.77
539.94	25814.26
540.305	25940.14
540.67	25908.73
541.034	25894.71
541.399	25894.49
541.764	25924.77
542.129	26047.7
542.494	25994.82
542.858	26050.42
543.223	25998.67
543.587	26018.78
543.952	26070.08
544.316	25967.26
544.681	26121.6
545.045	26131.54
545.41	26095.16
545.774	25962.74
546.138	25943.75
546.503	26077.08
546.867	26033.47
547.231	26136.29
547.595	26272.56
547.959	26203.18
548.324	26090.19
548.688	26156.18
549.052	26172.22
549.416	26113.92
549.779	26087.48
550.143	26207.7
550.507	26280.69
550.871	26277.53
551.235	26141.71
551.599	26404.08
551.962	26173.8
552.326	26266.46
552.689	26430.97
553.053	26099
553.417	26291.09
553.78	26327.92
554.143	26359.56
554.507	26353.01
554.87	26373.12
555.234	26479.11
555.597	26377.19
555.96	26367.24
556.323	26462.84
556.686	26422.38
557.05	26514.13
557.413	26517.3
557.776	26483.63
558.139	26678.2
558.502	26615.15
558.865	26520.46
559.228	26686.56
559.59	26710.96
559.953	26803.84
560.316	26793.67
560.679	26871.64
561.041	26943.05
561.404	27010.39
561.767	27172.42
562.129	26981.92
562.492	27173.78
562.854	27029.15
563.217	27088.13
563.579	27190.27
563.941	27279.99
564.304	27412.41
564.666	27644.73
565.028	27560.21
565.39	27592.98
565.753	27662.13
566.115	27688.57
566.477	27761.56
566.839	27877.26
567.201	27994.32
567.563	27972.4
567.925	28148.67
568.287	27994.09
568.648	28321.54
569.01	28357.02
569.372	28526.28
569.734	28432.28
570.095	28703.68
570.457	28595.43
570.819	28649.9
571.18	28780.51
571.542	28991.81
571.903	28818.03
572.265	29070.9
572.626	29189.32
572.987	29174.63
573.349	29405.36
573.71	29406.71
574.071	29554.28
574.432	29658.68
574.794	29820.04
575.155	29706.37
575.516	29737.55
575.877	29744.78
576.238	29888.06
576.599	30023.65
576.96	30067.26
577.32	30128.95
577.681	30216.86
578.042	30432
578.403	30384.54
578.763	30366.24
579.124	30475.39
579.485	30636.74
579.845	30795.83
580.206	30637.41
580.566	30737.07
580.927	30722.16
581.287	30845.54
581.648	30675.15
582.008	30896.17
582.368	31063.17
582.728	31109.27
583.089	31014.81
583.449	31116.05
583.809	31147.68
584.169	31389.71
584.529	31150.62
584.889	31553.1
585.249	31371.63
585.609	31380.45
585.969	31544.28
586.329	31545.41
586.688	31561.23
587.048	31589.03
587.408	31710.61
587.768	31657.05
588.127	31785.41
588.487	31793.77
588.846	31997.15
589.206	31801.23
589.565	31984.05
589.925	32153.53
590.284	32070.6
590.643	32103.14
591.003	32234.66
591.362	32357.37
591.721	32314.43
592.08	32383.81
592.44	32486.41
592.799	32464.03
593.158	32517.37
593.517	32467.42
593.876	32665.38
594.235	32636.91
594.593	32710.35
594.952	32861.76
595.311	32809.11
595.67	32937.69
596.029	33164.35
596.387	33126.16
596.746	33318.47
597.104	33092.72
597.463	33020.4
597.822	33265.37
598.18	33078.25
598.538	33243.9
598.897	33286.84
599.255	33198.7
599.613	33653.38
599.972	33445.7
600.33	33586.49
600.688	33569.09
601.046	33589.2
601.404	33847.05
601.762	33756.88
602.12	33896.99
602.478	33873.94
602.836	33991.9
603.194	33700.16
603.552	33899.48
603.91	33870.32
604.268	34089.53
604.625	33991.45
604.983	34208.85
605.341	33987.61
605.698	34357.09
606.056	34326.58
606.413	34324.55
606.771	34610.64
607.128	34423.98
607.485	34406.13
607.843	34499.01
608.2	34649.29
608.557	34757.98
608.914	34790.53
609.272	34912.1
609.629	35007.47
609.986	35040.24
610.343	35023.74
610.7	35342.15
611.057	35310.29
611.414	35166.56
611.771	35305.09
612.127	35369.04
612.484	35517.29
612.841	35687.9
613.198	35496.95
613.554	35391.87
613.911	35804.74
614.267	35807.9
614.624	35826.66
614.98	35938.52
615.337	36150.49
615.693	36034.11
616.05	36128.8
616.406	36180.77
616.762	36197.72
617.118	36065.52
617.475	36160.21
617.831	36362.91
618.187	36403.82
618.543	36443.82
618.899	36616.92
619.255	36459.86
619.611	36446.75
619.967	36738.27
620.323	36775.78
620.678	36628.9
621.034	36651.49
621.39	36530.59
621.746	36780.53
622.101	37039.73
622.457	36829.57
622.812	37009
623.168	37079.51
623.523	36900.07
623.879	37023.01
624.234	36933.97
624.589	37009.9
624.945	37070.01
625.3	37095.55
625.655	37159.28
626.01	37067.98
626.365	37194.08
626.72	37118.83
627.075	36945.27
627.43	37063.01
627.785	37157.02
628.14	37239.5
628.495	37211.48
628.85	37135.1
629.205	37203.12
629.559	37221.65
629.914	37055.1
630.269	37154.76
630.623	36935.1
630.978	36864.37
631.332	37167.19
631.687	37137.81
632.041	36927.19
632.396	37016.68
632.75	36903.24
633.104	36947.76
633.459	36762.45
633.813	36675.67
634.167	36672.28
634.521	36743.02
634.875	36757.48
635.229	36619.86
635.583	36557.71
635.937	36498.28
636.291	36524.72
636.645	36539.18
636.999	36536.92
637.352	36506.19
637.706	36344.16
638.06	36518.62
638.413	36351.84
638.767	36279.98
639.121	36274.78
639.474	36146.87
639.828	36224.39
640.181	36154.78
640.534	36224.84
640.888	36110.27
641.241	35918.63
641.594	36059.19
641.947	36095.35
642.301	36101.45
642.654	36059.42
643.007	35890.84
643.36	36108.68
643.713	35905.07
644.066	36122.02
644.419	35966.31
644.771	35515.03
645.124	35249.04
645.477	35237.07
645.83	35007.92
646.182	34991.65
646.535	34901.48
646.888	34970.41
647.24	34895.38
647.593	35241.36
647.945	35078.88
648.298	34848.83
648.65	34678.44
649.002	34505.79
649.355	34463.75
649.707	34481.61
650.059	34513.92
650.411	34951.88
650.763	35147.58
651.115	35649.94
651.467	35647
651.819	35682.25
652.171	35566.32
652.523	35549.15
652.875	35714.8
653.227	35504.63
653.578	35766.55
653.93	35665.98
654.282	35373.56
654.633	35510.73
654.985	35676.15
655.337	35633.67
655.688	35571.3
656.039	35808.58
656.391	35383.5
656.742	35591.63
657.094	35504.41
657.445	35696.26
657.796	35791.4
658.147	35451.53
658.498	35692.65
658.849	35885.19
659.2	35804.06
659.551	35679.77
659.902	35876.37
660.253	35827.79
660.604	35926.54
660.955	35703.04
661.306	36068.01
661.656	35729.03
662.007	35982.13
662.358	35917.5
662.708	35822.36
663.059	35884.28
663.409	35774.23
663.76	35977.16
664.11	35991.85
664.461	36083.37
664.811	35995.24
665.161	36077.95
665.511	36011.51
665.862	36124.95
666.212	36061.23
666.562	36209.25
666.912	36117.72
667.262	35987.78
667.612	36058.29
667.962	36213.31
668.312	36141.68
668.662	36296.48
669.011	36298.73
669.361	36215.8
669.711	36327.66
670.06	36171.05
670.41	36057.84
670.76	36149.13
671.109	36244.72
671.459	36023.04
671.808	36054.45
672.157	36195.01
672.507	36043.6
672.856	35966.54
673.205	35889.03
673.554	36030.95
673.904	35925.19
674.253	36193.43
674.602	35912.98
674.951	35405.65
675.3	35281.13
675.649	36001.79
675.998	35912.3
676.346	35873.66
676.695	35969.03
677.044	35647.68
677.393	35738.98
677.741	35861.23
678.09	35722.48
678.438	35611.52
678.787	35682.03
679.135	35631.86
679.484	35379.44
679.832	35525.2
680.181	35400.23
680.529	35345.09
680.877	35309.61
681.225	35268.93
681.573	35591.86
681.922	35298.54
682.27	35129.73
682.618	35106.45
682.966	35125.43
683.314	35070.74
683.661	34966.57
684.009	34770.87
684.357	34754.82
684.705	34621.49
685.053	34666.01
685.4	34457.88
685.748	34402.29
686.095	34259.24
686.443	34022.64
686.79	34178.11
687.138	34136.08
687.485	34139.47
687.832	33876.2
688.18	33813.6
688.527	33736.77
688.874	33690.44
689.221	33573.16
689.568	33369.55
689.915	33254.52
690.262	33412.71
690.609	33249.55
690.956	32984.92
691.303	33107.86
691.65	32808.66
691.997	32724.37
692.344	32662.22
692.69	32526.86
693.037	32549.91
693.383	32329.8
693.73	32355.56
694.077	32078.05
694.423	32047.32
694.769	31856.82
695.116	31854.11
695.462	31626.99
695.808	31532.31
696.155	31630.16
696.501	31344.97
696.847	31343.61
697.193	30989.04
697.539	31041.92
697.885	30725.32
698.231	30637.41
698.577	30606.23
698.923	30575.04
699.269	30335.5
699.614	30134.38
699.96	30086.24
700.306	30001.5
700.651	29878.34
700.997	29793.14
701.342	29667.27
701.688	29678.12
702.033	29466.15
702.379	29451.01
702.724	29145.02
703.069	29137.57
703.415	28921.08
703.76	28848.54
704.105	28775.54
704.45	28555.66
704.795	28531.71
705.14	28366.29
705.485	28456.46
705.83	28118.38
706.175	28258.04
706.52	28167.42
706.865	27991.38
707.209	27999.97
707.554	27929.24
707.899	27852.18
708.243	27732.18
708.588	27532.86
708.932	27361.12
709.277	27501.9
709.621	27386.88
709.966	27178.97
710.31	27299.65
710.654	26998.41
710.998	27060.11
711.342	27070.73
711.687	26900.79
712.031	26802.49
712.375	26760.68
712.719	26708.03
713.063	26563.85
713.407	26731.98
713.75	26602.27
714.094	26763.62
714.438	26440.24
714.782	26437.07
715.125	26323.18
715.469	26491.31
715.812	26289.51
716.156	26218.32
716.499	26296.74
716.843	26307.13
717.186	26100.81
717.53	26225.55
717.873	26225.78
718.216	26189.62
718.559	26147.36
718.902	25950.08
719.246	25995.5
719.589	26008.16
719.932	25787.15
720.275	25880.48
720.617	25943.98
720.96	25833.47
721.303	25905.56
721.646	25902.85
721.989	25772.91
722.331	25943.75
722.674	25850.2
723.016	25911.89
723.359	25761.16
723.701	25879.35
724.044	25882.29
724.386	25736.07
724.729	25832.34
725.071	25775.62
725.413	25834.15
725.755	25888.61
726.097	25655.62
726.439	25677.77
726.782	25633.25
727.124	25784.89
727.465	25808.62
727.807	25696.08
728.149	25785.34
728.491	25729.52
728.833	26005.67
729.175	25902.4
729.516	25788.5
729.858	25781.95
730.199	25938.78
730.541	25784.66
730.882	25834.15
731.224	25991.66
731.565	25899.01
731.906	25993.47
732.248	26154.14
732.589	26062.85
732.93	25946.24
733.271	26064.88
733.612	26127.25
733.953	26164.54
734.294	26147.82
734.635	26151.43
734.976	26293.12
735.317	26192.56
735.658	26339.45
735.999	26218.32
736.339	26419.9
736.68	26417.64
737.021	26303.97
737.361	26357.98
737.702	26626.22
738.042	26642.49
738.383	26703.05
738.723	26705.99
739.063	26818.53
739.404	26899.21
739.744	26894.69
740.084	26920.9
740.424	27065.98
740.764	27065.98
741.104	27377.84
741.444	27213.55
741.784	27318.63
742.124	27549.59
742.464	27584.84
742.804	27692.18
743.143	27723.82
743.483	27689.7
743.823	27861.67
744.162	27908.22
744.502	28014.66
744.841	28173.98
745.181	28452.61
745.52	28401.77
745.86	28571.93
746.199	28800.17
746.538	28855.77
746.877	28995.65
747.216	29104.8
747.556	29191.58
747.895	29469.31
748.234	29402.87
748.573	29581.85
748.911	29834.27
749.25	29925.34
749.589	30126.02
749.928	30327.37
750.267	30567.81
750.605	30566
750.944	30697.75
751.283	30854.13
751.621	31194.01
751.96	31282.14
752.298	31438.98
752.636	31693.66
752.975	31797.61
753.313	31900.66
753.651	32382.68
753.989	32323.7
754.327	32563.24
754.666	32675.55
755.004	33062.89
755.342	33124.81
755.679	33349.21
756.017	33274.63
756.355	33634.85
756.693	33602.08
757.031	34198.68
757.368	34130.43
757.706	34288.84
758.044	34365.68
758.381	34663.52
758.719	34652.68
759.056	34913.46
759.394	35063.29
759.731	34968.83
760.068	35265.09
760.405	35428.25
760.743	35494.69
761.08	35704.85
761.417	35770.61
761.754	35995.69
762.091	35921.57
762.428	36091.28
762.765	36081.79
763.102	36216.48
763.438	36376.47
763.775	36279.75
764.112	36457.37
764.449	36804.48
764.785	36619.18
765.122	36578.5
765.458	36652.62
765.795	36714.09
766.131	36860.75
766.467	36964.25
766.804	36801.77
767.14	36713.64
767.476	36860.75
767.812	36860.53
768.148	37100.52
768.485	36957.93
768.821	36891.26
769.157	36984.82
769.492	37009.22
769.828	36855.56
770.164	36833.86
770.5	36777.82
770.836	36809.68
771.171	36754.99
771.507	36769
771.842	36649.69
772.178	36730.59
772.513	36795.22
772.849	36686.75
773.184	36778.04
773.519	36592.51
773.855	36504.38
774.19	36504.15
774.525	36351.61
774.86	36370.82
775.195	36369.92
775.53	36192.75
775.865	36116.82
776.2	35926.09
776.535	35829.37
776.87	35679.99
777.205	35675.25
777.539	35597.51
777.874	35846.09
778.209	35297.18
778.543	35575.14
778.878	35323.85
779.212	35275.26
779.547	35084.53
779.881	35238.2
780.215	34850.86
780.55	35004.98
780.884	34739
781.218	34788.72
781.552	34760.02
781.886	34519.57
782.22	34370.65
782.554	34326.58
782.888	34045.69
783.222	34057.66
783.556	34145.8
783.889	33998
784.223	33749.65
784.557	33699.26
784.89	33895.86
785.224	33633.49
785.557	33424.23
785.891	33328.42
786.224	33348.3
786.558	33383.11
786.891	33063.11
787.224	32903.57
787.557	32798.49
787.891	32827.41
788.224	32628.32
788.557	32578.61
788.89	32650.24
789.223	32452.51
789.556	32221.33
789.888	32266.98
790.221	32213.87
790.554	31983.37
790.887	32049.58
791.219	31823.37
791.552	31812.53
791.884	31683.94
792.217	31559.65
792.549	31459.77
792.882	31123.28
793.214	31146.78
793.546	31308.36
793.879	31063.39
794.211	30835.15
794.543	31092.32
794.875	30882.38
795.207	30780.24
795.539	30660.24
795.871	30746.34
796.203	30599.68
796.535	30351.55
796.867	30448.95
797.198	30076.75
797.53	30095.73
797.862	29890.77
798.193	30064.1
798.525	29875.63
798.856	29919.47
799.188	29588.18
799.519	29416.66
799.85	29369.65
800.182	29498.46
800.513	29490.78
800.844	29064.8
801.175	29349.77
801.506	29088.98
801.837	29032.71
802.168	28941.64
802.499	28959.27
802.83	28848.31
803.161	28766.05
803.491	28787.97
803.822	28763.79
804.153	28597.92
804.483	28441.09
804.814	28319.96
805.145	28349.34
805.475	28258.04
805.805	28183.02
806.136	28188.21
806.466	28070.93
806.796	27927.88
807.126	27931.95
807.457	27856.92
807.787	27905.06
808.117	27785.06
808.447	27676.36
808.777	27718.85
809.107	27489.25
809.436	27407.9
809.766	27403.83
810.096	27349.59
810.426	27286.54
810.755	27233.44
811.085	27303.49
811.414	27176.04
811.744	27007.68
812.073	26970.84
812.403	26968.13
812.732	26811.3
813.061	26939.21
813.39	26675.94
813.719	26711.87
814.049	26738.76
814.378	26691.53
814.707	26506.9
815.036	26455.38
815.365	26435.27
815.693	26191.43
816.022	26332.22
816.351	26188.27
816.68	25993.24
817.008	26117.99
817.337	25953.47
817.665	25868.27
817.994	25814.72
818.322	25989.63
818.651	25962.28
818.979	25747.15
819.307	25772.68
819.636	25743.31
819.964	25613.82
820.292	25731.1
820.62	25630.09
820.948	25627.6
821.276	25795.96
821.604	25610.65
821.932	25824.43
822.259	25504.67
822.587	25704.44
822.915	25606.81
823.243	25651.78
823.57	25587.6
823.898	25722.29
824.225	25594.16
824.553	25579.02
824.88	25611.56
825.207	25717.54
825.535	25637.55
825.862	25690.88
826.189	25629.18
826.516	25809.29
826.843	25729.52
827.17	25833.25
827.497	25650.2
827.824	25630.09
828.151	25727.26
828.478	25593.93
828.805	25803.87
829.131	25701.95
829.458	25786.02
829.785	25620.15
830.111	25605.68
830.438	25816.75
830.764	25689.3
831.09	25720.03
831.417	25507.15
831.743	25696.75
832.069	25737.88
832.395	25610.43
832.722	25616.53
833.048	25444.33
833.374	25753.02
833.7	25588.28
834.026	25716.41
834.351	25560.03
834.677	25620.82
835.003	25558.45
835.329	25562.75
835.654	25498.57
835.98	25380.6
836.306	25516.42
836.631	25407.04
836.956	25583.08
837.282	25502.86
837.607	25422.86
837.932	25426.03
838.258	25296.76
838.583	25336.54
838.908	25297.44
839.233	25273.49
839.558	25241.4
839.883	25083.66
840.208	25014.51
840.533	25119.82
840.858	25005.02
841.182	25007.96
841.507	24980.39
841.832	24919.82
842.156	24826.04
842.481	24697.91
842.805	24711.69
843.13	24626.27
843.454	24691.36
843.778	24635.76
844.103	24565.94
844.427	24588.99
844.751	24572.26
845.075	24481.64
845.399	24416.34
845.723	24360.29
846.047	24294.53
846.371	24087.98
846.695	24014.31
847.019	23930.92
847.343	23751.04
847.666	23760.53
847.99	23666.98
848.313	23507.21
848.637	23452.97
848.96	23403.71
849.284	23452.52
849.607	23163.04
849.931	23124.39
850.254	22965.98
850.577	22845.53
850.9	22783.84
851.223	22758.75
851.546	22665.65
851.869	22575.71
852.192	22606.89
852.515	22372.1
852.838	22269.95
853.161	22390.17
853.483	22122.38
853.806	22165.32
854.129	21958.32
854.451	21993.12
854.774	21812.79
855.096	21789.51
855.419	21785.67
855.741	21743.64
856.063	21521.72
856.385	21493.02
856.708	21433.14
857.03	21452.8
857.352	21508.16
857.674	21382.06
857.996	21278.11
858.318	21119.02
858.64	21132.35
858.961	21009.65
859.283	20951.57
859.605	20912.47
859.926	20913.83
860.248	20940.04
860.57	20744.34
860.891	20785.92
861.212	20573.95
861.534	20592.71
861.855	20499.6
862.176	20556.32
862.498	20536.66
862.819	20539.38
863.14	20373.73
863.461	20383.22
863.782	20337.35
864.103	20297.35
864.424	20173.51
864.745	20278.14
865.065	20125.15
865.386	20025.04
865.707	20106.17
866.027	20130.35
866.348	20042.89
866.668	20071.82
866.989	20011.03
867.309	19854.87
867.63	19904.82
867.95	19893.52
868.27	19776.01
868.59	19868.43
868.91	19862.1
869.23	19847.42
869.55	19815.33
869.87	19807.19
870.19	19545.5
870.51	19632.05
870.83	19617.37
871.15	19573.52
871.469	19482.68
871.789	19567.65
872.109	19531.04
872.428	19456.69
872.748	19500.53
873.067	19454.43
873.386	19348.22
873.706	19310.48
874.025	19253.53
874.344	19242.23
874.663	19275.91
874.982	19144.61
875.301	19159.3
875.62	19086.08
875.939	19045.4
876.258	19061.9
876.577	19045.86
876.896	18924.28
877.214	18929.47
877.533	19039.53
877.852	18956.14
878.17	18925.41
878.489	18899.87
878.807	18813.32
879.125	18804.28
879.444	18751.63
879.762	18771.51
880.08	18790.49
880.398	18621.69
880.716	18586.21
881.034	18637.73
881.352	18670.72
881.67	18537.39
881.988	18506.89
882.306	18526.55
882.624	18349.15
882.941	18374.69
883.259	18282.94
883.577	18297.17
883.894	18215.37
884.212	18256.5
884.529	18207.69
884.846	18082.26
885.164	18010.18
885.481	17992.1
885.798	18001.59
886.115	17903.06
886.432	18005.2
886.75	17771.76
887.067	17965.66
887.383	17779.9
887.7	17761.14
888.017	17597.08
888.334	17668.26
888.651	17609.28
888.967	17499.23
889.284	17491.77
889.6	17412.45
889.917	17316.18
890.233	17427.14
890.55	17359.35
890.866	17314.83
891.182	17256.52
891.498	17174.49
891.815	17114.61
892.131	17002.29
892.447	16951.67
892.763	16914.39
893.079	16853.14
893.395	16839.13
893.71	16823.99
894.026	16673.04
894.342	16621.06
894.657	16552.81
894.973	16618.35
895.289	16621.74
895.604	16433.27
895.92	16356.21
896.235	16351.69
896.55	16422.2
896.865	16185.59
897.181	16206.83
897.496	16231.47
897.811	16123.22
898.126	15992.83
898.441	16031.92
898.756	15886.39
899.071	15890.23
899.386	15796.45
899.7	15776.56
900.015	15689.33
900.33	15566.85
900.644	15582.67
900.959	15605.04
901.273	15537.25
901.588	15428.55
901.902	15269.46
902.216	15230.81
902.531	15274.2
902.845	15178.16
903.159	15120.08
903.473	15052.74
903.787	14952.86
904.101	14916.25
904.415	14980.65
904.729	14900.2
905.042	14808.68
905.356	14794.67
905.67	14671.96
905.984	14767.32
906.297	14676.93
906.611	14497.95
906.924	14481.91
907.237	14446.43
907.551	14428.35
907.864	14270.84
908.177	14287.56
908.491	14251.18
908.804	14246.89
909.117	14129.6
909.43	14003.73
909.743	13946.55
910.056	13911.3
910.368	13881.02
910.681	13787.69
910.994	13691.65
911.307	13627.24
911.619	13535.04
911.932	13569.61
912.244	13490.3
912.557	13462.95
912.869	13396.74
913.181	13273.8
913.494	13348.6
913.806	13205.1
914.118	13187.25
914.43	13199.46
914.742	13060.7
915.054	13018.44
915.366	12971.21
915.678	12983.87
915.99	12872.91
916.302	12806.92
916.613	12734.61
916.925	12762.86
917.236	12643.31
917.548	12550.21
917.859	12555.4
918.171	12491
918.482	12445.12
918.794	12360.61
919.105	12344.34
919.416	12185.47
919.727	12233.83
920.038	12269.31
920.349	12067.28
920.66	12073.16
920.971	12004.23
921.282	11990.9
921.593	11915.65
921.903	11761.07
922.214	11808.31
922.525	11754.52
922.835	11760.85
923.146	11677.46
923.456	11657.57
923.767	11559.5
924.077	11496.45
924.387	11611.25
924.697	11508.2
925.008	11410.58
925.318	11345.27
925.628	11352.72
925.938	11296
926.248	11127.87
926.558	11047.42
926.867	11120.87
927.177	11069.12
927.487	10988.67
927.796	11013.07
928.106	10901.66
928.416	10880.65
928.725	10791.38
929.034	10769.69
929.344	10776.69
929.653	10740.54
929.962	10626.64
930.271	10561.56
930.581	10591.84
930.89	10525.4
931.199	10439.53
931.508	10362.24
931.817	10411.28
932.125	10390.26
932.434	10285.63
932.743	10290.38
933.051	10154.56
933.36	10123.6
933.669	10058.52
933.977	10065.98
934.286	10069.14
934.594	10030.95
934.902	9910.73
935.21	9924.51
935.519	9827.11
935.827	9853.1
936.135	9751.86
936.443	9695.59
936.751	9651.3
937.059	9728.81
937.367	9602.26
937.674	9540.34
937.982	9581.92
938.29	9476.16
938.597	9517.97
938.905	9367.24
939.213	9360.69
939.52	9288.82
939.827	9316.39
940.135	9244.53
940.442	9199.56
940.749	9113.23
941.056	9184.87
941.363	9047.7
941.67	9053.8
941.977	9014.71
942.284	8968.15
942.591	8953.47
942.898	8877.76
943.205	8810.42
943.511	8784.88
943.818	8776.07
944.125	8722.06
944.431	8634.38
944.738	8633.7
945.044	8601.61
945.35	8563.87
945.657	8532.91
945.963	8509.64
946.269	8415.4
946.575	8380.82
946.881	8378.34
947.187	8315.74
947.493	8305.35
947.799	8313.26
948.105	8257.66
948.41	8154.39
948.716	8203.65
949.022	8152.36
949.327	8101.28
949.633	7969.31
949.938	8070.55
950.244	7976.09
950.549	7854.96
950.854	7879.14
951.16	7847.73
951.465	7877.56
951.77	7766.15
952.075	7766.83
952.38	7746.94
952.685	7722.31
952.99	7645.02
953.294	7616.55
953.599	7510.79
953.904	7521.64
954.209	7525.48
954.513	7497.46
954.818	7428.99
955.122	7418.36
955.426	7411.81
955.731	7346.05
956.035	7337.69
956.339	7231.93
956.643	7229.44
956.948	7190.12
957.252	7142.67
957.556	7163.23
957.86	7123.23
958.163	7162.55
958.467	7099.28
958.771	7078.49
959.075	6976.79
959.378	7002.56
959.682	6963.91
959.985	6877.14
960.289	6857.93
960.592	6812.28
960.896	6842.79
961.199	6804.37
961.502	6771.15
961.805	6719.63
962.108	6639.85
962.411	6673.3
962.714	6613.19
963.017	6619.29
963.32	6616.58
963.623	6544.94
963.926	6502.46
964.228	6540.87
964.531	6486.86
964.833	6450.25
965.136	6370.48
965.438	6369.35
965.741	6328.22
966.043	6282.57
966.345	6240.77
966.648	6265.63
966.95	6230.6
967.252	6255.68
967.554	6133.88
967.856	6161.67
968.158	6076.93
968.46	6088.91
968.761	6051.17
969.063	6056.82
969.365	5988.12
969.666	6001.68
969.968	5948.35
970.269	5883.49
970.571	5919.87
970.872	5881.46
971.174	5829.48
971.475	5846.65
971.776	5789.93
972.077	5761.91
972.378	5748.8
972.679	5703.83
972.98	5676.26
973.281	5671.74
973.582	5645.76
973.883	5615.47
974.183	5593.55
974.484	5551.52
974.785	5526.21
975.085	5519.88
975.386	5499.09
975.686	5464.29
975.986	5461.81
976.287	5384.75
976.587	5374.12
976.887	5367.12
977.187	5327.57
977.487	5356.05
977.787	5222.94
978.087	5224.07
978.387	5233.34
978.687	5191.76
978.987	5197.63
979.286	5142.94
979.586	5153.79
979.885	5097.3
980.185	5089.16
980.484	5035.83
980.784	4996.73
981.083	5006
981.382	5008.71
981.682	4959.22
981.981	4963.29
982.28	4920.8
982.579	4888.94
982.878	4891.43
983.177	4888.49
983.475	4855.95
983.774	4845.1
984.073	4762.16
984.372	4735.04
984.67	4736.85
984.969	4725.78
985.267	4740.92
985.566	4710.41
985.864	4663.18
986.162	4688.04
986.461	4603.97
986.759	4588.16
987.057	4557.42
987.355	4544.99
987.653	4521.72
987.951	4450.31
988.249	4446.24
988.547	4472.68
988.844	4443.75
989.142	4420.7
989.44	4369.4
989.737	4347.03
990.035	4366.69
990.332	4356.07
990.63	4300.48
990.927	4324.43
991.224	4285.11
991.521	4277.43
991.819	4207.6
992.116	4206.47
992.413	4235.85
992.71	4195.85
993.006	4194.27
993.303	4145.23
993.6	4098.68
993.897	4089.86
994.193	4079.69
994.49	4023.65
994.787	3976.42
995.083	4009.41
995.379	4000.38
995.676	3975.06
995.972	3936.2
996.268	3933.71
996.565	3914.95
996.861	3874.28
997.157	3809.42
997.453	3803.77
997.749	3823.88
998.044	3771.45
998.34	3783.43
998.636	3759.25
998.932	3781.4
999.227	3681.06
999.523	3687.84
999.818	3694.39
1000.114	3668.86
1000.409	3598.35
1000.704	3578.47
1001	3601.06
1001.295	3615.98
1001.59	3569.65
1001.885	3557.45
1002.18	3514.74
1002.475	3504.34
1002.77	3498.24
1003.065	3450.11
1003.359	3459.6
1003.654	3458.24
1003.949	3390
1004.243	3350.45
1004.538	3361.52
1004.832	3340.73
1005.127	3331.69
1005.421	3291.02
1005.715	3256.44
1006.009	3278.36
1006.304	3223.9
1006.598	3219.6
1006.892	3183.45
1007.186	3152.49
1007.48	3137.8
1007.773	3137.8
1008.067	3111.81
1008.361	3119.95
1008.655	3065.03
1008.948	3082.43
1009.242	3071.36
1009.535	3007.18
1009.829	3015.77
1010.122	2983
1010.415	2981.42
1010.708	2955.88
1011.001	2933.96
1011.295	2902.32
1011.588	2880.4
1011.881	2877.01
1012.173	2884.47
1012.466	2859.39
1012.759	2877.69
1013.052	2783.23
1013.344	2804.7
1013.637	2794.31
1013.93	2698.49
1014.222	2727.41
1014.514	2682.22
1014.807	2720.41
1015.099	2690.35
1015.391	2631.15
1015.683	2634.54
1015.976	2660.98
1016.268	2607.87
1016.56	2614.65
1016.851	2546.18
1017.143	2540.07
1017.435	2514.76
1017.727	2573.29
1018.018	2498.72
1018.31	2482.45
1018.602	2479.06
1018.893	2487.65
1019.185	2437.93
1019.476	2418.72
1019.767	2431.38
1020.058	2377.37
1020.35	2369.68
1020.641	2315.22
1020.932	2356.35
1021.223	2311.83
1021.514	2306.18
1021.804	2301.66
1022.095	2288.1
1022.386	2287.2
1022.677	2242.23
1022.967	2241.55
1023.258	2217.6
1023.548	2202.23
1023.839	2192.74
1024.129	2198.61
1024.419	2173.98
1024.709	2149.12
1025	2108.9
1025.29	2087.66
1025.58	2069.13
1025.87	2071.84
1026.16	2058.28
1026.449	2070.26
1026.739	2041.56
1027.029	2036.81
1027.319	2027.55
1027.608	1994.33
1027.898	1950.94
1028.187	1982.12
1028.477	1918.62
1028.766	1944.61
1029.055	1926.31
1029.344	1915.68
1029.634	1867.32
1029.923	1898.28
1030.212	1846.99
1030.501	1844.27
1030.79	1843.14
1031.078	1823.71
1031.367	1813.31
1031.656	1799.98
1031.945	1799.08
1032.233	1784.16
1032.522	1755.69
1032.81	1761.34
1033.099	1729.47
1033.387	1704.39
1033.675	1734.67
1033.963	1684.96
1034.251	1703.71
1034.54	1688.57
1034.828	1654.22
1035.116	1621.91
1035.403	1623.04
1035.691	1597.27
1035.979	1625.97
1036.267	1587.11
1036.554	1606.99
1036.842	1565.41
1037.129	1529.71
1037.417	1525.41
1037.704	1555.69
1037.992	1498.75
1038.279	1514.56
1038.566	1502.81
1038.853	1502.81
1039.14	1502.81
