Data from 15-5210_FLMS001491_010.txt Node
Date: Thu Apr 19 16:48:35 BST 2018
User: hsy
Spectrometer: FLMS00149
Trigger mode: 0
Integration Time (sec): 1.000000E-2
Scans to average: 10
Electric dark correction enabled: true
Nonlinearity correction enabled: false
Boxcar width: 0
XAxis mode: Wavelengths
Number of Pixels in Spectrum: 2048
>>>>>Begin Spectral Data<<<<<
341.393	-28.36
341.776	-28.36
342.16	-28.36
342.543	-59.09
342.927	-78.53
343.31	-78.75
343.693	-69.04
344.077	-67
344.46	-37.4
344.843	-64.07
345.226	-38.08
345.61	-22.71
345.993	-28.36
346.376	-6.44
346.759	17.29
347.142	20
347.525	35.82
347.908	56.61
348.291	68.36
348.674	89.83
349.057	123.95
349.44	120.11
349.823	158.07
350.206	184.51
350.588	218.41
350.971	255.02
351.354	235.81
351.737	258.86
352.119	292.08
352.502	286.89
352.884	309.03
353.267	317.84
353.65	325.98
354.032	352.42
354.414	361.69
354.797	347.22
355.179	339.77
355.562	366.66
355.944	354.23
356.326	368.92
356.709	362.59
357.091	363.72
357.473	377.05
357.855	382.25
358.238	394.23
358.62	378.86
359.002	365.08
359.384	378.18
359.766	381.35
360.148	365.98
360.53	358.52
360.912	377.05
361.294	393.77
361.676	358.52
362.057	373.21
362.439	366.66
362.821	362.14
363.203	357.62
363.584	362.59
363.966	365.3
364.348	386.32
364.729	350.16
365.111	359.88
365.493	376.6
365.874	354
366.256	370.95
366.637	347.9
367.019	346.32
367.4	345.41
367.781	361.46
368.163	350.61
368.544	372.08
368.925	362.82
369.306	376.83
369.688	361.46
370.069	360.78
370.45	365.98
370.831	354.45
371.212	350.84
371.593	365.53
371.974	369.37
372.355	379.76
372.736	359.65
373.117	370.95
373.498	370.27
373.879	339.77
374.26	354.23
374.641	344.28
375.021	369.59
375.402	371.18
375.783	381.8
376.163	387
376.544	386.77
376.925	379.31
377.305	392.87
377.686	396.49
378.066	410.72
378.447	419.31
378.827	380.22
379.208	422.02
379.588	395.58
379.968	385.64
380.349	403.27
380.729	404.62
381.109	417.73
381.489	392.65
381.87	403.72
382.25	417.28
382.63	413.66
383.01	412.98
383.39	422.25
383.77	445.98
384.15	424.51
384.53	408.46
384.91	434.68
385.29	436.94
385.67	438.97
386.049	443.72
386.429	450.95
386.809	437.84
387.189	468.35
387.568	450.27
387.948	450.95
388.328	453.43
388.707	473.55
389.087	476.48
389.466	465.64
389.846	465.86
390.225	495.02
390.605	476.48
390.984	475.81
391.363	475.35
391.743	489.59
392.122	499.76
392.501	503.83
392.881	533.66
393.26	516.26
393.639	504.28
394.018	513.77
394.397	527.1
394.776	542.02
395.155	521.46
395.534	521.46
395.913	519.65
396.292	549.25
396.671	564.62
397.05	542.7
397.429	577.95
397.808	551.96
398.186	588.12
398.565	573.21
398.944	575.01
399.323	565.97
399.701	567.1
400.08	561.91
400.458	565.07
400.837	576.82
401.215	591.06
401.594	618.63
401.972	603.49
402.351	622.47
402.729	617.5
403.107	610.04
403.486	630.15
403.864	626.31
404.242	665.18
404.62	667.89
404.999	655.69
405.377	686.2
405.755	666.99
406.133	655.01
406.511	687.33
406.889	712.18
407.267	721.9
407.645	706.99
408.023	761.9
408.401	736.82
408.779	757.61
409.156	758.29
409.534	781.34
409.912	781.34
410.29	814.1
410.667	793.09
411.045	813.42
411.422	831.5
411.8	846.19
412.178	865.4
412.555	866.53
412.933	873.99
413.31	899.98
413.687	925.06
414.065	946.53
414.442	958.05
414.819	938.62
415.197	923.03
415.574	966.42
415.951	992.4
416.328	979.97
416.705	998.05
417.082	1009.35
417.46	1029.24
417.837	1022.23
418.214	1046.64
418.591	1045.74
418.967	1091.61
419.344	1062.23
419.721	1098.16
420.098	1091.38
420.475	1096.13
420.852	1117.6
421.228	1109.91
421.605	1156.01
421.982	1151.04
422.358	1179.52
422.735	1187.2
423.111	1178.84
423.488	1213.19
423.864	1231.04
424.241	1229.01
424.617	1251.15
424.994	1254.77
425.37	1264.94
425.746	1287.76
426.123	1306.07
426.499	1309.23
426.875	1322.79
427.251	1340.87
427.627	1372.05
428.003	1386.74
428.379	1398.72
428.756	1406.63
429.132	1446.85
429.507	1481.66
429.883	1492.28
430.259	1501.09
430.635	1515.55
431.011	1511.49
431.387	1529.79
431.763	1543.35
432.138	1582.44
432.514	1612.27
432.89	1614.53
433.265	1697.47
433.641	1686.62
434.016	1711.25
434.392	1744.93
434.767	1749.67
435.143	1770.69
435.518	1813.4
435.894	1847.75
436.269	1852.49
436.644	1856.34
437.02	1880.97
437.395	1888.42
437.77	1941.08
438.145	1955.09
438.52	1983.34
438.895	2000.96
439.271	2009.33
439.646	2033.73
440.021	2079.38
440.395	2092.71
440.77	2048.65
441.145	2076.67
441.52	2173.39
441.895	2162.54
442.27	2126.16
442.645	2108.53
443.019	2194.18
443.394	2194.63
443.769	2203.67
444.143	2216.55
444.518	2232.37
444.892	2226.5
445.267	2284.12
445.641	2275.08
446.016	2301.75
446.39	2291.13
446.764	2311.01
447.139	2339.71
447.513	2350.79
447.887	2371.8
448.262	2351.92
448.636	2386.72
449.01	2437.11
449.384	2429.88
449.758	2414.29
450.132	2489.09
450.506	2503.32
450.88	2567.96
451.254	2514.4
451.628	2553.49
452.002	2620.84
452.376	2644.79
452.75	2643.43
453.123	2675.52
453.497	2677.78
453.871	2724.79
454.244	2826.93
454.618	2822.86
454.992	2885.23
455.365	2896.76
455.739	2945.57
456.112	2953.48
456.486	2981.28
456.859	3026.25
457.232	3105.34
457.606	3110.77
457.979	3170.65
458.352	3202.29
458.725	3216.07
459.099	3275.96
459.472	3297.2
459.845	3367.71
460.218	3402.51
460.591	3476.86
460.964	3486.57
461.337	3535.84
461.71	3601.83
462.083	3589.17
462.456	3624.88
462.829	3651.99
463.201	3722.05
463.574	3736.29
463.947	3819
464.32	3875.72
464.692	3895.6
465.065	3910.74
465.438	3978.31
465.81	4025.54
466.183	4013.79
466.555	4144.41
466.928	4138.76
467.3	4160.46
467.672	4216.5
468.045	4302.6
468.417	4336.27
468.789	4388.02
469.161	4405.87
469.534	4489.49
469.906	4528.13
470.278	4616.94
470.65	4622.82
471.022	4773.32
471.394	4808.12
471.766	4882.02
472.138	4910.94
472.51	5026.42
472.882	5083.14
473.253	5104.61
473.625	5176.47
473.997	5292.4
474.369	5317.04
474.74	5352.06
475.112	5532.85
475.484	5636.35
475.855	5633.64
476.227	5681.09
476.598	5866.63
476.97	5959.96
477.341	6040.86
477.713	6115.66
478.084	6140.06
478.455	6378.25
478.827	6408.98
479.198	6545.7
479.569	6607.4
479.94	6807.39
480.311	6881.97
480.682	6992.92
481.053	7149.3
481.424	7301.84
481.795	7393.36
482.166	7451.22
482.537	7616.18
482.908	7768.27
483.279	7857.53
483.65	8032.67
484.021	8158.99
484.391	8305.43
484.762	8405.09
485.133	8532.77
485.503	8650.73
485.874	8830.16
486.244	8923.49
486.615	9099.31
486.985	9236.48
487.356	9416.59
487.726	9422.69
488.097	9741.1
488.467	9832.17
488.837	10059.51
489.207	10109.45
489.578	10301.31
489.948	10506.05
490.318	10643
490.688	10756.21
491.058	10895.42
491.428	11118.92
491.798	11181.51
492.168	11457.21
492.538	11541.5
492.908	11720.03
493.278	11886.81
493.648	11981.72
494.017	12189.85
494.387	12266.23
494.757	12358.43
495.126	12606.34
495.496	12658.76
495.866	12892.2
496.235	13027.34
496.605	13165.19
496.974	13266.2
497.344	13415.35
497.713	13612.41
498.082	13667.1
498.452	13852.63
498.821	14058.27
499.19	14033.42
499.559	14313.41
499.928	14415.55
500.298	14440.41
500.667	14593.18
501.036	14668.88
501.405	14846.05
501.774	14890.57
502.143	15108.19
502.512	15213.05
502.88	15364
503.249	15441.74
503.618	15630.21
503.987	15576.2
504.356	15804.22
504.724	15942.07
505.093	15938.45
505.462	16143.64
505.83	16221.83
506.199	16307.03
506.567	16642.61
506.936	16697.3
507.304	16905.21
507.672	16910.18
508.041	17055.26
508.409	17249.15
508.777	17232.2
509.145	17481.91
509.514	17539.31
509.882	17604.17
510.25	17732.08
510.618	17832.41
510.986	18040.54
511.354	18115.79
511.722	18211.61
512.09	18409.35
512.458	18424.04
512.826	18556.01
513.193	18555.33
513.561	18771.6
513.929	18893.63
514.297	18963.46
514.664	19143.56
515.032	19176.56
515.4	19381.52
515.767	19491.58
516.135	19602.76
516.502	19497
516.869	19818.57
517.237	19877.56
517.604	19900.61
517.972	20110.32
518.339	20176.08
518.706	20279.58
519.073	20345.57
519.44	20528.39
519.808	20732.22
520.175	20645.45
520.542	20990.3
520.909	20988.04
521.276	21015.61
521.643	21390.74
522.009	21537.17
522.376	21594.12
522.743	21687.68
523.11	21778.98
523.477	22024.84
523.843	22150.94
524.21	22443.82
524.577	22588.67
524.943	22693.53
525.31	22621.44
525.676	22956.35
526.043	22991.37
526.409	23198.37
526.776	23367.86
527.142	23448.31
527.508	23670.68
527.874	23759.26
528.241	23902.54
528.607	23932.59
528.973	24227.72
529.339	24119.25
529.705	24351.56
530.071	24560.37
530.437	24709.97
530.803	24705.45
531.169	24912.45
531.535	24897.99
531.901	24934.15
532.267	25173.69
532.632	25243.07
532.998	25308.15
533.364	25422.27
533.73	25497.52
534.095	25720.11
534.461	25665.65
534.826	25785.88
535.192	25711.98
535.557	25900
535.923	25852.09
536.288	25970.96
536.653	26119.43
537.019	25935.93
537.384	25964.85
537.749	26141.8
538.114	26148.13
538.479	26271.51
538.845	26079.88
539.21	26199.2
539.575	26304.51
539.94	26315.81
540.305	26387.67
540.67	26150.16
541.034	26383.37
541.399	26426.54
541.764	26356.03
542.129	26453.88
542.494	26465.18
542.858	26506.08
543.223	26384.5
543.587	26579.08
543.952	26499.98
544.316	26513.77
544.681	26507.66
545.045	26604.39
545.41	26658.62
545.774	26541.56
546.138	26446.65
546.503	26557.38
546.867	26591.5
547.231	26694.1
547.595	26653.42
547.959	26721.67
548.324	26627.21
548.688	26620.2
549.052	26760.31
549.416	26666.98
549.779	26556.48
550.143	26527.78
550.507	26775.23
550.871	26843.25
551.235	26749.47
551.599	26881.67
551.962	26876.92
552.326	26889.35
552.689	26874.43
553.053	26811.16
553.417	26944.26
553.78	27093.19
554.143	27048.89
554.507	27004.6
554.87	26994.88
555.234	27060.42
555.597	26921.21
555.96	27023.58
556.323	27051.15
556.686	27047.31
557.05	27069.46
557.413	27093.64
557.776	27144.26
558.139	27281.88
558.502	27189.23
558.865	27084.37
559.228	27351.94
559.59	27271.03
559.953	27294.99
560.316	27549.45
560.679	27541.54
561.041	27630.35
561.404	27701.31
561.767	27868.76
562.129	27728.65
562.492	27946.27
562.854	27833.73
563.217	27822.88
563.579	27912.83
563.941	28021.75
564.304	28080.5
564.666	28318.46
565.028	28125.25
565.39	28275.08
565.753	28433.04
566.115	28356.88
566.477	28443.43
566.839	28615.18
567.201	28747.38
567.563	28521.85
567.925	28851.78
568.287	28804.78
568.648	28870.54
569.01	29042.97
569.372	29251.77
569.734	29198.89
570.095	29326.57
570.457	29558.66
570.819	29480.69
571.18	29509.62
571.542	29713.68
571.903	29663.51
572.265	29848.82
572.626	29911.42
572.987	29877.75
573.349	30127.46
573.71	30184.86
574.071	30310.95
574.432	30404.51
574.794	30533.55
575.155	30462.59
575.516	30615.13
575.877	30602.47
576.238	30746.88
576.599	30783.26
576.96	30832.75
577.32	31003.14
577.681	30984.38
578.042	31197.26
578.403	31239.52
578.763	31162.01
579.124	31200.65
579.485	31339.4
579.845	31509.12
580.206	31396.12
580.566	31571.49
580.927	31632.73
581.287	31748.2
581.648	31641.77
582.008	31792.5
582.368	31833.4
582.728	31993.62
583.089	31982.77
583.449	31912.04
583.809	32003.57
584.169	32096.9
584.529	32097.8
584.889	32270.22
585.249	32231.58
585.609	32119.04
585.969	32406.27
586.329	32330.11
586.688	32473.84
587.048	32497.56
587.408	32637.45
587.768	32534.85
588.127	32587.5
588.487	32618.69
588.846	32825.69
589.206	32581.86
589.565	32613.27
589.925	32864.11
590.284	32931.9
590.643	32828.85
591.003	32930.32
591.362	33122.86
591.721	33169.86
592.08	33129.41
592.44	33225
592.799	33347.03
593.158	33315.85
593.517	33285.57
593.876	33426.58
594.235	33304.1
594.593	33317.2
594.952	33567.14
595.311	33527.82
595.67	33577.08
596.029	33846
596.387	33880.58
596.746	33923.97
597.104	33639.23
597.463	33776.85
597.822	33883.52
598.18	33885.55
598.538	33991.99
598.897	34158.08
599.255	34058.65
599.613	34507.91
599.972	34122.83
600.33	34301.13
600.688	34228.82
601.046	34500.22
601.404	34618.41
601.762	34395.59
602.12	34534.35
602.478	34758.52
602.836	34689.82
603.194	34480.56
603.552	34740.44
603.91	34578.64
604.268	34871.74
604.625	34752.42
604.983	34888.01
605.341	34863.15
605.698	34996.93
606.056	35153.54
606.413	34994.45
606.771	35214.33
607.128	35237.6
607.485	35209.36
607.843	35203.71
608.2	35396.92
608.557	35579.97
608.914	35395.34
609.272	35589.69
609.629	35889.79
609.986	35838.04
610.343	35817.02
610.7	36121.2
611.057	36011.82
611.414	35971.6
611.771	36060.18
612.127	36173.4
612.484	36214.53
612.841	36351.47
613.198	36264.92
613.554	36375.2
613.911	36544.46
614.267	36618.59
614.624	36444.8
614.98	36659.04
615.337	36875.3
615.693	36819.26
616.05	36956.66
616.406	37033.26
616.762	36988.52
617.118	36939.93
617.475	36934.96
617.831	37183.54
618.187	36986.71
618.543	37200.49
618.899	37319.58
619.255	37309.41
619.611	37124.56
619.967	37441.61
620.323	37567.71
620.678	37372.46
621.034	37442.07
621.39	37454.72
621.746	37480.26
622.101	37884.99
622.457	37570.2
622.812	37769.29
623.168	37828.27
623.523	37665.34
623.879	37815.84
624.234	37733.13
624.589	37940.13
624.945	37983.75
625.3	38006.12
625.655	38001.15
626.01	37766.13
626.365	37897.2
626.72	37894.71
627.075	37757.76
627.43	37910.53
627.785	37967.48
628.14	37885.9
628.495	37967.7
628.85	37849.97
629.205	37760.93
629.559	37848.38
629.914	37816.52
630.269	37839.34
630.623	37613.81
630.978	37575.85
631.332	37817.65
631.687	37890.19
632.041	37692.46
632.396	37726.58
632.75	37664.43
633.104	37680.93
633.459	37469.41
633.813	37555.06
634.167	37487.04
634.521	37514.83
634.875	37523.42
635.229	37450.65
635.583	37222.64
635.937	37335.85
636.291	37264.44
636.645	37153.94
636.999	37082.75
637.352	37259.25
637.706	37065.81
638.06	37200.72
638.413	37118.69
638.767	36930.44
639.121	37104.67
639.474	36873.04
639.828	36880.05
640.181	36809.31
640.534	36944.9
640.888	36747.85
641.241	36586.27
641.594	36733.61
641.947	36798.69
642.301	36685.02
642.654	36738.13
643.007	36612.26
643.36	36652.48
643.713	36601.18
644.066	36711.46
644.419	36539.72
644.771	36151.48
645.124	35879.17
645.477	35777.25
645.83	35659.29
646.182	35709.91
646.535	35499.07
646.888	35653.19
647.24	35646.86
647.593	35904.48
647.945	35666.75
648.298	35524.15
648.65	35407.32
649.002	35350.82
649.355	35293.87
649.707	35201.22
650.059	35255.46
650.411	35721.66
650.763	35909.9
651.115	36433.51
651.467	36218.82
651.819	36322.1
652.171	36190.57
652.523	36228.31
652.875	36241.65
653.227	36043.91
653.578	36428.99
653.93	36274.64
654.282	36233.06
654.633	36246.62
654.985	36148.54
655.337	36343.11
655.688	36247.3
656.039	36407.07
656.391	36004.14
656.742	36273.96
657.094	36216.34
657.445	36342.66
657.796	36378.82
658.147	36422.43
658.498	36397.8
658.849	36520.96
659.2	36457.46
659.551	36218.37
659.902	36608.64
660.253	36340.85
660.604	36519.38
660.955	36480.28
661.306	36460.17
661.656	36402.32
662.007	36535.42
662.358	36529.1
662.708	36607.51
663.059	36629.43
663.409	36426.5
663.76	36638.7
664.11	36675.76
664.461	36821.29
664.811	36798.69
665.161	36772.03
665.511	36717.34
665.862	36682.54
666.212	36654.97
666.562	36910.1
666.912	36812.93
667.262	36662.2
667.612	36642.77
667.962	36792.37
668.312	36775.64
668.662	37051.79
669.011	36894.96
669.361	36631.92
669.711	36861.06
670.06	36675.08
670.41	36649.09
670.76	36641.41
671.109	36901.74
671.459	36772.48
671.808	36727.06
672.157	36839.14
672.507	36550.56
672.856	36639.6
673.205	36718.24
673.554	36755.76
673.904	36412.26
674.253	36886.6
674.602	36500.17
674.951	36088.2
675.3	35906.74
675.649	36569.32
675.998	36449.32
676.346	36527.06
676.695	36493.62
677.044	36256.79
677.393	36303.34
677.741	36450.45
678.09	36334.98
678.438	36235.09
678.787	36371.81
679.135	36294.75
679.484	36087.98
679.832	36307.63
680.181	36050.24
680.529	35943.8
680.877	35936.57
681.225	35948.55
681.573	36102.67
681.922	35930.69
682.27	35724.15
682.618	35845.95
682.966	35627.65
683.314	35607.31
683.661	35633.07
684.009	35496.35
684.357	35363.02
684.705	35297.72
685.053	35310.82
685.4	35162.8
685.748	35010.72
686.095	35048.23
686.443	34887.78
686.79	34794.68
687.138	34761.91
687.485	34778.41
687.832	34682.14
688.18	34645.08
688.527	34510.39
688.874	34358.98
689.221	34376.84
689.568	34085.54
689.915	33997.19
690.262	34093.68
690.609	33977.3
690.956	33782.05
691.303	33827.02
691.65	33602.62
691.997	33589.51
692.344	33317.66
692.69	33292.12
693.037	33235.4
693.383	32900.49
693.73	33000.83
694.077	32785.01
694.423	32715.18
694.769	32646.71
695.116	32543.89
695.462	32280.39
695.808	32246.72
696.155	32253.28
696.501	31901.65
696.847	31861.2
697.193	31709.11
697.539	31600.41
697.885	31449.91
698.231	31268.22
698.577	31312.74
698.923	31227.31
699.269	30984.61
699.614	30702.58
699.96	30669.14
700.306	30766.76
700.651	30541.46
700.997	30393.44
701.342	30275.7
701.688	30210.17
702.033	29995.26
702.379	30073.67
702.724	29940.79
703.069	29797.3
703.415	29560.01
703.76	29458.77
704.105	29499
704.45	29406.35
704.795	29200.7
705.14	29003.42
705.485	28912.8
705.83	28749.87
706.175	28940.14
706.52	28855.63
706.865	28644.11
707.209	28575.18
707.554	28518.69
707.899	28398.01
708.243	28276.66
708.588	28100.17
708.932	28047.06
709.277	28068.53
709.621	28010.68
709.966	27905.37
710.31	27814.52
710.654	27595.77
710.998	27721.19
711.342	27684.13
711.687	27512.61
712.031	27466.51
712.375	27186.29
712.719	27303.12
713.063	27217.02
713.407	27313.97
713.75	27166.4
714.094	27243.92
714.438	27089.12
714.782	27081.21
715.125	26954.21
715.469	26999.4
715.812	26878.28
716.156	26777.71
716.499	26826.75
716.843	26840.76
717.186	26684.16
717.53	26803.7
717.873	26818.39
718.216	26745.62
718.559	26698.39
718.902	26454.33
719.246	26560.77
719.589	26490.04
719.932	26420.44
720.275	26460.21
720.617	26522.81
720.96	26585.4
721.303	26497.27
721.646	26457.95
721.989	26331.4
722.331	26526.65
722.674	26370.49
723.016	26343.15
723.359	26335.69
723.701	26427.21
724.044	26331.17
724.386	26145.41
724.729	26390.83
725.071	26393.54
725.413	26342.7
725.755	26445.52
726.097	26217.73
726.439	26308.35
726.782	26215.47
727.124	26445.97
727.465	26364.17
727.807	26293.88
728.149	26415.92
728.491	26417.05
728.833	26389.48
729.175	26425.86
729.516	26354.67
729.858	26448.68
730.199	26483.71
730.541	26507.89
730.882	26391.51
731.224	26479.19
731.565	26512.64
731.906	26536.36
732.248	26535.69
732.589	26511.51
732.93	26598.06
733.271	26634.44
733.612	26630.37
733.953	26780.43
734.294	26684.16
734.635	26612.75
734.976	26905.85
735.317	26843.02
735.658	26908.11
735.999	26851.84
736.339	26899.07
736.68	27031.27
737.021	26928.22
737.361	26916.02
737.702	27175.44
738.042	27085.5
738.383	27211.83
738.723	27359.85
739.063	27318.94
739.404	27496.57
739.744	27461.09
740.084	27417.92
740.424	27736.56
740.764	27530.91
741.104	27834.41
741.444	27765.48
741.784	27857.01
742.124	27930.68
742.464	28057.45
742.804	28182.65
743.143	28202.54
743.483	28350.33
743.823	28442.3
744.162	28536.54
744.502	28713.03
744.841	28786.02
745.181	28980.14
745.52	29024.89
745.86	29148.5
746.199	29277.54
746.538	29362.28
746.877	29632.33
747.216	29724.53
747.556	29865.09
747.895	29935.15
748.234	30143.28
748.573	30239.54
748.911	30385.75
749.25	30590.27
749.589	30538.97
749.928	30967.43
750.267	31099.63
750.605	31275.45
750.944	31404.48
751.283	31443.58
751.621	31806.28
751.96	31767.64
752.298	32131.02
752.636	32320.39
752.975	32320.62
753.313	32369.43
753.651	32781.62
753.989	32802.64
754.327	32994.73
754.666	33073.14
755.004	33346.35
755.342	33726.23
755.679	33849.84
756.017	33818.66
756.355	34141.59
756.693	34200.34
757.031	34550.39
757.368	34437.17
757.706	34761.68
758.044	34798.97
758.381	35010.72
758.719	35176.59
759.056	35392.85
759.394	35417.71
759.731	35451.84
760.068	35621.1
760.405	35861.99
760.743	35743.58
761.08	36047.3
761.417	36185.6
761.754	36219.95
762.091	36215.66
762.428	36261.31
762.765	36495.65
763.102	36671.92
763.438	36761.63
763.775	36625.14
764.112	36763.21
764.449	37012.47
764.785	37046.82
765.122	36877.79
765.458	36964.11
765.795	37136.31
766.131	37203.65
766.467	37178.8
766.804	37204.78
767.14	37173.37
767.476	37124.56
767.812	37156.2
768.148	37337.66
768.485	37274.61
768.821	37301.73
769.157	37239.81
769.492	37168.18
769.828	37186.71
770.164	37064
770.5	37108.52
770.836	37157.1
771.171	37137.44
771.507	37004.79
771.842	36813.61
772.178	37067.61
772.513	36886.15
772.849	36795.08
773.184	36940.16
773.519	36781.97
773.855	36627.85
774.19	36679.6
774.525	36596.21
774.86	36465.59
775.195	36480.28
775.53	36265.6
775.865	36213.4
776.2	36136.56
776.535	35929.34
776.87	35937.93
777.205	35742.22
777.539	35729.34
777.874	35878.49
778.209	35521.21
778.543	35648.67
778.878	35365.74
779.212	35529.57
779.547	35181.33
779.881	35312.86
780.215	35054.11
780.55	35130.49
780.884	34804.4
781.218	34809.59
781.552	34912.42
781.886	34597.62
782.22	34586.32
782.554	34434.91
782.888	34161.25
783.222	34132.1
783.556	34014.36
783.889	34013.23
784.223	33721.94
784.557	33746.34
784.89	33834.93
785.224	33608.95
785.557	33448.73
785.891	33401.49
786.224	33456.63
786.558	33233.82
786.891	33107.04
787.224	32931.68
787.557	32829.08
787.891	32804
788.224	32595.41
788.557	32641.06
788.89	32660.72
789.223	32594.74
789.556	32370.34
789.888	32242.2
790.221	32229.1
790.554	31997.92
790.887	31985.49
791.219	31891.03
791.552	31773.51
791.884	31606.06
792.217	31644.7
792.549	31492.17
792.882	31289.01
793.214	31325.39
793.546	31349.35
793.879	31096.02
794.211	30931.05
794.543	31208.56
794.875	30843.82
795.207	30815.8
795.539	30682.24
795.871	30820.09
796.203	30610.83
796.535	30352.54
796.867	30425.53
797.198	30128.59
797.53	30267.79
797.862	30011.98
798.193	30162.03
798.525	29770.63
798.856	30035.26
799.188	29512.78
799.519	29589.84
799.85	29529.96
800.182	29477.08
800.513	29629.84
800.844	29092.23
801.175	29395.05
801.506	29260.13
801.837	29215.84
802.168	29116.18
802.499	29254.03
802.83	28908.05
803.161	28827.6
803.491	28885
803.822	28816.76
804.153	28656.08
804.483	28415.64
804.814	28292.93
805.145	28411.12
805.475	28319.37
805.805	28244.34
806.136	28288.41
806.466	28154.17
806.796	28073.5
807.126	27857.91
807.457	27893.62
807.787	27911.02
808.117	27737.46
808.447	27620.4
808.777	27738.59
809.107	27452.27
809.436	27456.57
809.766	27447.75
810.096	27508.99
810.426	27330.24
810.755	27275.55
811.085	27165.05
811.414	27261.54
811.744	27033.75
812.073	27050.25
812.403	26959.86
812.732	26827.43
813.061	26972.29
813.39	26712.86
813.719	26794.66
814.049	26823.36
814.378	26686.64
814.707	26482.81
815.036	26518.51
815.365	26388.35
815.693	26194.9
816.022	26238.29
816.351	26168.92
816.68	26096.83
817.008	26159.2
817.337	25944.52
817.665	25943.16
817.994	25947.45
818.322	25947.45
818.651	25842.15
818.979	25756.72
819.307	25795.59
819.636	25738.87
819.964	25591.08
820.292	25770.96
820.62	25764.18
820.948	25644.41
821.276	25821.58
821.604	25682.15
821.932	25837.63
822.259	25682.38
822.587	25824.97
822.915	25634.69
823.243	25612.55
823.57	25473.57
823.898	25732.77
824.225	25746.33
824.553	25588.37
824.88	25739.1
825.207	25804.41
825.535	25491.19
825.862	25696.39
826.189	25690.74
826.516	25826.78
826.843	25821.13
827.17	25767.8
827.497	25777.74
827.824	25802.37
828.151	25820.45
828.478	25685.77
828.805	25836.95
829.131	25725.31
829.458	25773.9
829.785	25539.78
830.111	25671.3
830.438	25845.54
830.764	25737.52
831.09	25798.3
831.417	25538.42
831.743	25845.31
832.069	25664.52
832.395	25613.22
832.722	25654.13
833.048	25608.71
833.374	25771.86
833.7	25661.59
834.026	25585.43
834.351	25564.86
834.677	25624.07
835.003	25700.91
835.329	25575.71
835.654	25508.82
835.98	25333.01
836.306	25645.31
836.631	25470.18
836.956	25630.4
837.282	25596.95
837.607	25480.8
837.932	25356.96
838.258	25391.99
838.583	25323.97
838.908	25386.79
839.233	25374.36
839.558	25251.2
839.883	25284.42
840.208	25071.77
840.533	25260.01
840.858	25113.8
841.182	25119.23
841.507	25140.24
841.832	24896.63
842.156	24921.27
842.481	24959
842.805	24854.15
843.13	24756.07
843.454	24684.66
843.778	24647.83
844.103	24667.04
844.427	24553.59
844.751	24506.36
845.075	24545
845.399	24379.36
845.723	24291
846.047	24364.67
846.371	24184.34
846.695	24005.36
847.019	23970.78
847.343	23867.28
847.666	23816.21
847.99	23744.8
848.313	23663.67
848.637	23660.06
848.96	23578.48
849.284	23504.13
849.607	23274.53
849.931	23191.37
850.254	23132.84
850.577	22926.97
850.9	22804.71
851.223	22742.11
851.546	22734.88
851.869	22630.93
852.192	22784.6
852.515	22527.66
852.838	22458.51
853.161	22374.21
853.483	22181.9
853.806	22167.21
854.129	22220.32
854.451	22071.17
854.774	21968.57
855.096	21824.62
855.419	21844.74
855.741	21787.79
856.063	21709.37
856.385	21674.12
856.708	21543.05
857.03	21503.5
857.352	21454.69
857.674	21421.02
857.996	21308.71
858.318	21212.44
858.64	21219.89
858.961	20986.91
859.283	21130.4
859.605	20974.7
859.926	21060.12
860.248	20941.03
860.57	20691.55
860.891	20733.81
861.212	20571.1
861.534	20639.57
861.855	20537.2
862.176	20667.82
862.498	20630.08
862.819	20614.26
863.14	20464.66
863.461	20492
863.782	20410.2
864.103	20364.1
864.424	20267.83
864.745	20359.35
865.065	20265.34
865.386	20113.03
865.707	20198.9
866.027	20100.38
866.348	20019.7
866.668	20053.15
866.989	20008.63
867.309	19827.39
867.63	19905.8
867.95	19962.07
868.27	19804.11
868.59	19818.8
868.91	19809.76
869.23	19798.46
869.55	19677.34
869.87	19757.56
870.19	19671.23
870.51	19618.81
870.83	19725.92
871.15	19449.77
871.469	19478.47
871.789	19620.61
872.109	19451.58
872.428	19461.97
872.748	19459.04
873.067	19408.87
873.386	19377.91
873.706	19343.11
874.025	19264.24
874.344	19242.32
874.663	19225.37
874.982	19146.28
875.301	19194.41
875.62	19051.14
875.939	19089.33
876.258	19118.03
876.577	18896.79
876.896	18945.38
877.214	18974.3
877.533	19002.78
877.852	18982.21
878.17	18827.19
878.489	18954.87
878.807	18865.61
879.125	18798.26
879.444	18764.59
879.762	18763.24
880.08	18838.71
880.398	18618.83
880.716	18634.43
881.034	18664.93
881.352	18576.8
881.67	18506.52
881.988	18546.52
882.306	18345.85
882.624	18426.52
882.941	18312.4
883.259	18270.82
883.577	18260.2
883.894	18207.32
884.212	18175.91
884.529	18183.82
884.846	18125.51
885.164	17966.42
885.481	18047.55
885.798	18045.29
886.115	17885.29
886.432	18016.36
886.75	17866.08
887.067	17895.46
887.383	17770.72
887.7	17778.63
888.017	17647.33
888.334	17716.26
888.651	17551.29
888.967	17614.57
889.284	17525.53
889.6	17404.4
889.917	17379.54
890.233	17370.5
890.55	17396.72
890.866	17220.68
891.182	17141.81
891.498	17277.85
891.815	17125.09
892.131	17057.52
892.447	16981.14
892.763	16944.07
893.079	16896.17
893.395	16865.21
893.71	16792.67
894.026	16805.77
894.342	16790.41
894.657	16621.37
894.973	16596.29
895.289	16578.89
895.604	16521.26
895.92	16471.77
896.235	16376.18
896.55	16323.3
896.865	16232.45
897.181	16207.14
897.496	16194.49
897.811	16153.59
898.126	16058.45
898.441	15998.34
898.756	15966.47
899.071	15776.2
899.386	15881.5
899.7	15705.69
900.015	15675.18
900.33	15664.56
900.644	15607.84
900.959	15592.92
901.273	15496.88
901.588	15441.06
901.902	15442.19
902.216	15299.15
902.531	15258.24
902.845	15233.38
903.159	15068.42
903.473	15074.97
903.787	14999.72
904.101	14972.83
904.415	15006.72
904.729	14907.97
905.042	14783.91
905.356	14810.12
905.67	14719.73
905.984	14768.76
906.297	14691.03
906.611	14513.63
906.924	14560.86
907.237	14499.62
907.551	14422.11
907.864	14349.11
908.177	14307.08
908.491	14266.4
908.804	14229.57
909.117	14120.65
909.43	13962.46
909.743	13962.23
910.056	13999.07
910.368	13940.31
910.681	13821.67
910.994	13787.55
911.307	13745.74
911.619	13621.9
911.932	13709.13
912.244	13570.38
912.557	13540.77
912.869	13502.36
913.181	13400.21
913.494	13417.61
913.806	13227.79
914.118	13196.83
914.43	13179.65
914.742	13065.76
915.054	13046.1
915.366	13012.88
915.678	12931.52
915.99	12893.56
916.302	12788.25
916.613	12763.39
916.925	12732.43
917.236	12614.92
917.548	12641.14
917.859	12621.7
918.171	12607.47
918.482	12411.99
918.794	12503.51
919.105	12360.01
919.416	12357.08
919.727	12279.34
920.038	12283.86
920.349	12158.21
920.66	12099
920.971	12059
921.282	12029.85
921.593	11934.49
921.903	11824.21
922.214	11885.45
922.525	11764.78
922.835	11736.98
923.146	11704.21
923.456	11567.27
923.767	11516.87
924.077	11628.06
924.387	11526.82
924.697	11397.33
925.008	11411.56
925.318	11359.81
925.628	11334.73
925.938	11278.69
926.248	11126.83
926.558	11112.14
926.867	11125.02
927.177	11093.61
927.487	11066.04
927.796	10999.82
928.106	10981.97
928.416	10898.81
928.725	10894.97
929.034	10763.45
929.344	10777.91
929.653	10750.56
929.962	10675.54
930.271	10602.32
930.581	10600.06
930.89	10465.6
931.199	10481.42
931.508	10437.13
931.817	10441.42
932.125	10407.75
932.434	10266.28
932.743	10298.6
933.051	10232.39
933.36	10153.29
933.669	10128.66
933.977	10131.6
934.286	10060.87
934.594	10039.62
934.902	9979.06
935.21	9873.75
935.519	9844.83
935.827	9823.81
936.135	9762.79
936.443	9690.48
936.751	9679.18
937.059	9618.62
937.367	9537.04
937.674	9550.82
937.982	9487.1
938.29	9436.48
938.597	9490.71
938.905	9352.64
939.213	9377.04
939.52	9303.82
939.827	9350.38
940.135	9216.14
940.442	9222.47
940.749	9122.58
941.056	9172.08
941.363	9057.95
941.67	9025.19
941.977	8962.59
942.284	8960.33
942.591	8891.4
942.898	8927.56
943.205	8832.2
943.511	8769.15
943.818	8815.7
944.125	8714.69
944.431	8705.87
944.738	8624.97
945.044	8621.13
945.35	8540.45
945.657	8515.82
945.963	8513.11
946.269	8459.33
946.575	8406.22
946.881	8363.73
947.187	8344.75
947.493	8272.44
947.799	8320.57
948.105	8215.04
948.41	8193.57
948.716	8256.39
949.022	8157.64
949.327	8137.75
949.633	7970.75
949.938	8076.06
950.244	8023.18
950.549	7920.13
950.854	7927.14
951.16	7872
951.465	7768.5
951.77	7817.31
952.075	7818.66
952.38	7706.8
952.685	7723.3
952.99	7671.1
953.294	7660.25
953.599	7564.43
953.904	7508.39
954.209	7510.42
954.513	7523.31
954.818	7454.38
955.122	7422.52
955.426	7391.11
955.731	7332.35
956.035	7300.03
956.339	7278.11
956.643	7269.75
956.948	7224.1
957.252	7114.05
957.556	7198.34
957.86	7131.45
958.163	7082.64
958.467	7081.51
958.771	7067.05
959.075	7019.36
959.378	6955.41
959.682	6943.89
959.985	6882.64
960.289	6847.16
960.592	6830.67
960.896	6845.36
961.199	6787.73
961.502	6780.73
961.805	6734.17
962.108	6658.69
962.411	6685.59
962.714	6586.15
963.017	6629.09
963.32	6569.21
963.623	6550
963.926	6521.07
964.228	6456.44
964.531	6492.15
964.833	6422.32
965.136	6330.57
965.438	6309.33
965.741	6326.73
966.043	6325.82
966.345	6236.11
966.648	6257.8
966.95	6304.35
967.252	6139.84
967.554	6163.79
967.856	6180.52
968.158	6093.29
968.46	6127.41
968.761	6046.28
969.063	5997.92
969.365	5992.95
969.666	6033.17
969.968	5905.27
970.269	5944.82
970.571	5902.33
970.872	5874.99
971.174	5890.13
971.475	5833.86
971.776	5783.24
972.077	5755.67
972.378	5777.81
972.679	5707.76
972.98	5717.02
973.281	5671.15
973.582	5641.32
973.883	5609.91
974.183	5540.76
974.484	5565.16
974.785	5522.68
975.085	5502.57
975.386	5488.78
975.686	5464.38
975.986	5427.09
976.287	5392.06
976.587	5361.33
976.887	5341.67
977.187	5315
977.487	5311.61
977.787	5266.87
978.087	5296.92
978.387	5243.36
978.687	5233.65
978.987	5167.89
979.286	5151.62
979.586	5133.76
979.885	5125.4
980.185	5080.21
980.484	5045.4
980.784	5024.39
981.083	5021.22
981.382	4983.03
981.682	4977.38
981.981	4952.75
982.28	4940.1
982.579	4871.85
982.878	4903.94
983.177	4831.17
983.475	4856.03
983.774	4802.02
984.073	4798.63
984.372	4785.3
984.67	4746.2
984.969	4794.56
985.267	4701.23
985.566	4705.3
985.864	4602.48
986.162	4609.26
986.461	4592.08
986.759	4596.6
987.057	4536.26
987.355	4500.56
987.653	4568.35
987.951	4456.49
988.249	4495.81
988.547	4448.58
988.844	4392.77
989.142	4446.78
989.44	4386.89
989.737	4330.39
990.035	4353.44
990.332	4340.11
990.63	4289.27
990.927	4311.19
991.224	4238.42
991.521	4216.5
991.819	4246.78
992.116	4223.5
992.413	4152.32
992.71	4153.45
993.006	4167.91
993.303	4159.1
993.6	4096.05
993.897	4111.87
994.193	4077.52
994.49	4063.06
994.787	4024.19
995.083	4015.83
995.379	4025.32
995.676	4002.95
995.972	4008.82
996.268	3928.6
996.565	3913
996.861	3873.23
997.157	3862.16
997.453	3840.24
997.749	3803.4
998.044	3785.78
998.34	3788.26
998.636	3747.36
998.932	3721.6
999.227	3706
999.523	3694.48
999.818	3661.03
1000.114	3638.89
1000.409	3647.02
1000.704	3576.74
1001	3568.38
1001.295	3560.25
1001.59	3555.05
1001.885	3557.31
1002.18	3515.05
1002.475	3498.1
1002.77	3461.26
1003.065	3511.43
1003.359	3446.8
1003.654	3420.14
1003.949	3377.2
1004.243	3387.37
1004.538	3346.47
1004.832	3333.81
1005.127	3341.49
1005.421	3297.2
1005.715	3279.57
1006.009	3276.86
1006.304	3247.49
1006.598	3194.83
1006.892	3188.28
1007.186	3189.41
1007.48	3175.62
1007.773	3122.29
1008.067	3105.57
1008.361	3109.86
1008.655	3112.35
1008.948	3050.43
1009.242	3063.76
1009.535	3034.16
1009.829	3055.63
1010.122	3007.49
1010.415	2995.74
1010.708	2962.07
1011.001	2941.05
1011.295	2926.14
1011.588	2896.08
1011.881	2874.61
1012.173	2846.59
1012.466	2840.72
1012.759	2839.81
1013.052	2822.41
1013.344	2827.16
1013.637	2779.93
1013.93	2761.85
1014.222	2732.7
1014.514	2745.13
1014.807	2701.74
1015.099	2714.62
1015.391	2700.61
1015.683	2629.65
1015.976	2640.04
1016.268	2623.09
1016.56	2611.34
1016.851	2593.04
1017.143	2560.05
1017.435	2544.23
1017.727	2499.93
1018.018	2530.22
1018.31	2512.59
1018.602	2474.62
1018.893	2452.25
1019.185	2443.89
1019.476	2395.76
1019.767	2412.25
1020.058	2369.99
1020.35	2334.51
1020.641	2353.5
1020.932	2341.29
1021.223	2307.85
1021.514	2321.86
1021.804	2299.49
1022.095	2258.81
1022.386	2290.67
1022.677	2224.01
1022.967	2205.03
1023.258	2224.69
1023.548	2167.97
1023.839	2170.68
1024.129	2127.51
1024.419	2143.79
1024.709	2149.21
1025	2114.41
1025.29	2113.28
1025.58	2090
1025.87	2068.99
1026.16	2060.4
1026.449	2036.44
1026.739	2005.71
1027.029	2027.63
1027.319	1986.28
1027.608	1986.95
1027.898	1952.6
1028.187	1965.49
1028.477	1978.14
1028.766	1930.01
1029.055	1915.09
1029.344	1902.89
1029.634	1900.18
1029.923	1861.76
1030.212	1884.36
1030.501	1873.06
1030.79	1836.67
1031.078	1815.88
1031.367	1790.8
1031.656	1793.74
1031.945	1792.61
1032.233	1798.71
1032.522	1758.71
1032.81	1736.79
1033.099	1730.24
1033.387	1710.58
1033.675	1709.9
1033.963	1717.36
1034.251	1673.29
1034.54	1651.14
1034.828	1630.13
1035.116	1645.27
1035.403	1617.92
1035.691	1653.18
1035.979	1618.15
1036.267	1607.75
1036.554	1578.38
1036.842	1550.81
1037.129	1554.65
1037.417	1531.15
1037.704	1546.74
1037.992	1503.8
1038.279	1521.65
1038.566	1514.88
1038.853	1514.88
1039.14	1514.88
