Data from 15-5210_FLMS001491_002.txt Node
Date: Thu Apr 19 16:48:15 BST 2018
User: hsy
Spectrometer: FLMS00149
Trigger mode: 0
Integration Time (sec): 1.000000E-2
Scans to average: 10
Electric dark correction enabled: true
Nonlinearity correction enabled: false
Boxcar width: 0
XAxis mode: Wavelengths
Number of Pixels in Spectrum: 2048
>>>>>Begin Spectral Data<<<<<
341.393	-6.23
341.776	-6.23
342.16	-6.23
342.543	-60.24
342.927	-92.1
343.31	-75.61
343.693	-71.09
344.077	-56.17
344.46	-56.62
344.843	-59.56
345.226	-25.89
345.61	-41.48
345.993	-15.49
346.376	6.43
346.759	18.18
347.142	28.8
347.525	41.91
347.908	54.11
348.291	59.31
348.674	85.97
349.057	107.21
349.44	133.43
349.823	143.82
350.206	186.76
350.588	223.37
350.971	254.1
351.354	257.27
351.737	259.3
352.119	303.59
352.502	286.65
352.884	304.5
353.267	335.46
353.65	330.71
354.032	329.13
354.414	360.77
354.797	355.8
355.179	364.16
355.562	368.68
355.944	366.64
356.326	363.48
356.709	356.7
357.091	376.59
357.473	389.24
357.855	380.43
358.238	389.47
358.62	388.11
359.002	391.73
359.384	362.8
359.766	363.25
360.148	384.27
360.53	372.52
360.912	389.02
361.294	382.69
361.676	364.84
362.057	377.94
362.439	387.89
362.821	361.45
363.203	379.3
363.584	370.71
363.966	361.22
364.348	383.14
364.729	372.97
365.111	372.97
365.493	373.2
365.874	361.45
366.256	369.81
366.637	364.84
367.019	362.58
367.4	388.11
367.781	370.48
368.163	360.99
368.544	368
368.925	371.16
369.306	374.55
369.688	343.59
370.069	374.1
370.45	365.29
370.831	374.33
371.212	360.77
371.593	356.02
371.974	352.41
372.355	365.74
372.736	388.79
373.117	356.02
373.498	385.4
373.879	390.37
374.26	387.89
374.641	377.26
375.021	390.6
375.402	406.87
375.783	382.46
376.163	385.63
376.544	395.12
376.925	378.85
377.305	417.26
377.686	414.78
378.066	397.6
378.447	406.42
378.827	391.5
379.208	402.12
379.588	401.9
379.968	413.2
380.349	425.4
380.729	408.9
381.109	430.82
381.489	416.13
381.87	438.51
382.25	423.14
382.63	429.47
383.01	408.9
383.39	439.41
383.77	430.6
384.15	422.69
384.53	435.57
384.91	427.43
385.29	431.5
385.67	462.69
386.049	457.04
386.429	448
386.809	449.13
387.189	451.61
387.568	465.85
387.948	460.43
388.328	462.69
388.707	463.36
389.087	466.08
389.466	499.75
389.846	475.11
390.225	503.59
390.605	474.89
390.984	488.22
391.363	494.55
391.743	487.54
392.122	501.78
392.501	505.4
392.881	520.76
393.26	495.23
393.639	523.47
394.018	538.62
394.397	529.35
394.776	527.54
395.155	545.4
395.534	528.22
395.913	541.1
396.292	535.9
396.671	561.89
397.05	556.92
397.429	578.61
397.808	579.74
398.186	560.31
398.565	579.29
398.944	590.14
399.323	579.29
399.701	604.6
400.08	592.85
400.458	605.96
400.837	615
401.215	629.23
401.594	599.86
401.972	625.39
402.351	621.1
402.729	627.43
403.107	638.5
403.486	646.18
403.864	642.79
404.242	681.89
404.62	660.19
404.999	666.75
405.377	677.37
405.755	683.47
406.133	697.48
406.511	712.4
406.889	702.91
407.267	717.14
407.645	723.02
408.023	724.37
408.401	745.16
408.779	780.42
409.156	774.09
409.534	770.7
409.912	782
410.29	807.54
410.667	833.3
411.045	844.14
411.422	835.56
411.8	847.53
412.178	863.58
412.555	886.63
412.933	889.79
413.31	909.68
413.687	897.48
414.065	918.04
414.442	953.07
414.819	921.66
415.197	959.85
415.574	984.03
415.951	992.16
416.328	993.97
416.705	999.62
417.082	1000.52
417.46	1041.65
417.837	1050.92
418.214	1069.9
418.591	1049.34
418.967	1056.34
419.344	1084.82
419.721	1065.61
420.098	1083.91
420.475	1118.04
420.852	1104.48
421.228	1145.83
421.605	1155.55
421.982	1154.64
422.358	1153.97
422.735	1189.45
423.111	1189.67
423.488	1247.52
423.864	1218.15
424.241	1242.78
424.617	1241.2
424.994	1262.44
425.37	1268.77
425.746	1273.29
426.123	1321.65
426.499	1330.69
426.875	1337.24
427.251	1347.18
427.627	1388.31
428.003	1381.08
428.379	1415.43
428.756	1422.89
429.132	1440.29
429.507	1439.84
429.883	1462.89
430.259	1532.04
430.635	1523.9
431.011	1522.09
431.387	1585.59
431.763	1579.49
432.138	1603.22
432.514	1664.69
432.89	1629.66
433.265	1686.16
433.641	1727.06
434.016	1692.03
434.392	1726.83
434.767	1762.54
435.143	1749.21
435.518	1779.94
435.894	1820.16
436.269	1835.76
436.644	1866.04
437.02	1877.56
437.395	1919.82
437.77	1911.24
438.145	1956.21
438.52	1927.51
438.895	1995.75
439.271	1960.05
439.646	2068.29
440.021	2050.89
440.395	2036.66
440.77	2052.7
441.145	2071.23
441.52	2149.65
441.895	2129.53
442.27	2161.17
442.645	2135.41
443.019	2164.11
443.394	2190.78
443.769	2209.76
444.143	2181.74
444.518	2235.97
444.892	2254.05
445.267	2250.21
445.641	2296.76
446.016	2303.99
446.39	2321.17
446.764	2344.67
447.139	2322.98
447.513	2336.76
447.887	2352.58
448.262	2373.6
448.636	2431.67
449.01	2397.32
449.384	2426.48
449.758	2454.5
450.132	2466.7
450.506	2545.34
450.88	2559.58
451.254	2530.2
451.628	2574.95
452.002	2587.15
452.376	2632.12
452.75	2661.05
453.123	2657.43
453.497	2720.48
453.871	2713.7
454.244	2847.93
454.618	2824.21
454.992	2876.63
455.365	2896.97
455.739	2946.46
456.112	3006.12
456.486	3015.39
456.859	3018.55
457.232	3089.06
457.606	3108.94
457.979	3147.59
458.352	3233.01
458.725	3214.25
459.099	3303.51
459.472	3331.54
459.845	3361.82
460.218	3416.73
460.591	3438.65
460.964	3473
461.337	3518.65
461.71	3560.23
462.083	3642.49
462.456	3645.65
462.829	3653.34
463.201	3755.03
463.574	3745.09
463.947	3799.77
464.32	3850.39
464.692	3915.25
465.065	3923.16
465.438	3974.68
465.81	4038.64
466.183	4049.71
466.555	4128.8
466.928	4163.83
467.3	4183.27
467.672	4209.48
468.045	4295.13
468.417	4305.07
468.789	4379.87
469.161	4363.6
469.534	4496.25
469.906	4518.62
470.278	4603.14
470.65	4663.25
471.022	4707.09
471.394	4842.68
471.766	4866.19
472.138	4943.02
472.51	5029.35
472.882	5068.44
473.253	5145.5
473.625	5228.21
473.997	5303.69
474.369	5342.11
474.74	5418.94
475.112	5501.2
475.484	5550.69
475.855	5650.12
476.227	5775.77
476.598	5922.2
476.97	5954.52
477.341	6051.92
477.713	6119.03
478.084	6203.1
478.455	6327.39
478.827	6387.73
479.198	6642.41
479.569	6675.86
479.94	6802.41
480.311	6925.34
480.682	6986.81
481.053	7158.33
481.424	7349.28
481.795	7335.27
482.166	7560.58
482.537	7576.17
482.908	7790.85
483.279	7835.6
483.65	8055.48
484.021	8201.92
484.391	8300.9
484.762	8351.29
485.133	8511.97
485.503	8690.72
485.874	8801.22
486.244	8923.48
486.615	9175.9
486.985	9170.03
487.356	9461.77
487.726	9576.12
488.097	9720.52
488.467	9857.24
488.837	10086.39
489.207	10157.12
489.578	10342.65
489.948	10552.36
490.318	10736.31
490.688	10729.99
491.058	11012.92
491.428	11168.62
491.798	11279.8
492.168	11545.56
492.538	11612.9
492.908	11721.37
493.278	11966.56
493.648	12020.12
494.017	12254.24
494.387	12364.07
494.757	12517.28
495.126	12580.33
495.496	12735.36
495.866	12937.16
496.235	13092.41
496.605	13282.69
496.974	13304.38
497.344	13557.48
497.713	13593.19
498.082	13777.59
498.452	13909.79
498.821	14060.97
499.19	14099.84
499.559	14312.04
499.928	14411.02
500.298	14555.2
500.667	14635.87
501.036	14783.66
501.405	14924.45
501.774	14974.85
502.143	15129.42
502.512	15199.25
502.88	15414.16
503.249	15532.8
503.618	15563.08
503.987	15625.68
504.356	15814.15
504.724	15978.21
505.093	16043.07
505.462	16204.64
505.83	16280.12
506.199	16502.04
506.567	16663.16
506.936	16691.41
507.304	16760.56
507.672	17003.27
508.041	17111.06
508.409	17211.4
508.777	17356.93
509.145	17552.63
509.514	17521.22
509.882	17758.95
510.25	17725.96
510.618	17904.49
510.986	17932.51
511.354	18017.7
511.722	18284.14
512.09	18395.32
512.458	18363.46
512.826	18607.52
513.193	18601.64
513.561	18835.08
513.929	18928.64
514.297	19043.67
514.664	19168.86
515.032	19255.86
515.4	19450.21
515.767	19493.37
516.135	19608.62
516.502	19572.92
516.869	19810.65
517.237	19919.8
517.604	19877.09
517.972	20159.12
518.339	20314.59
518.706	20237.53
519.073	20287.7
519.44	20465.55
519.808	20650.18
520.175	20645.21
520.542	20991.86
520.909	21050.84
521.276	21148.47
521.643	21299.43
522.009	21392.98
522.376	21515.69
522.743	21665.52
523.11	21878.62
523.477	22036.58
523.843	22146.64
524.21	22397.7
524.577	22479.51
524.943	22660.97
525.31	22665.72
525.676	22917.69
526.043	22988.19
526.409	23025.03
526.776	23366.72
527.142	23317
527.508	23494.85
527.874	23713.6
528.241	23789.08
528.607	23892.8
528.973	24132.35
529.339	24049.18
529.705	24434.26
530.071	24441.26
530.437	24603.75
530.803	24696.17
531.169	24735.27
531.535	24830.18
531.901	24890.74
532.267	25035.37
532.632	25132.77
532.998	25151.3
533.364	25276.5
533.73	25349.94
534.095	25522.37
534.461	25396.27
534.826	25555.13
535.192	25644.17
535.557	25765.75
535.923	25719.2
536.288	25770.27
536.653	25838.52
537.019	25763.04
537.384	25888.23
537.749	25974.78
538.114	26038.28
538.479	25825.63
538.845	26043.71
539.21	26045.52
539.575	26086.42
539.94	26144.95
540.305	26130.26
540.67	26087.1
541.034	26233.99
541.399	26241.22
541.764	26189.24
542.129	26219.3
542.494	26283.48
542.858	26243.25
543.223	26254.78
543.587	26407.54
543.952	26328.67
544.316	26275.79
544.681	26334.1
545.045	26324.6
545.41	26348.11
545.774	26349.69
546.138	26296.58
546.503	26320.31
546.867	26372.29
547.231	26416.81
547.595	26480.53
547.959	26454.77
548.324	26497.48
548.688	26333.42
549.052	26378.39
549.416	26291.84
549.779	26400.99
550.143	26469.01
550.507	26501.55
550.871	26570.7
551.235	26398.95
551.599	26490.7
551.962	26507.2
552.326	26551.27
552.689	26604.15
553.053	26388.78
553.417	26527.08
553.78	26583.35
554.143	26625.61
554.507	26597.82
554.87	26563.69
555.234	26824.03
555.597	26509.23
555.96	26547.65
556.323	26707.19
556.686	26702.22
557.05	26752.16
557.413	26821.31
557.776	26767.76
558.139	26837.36
558.502	26884.14
558.865	26801.65
559.228	26913.97
559.59	26850.24
559.953	26939.5
560.316	27158.93
560.679	26976.79
561.041	27207.29
561.404	27165.03
561.767	27347.4
562.129	27160.29
562.492	27451.58
562.854	27245.03
563.217	27301.3
563.579	27355.99
563.941	27378.36
564.304	27569.09
564.666	27751.91
565.028	27673.95
565.39	27592.14
565.753	27830.55
566.115	27926.14
566.477	27979.7
566.839	28059.25
567.201	28376.75
567.563	28209.3
567.925	28272.12
568.287	28367.94
568.648	28444.77
569.01	28530.42
569.372	28627.14
569.734	28626.92
570.095	28770.64
570.457	28859.23
570.819	28843.63
571.18	28855.61
571.542	29003.63
571.903	29116.4
572.265	29118.88
572.626	29405.2
572.987	29259.67
573.349	29589.6
573.71	29435.94
574.071	29717.51
574.432	29866.88
574.794	29897.39
575.155	29973.32
575.516	29879.31
575.877	30027.11
576.238	29950.5
576.599	30201.11
576.96	30231.17
577.32	30364.05
577.681	30271.17
578.042	30558.39
578.403	30620.31
578.763	30497.38
579.124	30680.65
579.485	30883.35
579.845	30828.21
580.206	30764.49
580.566	30791.15
580.927	30960.41
581.287	31075.89
581.648	31006.52
582.008	31118.15
582.368	31140.52
582.728	31307.07
583.089	31274.53
583.449	31363.34
583.809	31346.85
584.169	31506.16
584.529	31390.69
584.889	31610.57
585.249	31517.69
585.609	31410.12
585.969	31792.48
586.329	31711.58
586.688	31869.09
587.048	31873.61
587.408	31805.59
587.768	31806.49
588.127	31785.93
588.487	32075.87
588.846	32209.42
589.206	31933.5
589.565	32038.58
589.925	32369.19
590.284	32295.52
590.643	32301.85
591.003	32274.73
591.362	32540.49
591.721	32480.83
592.08	32576.42
592.44	32584.1
592.799	32634.27
593.158	32680.37
593.517	32612.8
593.876	32700.26
594.235	32860.93
594.593	32729.63
594.952	32938.44
595.311	32973.47
595.67	33053.69
596.029	33269.96
596.387	33261.82
596.746	33339.79
597.104	33116.97
597.463	33127.82
597.822	33374.59
598.18	33312.44
598.538	33343.85
598.897	33594.02
599.255	33350.86
599.613	33722.38
599.972	33631.76
600.33	33632.21
600.688	33733.45
601.046	33796.95
601.404	33991.52
601.762	33889.6
602.12	34052.08
602.478	34067.9
602.836	34047.34
603.194	33916.27
603.552	34135.47
603.91	34024.06
604.268	34282.36
604.625	34112.87
604.983	34200.33
605.341	34267.22
605.698	34523.26
606.056	34684.38
606.413	34400.78
606.771	34636.02
607.128	34601.9
607.485	34519.87
607.843	34519.87
608.2	34824.04
608.557	34945.17
608.914	34950.59
609.272	35072.85
609.629	35082.11
609.986	35232.62
610.343	35179.96
610.7	35452.95
611.057	35313.07
611.414	35283.24
611.771	35650.69
612.127	35645.04
612.484	35620.63
612.841	35658.6
613.198	35576.56
613.554	35692.04
613.911	35993.05
614.267	35934.07
614.624	35887.06
614.98	36019.49
615.337	36199.83
615.693	36373.61
616.05	36337.67
616.406	36509.65
616.762	36225.81
617.118	36356.66
617.475	36291.8
617.831	36457.67
618.187	36524.56
618.543	36593.04
618.899	36862.63
619.255	36678
619.611	36682.07
619.967	36862.86
620.323	36963.19
620.678	36913.48
621.034	36776.08
621.39	36892.01
621.746	36922.29
622.101	37352.56
622.457	37054.94
622.812	37068.95
623.168	37256.29
623.523	37195.51
623.879	37277.99
624.234	37280.02
624.589	37263.53
624.945	37216.97
625.3	37292
625.655	37378.33
626.01	37379
626.365	37407.93
626.72	37314.15
627.075	37267.82
627.43	37310.53
627.785	37219.01
628.14	37332.68
628.495	37410.41
628.85	37435.27
629.205	37224.88
629.559	37402.51
629.914	37189.18
630.269	37356.86
630.623	36961.84
630.978	37041.16
631.332	37251.77
631.687	37181.49
632.041	37167.94
632.396	37042.74
632.75	37049.75
633.104	37150.31
633.459	36943.53
633.813	36960.48
634.167	36758
634.521	37005.45
634.875	36849.98
635.229	36804.1
635.583	36594.84
635.937	36674.84
636.291	36785.35
636.645	36604.33
636.999	36522.98
637.352	36727.72
637.706	36321.4
638.06	36454.51
638.413	36412.93
638.767	36325.92
639.121	36297
639.474	36328.86
639.828	36357.56
640.181	36217
640.534	36405.02
640.888	36170.67
641.241	35973.84
641.594	36104.01
641.947	36197.34
642.301	36093.39
642.654	36292.93
643.007	36165.25
643.36	36132.03
643.713	36092.71
644.066	36262.2
644.419	35934.75
644.771	35578.15
645.124	35472.16
645.477	35254.54
645.83	35192.85
646.182	35122.34
646.535	35185.39
646.888	35105.62
647.24	35048.89
647.593	35200.3
647.945	35185.39
648.298	35204.6
648.65	34901.78
649.002	34972.51
649.355	34897.03
649.707	34639.87
650.059	34733.65
650.411	35231.49
650.763	35547.86
651.115	35994.18
651.467	35675.32
651.819	35806.16
652.171	35655.21
652.523	35752.83
652.875	35771.59
653.227	35667.64
653.578	35967.97
653.93	35756.22
654.282	35714.64
654.633	35810
654.985	35689.1
655.337	35915.31
655.688	35768.2
656.039	35929.1
656.391	35661.99
656.742	35680.29
657.094	35821.98
657.445	35920.96
657.796	35882.09
658.147	35760.74
658.498	35877.35
658.849	35959.61
659.2	35860.17
659.551	35907.4
659.902	36201.41
660.253	35902.43
660.604	36214.74
660.955	36025.37
661.306	36131.35
661.656	36075.76
662.007	36195.53
662.358	36092.71
662.708	36181.29
663.059	36256.09
663.409	36039.38
663.76	36323.44
664.11	36193.05
664.461	36324.57
664.811	36431.46
665.161	36346.94
665.511	36292.93
665.862	36324.57
666.212	36386.49
666.562	36477.33
666.912	36351.46
667.262	36184.01
667.612	36274.63
667.962	36350.78
668.312	36337.9
668.662	36460.16
669.011	36240.95
669.361	36355.75
669.711	36409.54
670.06	36208.86
670.41	36243.21
670.76	36351.91
671.109	36359.14
671.459	36312.36
671.808	36363.44
672.157	36357.33
672.507	36249.32
672.856	36104.01
673.205	36103.78
673.554	36301.97
673.904	36057.91
674.253	36393.49
674.602	36099.49
674.951	35806.84
675.3	35467.19
675.649	36124.35
675.998	36144.23
676.346	36087.74
676.695	36257
677.044	35926.39
677.393	36084.8
677.741	36120.05
678.09	35970.9
678.438	35868.53
678.787	36021.3
679.135	35793.28
679.484	35598.71
679.832	35778.37
680.181	35519.62
680.529	35658.6
680.877	35543.8
681.225	35495.66
681.573	35769.78
681.922	35457.02
682.27	35339.96
682.618	35394.87
682.966	35330.24
683.314	35236.91
683.661	35155.78
684.009	34966.64
684.357	34931.61
684.705	34750.6
685.053	34933.42
685.4	34747.43
685.748	34540.21
686.095	34580.43
686.443	34356.26
686.79	34355.58
687.138	34395.35
687.485	34395.58
687.832	34080.56
688.18	34123.04
688.527	33981.8
688.874	33838.08
689.221	33845.76
689.568	33690.74
689.915	33675.15
690.262	33680.12
690.609	33485.77
690.956	33267.25
691.303	33309.28
691.65	32967.37
691.997	33006.24
692.344	32961.94
692.69	32670.43
693.037	32756.75
693.383	32389.3
693.73	32508.4
694.077	32285.8
694.423	32398.34
694.769	32045.36
695.116	32052.82
695.462	31909.77
695.808	31746.16
696.155	31712.26
696.501	31431.59
696.847	31578.48
697.193	31195.44
697.539	31105.27
697.885	30947.53
698.231	30832.28
698.577	30849.01
698.923	30628.9
699.269	30403.59
699.614	30364.95
699.96	30228
700.306	30201.11
700.651	30051.51
700.997	29860.78
701.342	29849.71
701.688	29672.76
702.033	29637.51
702.379	29534.69
702.724	29389.61
703.069	29339.21
703.415	29015.16
703.76	28954.82
704.105	28892.22
704.45	28791.43
704.795	28738.33
705.14	28542.85
705.485	28533.81
705.83	28370.43
706.175	28342.18
706.52	28361.61
706.865	28091.11
707.209	28051.56
707.554	27973.83
707.899	27964.79
708.243	27813.15
708.588	27664
708.932	27583.1
709.277	27601.41
709.621	27487.96
709.966	27352.37
710.31	27344.92
710.654	27160.74
710.998	27304.69
711.342	27192.38
711.687	27026.51
712.031	27059.95
712.375	26996.68
712.719	26885.95
713.063	26751.26
713.407	26933.4
713.75	26790.58
714.094	26733.63
714.438	26675.78
714.782	26686.63
715.125	26409.57
715.469	26680.98
715.812	26339.29
716.156	26483.92
716.499	26394.89
716.843	26470.36
717.186	26310.37
717.53	26487.54
717.873	26394.89
718.216	26361.21
718.559	26285.51
718.902	26041.9
719.246	26145.17
719.589	26090.71
719.932	25992.41
720.275	26169.58
720.617	26090.49
720.96	26015.91
721.303	26160.09
721.646	26107.21
721.989	25955.8
722.331	26077.38
722.674	26086.42
723.016	26181.11
723.359	26078.51
723.701	26010.71
724.044	25906.08
724.386	25963.94
724.729	25907.89
725.071	26108.56
725.413	25982.92
725.755	25969.13
726.097	25897.5
726.439	25876.25
726.782	25836.48
727.124	26005.97
727.465	26040.09
727.807	25987.89
728.149	25962.81
728.491	26029.47
728.833	26065.63
729.175	25964.84
729.516	26009.58
729.858	26053.43
730.199	26118.96
730.541	25989.02
730.882	26009.36
731.224	26189.69
731.565	26106.53
731.906	26197.83
732.248	26242.57
732.589	26119.86
732.93	26110.82
733.271	26183.82
733.612	26257.71
733.953	26396.92
734.294	26277.37
734.635	26290.26
734.976	26555.33
735.317	26372.96
735.658	26482.11
735.999	26502
736.339	26504.03
736.68	26711.71
737.021	26654.99
737.361	26651.83
737.702	26908.09
738.042	26740.64
738.383	26942.67
738.723	27100.86
739.063	26874.19
739.404	27153.51
739.744	27270.12
740.084	27151.02
740.424	27298.82
740.764	27326.16
741.104	27559.83
741.444	27464.91
741.784	27660.61
742.124	27691.35
742.464	27855.19
742.804	27891.79
743.143	27968.18
743.483	28177.66
743.823	28146.03
744.162	28207.49
744.502	28543.53
744.841	28434.38
745.181	28769.96
745.52	28714.82
745.86	28941.71
746.199	29031.65
746.538	29141.03
746.877	29353.45
747.216	29527.46
747.556	29574.46
747.895	29691.52
748.234	29852.65
748.573	29992.98
748.911	30164.73
749.25	30225.52
749.589	30415.8
749.928	30651.5
750.267	30846.29
750.605	31013.52
750.944	31227.3
751.283	31295.1
751.621	31615.09
751.96	31629.1
752.298	31757.23
752.636	32033.61
752.975	32252.13
753.313	32283.09
753.651	32662.97
753.989	32667.49
754.327	33046.24
754.666	32902.96
755.004	33204.42
755.342	33420.92
755.679	33663.85
756.017	33547.01
756.355	33971.86
756.693	34061.8
757.031	34390.61
757.368	34347.9
757.706	34608
758.044	34692.07
758.381	35003.25
758.719	34931.38
759.056	35322.33
759.394	35361.2
759.731	35332.96
760.068	35449.79
760.405	35912.37
760.743	35849.55
761.08	35953.05
761.417	36096.55
761.754	36061.52
762.091	36301.29
762.428	36351.91
762.765	36310.78
763.102	36583.09
763.438	36566.14
763.775	36643.43
764.112	36775.63
764.449	36806.81
764.785	36911.9
765.122	36747.61
765.458	36938.11
765.795	37028.05
766.131	37069.86
766.467	37033.25
766.804	37183.98
767.14	36917.09
767.476	37120.7
767.812	37075.73
768.148	37338.1
768.485	37207.26
768.821	37069.86
769.157	37106.69
769.492	37122.74
769.828	37061.95
770.164	37028.28
770.5	37013.36
770.836	37154.6
771.171	37080.03
771.507	37047.49
771.842	36830.77
772.178	36949.86
772.513	36944.44
772.849	36795.06
773.184	36840.49
773.519	36789.87
773.855	36667.61
774.19	36678.23
774.525	36644.79
774.86	36555.52
775.195	36516.2
775.53	36361.18
775.865	36358.46
776.2	36282.76
776.535	36050.9
776.87	36018.81
777.205	35948.98
777.539	35813.85
777.874	36087.51
778.209	35750.35
778.543	35603.68
778.878	35495.66
779.212	35482.56
779.547	35283.92
779.881	35252.73
780.215	35054.77
780.55	35272.17
780.884	35005.05
781.218	35019.07
781.552	35080.98
781.886	34744.27
782.22	34541.34
782.554	34528
782.888	34163.72
783.222	34242.59
783.556	34066.1
783.889	33977.51
784.223	33934.12
784.557	33808.48
784.89	33914.69
785.224	33704.75
785.557	33617.29
785.891	33535.26
786.224	33512.44
786.558	33380.92
786.891	33218.21
787.224	33130.53
787.557	33013.47
787.891	32949.97
788.224	32746.58
788.557	32926.01
788.89	32711.33
789.223	32735.74
789.556	32340.27
789.888	32415.97
790.221	32321.96
790.554	32093.04
790.887	32118.8
791.219	31927.17
791.552	31976.66
791.884	31784.35
792.217	31701.19
792.549	31597.46
792.882	31377.58
793.214	31322.67
793.546	31387.3
793.879	31081.54
794.211	30926.74
794.543	31112.73
794.875	31085.61
795.207	31035.22
795.539	30999.51
795.871	30952.96
796.203	30716.81
796.535	30520.65
796.867	30593.42
797.198	30378.06
797.53	30204.5
797.862	30127.89
798.193	30139.42
798.525	30037.28
798.856	30129.02
799.188	29671.41
799.519	29658.75
799.85	29615.82
800.182	29548.02
800.513	29752.99
800.844	29232.1
801.175	29534.01
801.506	29399.78
801.837	29356.16
802.168	29255.6
802.499	29219.44
802.83	29070.97
803.161	28860.81
803.491	29012.22
803.822	28946.68
804.153	28760.02
804.483	28530.42
804.814	28299.02
805.145	28529.74
805.475	28460.14
805.805	28424.44
806.136	28275.51
806.466	28259.69
806.796	28106.03
807.126	27933.83
807.457	27991.45
807.787	28038.68
808.117	27863.55
808.447	27804.34
808.777	27922.53
809.107	27610.22
809.436	27577
809.766	27484.35
810.096	27548.53
810.426	27496.33
810.755	27477.34
811.085	27361.41
811.414	27304.01
811.744	27279.16
812.073	27120.97
812.403	27091.36
812.732	26892.95
813.061	26962.1
813.39	26710.36
813.719	26719.85
814.049	26860.41
814.378	26842.56
814.707	26657.93
815.036	26716.01
815.365	26483.47
815.693	26384.26
816.022	26387.88
816.351	26306.75
816.68	26223.36
817.008	26305.4
817.337	26014.33
817.665	26054.56
817.994	26091.62
818.322	26230.6
818.651	26072.18
818.979	25859.31
819.307	25891.62
819.636	25880.1
819.964	25816.82
820.292	25845.75
820.62	25760.1
820.948	25795.35
821.276	25769.14
821.604	25868.8
821.932	25855.46
822.259	25779.31
822.587	25739.54
822.915	25714.68
823.243	25799.87
823.57	25604.62
823.898	25809.82
824.225	25665.86
824.553	25622.7
824.88	25772.98
825.207	25896.14
825.535	25779.31
825.862	25931.85
826.189	25799.42
826.516	25972.07
826.843	25932.75
827.17	25881.23
827.497	25914.9
827.824	25854.79
828.151	25944.28
828.478	25745.86
828.805	25960.55
829.131	25942.69
829.458	25887.33
829.785	25663.38
830.111	25797.84
830.438	25835.8
830.764	25900.43
831.09	25971.85
831.417	25767.1
831.743	25991.05
832.069	25843.49
832.395	25749.48
832.722	25806.88
833.048	25763.94
833.374	25864.5
833.7	25710.16
834.026	25738.86
834.351	25743.83
834.677	25715.13
835.003	25733.66
835.329	25728.69
835.654	25631.29
835.98	25486.21
836.306	25724.62
836.631	25588.35
836.956	25796.03
837.282	25678.97
837.607	25560.78
837.932	25541.12
838.258	25457.73
838.583	25546.32
838.908	25260.45
839.233	25526.89
839.558	25368.25
839.883	25321.92
840.208	25097.97
840.533	25054.36
840.858	25140.91
841.182	25286.67
841.507	25173.45
841.832	25039.21
842.156	25092.77
842.481	24994.7
842.805	24845.1
843.13	24822.5
843.454	24935.26
843.778	24816.85
844.103	24745.21
844.427	24572.79
844.751	24700.69
845.075	24625.67
845.399	24539.57
845.723	24458.44
846.047	24444.88
846.371	24325.56
846.695	24100.93
847.019	24126.24
847.343	23973.03
847.666	23881.96
847.99	23798.34
848.313	23625.69
848.637	23615.3
848.96	23694.17
849.284	23538.24
849.607	23283.1
849.931	23247.4
850.254	23185.25
850.577	23100.96
850.9	22953.17
851.223	23047.85
851.546	22791.14
851.869	22696.23
852.192	22862.32
852.515	22584.36
852.838	22464.37
853.161	22408.32
853.483	22314.54
853.806	22265.05
854.129	22260.53
854.451	22190.02
854.774	21989.13
855.096	21953.42
855.419	21853.99
855.741	21923.36
856.063	21671.39
856.385	21737.38
856.708	21676.14
857.03	21628.46
857.352	21561.34
857.674	21475.47
857.996	21341.23
858.318	21254.91
858.64	21247
858.961	21143.5
859.283	21068.02
859.605	21093.78
859.926	21101.69
860.248	20986.21
860.57	20861.25
860.891	20877.97
861.212	20773.11
861.534	20736.73
861.855	20601.14
862.176	20733.11
862.498	20616.96
862.819	20604.75
863.14	20541.71
863.461	20493.35
863.782	20562.5
864.103	20438.66
864.424	20352.56
864.745	20437.75
865.065	20339.9
865.386	20182.39
865.707	20169.51
866.027	20211.09
866.348	20235.5
866.668	20234.37
866.989	20106.24
867.309	19943.3
867.63	19897.88
867.95	20003.41
868.27	19871.21
868.59	19924.09
868.91	19774.95
869.23	19905.11
869.55	19759.81
869.87	19755.29
870.19	19702.18
870.51	19667.38
870.83	19720.71
871.15	19553.71
871.469	19561.17
871.789	19633.25
872.109	19561.62
872.428	19407.05
872.748	19530.43
873.067	19487.72
873.386	19415.18
873.706	19421.51
874.025	19335.86
874.344	19314.39
874.663	19352.36
874.982	19303.55
875.301	19211.8
875.62	19132.48
875.939	19130.9
876.258	19176.77
876.577	19025.59
876.896	18941.97
877.214	18967.96
877.533	18996.66
877.852	19037.79
878.17	18931.58
878.489	19034.85
878.807	18901.75
879.125	19014.29
879.444	18872.6
879.762	18732.71
880.08	18885.03
880.398	18702.66
880.716	18674.64
881.034	18636.22
881.352	18657.01
881.67	18596.9
881.988	18591.25
882.306	18436.9
882.624	18509.89
882.941	18491.59
883.259	18379.73
883.577	18338.15
883.894	18393.97
884.212	18330.24
884.529	18292.27
884.846	18125.5
885.164	18100.41
885.481	18080.53
885.798	18163.46
886.115	17910.36
886.432	17965.95
886.75	17905.39
887.067	17990.81
887.383	17923.02
887.7	17873.98
888.017	17706.3
888.334	17677.15
888.651	17688
888.967	17648.9
889.284	17702.91
889.6	17536.81
889.917	17451.39
890.233	17471.73
890.55	17400.09
890.866	17384.73
891.182	17317.61
891.498	17171.17
891.815	17177.73
892.131	17082.14
892.447	17149.03
892.763	17099.54
893.079	17023.83
893.395	16959.2
893.71	16905.19
894.026	16855.02
894.342	16821.13
894.657	16672.2
894.973	16702.94
895.289	16608.25
895.604	16595.37
895.92	16533.22
896.235	16526.9
896.55	16382.94
896.865	16317.18
897.181	16330.06
897.496	16319.67
897.811	16190.86
898.126	16114.7
898.441	16115.83
898.756	16103.86
899.071	15905.9
899.386	15961.04
899.7	15826.35
900.015	15758.55
900.33	15524.44
900.644	15598.56
900.959	15594.27
901.273	15580.71
901.588	15461.39
901.902	15433.37
902.216	15448.51
902.531	15366.25
902.845	15253.03
903.159	15163.32
903.473	15172.81
903.787	15072.92
904.101	15103.88
904.415	15082.41
904.729	14881.97
905.042	14900.95
905.356	14830.22
905.67	14832.7
905.984	14803.55
906.297	14759.94
906.611	14648.08
906.924	14642.65
907.237	14552.71
907.551	14536.44
907.864	14388.87
908.177	14396.1
908.491	14228.43
908.804	14216.45
909.117	14199.5
909.43	14037.24
909.743	14046.06
910.056	14041.54
910.368	13965.16
910.681	13821.66
910.994	13907.98
911.307	13786.63
911.619	13611.49
911.932	13683.13
912.244	13549.35
912.557	13524.49
912.869	13419.41
913.181	13425.73
913.494	13392.74
913.806	13261.9
914.118	13296.02
914.43	13190.03
914.742	13169.02
915.054	13116.14
915.366	13021.23
915.678	13040.66
915.99	12890.83
916.302	12814
916.613	12846.54
916.925	12769.93
917.236	12802.93
917.548	12675.47
917.859	12631.18
918.171	12631.86
918.482	12506.21
918.794	12492.88
919.105	12401.35
919.416	12365.42
919.727	12348.25
920.038	12272.32
920.349	12188.7
920.66	12114.13
920.971	12075.94
921.282	12155.71
921.593	11988.94
921.903	11929.95
922.214	11874.59
922.525	11845.89
922.835	11854.25
923.146	11704.2
923.456	11654.93
923.767	11608.83
924.077	11529.74
924.387	11528.84
924.697	11515.5
925.008	11452
925.318	11420.36
925.628	11407.03
925.938	11335.17
926.248	11180.37
926.558	11107.83
926.867	11158.68
927.177	11031.9
927.487	11018.34
927.796	10963.43
928.106	10974.95
928.416	10941.96
928.725	10897.21
929.034	10873.26
929.344	10817.89
929.653	10741.06
929.962	10624.68
930.271	10592.36
930.581	10602.53
930.89	10518.01
931.199	10458.81
931.508	10478.02
931.817	10430.33
932.125	10430.79
932.434	10335.87
932.743	10247.06
933.051	10222.43
933.36	10224.69
933.669	10132.71
933.977	10123.22
934.286	10092.26
934.594	10024.02
934.902	9976.11
935.21	9890.69
935.519	9899.05
935.827	9853.17
936.135	9763.01
936.443	9806.85
936.751	9710.35
937.059	9676.91
937.367	9614.31
937.674	9635.33
937.982	9631.94
938.29	9540.64
938.597	9543.12
938.905	9359.63
939.213	9362.11
939.52	9354.88
939.827	9346.52
940.135	9263.36
940.442	9259.74
940.749	9250.93
941.056	9170.71
941.363	9149.24
941.67	9025.85
941.977	9010.26
942.284	8919.19
942.591	8968.22
942.898	8923.71
943.205	8910.83
943.511	8808.68
943.818	8876.25
944.125	8697.5
944.431	8688.91
944.738	8654.33
945.044	8575.92
945.35	8550.16
945.657	8543.6
945.963	8543.38
946.269	8459.99
946.575	8416.83
946.881	8370.95
947.187	8444.17
947.493	8275.14
947.799	8292.08
948.105	8227.23
948.41	8161.01
948.716	8255.93
949.022	8112.65
949.327	8134.57
949.633	8051.41
949.938	8036.95
950.244	8042.6
950.549	7991.08
950.854	7979.78
951.16	7838.31
951.465	7776.84
951.77	7816.16
952.075	7822.04
952.38	7803.06
952.685	7755.6
952.99	7664.53
953.294	7638.32
953.599	7666.79
953.904	7527.81
954.209	7471.09
954.513	7537.53
954.818	7476.29
955.122	7470.18
955.426	7434.25
955.731	7379.34
956.035	7306.57
956.339	7330.08
956.643	7283.52
956.948	7188.61
957.252	7214.37
957.556	7198.1
957.86	7161.27
958.163	7154.94
958.467	7101.16
958.771	7093.47
959.075	7029.29
959.378	6914.04
959.682	6990.65
959.985	6910.2
960.289	6862.74
960.592	6856.87
960.896	6847.15
961.199	6815.51
961.502	6814.61
961.805	6791.11
962.108	6694.16
962.411	6705.46
962.714	6690.32
963.017	6614.61
963.32	6650.55
963.623	6591.79
963.926	6582.75
964.228	6508.63
964.531	6463.66
964.833	6504.33
965.136	6441.06
965.438	6360.38
965.741	6348.63
966.043	6313.38
966.345	6291.46
966.648	6325.36
966.95	6204.23
967.252	6251.01
967.554	6183.89
967.856	6165.81
968.158	6111.12
968.46	6100.5
968.761	6106.15
969.063	6068.64
969.365	6019.6
969.666	5951.35
969.968	5977.34
970.269	5885.82
970.571	5896.89
970.872	5857.8
971.174	5883.33
971.475	5881.53
971.776	5879.72
972.077	5800.17
972.378	5812.38
972.679	5712.49
972.98	5731.47
973.281	5658.71
973.582	5654.64
973.883	5638.37
974.183	5592.04
974.484	5601.08
974.785	5547.07
975.085	5550.69
975.386	5487.64
975.686	5502.55
975.986	5479.05
976.287	5440.41
976.587	5397.25
976.887	5347.53
977.187	5395.21
977.487	5331.48
977.787	5311.15
978.087	5267.08
978.387	5294.87
978.687	5239.96
978.987	5184.82
979.286	5190.7
979.586	5174.88
979.885	5110.25
980.185	5106.18
980.484	5050.59
980.784	5082.45
981.083	4986.63
981.382	5021.21
981.682	5018.72
981.981	5016.69
982.28	4910.25
982.579	4895.34
982.878	4910.25
983.177	4825.06
983.475	4882.46
983.774	4823.7
984.073	4787.32
984.372	4759.3
984.67	4761.56
984.969	4734.66
985.267	4751.16
985.566	4712.97
985.864	4675.68
986.162	4661.45
986.461	4613.08
986.759	4590.03
987.057	4562.92
987.355	4528.79
987.653	4529.7
987.951	4522.24
988.249	4527.66
988.547	4513.43
988.844	4467.78
989.142	4476.14
989.44	4437.5
989.737	4402.24
990.035	4341.68
990.332	4381.45
990.63	4342.13
990.927	4353.88
991.224	4289.7
991.521	4297.84
991.819	4269.59
992.116	4277.05
992.413	4227.33
992.71	4205.19
993.006	4165.19
993.303	4145.53
993.6	4114.11
993.897	4096.26
994.193	4067.34
994.49	4075.25
994.787	4038.86
995.083	4052.2
995.379	4016.26
995.676	3966.77
995.972	3946.44
996.268	3955.93
996.565	3905.08
996.861	3871.41
997.157	3865.53
997.453	3841.13
997.749	3818.98
998.044	3823.05
998.34	3754.12
998.636	3773.33
998.932	3760.68
999.227	3729.72
999.523	3727.46
999.818	3643.62
1000.114	3658.76
1000.409	3639.33
1000.704	3608.82
1001	3591.19
1001.295	3561.81
1001.59	3580.57
1001.885	3525.88
1002.18	3499.67
1002.475	3485.43
1002.77	3478.43
1003.065	3449.95
1003.359	3417.18
1003.654	3400.91
1003.949	3431.42
1004.243	3388.71
1004.538	3335.83
1004.832	3382.16
1005.127	3310.07
1005.421	3353.46
1005.715	3277.98
1006.009	3268.26
1006.304	3257.19
1006.598	3236.85
1006.892	3234.59
1007.186	3166.34
1007.48	3196.4
1007.773	3135.38
1008.067	3121.82
1008.361	3113.69
1008.655	3060.81
1008.948	3071.66
1009.242	3055.16
1009.535	3056.06
1009.829	3015.39
1010.122	3007.03
1010.415	2995.5
1010.708	2963.41
1011.001	2999.12
1011.295	2913.24
1011.588	2952.56
1011.881	2905.56
1012.173	2870.08
1012.466	2869.63
1012.759	2857.2
1013.052	2824.21
1013.344	2787.37
1013.637	2786.24
1013.93	2749.86
1014.222	2783.3
1014.514	2746.24
1014.807	2729.29
1015.099	2689.07
1015.391	2676.86
1015.683	2692.91
1015.976	2653.59
1016.268	2616.53
1016.56	2619.69
1016.851	2595.06
1017.143	2567.94
1017.435	2549.18
1017.727	2522.29
1018.018	2526.81
1018.31	2512.35
1018.602	2504.89
1018.893	2470.99
1019.185	2421.5
1019.476	2457.44
1019.767	2440.94
1020.058	2365.46
1020.35	2414.95
1020.641	2343.77
1020.932	2347.61
1021.223	2329.08
1021.514	2348.51
1021.804	2301.06
1022.095	2282.52
1022.386	2253.15
1022.677	2274.84
1022.967	2225.8
1023.258	2189.42
1023.548	2229.19
1023.839	2220.83
1024.129	2206.82
1024.419	2139.93
1024.709	2137.44
1025	2147.39
1025.29	2095.86
1025.58	2096.09
1025.87	2043.21
1026.16	2083.66
1026.449	2084.79
1026.739	2061.29
1027.029	2015.19
1027.319	2035.3
1027.608	2002.08
1027.898	1977
1028.187	1972.7
1028.477	1943.32
1028.766	1969.09
1029.055	1926.15
1029.344	1951.69
1029.634	1888.64
1029.923	1914.85
1030.212	1838.02
1030.501	1850.9
1030.79	1833.72
1031.078	1840.05
1031.367	1776.32
1031.656	1817.9
1031.945	1793.95
1032.233	1779.04
1032.522	1756.66
1032.81	1746.72
1033.099	1768.41
1033.387	1719.83
1033.675	1721.18
1033.963	1701.98
1034.251	1683.67
1034.54	1666.5
1034.828	1653.61
1035.116	1641.19
1035.403	1640.51
1035.691	1636.21
1035.979	1621.98
1036.267	1622.88
1036.554	1615.42
1036.842	1560.28
1037.129	1577.46
1037.417	1582.88
1037.704	1551.02
1037.992	1559.61
1038.279	1521.19
1038.566	1530.68
1038.853	1530.68
1039.14	1530.68
