Data from 15-5210_FLMS001491_001.txt Node
Date: Thu Apr 19 16:48:13 BST 2018
User: hsy
Spectrometer: FLMS00149
Trigger mode: 0
Integration Time (sec): 1.000000E-2
Scans to average: 10
Electric dark correction enabled: true
Nonlinearity correction enabled: false
Boxcar width: 0
XAxis mode: Wavelengths
Number of Pixels in Spectrum: 2048
>>>>>Begin Spectral Data<<<<<
341.393	-8.09
341.776	-8.09
342.16	-8.09
342.543	-62.55
342.927	-69.11
343.31	-62.33
343.693	-65.49
344.077	-59.62
344.46	-63.46
344.843	-48.32
345.226	-51.93
345.61	-45.38
345.993	-1.54
346.376	-17.13
346.759	8.4
347.142	36.88
347.525	38.69
347.908	53.83
348.291	74.84
348.674	100.38
349.057	102.19
349.44	117.33
349.823	143.32
350.206	162.75
350.588	219.02
350.971	226.25
351.354	253.37
351.737	252.69
352.119	294.5
352.502	285.68
352.884	310.77
353.267	310.54
353.65	325.91
354.032	318.23
354.414	341.5
354.797	339.02
355.179	372.01
355.562	356.19
355.944	347.83
356.326	375.85
356.709	376.53
357.091	350.99
357.473	384.21
357.855	374.27
358.238	372.46
358.62	388.73
359.002	375.63
359.384	385.34
359.766	376.76
360.148	374.5
360.53	365.68
360.912	377.21
361.294	370.88
361.676	365.46
362.057	386.92
362.439	374.95
362.821	367.26
363.203	363.87
363.584	369.3
363.966	368.17
364.348	365.91
364.729	360.48
365.111	372.01
365.493	370.2
365.874	381.73
366.256	364.78
366.637	366.36
367.019	363.42
367.4	382.41
367.781	373.14
368.163	357.32
368.544	348.28
368.925	341.95
369.306	378.79
369.688	356.64
370.069	356.42
370.45	359.58
370.831	375.63
371.212	357.55
371.593	366.13
371.974	358.23
372.355	372.01
372.736	383.54
373.117	383.99
373.498	360.03
373.879	388.05
374.26	380.15
374.641	382.86
375.021	370.43
375.402	401.16
375.783	390.54
376.163	413.59
376.544	386.7
376.925	371.33
377.305	359.35
377.686	405.68
378.066	388.51
378.447	415.4
378.827	397.55
379.208	394.16
379.588	410.2
379.968	402.07
380.349	396.19
380.729	419.47
381.109	399.35
381.489	421.27
381.87	405.23
382.25	444.78
382.63	416.53
383.01	433.7
383.39	428.51
383.77	425.57
384.15	437.54
384.53	422.4
384.91	444.78
385.29	446.81
385.67	409.98
386.049	440.26
386.429	428.05
386.809	447.94
387.189	457.43
387.568	453.59
387.948	460.37
388.328	452.91
388.707	464.44
389.087	470.76
389.466	480.03
389.846	483.87
390.225	499.24
390.605	463.98
390.984	477.54
391.363	514.83
391.743	485.45
392.122	521.16
392.501	499.24
392.881	493.36
393.26	494.72
393.639	518.22
394.018	522.29
394.397	510.31
394.776	538.56
395.155	546.47
395.534	520.25
395.913	522.29
396.292	562.06
396.671	551.89
397.05	560.03
397.429	557.32
397.808	562.74
398.186	577.65
398.565	549.18
398.944	573.81
399.323	571.33
399.701	599.12
400.08	593.25
400.458	593.25
400.837	600.48
401.215	627.14
401.594	606.81
401.972	611.55
402.351	603.87
402.729	596.41
403.107	626.92
403.486	633.02
403.864	625.11
404.242	639.57
404.62	654.26
404.999	653.58
405.377	665.11
405.755	661.04
406.133	673.47
406.511	698.33
406.889	684.77
407.267	712.11
407.645	723.19
408.023	722.96
408.401	729.51
408.779	760.47
409.156	762.96
409.534	763.41
409.912	771.1
410.29	797.99
410.667	803.41
411.045	825.78
411.422	800.93
411.8	844.09
412.178	873.92
412.555	869.17
412.933	870.53
413.31	913.46
413.687	924.09
414.065	921.6
414.442	936.51
414.819	933.58
415.197	945.33
415.574	975.16
415.951	1002.05
416.328	977.42
416.705	1012.22
417.082	969.28
417.46	1014.93
417.837	1007.47
418.214	1071.43
418.591	1047.47
418.967	1084.99
419.344	1061.26
419.721	1094.93
420.098	1120.46
420.475	1091.31
420.852	1121.37
421.228	1131.09
421.605	1113.46
421.982	1145.1
422.358	1146.23
422.735	1198.2
423.111	1192.33
423.488	1215.6
423.864	1201.14
424.241	1221.03
424.617	1216.28
424.994	1240.69
425.37	1258.99
425.746	1291.76
426.123	1320.91
426.499	1331.53
426.875	1307.13
427.251	1325.88
427.627	1400.91
428.003	1403.4
428.379	1406.33
428.756	1408.59
429.132	1423.96
429.507	1428.48
429.883	1472.55
430.259	1499.89
430.635	1487.23
431.011	1520.68
431.387	1549.15
431.763	1587.57
432.138	1588.02
432.514	1584.41
432.89	1613.33
433.265	1655.37
433.641	1681.35
434.016	1670.05
434.392	1712.77
434.767	1748.02
435.143	1767.68
435.518	1789.37
435.894	1824.4
436.269	1829.6
436.644	1875.25
437.02	1861.24
437.395	1876.83
437.77	1879.77
438.145	1947.34
438.52	1943.95
438.895	1968.8
439.271	1979.43
439.646	2056.03
440.021	2052.42
440.395	2065.98
440.77	2023.94
441.145	2056.94
441.52	2087.67
441.895	2150.27
442.27	2156.14
442.645	2163.15
443.019	2136.26
443.394	2157.27
443.769	2211.74
444.143	2197.05
444.518	2196.14
444.892	2226.88
445.267	2219.42
445.641	2253.32
446.016	2279.3
446.39	2281.34
446.764	2310.72
447.139	2290.6
447.513	2335.35
447.887	2361.56
448.262	2316.37
448.636	2351.39
449.01	2383.71
449.384	2423.93
449.758	2451.05
450.132	2456.7
450.506	2445.85
450.88	2528.79
451.254	2516.59
451.628	2524.04
452.002	2580.54
452.376	2601.33
452.75	2654.89
453.123	2651.5
453.497	2688.56
453.871	2703.93
454.244	2799.52
454.618	2816.24
454.992	2850.59
455.365	2869.12
455.739	2909.57
456.112	2947.99
456.486	2961.77
456.859	2984.6
457.232	3045.39
457.606	3044.03
457.979	3107.08
458.352	3184.82
458.725	3230.92
459.099	3227.08
459.472	3267.53
459.845	3368.54
460.218	3352.5
460.591	3430.23
460.964	3443.79
461.337	3514.53
461.71	3602.21
462.083	3581.19
462.456	3577.58
462.829	3635.88
463.201	3666.16
463.574	3703.9
463.947	3758.81
464.32	3847.85
464.692	3914.97
465.065	3855.31
465.438	3914.29
465.81	3961.97
466.183	4010.33
466.555	4109.99
466.928	4088.3
467.3	4135.3
467.672	4161.74
468.045	4272.25
468.417	4292.13
468.789	4270.21
469.161	4399.7
469.534	4463.43
469.906	4535.74
470.278	4545.01
470.65	4619.81
471.022	4676.76
471.394	4757.43
471.766	4783.87
472.138	4893.92
472.51	4992.45
472.882	5020.02
473.253	5086.24
473.625	5189.06
473.997	5259.11
474.369	5279
474.74	5362.61
475.112	5426.57
475.484	5497.07
475.855	5636.73
476.227	5679.44
476.598	5855.71
476.97	5863.84
477.341	5937.06
477.713	6050.96
478.084	6109.03
478.455	6283.49
478.827	6285.07
479.198	6535.46
479.569	6568.01
479.94	6696.82
480.311	6807.77
480.682	6952.63
481.053	7075.79
481.424	7173.41
481.795	7302.9
482.166	7443.91
482.537	7549.45
482.908	7746.28
483.279	7814.75
483.65	7953.05
484.021	8096.78
484.391	8142.43
484.762	8306.94
485.133	8354.85
485.503	8515.07
485.874	8758.68
486.244	8851.56
486.615	9015.62
486.985	9106.24
487.356	9316.18
487.726	9430.53
488.097	9651.31
488.467	9727.02
488.837	9927.92
489.207	10010.85
489.578	10211.75
489.948	10389.37
490.318	10547.79
490.688	10556.15
491.058	10843.15
491.428	10989.36
491.798	11135.57
492.168	11364.49
492.538	11387.77
492.908	11640.41
493.278	11715.44
493.648	11889.22
494.017	12049.67
494.387	12203.56
494.757	12271.13
495.126	12484.23
495.496	12609.88
495.866	12711.57
496.235	12816.43
496.605	13021.62
496.974	13162.86
497.344	13327.83
497.713	13486.47
498.082	13596.52
498.452	13729.4
498.821	13914.25
499.19	13986.57
499.559	14222.04
499.928	14255.49
500.298	14380
500.667	14547.68
501.036	14551.07
501.405	14768.24
501.774	14921.46
502.143	15056.6
502.512	15097.05
502.88	15255.69
503.249	15425.4
503.618	15450.94
503.987	15640.08
504.356	15747.42
504.724	15803.92
505.093	16010.69
505.462	16084.82
505.83	16186.51
506.199	16333.4
506.567	16554.41
506.936	16563
507.304	16828.53
507.672	16883.67
508.041	16881.41
508.409	17141.96
508.777	17348.06
509.145	17466.25
509.514	17436.87
509.882	17595.51
510.25	17626.47
510.618	17828.95
510.986	17953.24
511.354	18009.06
511.722	18213.35
512.09	18473.91
512.458	18282.73
512.826	18531.08
513.193	18601.59
513.561	18786.22
513.929	18868.47
514.297	18992.09
514.664	19091.97
515.032	19213.55
515.4	19370.15
515.767	19434.79
516.135	19504.39
516.502	19503.48
516.869	19832.52
517.237	19907.32
517.604	19757.04
517.972	20146.63
518.339	20233.41
518.706	20348.66
519.073	20387.08
519.44	20398.38
519.808	20754.98
520.175	20639.5
520.542	20997.23
520.909	21004.24
521.276	21234.51
521.643	21359.48
522.009	21414.39
522.376	21542.07
522.743	21771
523.11	21940.48
523.477	22123.53
523.843	22150.19
524.21	22403.3
524.577	22468.15
524.943	22733
525.31	22834.47
525.676	22917.41
526.043	23125.76
526.409	23193.78
526.776	23449.82
527.142	23502.7
527.508	23754.45
527.874	23786.08
528.241	23882.58
528.607	23893.65
528.973	24276.24
529.339	24131.16
529.705	24401.89
530.071	24558.72
530.437	24648.66
530.803	24693.4
531.169	24807.53
531.535	24906.28
531.901	24901.53
532.267	25127.52
532.632	25172.49
532.998	25206.84
533.364	25412.71
533.73	25375.65
534.095	25555.98
534.461	25525.7
534.826	25755.75
535.192	25850.21
535.557	25965.24
535.923	25834.84
536.288	26001.39
536.653	26113.71
537.019	25996.87
537.384	25988.96
537.749	26029.87
538.114	26108.73
538.479	26011.11
538.845	26158
539.21	26164.1
539.575	26168.85
539.94	26310.54
540.305	26378.56
540.67	26341.95
541.034	26365.22
541.399	26317.09
541.764	26457.43
542.129	26392.79
542.494	26389.4
542.858	26547.59
543.223	26345.11
543.587	26561.38
543.952	26425.56
544.316	26571.32
544.681	26381.95
545.045	26558.67
545.41	26581.72
545.774	26512.11
546.138	26511.21
546.503	26474.37
546.867	26577.65
547.231	26780.58
547.595	26630.75
547.959	26746.68
548.324	26706.01
548.688	26731.99
549.052	26713.92
549.416	26697.65
549.779	26662.62
550.143	26641.15
550.507	26806.57
550.871	26742.16
551.235	26723.63
551.599	26902.16
551.962	26819.22
552.326	26828.94
552.689	26740.58
553.053	26636.4
553.417	26726.12
553.78	26879.79
554.143	26759.56
554.507	26834.37
554.87	26838.66
555.234	27098.99
555.597	26867.58
555.96	26840.01
556.323	27030.29
556.686	27016.28
557.05	27087.47
557.413	27159.78
557.776	27022.83
558.139	27249.5
558.502	27141.02
558.865	27188.03
559.228	27286.33
559.59	27296.27
559.953	27210.4
560.316	27518.87
560.679	27428.7
561.041	27554.8
561.404	27441.35
561.767	27730.84
562.129	27534.01
562.492	27702.59
562.854	27592.09
563.217	27784.17
563.579	27743.27
563.941	28038.63
564.304	28041.79
564.666	28337.38
565.028	28070.04
565.39	28157.27
565.753	28397.26
566.115	28245.4
566.477	28404.95
566.839	28519.29
567.201	28654.43
567.563	28708.67
567.925	28711.83
568.287	28809
568.648	28825.05
569.01	28979.62
569.372	29207.64
569.734	29095.55
570.095	29386.39
570.457	29417.12
570.819	29456.44
571.18	29484.69
571.542	29600.62
571.903	29578.02
572.265	29679.26
572.626	29870.22
572.987	29778.47
573.349	29994.51
573.71	30062.3
574.071	30109.53
574.432	30279.47
574.794	30480.14
575.155	30434.95
575.516	30450.32
575.877	30545.23
576.238	30620.71
576.599	30653.93
576.96	30745.22
577.32	30772.11
577.681	30949.51
578.042	31074.03
578.403	31135.27
578.763	31041.26
579.124	31229.28
579.485	31366.45
579.845	31460.01
580.206	31444.87
580.566	31371.19
580.927	31358.54
581.287	31563.73
581.648	31658.42
582.008	31838.08
582.368	31738.19
582.728	31705.2
583.089	31831.07
583.449	31971.63
583.809	32009.6
584.169	32054.34
584.529	31899.99
584.889	32222.7
585.249	32019.54
585.609	32037.62
585.969	32285.97
586.329	32224.96
586.688	32417.72
587.048	32393.09
587.408	32432.86
587.768	32451.84
588.127	32438.51
588.487	32463.6
588.846	32750.59
589.206	32490.94
589.565	32554.89
589.925	32914.43
590.284	32809.58
590.643	32789.01
591.003	32932.74
591.362	33105.84
591.721	33012.28
592.08	33059.06
592.44	33145.16
592.799	33222.45
593.158	33278.72
593.517	33168.21
593.876	33322.56
594.235	33223.8
594.593	33333.4
594.952	33467.18
595.311	33457.24
595.67	33516.68
596.029	33767.52
596.387	33758.25
596.746	33980.62
597.104	33633.96
597.463	33837.8
597.822	33933.39
598.18	33885.25
598.538	33994.18
598.897	34134.51
599.255	34031.46
599.613	34340.83
599.972	34255.64
600.33	34401.4
600.688	34278.01
601.046	34538.8
601.404	34552.35
601.762	34573.37
602.12	34517.78
602.478	34693.59
602.836	34779.69
603.194	34521.39
603.552	34801.16
603.91	34829.64
604.268	34860.14
604.625	34794.83
604.983	34987.37
605.341	34741.73
605.698	34959.35
606.056	35200.02
606.413	35130.42
606.771	35368.6
607.128	35246.8
607.485	35239.34
607.843	35169.29
608.2	35414.93
608.557	35542.16
608.914	35450.18
609.272	35637.98
609.629	35772.44
609.986	35907.57
610.343	35767.01
610.7	36104.18
611.057	36000
611.414	35980.57
611.771	36207.23
612.127	36228.02
612.484	36218.75
612.841	36386.43
613.198	36259.88
613.554	36236.38
613.911	36475.69
614.267	36515.69
614.624	36475.24
614.98	36572.41
615.337	36889.02
615.693	36816.25
616.05	36764.27
616.406	36968.11
616.762	36868
617.118	36943.48
617.475	36894.67
617.831	37180.08
618.187	37039.29
618.543	37158.39
618.899	37495.33
619.255	37276.58
619.611	37250.14
619.967	37493.52
620.323	37667.75
620.678	37406.74
621.034	37469.11
621.39	37441.77
621.746	37557.25
622.101	37897.8
622.457	37491.26
622.812	37775.77
623.168	37791.14
623.523	37761.99
623.879	37940.97
624.234	37736.9
624.589	37940.51
624.945	37856.45
625.3	37953.17
625.655	38047.63
626.01	38075.43
626.365	37995.2
626.72	37841.53
627.075	37713.85
627.43	37867.07
627.785	37890.12
628.14	37822.1
628.495	37856.45
628.85	38020.29
629.205	37869.78
629.559	38026.16
629.914	37828.43
630.269	37859.61
630.623	37628.66
630.978	37701.2
631.332	37922.66
631.687	37826.17
632.041	37763.12
632.396	37707.98
632.75	37655.1
633.104	37785.04
633.459	37467.08
633.813	37644.93
634.167	37537.59
634.521	37677.24
634.875	37580.98
635.229	37457.36
635.583	37374.65
635.937	37383.24
636.291	37279.74
636.645	37268.67
636.999	37226.41
637.352	37313.19
637.706	37136.92
638.06	37241.78
638.413	37116.58
638.767	36951.16
639.121	37028.45
639.474	36952.74
639.828	36841.56
640.181	36980.31
640.534	36995.45
640.888	36703.48
641.241	36653.09
641.594	36686.31
641.947	36825.97
642.301	36659.42
642.654	36923.14
643.007	36599.53
643.36	36814.67
643.713	36649.7
644.066	36895.34
644.419	36594.56
644.771	36265.3
645.124	35874.81
645.477	35824.86
645.83	35751.42
646.182	35750.51
646.535	35702.15
646.888	35790.29
647.24	35612.44
647.593	35944.18
647.945	35705.54
648.298	35518.88
648.65	35436.17
649.002	35454.93
649.355	35384.42
649.707	35458.09
650.059	35381.26
650.411	35886.1
650.763	36095.36
651.115	36487.9
651.467	36455.58
651.819	36439.08
652.171	36357.96
652.523	36326.54
652.875	36397.73
653.227	36240.45
653.578	36466.43
653.93	36577.16
654.282	36267.34
654.633	36219.2
654.985	36296.26
655.337	36275.92
655.688	36316.6
656.039	36341.69
656.391	36268.92
656.742	36329.71
657.094	36383.49
657.445	36430.5
657.796	36462.36
658.147	36301.01
658.498	36463.26
658.849	36618.51
659.2	36366.09
659.551	36468.91
659.902	36664.16
660.253	36421.01
660.604	36633.88
660.955	36541
661.306	36678.17
661.656	36454.23
662.007	36697.61
662.358	36688.34
662.708	36729.25
663.059	36628.23
663.409	36510.04
663.76	36667.78
664.11	36784.84
664.461	36878.17
664.811	36729.25
665.161	36742.81
665.511	36773.54
665.862	36829.58
666.212	36957.04
666.562	36975.57
666.912	36846.98
667.262	36710.26
667.612	36739.42
667.962	36812.41
668.312	36872.29
668.662	37013.08
669.011	36889.92
669.361	36829.13
669.711	36861.22
670.06	37031.16
670.41	36783.48
670.76	36819.19
671.109	36959.3
671.459	36790.94
671.808	36946.19
672.157	36908.68
672.507	36609.7
672.856	36643.6
673.205	36842.24
673.554	36808.11
673.904	36746.65
674.253	36935.57
674.602	36555.69
674.951	36145.53
675.3	36085.65
675.649	36519.53
675.998	36569.7
676.346	36598.63
676.695	36814.22
677.044	36423.72
677.393	36542.81
677.741	36602.24
678.09	36548.23
678.438	36474.56
678.787	36503.04
679.135	36522.25
679.484	36153.22
679.832	36274.79
680.181	36175.36
680.529	36139.43
680.877	36051.07
681.225	36033.9
681.573	36370.61
681.922	36061.69
682.27	35922.04
682.618	35938.08
682.966	35783.28
683.314	35770.85
683.661	35933.79
684.009	35680.46
684.357	35564.76
684.705	35340.58
685.053	35562.72
685.4	35314.82
685.748	35206.57
686.095	35155.28
686.443	35021.27
686.79	34999.57
687.138	35110.08
687.485	34955.96
687.832	34746.02
688.18	34666.02
688.527	34507.61
688.874	34584.9
689.221	34440.49
689.568	34271.91
689.915	34136.32
690.262	34127.05
690.609	34068.3
690.956	33850.68
691.303	33828.08
691.65	33679.38
691.997	33624.02
692.344	33353.97
692.69	33320.52
693.037	33285.04
693.383	33146.06
693.73	33019.97
694.077	32849.57
694.423	32833.08
694.769	32696.13
695.116	32652.97
695.462	32429.47
695.808	32298.63
696.155	32172.3
696.501	31955.13
696.847	32027.22
697.193	31765.76
697.539	31785.65
697.885	31550.63
698.231	31300.69
698.577	31344.75
698.923	31216.17
699.269	30922.39
699.614	30926.46
699.96	30768.5
700.306	30771.66
700.651	30567.83
700.997	30344.1
701.342	30344.1
701.688	30265.24
702.033	30135.07
702.379	30144.11
702.724	29974.4
703.069	29832.48
703.415	29508.19
703.76	29529.44
704.105	29580.96
704.45	29379.83
704.795	29231.14
705.14	29080.41
705.485	29114.08
705.83	28844.03
706.175	29011.93
706.52	28792.05
706.865	28638.39
707.209	28582.57
707.554	28522.91
707.899	28440.65
708.243	28373.31
708.588	28244.72
708.932	28013.77
709.277	28018.97
709.621	27854.45
709.966	27677.28
710.31	27844.06
710.654	27728.8
710.998	27773.78
711.342	27649.71
711.687	27530.39
712.031	27458.76
712.375	27332.66
712.719	27400.23
713.063	27315.48
713.407	27415.59
713.75	27277.74
714.094	27224.41
714.438	27018.09
714.782	27125.2
715.125	26971.31
715.469	27120.46
715.812	26881.14
716.156	26891.31
716.499	26829.85
716.843	26883.86
717.186	26705.1
717.53	26878.21
717.873	26950.75
718.216	26844.99
718.559	26718.66
718.902	26614.48
719.246	26572
719.589	26554.82
719.932	26568.61
720.275	26470.76
720.617	26575.16
720.96	26410.42
721.303	26554.82
721.646	26575.39
721.989	26441.61
722.331	26590.3
722.674	26304.44
723.016	26429.4
723.359	26425.11
723.701	26445.45
724.044	26319.35
724.386	26210.88
724.729	26374.49
725.071	26446.35
725.413	26397.09
725.755	26409.97
726.097	26260.59
726.439	26142.18
726.782	26308.05
727.124	26384.66
727.465	26416.3
727.807	26305.79
728.149	26489.74
728.491	26277.77
728.833	26495.16
729.175	26482.28
729.516	26339.69
729.858	26339.46
730.199	26532
730.541	26577.42
730.882	26483.64
731.224	26564.32
731.565	26569.97
731.906	26595.05
732.248	26680.92
732.589	26410.65
732.93	26597.76
733.271	26668.95
733.612	26665.1
733.953	26794.82
734.294	26765.67
734.635	26728.61
734.976	26926.11
735.317	26832.78
735.658	26752.56
735.999	26845.21
736.339	27038.43
736.68	27115.49
737.021	27083.62
737.361	26996.62
737.702	27380.57
738.042	27265.31
738.383	27385.99
738.723	27513.67
739.063	27345.54
739.404	27520.45
739.744	27503.95
740.084	27515.93
740.424	27650.39
740.764	27742.36
741.104	27932.42
741.444	27898.97
741.784	27939.65
742.124	28235.01
742.464	28130.6
742.804	28185.74
743.143	28253.31
743.483	28473.87
743.823	28463.93
744.162	28679.06
744.502	28833.41
744.841	28878.15
745.181	29047.64
745.52	28991.37
745.86	29278.14
746.199	29296.67
746.538	29456.22
746.877	29570.56
747.216	29797
747.556	29785.47
747.895	29986.37
748.234	30117.89
748.573	30282.41
748.911	30442.63
749.25	30630.88
749.589	30572.12
749.928	30874.03
750.267	31168.26
750.605	31192.22
750.944	31435.83
751.283	31494.58
751.621	31704.07
751.96	31877.4
752.298	31957.39
752.636	32108.8
752.975	32339.76
753.313	32438.96
753.651	32760.31
753.989	32716.24
754.327	33080.75
754.666	33006.18
755.004	33356.68
755.342	33599.16
755.679	33721.19
756.017	33613.4
756.355	34181.52
756.693	34113.5
757.031	34555.07
757.368	34379.03
757.706	34631.45
758.044	34781.05
758.381	35022.85
758.719	35062.62
759.056	35367.93
759.394	35402.05
759.731	35389.85
760.068	35495.83
760.405	35826.9
760.743	35762.04
761.08	36107.34
761.417	36065.53
761.754	36259.43
762.091	36374.68
762.428	36418.07
762.765	36362.02
763.102	36556.37
763.438	36755.23
763.775	36525.41
764.112	36688.34
764.449	36909.13
764.785	36892.63
765.122	36897.6
765.458	36851.05
765.795	37018.96
766.131	37183.25
766.467	37145.96
766.804	36962.23
767.14	37001.56
767.476	37001.1
767.812	37250.14
768.148	37140.99
768.485	37209.46
768.821	37138.95
769.157	37060.08
769.492	37117.03
769.828	37191.83
770.164	36921.11
770.5	37059.86
770.836	36930.6
771.171	36884.72
771.507	36895.8
771.842	36772.63
772.178	36891.95
772.513	36799.98
772.849	36802.01
773.184	36805.63
773.519	36659.87
773.855	36568.8
774.19	36524.51
774.525	36564.5
774.86	36484.73
775.195	36474.11
775.53	36313.89
775.865	36165.42
776.2	36118.87
776.535	35893.79
776.87	35992.09
777.205	35925.88
777.539	35783.28
777.874	35773.79
778.209	35622.61
778.543	35539.22
778.878	35351.43
779.212	35326.8
779.547	35313.01
779.881	35350.07
780.215	34969.07
780.55	35086.58
780.884	34846.58
781.218	34891.33
781.552	34876.41
781.886	34695.63
782.22	34520.72
782.554	34413.37
782.888	34073.04
783.222	34202.76
783.556	33978.36
783.889	33945.59
784.223	33769.32
784.557	33901.98
784.89	33813.16
785.224	33551.7
785.557	33547.18
785.891	33440.52
786.224	33453.4
786.558	33410.92
786.891	33186.29
787.224	33047.76
787.557	32958.05
787.891	32782.46
788.224	32726.41
788.557	32640.99
788.89	32725.51
789.223	32598.51
789.556	32373.43
789.888	32370.94
790.221	32262.92
790.554	31981.35
790.887	32160.78
791.219	31925.98
791.552	31804.86
791.884	31738.87
792.217	31816.15
792.549	31601.7
792.882	31350.63
793.214	31311.54
793.546	31264.98
793.879	31120.81
794.211	30830.19
794.543	31133.46
794.875	30979.11
795.207	30966.23
795.539	30832.68
795.871	30841.04
796.203	30566.02
796.535	30295.74
796.867	30369.87
797.198	30201.96
797.53	30253.48
797.862	29962.87
798.193	30196.76
798.525	29842.2
798.856	29931.68
799.188	29637.91
799.519	29497.12
799.85	29405.6
800.182	29495.31
800.513	29515.42
800.844	29050.58
801.175	29467.52
801.506	29292.38
801.837	29103.91
802.168	29010.13
802.499	29136.45
802.83	28760.19
803.161	28809.91
803.491	28784.6
803.822	28802
804.153	28623.7
804.483	28407.66
804.814	28353.42
805.145	28504.38
805.475	28287.43
805.805	28331.05
806.136	28280.88
806.466	28105.74
806.796	28117.5
807.126	27979.87
807.457	27778.97
807.787	27850.84
808.117	27828.69
808.447	27752.31
808.777	27769.93
809.107	27526.1
809.436	27419.89
809.766	27495.36
810.096	27411.07
810.426	27283.84
810.755	27336.95
811.085	27277.29
811.414	27273
811.744	27205.65
812.073	27107.8
812.403	26969.28
812.732	26906.91
813.061	26971.31
813.39	26751.2
813.719	26856.29
814.049	26910.75
814.378	26723.86
814.707	26652
815.036	26628.95
815.365	26500.81
815.693	26335.17
816.022	26366.35
816.351	26313.7
816.68	26248.62
817.008	26202.07
817.337	26003.65
817.665	26006.14
817.994	26005.01
818.322	26124.55
818.651	25932.02
818.979	25851.79
819.307	25897.67
819.636	25763.43
819.964	25750.33
820.292	25765.24
820.62	25755.07
820.948	25656.32
821.276	25740.38
821.604	25720.27
821.932	25832.58
822.259	25638.01
822.587	25649.76
822.915	25590.33
823.243	25691.57
823.57	25615.64
823.898	25722.08
824.225	25693.15
824.553	25605.24
824.88	25658.35
825.207	25795.52
825.535	25599.14
825.862	25725.92
826.189	25599.82
826.516	25789.65
826.843	25788.74
827.17	25911.9
827.497	25715.52
827.824	25811.57
828.151	25959.59
828.478	25717.33
828.805	25951
829.131	25762.53
829.458	25815.63
829.785	25679.37
830.111	25692.93
830.438	25791.23
830.764	25671.46
831.09	25779.93
831.417	25626.71
831.743	25813.15
832.069	25732.25
832.395	25676.43
832.722	25843.2
833.048	25594.62
833.374	25731.8
833.7	25612.7
834.026	25617.9
834.351	25508.3
834.677	25664
835.003	25568.86
835.329	25595.98
835.654	25688.41
835.98	25445.48
836.306	25603.44
836.631	25536.77
836.956	25640.5
837.282	25600.27
837.607	25380.17
837.932	25452.71
838.258	25374.06
838.583	25397.79
838.908	25374.06
839.233	25355.53
839.558	25160.96
839.883	25214.07
840.208	25082.55
840.533	25188.31
840.858	25141.98
841.182	25234.41
841.507	25049.55
841.832	24882.33
842.156	24895.43
842.481	24913.29
842.805	24800.29
843.13	24746.51
843.454	24757.13
843.778	24773.4
844.103	24661.77
844.427	24528.21
844.751	24577.7
845.075	24440.3
845.399	24442.11
845.723	24434.2
846.047	24324.37
846.371	24203.7
846.695	24132.29
847.019	23959.64
847.343	23865.18
847.666	23900.66
847.99	23719.87
848.313	23665.41
848.637	23617.95
848.96	23506.99
849.284	23581.34
849.607	23345.64
849.931	23343.38
850.254	23188.36
850.577	23007.12
850.9	22835.83
851.223	22974.13
851.546	22848.48
851.869	22677.86
852.192	22867.69
852.515	22538.88
852.838	22275.39
853.161	22499.56
853.483	22289.4
853.806	22278.78
854.129	22225.45
854.451	22130.99
854.774	21967.6
855.096	21907.04
855.419	21853.48
855.741	21863.65
856.063	21680.83
856.385	21637.89
856.708	21527.84
857.03	21528.52
857.352	21510.66
857.674	21361.74
857.996	21213.04
858.318	21123.55
858.64	21158.36
858.961	21123.78
859.283	20994.97
859.605	20924.69
859.926	20960.17
860.248	20914.07
860.57	20757.46
860.891	20788.87
861.212	20719.72
861.534	20725.15
861.855	20576.45
862.176	20678.59
862.498	20691.93
862.819	20609.22
863.14	20420.52
863.461	20465.94
863.782	20343.91
864.103	20413.52
864.424	20244.71
864.745	20313.41
865.065	20240.41
865.386	20100.98
865.707	20181.21
866.027	20179.17
866.348	20206.29
866.668	20038.84
866.989	20056.92
867.309	19878.84
867.63	19916.81
867.95	19961.55
868.27	19796.13
868.59	19898.95
868.91	19854.89
869.23	19759.97
869.55	19689.24
869.87	19864.15
870.19	19696.7
870.51	19780.77
870.83	19614.44
871.15	19459.64
871.469	19415.8
871.789	19476.82
872.109	19494.67
872.428	19438.18
872.748	19560.43
873.067	19396.82
873.386	19425.97
873.706	19327.9
874.025	19212.87
874.344	19258.52
874.663	19337.84
874.982	19216.71
875.301	19145.3
875.62	19108.47
875.939	19081.12
876.258	19082.93
876.577	19036.38
876.896	19135.58
877.214	18946.89
877.533	19010.39
877.852	18916.38
878.17	18922.71
878.489	18884.74
878.807	18857.17
879.125	18783.5
879.444	18733.79
879.762	18675.26
880.08	18761.81
880.398	18662.6
880.716	18750.06
881.034	18598.88
881.352	18680
881.67	18553.23
881.988	18477.07
882.306	18385.77
882.624	18451.31
882.941	18271.65
883.259	18305.1
883.577	18351.88
883.894	18212.67
884.212	18261.71
884.529	18123.18
884.846	18017.2
885.164	18035.5
885.481	18018.55
885.798	18020.81
886.115	17959.8
886.432	18024.88
886.75	17873.7
887.067	17935.84
887.383	17732.68
887.7	17751.67
888.017	17631.9
888.334	17645
888.651	17550.09
888.967	17473.26
889.284	17541.28
889.6	17395.52
889.917	17356.2
890.233	17406.82
890.55	17316.65
890.866	17213.38
891.182	17257.44
891.498	17141.74
891.815	17112.13
892.131	17171.79
892.447	17106.71
892.763	17034.62
893.079	16962.99
893.395	16946.94
893.71	16904.68
894.026	16754.86
894.342	16745.14
894.657	16582.66
894.973	16613.16
895.289	16687.06
895.604	16534.75
895.92	16409.55
896.235	16455.43
896.55	16347.18
896.865	16295.66
897.181	16252.04
897.496	16147.19
897.811	16234.64
898.126	16040.98
898.441	16044.82
898.756	16071.94
899.071	15965.5
899.386	15931.6
899.7	15775.22
900.015	15685.51
900.33	15647.31
900.644	15638.73
900.959	15641.44
901.273	15544.72
901.588	15508.56
901.902	15429.47
902.216	15404.16
902.531	15323.93
902.845	15250.94
903.159	15158.74
903.473	15128.68
903.787	15070.83
904.101	14983.15
904.415	15037.16
904.729	14891.85
905.042	14900.89
905.356	14891.18
905.67	14695.25
905.984	14728.69
906.297	14692.76
906.611	14572.09
906.924	14554.01
907.237	14472.88
907.551	14438.98
907.864	14347.01
908.177	14322.38
908.491	14228.37
908.804	14346.78
909.117	14085.55
909.43	14081.71
909.743	13963.52
910.056	14002.39
910.368	13919.22
910.681	13874.25
910.994	13841.26
911.307	13716.07
911.619	13649.4
911.932	13718.55
912.244	13479.46
912.557	13531.89
912.869	13475.39
913.181	13380.48
913.494	13381.61
913.806	13189.53
914.118	13224.78
914.43	13180.94
914.742	13054.16
915.054	13058.68
915.366	13064.11
915.678	12954.05
915.99	12948.4
916.302	12869.08
916.613	12807.39
916.925	12824.11
917.236	12677
917.548	12664.79
917.859	12634.51
918.171	12507.51
918.482	12499.37
918.794	12468.64
919.105	12403.11
919.416	12334.18
919.727	12269.1
920.038	12309.78
920.349	12161.76
920.66	12106.62
920.971	12164.47
921.282	12013.29
921.593	12006.73
921.903	11895.1
922.214	11804.7
922.525	11806.06
922.835	11787.3
923.146	11715.21
923.456	11547.99
923.767	11583.92
924.077	11583.01
924.387	11466.63
924.697	11426.86
925.008	11371.49
925.318	11371.95
925.628	11351.61
925.938	11326.3
926.248	11173.31
926.558	11122.24
926.867	11077.49
927.177	10999.75
927.487	11076.14
927.796	10872.3
928.106	10955.91
928.416	10925.86
928.725	10872.07
929.034	10845.63
929.344	10710.72
929.653	10755.69
929.962	10674.11
930.271	10621.68
930.581	10524.06
930.89	10564.96
931.199	10445.87
931.508	10404.97
931.817	10430.5
932.125	10377.85
932.434	10343.5
932.743	10244.74
933.051	10188.93
933.36	10268.92
933.669	10069.16
933.977	10096.5
934.286	9998.88
934.594	10000.68
934.902	9965.88
935.21	9857.64
935.519	9828.26
935.827	9866.45
936.135	9766.57
936.443	9639.79
936.751	9705.78
937.059	9651.31
937.367	9576.51
937.674	9587.36
937.982	9532.9
938.29	9474.82
938.597	9426.91
938.905	9398.89
939.213	9325.45
939.52	9350.3
939.827	9334.94
940.135	9220.59
940.442	9186.47
940.749	9187.82
941.056	9206.81
941.363	9097.43
941.67	9026.7
941.977	9027.83
942.284	8961.84
942.591	8914.61
942.898	8876.87
943.205	8906.47
943.511	8839.81
943.818	8784.9
944.125	8671
944.431	8644.79
944.738	8675.07
945.044	8616.76
945.35	8541.74
945.657	8529.31
945.963	8587.61
946.269	8439.37
946.575	8419.93
946.881	8350.11
947.187	8400.05
947.493	8273.95
947.799	8294.29
948.105	8249.32
948.41	8174.52
948.716	8145.82
949.022	8120.51
949.327	8066.27
949.633	7954.64
949.938	8002.32
950.244	8035.31
950.549	7904.24
950.854	7913.05
951.16	7845.49
951.465	7821.76
951.77	7819.5
952.075	7719.16
952.38	7809.78
952.685	7666.96
952.99	7606.4
953.294	7641.42
953.599	7587.87
953.904	7584.93
954.209	7465.16
954.513	7461.77
954.818	7428.32
955.122	7446.63
955.426	7454.54
955.731	7358.04
956.035	7290.92
956.339	7262.22
956.643	7277.37
956.948	7161.66
957.252	7179.29
957.556	7130.93
957.86	7116.24
958.163	7120.99
958.467	7113.98
958.771	7030.59
959.075	7009.35
959.378	6944.72
959.682	6968.22
959.985	6890.48
960.289	6883.03
960.592	6815.46
960.896	6813.42
961.199	6757.83
961.502	6786.98
961.805	6713.99
962.108	6648.46
962.411	6656.36
962.714	6613.43
963.017	6546.08
963.32	6500.44
963.623	6598.29
963.926	6539.76
964.228	6498.4
964.531	6468.8
964.833	6459.99
965.136	6371.17
965.438	6365.3
965.741	6328.01
966.043	6307.45
966.345	6303.15
966.648	6257.5
966.95	6238.75
967.252	6197.39
967.554	6215.7
967.856	6144.97
968.158	6116.49
968.46	6075.36
968.761	6087.57
969.063	6024.29
969.365	6038.08
969.666	5987.91
969.968	5944.74
970.269	5877.18
970.571	5933.9
970.872	5859.1
971.174	5851.41
971.475	5799.44
971.776	5818.42
972.077	5764.86
972.378	5749.5
972.679	5729.61
972.98	5737.52
973.281	5651.87
973.582	5682.6
973.883	5569.16
974.183	5592.44
974.484	5569.84
974.785	5526.22
975.085	5484.42
975.386	5481.03
975.686	5444.87
975.986	5436.51
976.287	5397.19
976.587	5374.82
976.887	5349.05
977.187	5366.91
977.487	5367.36
977.787	5277.64
978.087	5288.72
978.387	5249.17
978.687	5195.61
978.987	5209.62
979.286	5144.09
979.586	5109.74
979.885	5114.94
980.185	5120.36
980.484	5042.4
980.784	5050.08
981.083	5018.44
981.382	4974.37
981.682	5018.22
981.981	5000.36
982.28	4939.57
982.579	4897.09
982.878	4892.34
983.177	4880.82
983.475	4863.42
983.774	4816.64
984.073	4786.58
984.372	4766.92
984.67	4761.05
984.969	4747.26
985.267	4706.59
985.566	4669.3
985.864	4612.12
986.162	4626.36
986.461	4617.55
986.759	4579.13
987.057	4558.57
987.355	4489.19
987.653	4484.22
987.951	4482.41
988.249	4462.52
988.547	4441.96
988.844	4443.32
989.142	4390.89
989.44	4381.85
989.737	4376.88
990.035	4359.48
990.332	4338.69
990.63	4322.41
990.927	4289.42
991.224	4286.94
991.521	4219.59
991.819	4221.63
992.116	4193.83
992.413	4211.01
992.71	4190.89
993.006	4124.45
993.303	4110.22
993.6	4107.5
993.897	4112.48
994.193	4050.11
994.49	3980.28
994.787	3994.51
995.083	3968.53
995.379	3978.02
995.676	3989.77
995.972	3930.79
996.268	3933.95
996.565	3912.93
996.861	3869.09
997.157	3859.15
997.453	3809.66
997.749	3776.44
998.044	3797.23
998.34	3770.79
998.636	3746.38
998.932	3721.98
999.227	3699.38
999.523	3678.82
999.818	3666.39
1000.114	3633.62
1000.409	3659.83
1000.704	3605.82
1001	3576.22
1001.295	3556.11
1001.59	3571.7
1001.885	3524.47
1002.18	3503.91
1002.475	3493.96
1002.77	3488.99
1003.065	3445.83
1003.359	3421.65
1003.654	3408.54
1003.949	3382.33
1004.243	3376.22
1004.538	3332.38
1004.832	3326.51
1005.127	3302.78
1005.421	3295.1
1005.715	3222.1
1006.009	3270.69
1006.304	3234.31
1006.598	3201.99
1006.892	3178.26
1007.186	3180.52
1007.48	3180.98
1007.773	3118.38
1008.067	3136.91
1008.361	3104.82
1008.655	3076.8
1008.948	3057.14
1009.242	3045.16
1009.535	3064.14
1009.829	3022.79
1010.122	2992.96
1010.415	2966.97
1010.708	2937.59
1011.001	2908.21
1011.295	2886.52
1011.588	2883.81
1011.881	2891.49
1012.173	2869.12
1012.466	2859.18
1012.759	2812.85
1013.052	2828.67
1013.344	2775.79
1013.637	2773.75
1013.93	2804.71
1014.222	2741.44
1014.514	2730.59
1014.807	2700.76
1015.099	2674.32
1015.391	2688.56
1015.683	2644.49
1015.976	2606.98
1016.268	2626.87
1016.56	2620.31
1016.851	2596.13
1017.143	2581.44
1017.435	2548.45
1017.727	2545.06
1018.018	2528.79
1018.31	2485.4
1018.602	2491.95
1018.893	2488.34
1019.185	2432.52
1019.476	2388.45
1019.767	2389.36
1020.058	2389.36
1020.35	2392.75
1020.641	2381
1020.932	2334.22
1021.223	2296.03
1021.514	2318.85
1021.804	2282.47
1022.095	2264.62
1022.386	2243.6
1022.677	2238.4
1022.967	2212.19
1023.258	2190.72
1023.548	2166.99
1023.839	2188.91
1024.129	2145.97
1024.419	2171.06
1024.709	2154.34
1025	2109.14
1025.29	2107.78
1025.58	2075.92
1025.87	2053.32
1026.16	2075.47
1026.449	2043.6
1026.739	2039.54
1027.029	2030.95
1027.319	1995.02
1027.608	1982.82
1027.898	1940.56
1028.187	1959.09
1028.477	1959.99
1028.766	1922.93
1029.055	1901.69
1029.344	1889.71
1029.634	1879.31
1029.923	1907.79
1030.212	1880.44
1030.501	1830.05
1030.79	1845.42
1031.078	1796.83
1031.367	1799.09
1031.656	1846.32
1031.945	1785.08
1032.233	1759.32
1032.522	1771.97
1032.81	1760.67
1033.099	1730.84
1033.387	1693.33
1033.675	1698.75
1033.963	1715.48
1034.251	1673.67
1034.54	1668.93
1034.828	1658.08
1035.116	1642.03
1035.403	1627.57
1035.691	1621.92
1035.979	1598.42
1036.267	1609.72
1036.554	1597.51
1036.842	1590.51
1037.129	1555.71
1037.417	1541.7
1037.704	1527.91
1037.992	1565.65
1038.279	1538.08
1038.566	1517.29
1038.853	1517.29
1039.14	1517.29
