Data from 15-5210_FLMS001491_004.txt Node
Date: Thu Apr 19 16:48:20 BST 2018
User: hsy
Spectrometer: FLMS00149
Trigger mode: 0
Integration Time (sec): 1.000000E-2
Scans to average: 10
Electric dark correction enabled: true
Nonlinearity correction enabled: false
Boxcar width: 0
XAxis mode: Wavelengths
Number of Pixels in Spectrum: 2048
>>>>>Begin Spectral Data<<<<<
341.393	-7.1
341.776	-7.1
342.16	-7.1
342.543	-54.11
342.927	-85.07
343.31	-81.23
343.693	-61.57
344.077	-71.28
344.46	-46.2
344.843	-41.23
345.226	-35.58
345.61	-40.32
345.993	-39.19
346.376	-3.49
346.759	27.47
347.142	11.43
347.525	35.83
347.908	61.37
348.291	79.67
348.674	97.07
349.057	107.24
349.44	120.8
349.823	134.81
350.206	158.09
350.588	226.34
350.971	223.85
351.354	259.56
351.737	271.08
352.119	307.24
352.502	285.09
352.884	309.95
353.267	307.92
353.65	327.35
354.032	342.72
354.414	331.64
354.797	335.94
355.179	332.77
355.562	352.66
355.944	372.09
356.326	336.39
356.709	335.94
357.091	365.99
357.473	380.91
357.855	382.49
358.238	389.95
358.62	372.77
359.002	365.09
359.384	375.26
359.766	381.81
360.148	380.23
360.53	380.91
360.912	351.98
361.294	380.23
361.676	386.33
362.057	364.19
362.439	355.6
362.821	351.08
363.203	360.34
363.584	333.23
363.966	358.76
364.348	366.67
364.729	367.58
365.111	341.36
365.493	358.31
365.874	355.6
366.256	364.86
366.637	354.47
367.019	381.13
367.4	345.2
367.781	374.13
368.163	344.52
368.544	349.72
368.925	351.98
369.306	362.6
369.688	361.25
370.069	366.22
370.45	363.51
370.831	349.27
371.212	352.66
371.593	375.94
371.974	345.65
372.355	386.56
372.736	363.96
373.117	367.12
373.498	364.19
373.879	365.54
374.26	360.12
374.641	373.9
375.021	344.75
375.402	389.95
375.783	382.72
376.163	387.69
376.544	379.78
376.925	358.54
377.305	382.94
377.686	373.45
378.066	384.07
378.447	373.68
378.827	389.27
379.208	397.18
379.588	384.75
379.968	410.29
380.349	400.12
380.729	408.25
381.109	384.52
381.489	405.31
381.87	412.09
382.25	426.56
382.63	415.26
383.01	420.68
383.39	412.77
383.77	423.17
384.15	445.09
384.53	419.1
384.91	405.31
385.29	436.5
385.67	438.31
386.049	447.57
386.429	442.83
386.809	441.47
387.189	448.93
387.568	432.21
387.948	441.02
388.328	463.17
388.707	472.66
389.087	474.69
389.466	479.21
389.846	474.01
390.225	476.27
390.605	469.27
390.984	487.35
391.363	488.25
391.743	504.29
392.122	504.75
392.501	493.67
392.881	493.67
393.26	518.31
393.639	511.75
394.018	500.68
394.397	507.91
394.776	511.3
395.155	522.15
395.534	545.2
395.913	535.03
396.292	519.89
396.671	545.88
397.05	548.59
397.429	550.85
397.808	538.19
398.186	559.66
398.565	547.23
398.944	572.77
399.323	577.97
399.701	582.94
400.08	562.15
400.458	586.55
400.837	600.79
401.215	596.95
401.594	591.75
401.972	595.37
402.351	602.82
402.729	608.92
403.107	618.42
403.486	633.1
403.864	631.3
404.242	625.42
404.62	650.51
404.999	638.08
405.377	661.8
405.755	664.29
406.133	690.73
406.511	687.34
406.889	703.84
407.267	714.91
407.645	728.02
408.023	723.72
408.401	734.8
408.779	740.45
409.156	754.68
409.534	764.4
409.912	775.47
410.29	807.34
410.667	818.18
411.045	816.38
411.422	836.72
411.8	836.72
412.178	860.44
412.555	857.73
412.933	858.18
413.31	897.73
413.687	900.67
414.065	905.64
414.442	916.94
414.819	937.73
415.197	956.26
415.574	971.63
415.951	1004.39
416.328	956.03
416.705	974.11
417.082	1016.37
417.46	1002.81
417.837	1015.02
418.214	1036.26
418.591	1039.42
418.967	1058.18
419.344	1047.11
419.721	1098.4
420.098	1065.41
420.475	1093.66
420.852	1111.74
421.228	1117.61
421.605	1148.8
421.982	1142.24
422.358	1180.21
422.735	1192.19
423.111	1193.77
423.488	1189.7
423.864	1201.45
424.241	1217.95
424.617	1243.26
424.994	1243.26
425.37	1273.99
425.746	1267.66
426.123	1308.79
426.499	1271.51
426.875	1326.65
427.251	1391.05
427.627	1377.72
428.003	1351.73
428.379	1378.62
428.756	1406.64
429.132	1442.58
429.507	1440.77
429.883	1444.61
430.259	1466.08
430.635	1473.31
431.011	1508.34
431.387	1568.9
431.763	1579.29
432.138	1581.78
432.514	1579.97
432.89	1604.38
433.265	1640.99
433.641	1658.84
434.016	1685.05
434.392	1700.42
434.767	1763.92
435.143	1711.95
435.518	1765.5
435.894	1806.18
436.269	1812.28
436.644	1843.02
437.02	1861.77
437.395	1848.21
437.77	1894.54
438.145	1927.31
438.52	1917.36
438.895	2000.53
439.271	1938.61
439.646	2013.41
440.021	2045.95
440.395	2020.64
440.77	2032.84
441.145	2010.24
441.52	2094.99
441.895	2067.64
442.27	2106.96
442.645	2105.61
443.019	2153.52
443.394	2140.41
443.769	2163.69
444.143	2186.96
444.518	2164.14
444.892	2219.5
445.267	2218.37
445.641	2215.44
446.016	2256.34
446.39	2271.71
446.764	2281.2
447.139	2306.28
447.513	2348.09
447.887	2327.07
448.262	2320.29
448.636	2343.34
449.01	2376.56
449.384	2431.7
449.758	2385.83
450.132	2441.64
450.506	2482.32
450.88	2465.82
451.254	2507.63
451.628	2524.35
452.002	2586.95
452.376	2574.52
452.75	2620.85
453.123	2605.93
453.497	2660.17
453.871	2685.93
454.244	2794.86
454.618	2800.05
454.992	2838.24
455.365	2822.88
455.739	2886.83
456.112	2936.77
456.486	2889.99
456.859	2950.78
457.232	3040.73
457.606	3049.31
457.979	3085.7
458.352	3150.78
458.725	3186.48
459.099	3202.75
459.472	3246.6
459.845	3313.03
460.218	3324.79
460.591	3406.59
460.964	3449.3
461.337	3478.91
461.71	3502.18
462.083	3572.01
462.456	3605
462.829	3581.28
463.201	3701.27
463.574	3670.99
463.947	3746.92
464.32	3794.38
464.692	3820.37
465.065	3872.79
465.438	3950.76
465.81	3974.94
466.183	3985.33
466.555	4026.91
466.928	4094.71
467.3	4077.31
467.672	4190.75
468.045	4271.2
468.417	4245.89
468.789	4263.52
469.161	4341.48
469.534	4445.66
469.906	4470.29
470.278	4535.83
470.65	4585.32
471.022	4687.01
471.394	4721.36
471.766	4819.89
472.138	4808.36
472.51	4935.14
472.882	4994.12
473.253	5045.19
473.625	5094.23
473.997	5211.29
474.369	5258.29
474.74	5319.08
475.112	5374.9
475.484	5473.66
475.855	5606.08
476.227	5664.84
476.598	5780.77
476.97	5869.8
477.341	5929.24
477.713	6068.22
478.084	6093.3
478.455	6257.59
478.827	6301.43
479.198	6521.31
479.569	6500.97
479.94	6664.36
480.311	6726.96
480.682	6953.62
481.053	6976.44
481.424	7133.05
481.795	7208.53
482.166	7377.33
482.537	7430.21
482.908	7633.6
483.279	7736.42
483.65	7888.51
484.021	8057.77
484.391	8110.87
484.762	8287.59
485.133	8317.87
485.503	8456.4
485.874	8684.64
486.244	8786.56
486.615	8981.81
486.985	9051.64
487.356	9226.1
487.726	9365.53
488.097	9578.63
488.467	9660.44
488.837	9823.37
489.207	9997.38
489.578	10126.19
489.948	10288.67
490.318	10478.04
490.688	10524.37
491.058	10783.35
491.428	10920.29
491.798	10977.01
492.168	11284.12
492.538	11336.55
492.908	11558.69
493.278	11722.08
493.648	11750.1
494.017	11989.64
494.387	12119.13
494.757	12273.02
495.126	12404.32
495.496	12508.95
495.866	12698.55
496.235	12832.78
496.605	13025.77
496.974	13014.93
497.344	13187.35
497.713	13385.76
498.082	13505.99
498.452	13656.49
498.821	13829.37
499.19	13858.97
499.559	13945.3
499.928	14093.54
500.298	14235.69
500.667	14337.38
501.036	14425.06
501.405	14543.93
501.774	14634.77
502.143	14814.43
502.512	14919.28
502.88	15142.33
503.249	15139.39
503.618	15319.27
503.987	15422.77
504.356	15467.29
504.724	15723.78
505.093	15714.06
505.462	15825.47
505.83	15913.16
506.199	16080.83
506.567	16331.45
506.936	16340.71
507.304	16547.04
507.672	16607.15
508.041	16698.22
508.409	16916.52
508.777	16996.97
509.145	17248.71
509.514	17111.99
509.882	17247.58
510.25	17343.63
510.618	17495.49
510.986	17622.26
511.354	17810.73
511.722	17881.24
512.09	17985.87
512.458	18008.02
512.826	18185.86
513.193	18333.88
513.561	18402.58
513.929	18536.14
514.297	18652.52
514.664	18799.41
515.032	18901.78
515.4	19043.92
515.767	19033.3
516.135	19202.79
516.502	19057.93
516.869	19455.21
517.237	19558.93
517.604	19440.75
517.972	19802.32
518.339	19942.65
518.706	19981.75
519.073	19955.76
519.44	20022.88
519.808	20276.88
520.175	20259.26
520.542	20616.76
520.909	20556.87
521.276	20729.53
521.643	20928.39
522.009	21060.82
522.376	21182.4
522.743	21221.26
523.11	21541.26
523.477	21691.76
523.843	21736.73
524.21	21934.01
524.577	22166.78
524.943	22152.09
525.31	22310.5
525.676	22397.73
526.043	22626.42
526.409	22757.95
526.776	22939.18
527.142	22956.13
527.508	23087.2
527.874	23284.94
528.241	23343.02
528.607	23392.05
528.973	23660.3
529.339	23571.71
529.705	23934.64
530.071	24014.41
530.437	24154.97
530.803	24243.11
531.169	24281.52
531.535	24331.24
531.901	24395.19
532.267	24506.6
532.632	24625.92
532.998	24627.28
533.364	24790.44
533.73	24802.64
534.095	24994.95
534.461	24876.76
534.826	25025.91
535.192	25107.49
535.557	25221.84
535.923	25110.88
536.288	25360.82
536.653	25426.13
537.019	25416.63
537.384	25358.56
537.749	25436.07
538.114	25590.64
538.479	25483.98
538.845	25678.32
539.21	25420.48
539.575	25556.52
539.94	25687.36
540.305	25813.69
540.67	25691.65
541.034	25715.38
541.399	25772.1
541.764	25790.64
542.129	25837.41
542.494	25827.24
542.858	25810.52
543.223	25810.97
543.587	25996.96
543.952	25781.6
544.316	25965.32
544.681	25866.57
545.045	25952.21
545.41	26007.58
545.774	25905.89
546.138	25923.51
546.503	25995.6
546.867	25855.72
547.231	26087.8
547.595	26054.81
547.959	26048.71
548.324	26050.97
548.688	25967.35
549.052	26121.93
549.416	26046.9
549.779	25975.49
550.143	26049.61
550.507	26120.57
550.871	26084.41
551.235	26151.98
551.599	26291.19
551.962	26305.88
552.326	26216.61
552.689	26128.48
553.053	26128.48
553.417	26093.68
553.78	26396.72
554.143	26256.39
554.507	26249.61
554.87	26296.38
555.234	26502.26
555.597	26285.54
555.96	26256.61
556.323	26355.37
556.686	26222.04
557.05	26441.92
557.413	26423.39
557.776	26336.61
558.139	26353.78
558.502	26519.66
558.865	26349.72
559.228	26538.86
559.59	26617.51
559.953	26554.01
560.316	26766.43
560.679	26750.16
561.041	26835.81
561.404	26934.11
561.767	26985.41
562.129	26937.27
562.492	27100.43
562.854	26902.92
563.217	27063.37
563.579	27168.45
563.941	27283.93
564.304	27231.5
564.666	27508.78
565.028	27404.15
565.39	27516.01
565.753	27569.8
566.115	27588.55
566.477	27699.29
566.839	27677.14
567.201	28018.15
567.563	27944.93
567.925	28079.39
568.287	28100.41
568.648	28093.17
569.01	28299.72
569.372	28488.87
569.734	28414.07
570.095	28499.94
570.457	28710.33
570.819	28759.37
571.18	28674.18
571.542	28889.54
571.903	28887.05
572.265	29079.59
572.626	29104.45
572.987	29103.09
573.349	29296.31
573.71	29238.23
574.071	29475.51
574.432	29423.31
574.794	29778.55
575.155	29668.73
575.516	29623.08
575.877	29767.48
576.238	29872.34
576.599	30064.42
576.96	30064.2
577.32	30116.17
577.681	30201.37
578.042	30338.31
578.403	30392.55
578.763	30342.83
579.124	30439.33
579.485	30757.96
579.845	30747.57
580.206	30724.74
580.566	30726.32
580.927	30760.45
581.287	30811.29
581.648	30856.72
582.008	31188.46
582.368	31158.18
582.728	31181.45
583.089	31195.47
583.449	31079.54
583.809	31278.17
584.169	31283.15
584.529	31318.4
584.889	31568.34
585.249	31520.88
585.609	31240.44
585.969	31657.83
586.329	31505.97
586.688	31544.61
587.048	31724.72
587.408	31667.77
587.768	31667.32
588.127	31634.32
588.487	31717.26
588.846	32029.34
589.206	31761.33
589.565	31869.8
589.925	32011.04
590.284	32089
590.643	32163.58
591.003	32210.58
591.362	32430.46
591.721	32402.89
592.08	32386.62
592.44	32588.87
592.799	32533.06
593.158	32569.21
593.517	32474.53
593.876	32582.77
594.235	32590.91
594.593	32759.94
594.952	32798.81
595.311	32734.18
595.67	32797.23
596.029	33029.32
596.387	33004.23
596.746	33194.73
597.104	33057.34
597.463	33185.47
597.822	33290.33
598.18	33309.08
598.538	33338.46
598.897	33585.01
599.255	33345.47
599.613	33771.22
599.972	33506.82
600.33	33692.57
600.688	33620.49
601.046	33706.36
601.404	33904.77
601.762	33887.6
602.12	33997.88
602.478	34036.97
602.836	34078.78
603.194	34006.46
603.552	34074.49
603.91	34114.48
604.268	34222.73
604.625	34151.32
604.983	34343.18
605.341	34246.91
605.698	34521.03
606.056	34629.27
606.413	34485.77
606.771	34749.95
607.128	34768.7
607.485	34704.98
607.843	34787.01
608.2	34881.92
608.557	34945.87
608.914	34917.4
609.272	35125.76
609.629	35191.97
609.986	35365.52
610.343	35302.02
610.7	35576.59
611.057	35482.13
611.414	35323.49
611.771	35630.83
612.127	35796.02
612.484	35711.28
612.841	35851.84
613.198	35752.18
613.554	35790.82
613.911	36016.81
614.267	35914.89
614.624	36056.81
614.98	36061.33
615.337	36250.93
615.693	36263.13
616.05	36365.5
616.406	36476.46
616.762	36347.42
617.118	36362.33
617.475	36264.71
617.831	36501.54
618.187	36581.31
618.543	36715.09
618.899	36884.13
619.255	36814.75
619.611	36645.04
619.967	36956.67
620.323	37122.31
620.678	36902.21
621.034	36871.93
621.39	36873.73
621.746	36861.53
622.101	37409.76
622.457	36915.54
622.812	37141.07
623.168	37231.01
623.523	37191.24
623.879	37378.13
624.234	37017.46
624.589	37262.2
624.945	37332.48
625.3	37457.9
625.655	37325.25
626.01	37291.12
626.365	37406.38
626.72	37281.18
627.075	37107.63
627.43	37290.45
627.785	37408.64
628.14	37352.14
628.495	37374.96
628.85	37409.09
629.205	37370.9
629.559	37412.02
629.914	37299.49
630.269	37292.48
630.623	37094.07
630.978	37167.29
631.332	37373.61
631.687	37271.69
632.041	37269.88
632.396	37222.2
632.75	37322.54
633.104	37140.62
633.459	37007.74
633.813	37110.79
634.167	37031.47
634.521	36894.75
634.875	36969.55
635.229	36903.79
635.583	36854.3
635.937	36775.66
636.291	36691.59
636.645	36750.35
636.999	36615.89
637.352	36604.81
637.706	36585.15
638.06	36821.08
638.413	36642.55
638.767	36506.06
639.121	36640.75
639.474	36294.31
639.828	36338.61
640.181	36382
640.534	36363.24
640.888	36231.94
641.241	36108.33
641.594	36360.53
641.947	36379.51
642.301	36180.42
642.654	36205.95
643.007	36218.61
643.36	36235.78
643.713	36183.13
644.066	36346.52
644.419	36081.89
644.771	35711.5
645.124	35412.53
645.477	35410.5
645.83	35268.35
646.182	35349.48
646.535	35150.84
646.888	35395.81
647.24	35217.05
647.593	35420.89
647.945	35239.65
648.298	35114.46
648.65	35089.37
649.002	34911.53
649.355	34931.19
649.707	34772.32
650.059	34812.55
650.411	35332.08
650.763	35559.87
651.115	36031.5
651.467	35902.23
651.819	35979.75
652.171	35751.28
652.523	35866.08
652.875	36107.43
653.227	35835.8
653.578	36189.68
653.93	36048.67
654.282	35756.7
654.633	35704.05
654.985	35795.8
655.337	35931.16
655.688	35944.72
656.039	36109.46
656.391	35796.47
656.742	35900.65
657.094	35911.73
657.445	36031.5
657.796	36080.99
658.147	36059.29
658.498	36134.54
658.849	36123.02
659.2	36110.59
659.551	36022.23
659.902	36330.92
660.253	36154.66
660.604	36296.35
660.955	36123.92
661.306	36297.93
661.656	36165.5
662.007	36257.7
662.358	36307.2
662.708	36436.46
663.059	36239.17
663.409	36256.12
663.76	36364.82
664.11	36318.72
664.461	36447.76
664.811	36404.37
665.161	36468.32
665.511	36373.86
665.862	36417.47
666.212	36518.94
666.562	36482.78
666.912	36432.39
667.262	36370.02
667.612	36377.48
667.962	36415.21
668.312	36426.51
668.662	36639.16
669.011	36571.82
669.361	36491.15
669.711	36595.32
670.06	36564.82
670.41	36394.88
670.76	36399.62
671.109	36549.22
671.459	36314.43
671.808	36411.83
672.157	36364.37
672.507	36156.24
672.856	36164.15
673.205	36236.69
673.554	36258.16
673.904	36261.32
674.253	36363.46
674.602	36227.42
674.951	35821.78
675.3	35465.41
675.649	36199.85
675.998	36111.27
676.346	36119.4
676.695	36230.81
677.044	36022.68
677.393	35934.1
677.741	35926.64
678.09	36001.89
678.438	35906.53
678.787	35960.99
679.135	35870.37
679.484	35600.55
679.832	35862.24
680.181	35598.29
680.529	35596.93
680.877	35644.61
681.225	35459.76
681.573	35853.2
681.922	35498.63
682.27	35351.51
682.618	35426.77
682.966	35459.99
683.314	35478.52
683.661	35271.29
684.009	35167.11
684.357	34945.87
684.705	34883.28
685.053	34897.29
685.4	34712.43
685.748	34697.97
686.095	34662.72
686.443	34453.91
686.79	34470.63
687.138	34563.29
687.485	34366
687.832	34225.67
688.18	34259.11
688.527	34162.17
688.874	34032
689.221	33848.73
689.568	33681.5
689.915	33636.53
690.262	33705.23
690.609	33565.57
690.956	33385.01
691.303	33420.27
691.65	33123.32
691.997	33085.13
692.344	33009.65
692.69	32806.95
693.037	32890.79
693.383	32535.32
693.73	32568.31
694.077	32308.88
694.423	32317.47
694.769	32193.18
695.116	32078.15
695.462	31923.81
695.808	31785.96
696.155	31937.37
696.501	31411.96
696.847	31583.48
697.193	31387.1
697.539	31247.22
697.885	30964.51
698.231	31016.94
698.577	30850.16
698.923	30743.05
699.269	30432.55
699.614	30451.08
699.96	30424.86
700.306	30267.81
700.651	30071.65
700.997	29969.73
701.342	29924.76
701.688	29883.41
702.033	29679.8
702.379	29668.05
702.724	29515.06
703.069	29475.96
703.415	29146.93
703.76	29113.26
704.105	29062.19
704.45	28972.92
704.795	28857.45
705.14	28638.24
705.485	28760.27
705.83	28380.85
706.175	28463.79
706.52	28442.77
706.865	28257.92
707.209	28134.53
707.554	28127.3
707.899	28094.98
708.243	27962.56
708.588	27858.38
708.932	27622
709.277	27677.82
709.621	27552.17
709.966	27465.17
710.31	27502.23
710.654	27336.36
710.998	27366.64
711.342	27238.73
711.687	27177.49
712.031	27079.64
712.375	27065.18
712.719	26892.98
713.063	26968.23
713.407	27007.55
713.75	26781.8
714.094	26890.95
714.438	26788.12
714.782	26744.51
715.125	26609.14
715.469	26729.14
715.812	26513.55
716.156	26416.61
716.499	26539.32
716.843	26614.57
717.186	26420.45
717.53	26511.07
717.873	26533.44
718.216	26454.35
718.559	26414.8
718.902	26209.61
719.246	26233.79
719.589	26191.98
719.932	26132.32
720.275	26073.34
720.617	26195.82
720.96	26164.64
721.303	26256.61
721.646	26179.33
721.989	26126.22
722.331	26209.83
722.674	26233.79
723.016	26184.98
723.359	26090.74
723.701	26123.28
724.044	25970.97
724.386	25952.21
724.729	26141.59
725.071	26082.38
725.413	26049.84
725.755	26083.96
726.097	25993.12
726.439	25982.49
726.782	25902.72
727.124	26072.21
727.465	26105.66
727.807	26043.28
728.149	26152.89
728.491	25911.99
728.833	26124.41
729.175	26100.91
729.516	26084.86
729.858	26131.64
730.199	26161.93
730.541	26177.07
730.882	26121.7
731.224	26281.7
731.565	26186.78
731.906	26302.03
732.248	26283.5
732.589	26093.68
732.93	26293.67
733.271	26303.39
733.612	26311.98
733.953	26458.64
734.294	26444.18
734.635	26283.28
734.976	26643.72
735.317	26510.16
735.658	26551.07
735.999	26557.85
736.339	26581.35
736.68	26684.62
737.021	26736.37
737.361	26730.72
737.702	26947.67
738.042	26939.53
738.383	27050.72
738.723	27268.11
739.063	26977.72
739.404	27357.6
739.744	27336.81
740.084	27324.61
740.424	27347.43
740.764	27454.77
741.104	27734.09
741.444	27529.8
741.784	27596.92
742.124	27828.77
742.464	27828.32
742.804	27982.67
743.143	27895.21
743.483	28230.8
743.823	28213.4
744.162	28395.99
744.502	28552.6
744.841	28496.33
745.181	28742.87
745.52	28835.3
745.86	29072.36
746.199	28942.64
746.538	29090.21
746.877	29422.18
747.216	29650.42
747.556	29618.56
747.895	29890.19
748.234	29981.26
748.573	30111.43
748.911	30223.29
749.25	30452.89
749.589	30428.03
749.928	30648.13
750.267	30875.93
750.605	31027.56
750.944	31112.76
751.283	31373.54
751.621	31644.49
751.96	31588.9
752.298	31816.24
752.636	31983.24
752.975	32200.64
753.313	32273.4
753.651	32716.1
753.989	32854.86
754.327	33020.73
754.666	32924.46
755.004	33317.22
755.342	33321.51
755.679	33588.4
756.017	33743.65
756.355	34133.01
756.693	34237.19
757.031	34429.73
757.368	34485.1
757.706	34555.15
758.044	34784.07
758.381	34961.47
758.719	35134.12
759.056	35433.32
759.394	35346.77
759.731	35373.43
760.068	35405.07
760.405	35797.83
760.743	35689.36
761.08	35890.48
761.417	36069.91
761.754	36136.8
762.091	36276.24
762.428	36328.66
762.765	36351.04
763.102	36559.17
763.438	36682.33
763.775	36596
764.112	36817.01
764.449	36935.65
764.785	36979.04
765.122	36793.06
765.458	36818.59
765.795	36981.3
766.131	37081.19
766.467	37098.13
766.804	37033.05
767.14	37091.81
767.476	37106.27
767.812	37022.43
768.148	37365.47
768.485	37144.01
768.821	37110.11
769.157	37120.06
769.492	37126.61
769.828	37144.24
770.164	37054.52
770.5	36898.14
770.836	37047.06
771.171	36995.31
771.507	36958.93
771.842	36808.88
772.178	36816.56
772.513	36949.21
772.849	36670.8
773.184	36754.41
773.519	36770.01
773.855	36588.32
774.19	36645.27
774.525	36488.89
774.86	36513.07
775.195	36477.13
775.53	36397.59
775.865	36153.98
776.2	36037.15
776.535	35970.25
776.87	35905.4
777.205	35834.89
777.539	35726.65
777.874	35882.35
778.209	35669.7
778.543	35654.78
778.878	35433.55
779.212	35422.47
779.547	35201.24
779.881	35278.07
780.215	35004.18
780.55	35268.58
780.884	34878.08
781.218	34792.21
781.552	34989.72
781.886	34821.36
782.22	34705.43
782.554	34527.58
782.888	34247.81
783.222	34142.73
783.556	34095.73
783.889	33965.11
784.223	33919.24
784.557	33745
784.89	34000.14
785.224	33787.26
785.557	33426.37
785.891	33468.63
786.224	33395.86
786.558	33290.1
786.891	33276.31
787.224	33022.08
787.557	32757.46
787.891	32872.48
788.224	32712.94
788.557	32678.14
788.89	32676.33
789.223	32567.63
789.556	32423.68
789.888	32328.99
790.221	32155.21
790.554	32019.17
790.887	32066.85
791.219	31920.87
791.552	31951.15
791.884	31726.75
792.217	31722.91
792.549	31473.65
792.882	31208.35
793.214	31266.2
793.546	31335.8
793.879	31126.77
794.211	30880.9
794.543	31006.77
794.875	30897.17
795.207	30904.4
795.539	30717.96
795.871	30629.6
796.203	30568.81
796.535	30385.09
796.867	30442.26
797.198	30255.38
797.53	30220.12
797.862	30102.84
798.193	30049.51
798.525	29917.31
798.856	29983.29
799.188	29712.11
799.519	29586.69
799.85	29421.5
800.182	29514.38
800.513	29505.11
800.844	29129.3
801.175	29437.77
801.506	29321.62
801.837	29007.73
802.168	29129.3
802.499	29144.67
802.83	28872.59
803.161	28694.97
803.491	28791.01
803.822	28898.12
804.153	28629.2
804.483	28334.07
804.814	28378.59
805.145	28503.33
805.475	28355.77
805.805	28195.09
806.136	28254.07
806.466	28078.71
806.796	28108.54
807.126	27964.59
807.457	27909.22
807.787	27812.96
808.117	27854.99
808.447	27766.4
808.777	27835.78
809.107	27622.9
809.436	27519.18
809.766	27327.09
810.096	27447.09
810.426	27341.78
810.755	27445.51
811.085	27336.58
811.414	27271.95
811.744	27020.43
812.073	27135.46
812.403	27029.25
812.732	26796.26
813.061	27099.98
813.39	26731.4
813.719	26790.84
814.049	26884.62
814.378	26866.54
814.707	26664.74
815.036	26666.09
815.365	26481.01
815.693	26256.61
816.022	26397.85
816.351	26225.2
816.68	26128.25
817.008	26186.33
817.337	26001.25
817.665	26006.45
817.994	26078.54
818.322	26029.05
818.651	25834.25
818.979	25757.42
819.307	25832.67
819.636	25758.09
819.964	25640.13
820.292	25753.8
820.62	25768.94
820.948	25637.42
821.276	25874.93
821.604	25709.73
821.932	25862.95
822.259	25693.69
822.587	25767.59
822.915	25650.07
823.243	25725.78
823.57	25553.81
823.898	25702.05
824.225	25656.4
824.553	25635.39
824.88	25587.02
825.207	25688.72
825.535	25641.71
825.862	25853.46
826.189	25563.07
826.516	25709.51
826.843	25813.91
827.17	25708.6
827.497	25768.72
827.824	25806.45
828.151	25864.31
828.478	25790.18
828.805	25838.09
829.131	25784.31
829.458	25881.48
829.785	25573.24
830.111	25640.58
830.438	25801.93
830.764	25766.23
831.09	25840.35
831.417	25681.94
831.743	25940.46
832.069	25683.29
832.395	25706.34
832.722	25702.05
833.048	25634.03
833.374	25805.55
833.7	25519
834.026	25640.81
834.351	25663.18
834.677	25618.44
835.003	25626.8
835.329	25726.23
835.654	25497.99
835.98	25537.99
836.306	25601.26
836.631	25400.14
836.956	25629.74
837.282	25571.88
837.607	25463.41
837.932	25425.45
838.258	25465.67
838.583	25278.78
838.908	25318.56
839.233	25335.28
839.558	25175.06
839.883	25160.37
840.208	25048.96
840.533	25130.09
840.858	25001.5
841.182	25103.2
841.507	25236.53
841.832	24986.59
842.156	24902.98
842.481	24867.5
842.805	24733.26
843.13	24721.96
843.454	24735.07
843.778	24657.78
844.103	24642.64
844.427	24545.47
844.751	24497.11
845.075	24365.59
845.399	24422.54
845.723	24186.84
846.047	24447.62
846.371	24170.11
846.695	24012.83
847.019	23954.75
847.343	23888.54
847.666	23821.65
847.99	23647.19
848.313	23617.59
848.637	23569
848.96	23559.73
849.284	23440.41
849.607	23259.4
849.931	23235
850.254	23116.13
850.577	22874.1
850.9	22795.46
851.223	22816.48
851.546	22724.73
851.869	22603.15
852.192	22813.99
852.515	22408.58
852.838	22386.21
853.161	22324.74
853.483	22224.4
853.806	22230.05
854.129	22144.86
854.451	22056.5
854.774	21873.9
855.096	21848.82
855.419	21767.92
855.741	21790.74
856.063	21728.6
856.385	21623.51
856.708	21548.94
857.03	21525.66
857.352	21443.86
857.674	21379.68
857.996	21313.69
858.318	21092
858.64	21175.39
858.961	21054.71
859.283	21026.69
859.605	20860.82
859.926	20859.69
860.248	20884.32
860.57	20799.81
860.891	20803.42
861.212	20734.5
861.534	20664.22
861.855	20505.35
862.176	20629.19
862.498	20582.86
862.819	20506.71
863.14	20448.4
863.461	20444.56
863.782	20381.96
864.103	20443.88
864.424	20284.11
864.745	20374.05
865.065	20288.41
865.386	20117.79
865.707	20195.3
866.027	20158.69
866.348	20140.84
866.668	20021.3
866.989	20016.1
867.309	19758.7
867.63	19876.21
867.95	19914.86
868.27	19853.84
868.59	19826.95
868.91	19795.99
869.23	19780.4
869.55	19715.77
869.87	19785.37
870.19	19714.41
870.51	19618.59
870.83	19715.77
871.15	19493.4
871.469	19490.24
871.789	19598.03
872.109	19523.68
872.428	19374.98
872.748	19442.55
873.067	19387.19
873.386	19379.5
873.706	19353.29
874.025	19302.44
874.344	19200.75
874.663	19206.85
874.982	19220.41
875.301	19217.93
875.62	19111.49
875.939	19025.62
876.258	19045.73
876.577	19007.54
876.896	19011.83
877.214	19013.86
877.533	19015.67
877.852	18970.02
878.17	19128.66
878.489	18927.09
878.807	18836.02
879.125	18762.57
879.444	18763.48
879.762	18695.23
880.08	18772.97
880.398	18550.15
880.716	18646.64
881.034	18645.29
881.352	18605.06
881.67	18466.99
881.988	18471.73
882.306	18383.82
882.624	18512.18
882.941	18353.09
883.259	18362.13
883.577	18412.75
883.894	18235.81
884.212	18256.14
884.529	18049.82
884.846	18107
885.164	18028.58
885.481	18001.01
885.798	17984.06
886.115	17882.59
886.432	17906.1
886.75	17918.07
887.067	17843.27
887.383	17805.76
887.7	17711.98
888.017	17576.39
888.334	17683.5
888.651	17575.03
888.967	17468.59
889.284	17523.96
889.6	17436.05
889.917	17442.15
890.233	17385.43
890.55	17324.42
890.866	17357.64
891.182	17275.38
891.498	17168.94
891.815	17120.13
892.131	17028.15
892.447	17068.15
892.763	17049.17
893.079	16980.02
893.395	16883.3
893.71	16871.55
894.026	16758.1
894.342	16782.51
894.657	16576.87
894.973	16612.35
895.289	16593.36
895.604	16518.11
895.92	16456.87
896.235	16412.8
896.55	16316.31
896.865	16206.03
897.181	16302.3
897.496	16195.41
897.811	16175.52
898.126	16062.3
898.441	16079.7
898.756	16021.63
899.071	15927.39
899.386	15952.25
899.7	15790.45
900.015	15731.01
900.33	15639.04
900.644	15572.6
900.959	15674.29
901.273	15587.06
901.588	15507.52
901.902	15340.51
902.216	15401.53
902.531	15281.53
902.845	15227.75
903.159	15087.87
903.473	15078.83
903.787	14959.28
904.101	15025.95
904.415	15002.44
904.729	14827.53
905.042	14846.74
905.356	14867.98
905.67	14737.59
905.984	14724.03
906.297	14650.14
906.611	14563.13
906.924	14491.27
907.237	14447.2
907.551	14392.07
907.864	14368.34
908.177	14297.6
908.491	14233.88
908.804	14237.72
909.117	14083.6
909.43	13994.34
909.743	13998.18
910.056	13978.06
910.368	13941.68
910.681	13828.46
910.994	13760.22
911.307	13636.38
911.619	13575.14
911.932	13612.2
912.244	13421.02
912.557	13484.07
912.869	13432.77
913.181	13378.76
913.494	13292.88
913.806	13264.86
914.118	13208.37
914.43	13059.44
914.742	13112.55
915.054	13037.98
915.366	13054.25
915.678	13025.32
915.99	12845.67
916.302	12824.2
916.613	12824.65
916.925	12737.65
917.236	12693.8
917.548	12615.61
917.859	12605.9
918.171	12460.14
918.482	12428.95
918.794	12416.3
919.105	12326.81
919.416	12301.5
919.727	12266.02
920.038	12247.71
920.349	12041.39
920.66	12045.23
920.971	12011.56
921.282	11992.81
921.593	11943.32
921.903	11820.83
922.214	11853.15
922.525	11719.14
922.835	11741.06
923.146	11654.51
923.456	11622.42
923.767	11570.9
924.077	11474.4
924.387	11565.25
924.697	11437.34
925.008	11428.98
925.318	11379.71
925.628	11291.36
925.938	11300.62
926.248	11141.53
926.558	11128.2
926.867	11043.45
927.177	11075.77
927.487	10946.51
927.796	10936.11
928.106	10864.7
928.416	10831.25
928.725	10807.98
929.034	10741.54
929.344	10726.62
929.653	10769.34
929.962	10589.91
930.271	10636.23
930.581	10593.97
930.89	10512.62
931.199	10443.92
931.508	10400.08
931.817	10475.56
932.125	10402.34
932.434	10313.08
932.743	10199.63
933.051	10207.77
933.36	10184.27
933.669	10047.32
933.977	10026.3
934.286	10007.55
934.594	9948.57
934.902	9945.63
935.21	9925.74
935.519	9797.61
935.827	9768.68
936.135	9788.57
936.443	9698.18
936.751	9668.35
937.059	9658.18
937.367	9562.36
937.674	9580.44
937.982	9507
938.29	9528.46
938.597	9405.98
938.905	9397.85
939.213	9298.64
939.52	9324.85
939.827	9303.16
940.135	9268.58
940.442	9173.67
940.749	9170.73
941.056	9188.59
941.363	9119.66
941.67	9036.5
941.977	8994.24
942.284	8987.01
942.591	8909.05
942.898	8893.68
943.205	8914.69
943.511	8785.43
943.818	8752.21
944.125	8673.57
944.431	8676.74
944.738	8572.33
945.044	8649.84
945.35	8534.59
945.657	8532.11
945.963	8515.84
946.269	8433.13
946.575	8436.29
946.881	8385.67
947.187	8348.61
947.493	8321.26
947.799	8245.33
948.105	8227.48
948.41	8165.79
948.716	8199.69
949.022	8065.23
949.327	8079.46
949.633	7984.78
949.938	7999.92
950.244	8029.52
950.549	7958.34
950.854	7895.29
951.16	7892.57
951.465	7815.51
951.77	7752.92
952.075	7741.17
952.38	7775.74
952.685	7658.91
952.99	7662.52
953.294	7593.15
953.599	7568.74
953.904	7538.01
954.209	7483.09
954.513	7442.42
954.818	7509.99
955.122	7460.27
955.426	7345.92
955.731	7344.11
956.035	7322.42
956.339	7314.06
956.643	7201.52
956.948	7176.66
957.252	7200.62
957.556	7136.89
957.86	7097.79
958.163	7095.08
958.467	7122.2
958.771	7116.78
959.075	7007.4
959.378	6964.92
959.682	6898.93
959.985	6945.48
960.289	6846.27
960.592	6801.98
960.896	6811.02
961.199	6797.91
961.502	6758.37
961.805	6702.55
962.108	6696.22
962.411	6652.61
962.714	6651.7
963.017	6551.59
963.32	6603.12
963.623	6569.22
963.926	6530.12
964.228	6474.53
964.531	6465.72
964.833	6466.62
965.136	6408.77
965.438	6344.37
965.741	6282.9
966.043	6330.36
966.345	6263.47
966.648	6235.44
966.95	6325.61
967.252	6133.98
967.554	6136.69
967.856	6156.35
968.158	6111.38
968.46	6102.11
968.761	6085.84
969.063	6010.82
969.365	5987.99
969.666	5949.35
969.968	5901.67
970.269	5922.46
970.571	5875
970.872	5829.35
971.174	5877.49
971.475	5792.29
971.776	5777.38
972.077	5768.34
972.378	5750.26
972.679	5686.53
972.98	5673.2
973.281	5620.32
973.582	5648.57
973.883	5640.88
974.183	5617.83
974.484	5597.04
974.785	5482.47
975.085	5510.26
975.386	5500.1
975.686	5512.52
975.986	5416.26
976.287	5414.22
976.587	5310.5
976.887	5339.2
977.187	5337.16
977.487	5307.56
977.787	5325.86
978.087	5234.79
978.387	5242.02
978.687	5164.06
978.987	5173.32
979.286	5168.35
979.586	5177.17
979.885	5136.49
980.185	5121.35
980.484	5050.62
980.784	5016.27
981.083	5000.22
981.382	5017.62
981.682	4993.89
981.981	4977.4
982.28	4952.09
982.579	4889.94
982.878	4851.52
983.177	4841.13
983.475	4830.51
983.774	4828.25
984.073	4785.31
984.372	4783.05
984.67	4762.26
984.969	4719.55
985.267	4712.32
985.566	4678.42
985.864	4676.61
986.162	4629.61
986.461	4575.6
986.759	4595.71
987.057	4513.91
987.355	4534.7
987.653	4475.94
987.951	4485.43
988.249	4537.18
988.547	4468.48
988.844	4423.51
989.142	4398.66
989.44	4392.1
989.737	4390.75
990.035	4392.1
990.332	4374.93
990.63	4314.36
990.927	4306.45
991.224	4284.76
991.521	4279.56
991.819	4228.94
992.116	4204.99
992.413	4203.86
992.71	4162.28
993.006	4099.23
993.303	4162.73
993.6	4141.04
993.897	4063.07
994.193	4048.83
994.49	4015.84
994.787	4000.25
995.083	4010.64
995.379	3972.9
995.676	3925.22
995.972	3932.23
996.268	3944.66
996.565	3921.15
996.861	3879.8
997.157	3866.24
997.453	3800.93
997.749	3774.72
998.044	3761.84
998.34	3789.63
998.636	3755.73
998.932	3727.71
999.227	3711.44
999.523	3705.34
999.818	3676.41
1000.114	3640.71
1000.409	3625.34
1000.704	3617.66
1001	3586.02
1001.295	3516.42
1001.59	3555.06
1001.885	3539.47
1002.18	3514.61
1002.475	3491.33
1002.77	3462.41
1003.065	3425.57
1003.359	3433.71
1003.654	3379.7
1003.949	3415.63
1004.243	3387.83
1004.538	3346.48
1004.832	3305.8
1005.127	3325.69
1005.421	3274.84
1005.715	3273.26
1006.009	3274.84
1006.304	3248.18
1006.598	3215.64
1006.892	3208.18
1007.186	3165.24
1007.48	3129.54
1007.773	3095.64
1008.067	3133.38
1008.361	3068.97
1008.655	3071.68
1008.948	3035.53
1009.242	3082.76
1009.535	3074.85
1009.829	2991.46
1010.122	3000.73
1010.415	2979.94
1010.708	2950.78
1011.001	2918.69
1011.295	2916.66
1011.588	2885.25
1011.881	2877.11
1012.173	2861.52
1012.466	2862.2
1012.759	2827.17
1013.052	2826.04
1013.344	2817.91
1013.637	2803.9
1013.93	2714.86
1014.222	2766.16
1014.514	2746.04
1014.807	2725.03
1015.099	2669.44
1015.391	2675.99
1015.683	2675.09
1015.976	2629.66
1016.268	2602.32
1016.56	2558.48
1016.851	2576.33
1017.143	2554.18
1017.435	2560.74
1017.727	2536.11
1018.018	2503.56
1018.31	2496.78
1018.602	2496.78
1018.893	2444.36
1019.185	2435.54
1019.476	2401.19
1019.767	2409.1
1020.058	2396.67
1020.35	2372.95
1020.641	2364.13
1020.932	2335.88
1021.223	2326.17
1021.514	2341.31
1021.804	2288.43
1022.095	2282.78
1022.386	2277.13
1022.677	2224.7
1022.967	2212.05
1023.258	2202.56
1023.548	2167.53
1023.839	2175.44
1024.129	2139.28
1024.419	2182.22
1024.709	2116.91
1025	2114.87
1025.29	2100.86
1025.58	2084.82
1025.87	2077.13
1026.16	2031.71
1026.449	2040.3
1026.739	2024.71
1027.029	2017.93
1027.319	1977.25
1027.608	2015.67
1027.898	1974.99
1028.187	1914.2
1028.477	1966.18
1028.766	1934.54
1029.055	1910.13
1029.344	1919.4
1029.634	1880.76
1029.923	1857.93
1030.212	1864.48
1030.501	1831.04
1030.79	1835.79
1031.078	1794.2
1031.367	1814.77
1031.656	1756.01
1031.945	1824.26
1032.233	1789.68
1032.522	1768.22
1032.81	1737.71
1033.099	1713.08
1033.387	1710.14
1033.675	1696.58
1033.963	1694.09
1034.251	1694.55
1034.54	1640.99
1034.828	1651.38
1035.116	1641.89
1035.403	1643.02
1035.691	1624.27
1035.979	1575.68
1036.267	1577.26
1036.554	1562.8
1036.842	1563.02
1037.129	1600.99
1037.417	1545.62
1037.704	1558.05
1037.992	1522.12
1038.279	1517.15
1038.566	1485.06
1038.853	1485.06
1039.14	1485.06
