Data from 15-5210_FLMS001491_005.txt Node
Date: Thu Apr 19 16:48:22 BST 2018
User: hsy
Spectrometer: FLMS00149
Trigger mode: 0
Integration Time (sec): 1.000000E-2
Scans to average: 10
Electric dark correction enabled: true
Nonlinearity correction enabled: false
Boxcar width: 0
XAxis mode: Wavelengths
Number of Pixels in Spectrum: 2048
>>>>>Begin Spectral Data<<<<<
341.393	-0.16
341.776	-0.16
342.16	-0.16
342.543	-58.46
342.927	-74.73
343.31	-89.42
343.693	-69.98
344.077	-69.08
344.46	-39.48
344.843	-72.7
345.226	-54.84
345.61	-45.35
345.993	-30.89
346.376	13.18
346.759	9.11
347.142	23.8
347.525	51.59
347.908	68.32
348.291	90.24
348.674	101.76
349.057	113.74
349.44	132.95
349.823	138.82
350.206	181.08
350.588	211.82
350.971	237.8
351.354	250.23
351.737	263.34
352.119	282.78
352.502	295.43
352.884	312.15
353.267	319.16
353.65	324.81
354.032	321.42
354.414	338.82
354.797	347.41
355.179	346.5
355.562	345.37
355.944	373.85
356.326	372.04
356.709	392.83
357.091	373.85
357.473	383.56
357.855	361.87
358.238	386.95
358.62	382.43
359.002	374.07
359.384	382.43
359.766	362.09
360.148	394.64
360.53	399.83
360.912	367.97
361.294	377.46
361.676	367.74
362.057	344.02
362.439	373.17
362.821	372.26
363.203	372.04
363.584	346.5
363.966	365.48
364.348	364.13
364.729	356.9
365.111	360.74
365.493	372.94
365.874	356.9
366.256	372.26
366.637	359.38
367.019	359.16
367.4	381.08
367.781	348.54
368.163	347.63
368.544	358.71
368.925	351.93
369.306	365.71
369.688	358.48
370.069	355.77
370.45	370.68
370.831	360.06
371.212	353.96
371.593	377.46
371.974	341.76
372.355	386.95
372.736	357.35
373.117	368.87
373.498	389.89
373.879	367.29
374.26	389.66
374.641	367.29
375.021	358.03
375.402	386.05
375.783	377.69
376.163	415.43
376.544	398.03
376.925	391.7
377.305	398.48
377.686	389.21
378.066	405.71
378.447	405.26
378.827	373.85
379.208	421.08
379.588	405.94
379.968	402.77
380.349	391.7
380.729	408.2
381.109	412.94
381.489	423.11
381.87	400.29
382.25	429.44
382.63	425.37
383.01	421.75
383.39	436.9
383.77	425.82
384.15	427.63
384.53	436.22
384.91	431.47
385.29	445.71
385.67	448.19
386.049	443.22
386.429	461.08
386.809	437.57
387.189	443.9
387.568	445.71
387.948	439.16
388.328	468.76
388.707	483.67
389.087	464.24
389.466	479.83
389.846	470.34
390.225	484.8
390.605	490.23
390.984	472.37
391.363	488.87
391.743	499.72
392.122	519.83
392.501	515.31
392.881	514.63
393.26	498.36
393.639	522.09
394.018	542.2
394.397	538.81
394.776	509.44
395.155	543.11
395.534	533.62
395.913	539.27
396.292	551.69
396.671	548.76
397.05	540.17
397.429	560.28
397.808	561.64
398.186	573.84
398.565	568.42
398.944	567.29
399.323	603.22
399.701	583.56
400.08	577.23
400.458	618.81
400.837	616.78
401.215	641.86
401.594	615.42
401.972	632.82
402.351	629.21
402.729	640.73
403.107	606.16
403.486	629.66
403.864	642.54
404.242	645.93
404.62	648.19
404.999	660.17
405.377	676.21
405.755	704.68
406.133	690.9
406.511	718.92
406.889	726.83
407.267	705.36
407.645	727.28
408.023	746.94
408.401	745.36
408.779	773.61
409.156	777.68
409.534	766.6
409.912	785.36
410.29	792.59
410.667	829.88
411.045	830.33
411.422	861.06
411.8	865.13
412.178	880.05
412.555	864.23
412.933	892.25
413.31	881.4
413.687	927.05
414.065	937.45
414.442	948.75
414.819	933.15
415.197	962.76
415.574	980.84
415.951	994.17
416.328	1004.11
416.705	1006.37
417.082	1016.32
417.46	1033.72
417.837	1032.81
418.214	1055.41
418.591	1068.97
418.967	1079.82
419.344	1106.71
419.721	1111.68
420.098	1108.29
420.475	1113.26
420.852	1143.54
421.228	1134.5
421.605	1156.65
421.982	1175.63
422.358	1177.44
422.735	1189.19
423.111	1174.95
423.488	1215.86
423.864	1236.65
424.241	1233.03
424.617	1245.01
424.994	1267.61
425.37	1319.36
425.746	1294.73
426.123	1320.94
426.499	1304.22
426.875	1339.24
427.251	1351
427.627	1396.42
428.003	1401.84
428.379	1424.67
428.756	1447.94
429.132	1477.32
429.507	1446.81
429.883	1500.6
430.259	1498.79
430.635	1543.98
431.011	1554.83
431.387	1564.1
431.763	1607.71
432.138	1624.43
432.514	1631.89
432.89	1689.74
433.265	1687.48
433.641	1720.7
434.016	1705.79
434.392	1752.34
434.767	1766.58
435.143	1766.13
435.518	1829.4
435.894	1838.21
436.269	1882.28
436.644	1911.43
437.02	1915.05
437.395	1937.65
437.77	1943.97
438.145	1985.78
438.52	1975.39
438.895	2027.59
439.271	1992.79
439.646	2060.81
440.021	2051.54
440.395	2103.07
440.77	2069.17
441.145	2144.87
441.52	2185.55
441.895	2195.95
442.27	2176.96
442.645	2199.11
443.019	2218.09
443.394	2212.67
443.769	2232.55
444.143	2200.46
444.518	2251.31
444.892	2284.98
445.267	2275.72
445.641	2308.94
446.016	2339.44
446.39	2389.39
446.764	2358.2
447.139	2358.43
447.513	2378.54
447.887	2398.2
448.262	2422.61
448.636	2422.61
449.01	2473.9
449.384	2486.11
449.758	2510.51
450.132	2514.13
450.506	2567.23
450.88	2555.94
451.254	2569.95
451.628	2622.83
452.002	2623.28
452.376	2666.22
452.75	2704.86
453.123	2712.32
453.497	2781.69
453.871	2767.23
454.244	2851.75
454.618	2840.45
454.992	2892.65
455.365	2911.18
455.739	2975.81
456.112	3042.48
456.486	3049.48
456.859	3078.63
457.232	3125.19
457.606	3125.64
457.979	3153.21
458.352	3280.44
458.725	3300.1
459.099	3342.58
459.472	3381
459.845	3424.61
460.218	3430.04
460.591	3488.79
460.964	3546.87
461.337	3592.29
461.71	3657.6
462.083	3655.12
462.456	3702.8
462.829	3692.63
463.201	3794.1
463.574	3790.93
463.947	3854.66
464.32	3924.71
464.692	3930.36
465.065	3974.88
465.438	4001.77
465.81	4065.73
466.183	4110.7
466.555	4193.63
466.928	4239.96
467.3	4238.15
467.672	4312.95
468.045	4359.96
468.417	4387.98
468.789	4434.08
469.161	4510.01
469.534	4525.15
469.906	4657.8
470.278	4690.79
470.65	4740.96
471.022	4799.27
471.394	4900.05
471.766	4929.66
472.138	4999.04
472.51	5129.88
472.882	5161.74
473.253	5142.08
473.625	5257.11
473.997	5401.74
474.369	5408.06
474.74	5479.93
475.112	5616.42
475.484	5658.68
475.855	5739.13
476.227	5778.22
476.598	5893.02
476.97	6059.57
477.341	6173.02
477.713	6260.47
478.084	6319
478.455	6453.69
478.827	6520.8
479.198	6655.26
479.569	6732.1
479.94	6901.81
480.311	6934.13
480.682	7115.59
481.053	7257.51
481.424	7372.76
481.795	7522.81
482.166	7608.91
482.537	7722.58
482.908	7861.11
483.279	7965.51
483.65	8149.69
484.021	8275.33
484.391	8388.55
484.762	8518.94
485.133	8683.23
485.503	8768.43
485.874	8945.37
486.244	9036.67
486.615	9235.53
486.985	9423.1
487.356	9565.02
487.726	9659.48
488.097	9861.51
488.467	9947.83
488.837	10162.74
489.207	10278.67
489.578	10417.65
489.948	10604.09
490.318	10707.36
490.688	10790.3
491.058	11040.91
491.428	11262.15
491.798	11387.79
492.168	11675.02
492.538	11728.58
492.908	11911.17
493.278	12012.18
493.648	12211.5
494.017	12367.88
494.387	12502.34
494.757	12556.8
495.126	12719.28
495.496	12858.04
495.866	13026.17
496.235	13170.35
496.605	13320.4
496.974	13440.85
497.344	13572.6
497.713	13725.59
498.082	13886.03
498.452	13945.69
498.821	14158.57
499.19	14220.04
499.559	14408.05
499.928	14532.12
500.298	14608.5
500.667	14787.93
501.036	14703.41
501.405	15009.85
501.774	14996.51
502.143	15238.77
502.512	15384.3
502.88	15506.56
503.249	15520.34
503.618	15648.47
503.987	15789.71
504.356	16001.01
504.724	16010.05
505.093	16186.54
505.462	16259.08
505.83	16420.2
506.199	16510.37
506.567	16679.18
506.936	16680.31
507.304	16985.39
507.672	17020.64
508.041	17178.15
508.409	17242.78
508.777	17417.69
509.145	17637.57
509.514	17626.73
509.882	17789.66
510.25	17862.43
510.618	18017
510.986	17991.24
511.354	18173.6
511.722	18409.3
512.09	18505.57
512.458	18416.99
512.826	18739.92
513.193	18877.77
513.561	18892.23
513.929	18981.94
514.297	19135.61
514.664	19224.2
515.032	19372.89
515.4	19431.88
515.767	19503.51
516.135	19646.33
516.502	19557.3
516.869	19921.58
517.237	20071.18
517.604	19963.61
517.972	20280.67
518.339	20286.77
518.706	20322.02
519.073	20441.12
519.44	20619.87
519.808	20735.8
520.175	20838.84
520.542	21002.68
520.909	21155.9
521.276	21264.37
521.643	21540.97
522.009	21593.4
522.376	21709.1
522.743	21828.42
523.11	22039.27
523.477	22104.12
523.843	22237.23
524.21	22567.16
524.577	22611.68
524.943	22719.93
525.31	22807.15
525.676	23073.81
526.043	23206.92
526.409	23257.76
526.776	23440.36
527.142	23578.21
527.508	23642.39
527.874	23826.56
528.241	23867.01
528.607	23943.85
528.973	24215.25
529.339	24267.23
529.705	24423.38
530.071	24507.9
530.437	24667.9
530.803	24714.9
531.169	24886.87
531.535	24914.67
531.901	25003.48
532.267	25024.5
532.632	25245.96
532.998	25359.86
533.364	25427.65
533.73	25457.71
534.095	25638.49
534.461	25653.18
534.826	25804.59
535.192	25818.83
535.557	25955.55
535.923	25852.72
536.288	26074.87
536.653	26003.91
537.019	26067.18
537.384	26090.46
537.749	26149.44
538.114	26134.75
538.479	26160.06
538.845	26216.78
539.21	26133.85
539.575	26205.94
539.94	26308.76
540.305	26419.04
540.67	26267.4
541.034	26402.77
541.399	26327.51
541.764	26306.95
542.129	26449.77
542.494	26431.47
542.858	26418.13
543.223	26450.9
543.587	26618.58
543.952	26490.9
544.316	26631.91
544.681	26549.88
545.045	26625.59
545.41	26697
545.774	26511.01
546.138	26621.97
546.503	26707.62
546.867	26684.57
547.231	26724.79
547.595	26703.32
547.959	26709.65
548.324	26646.15
548.688	26677.34
549.052	26627.17
549.416	26742.64
549.779	26711.91
550.143	26750.55
550.507	26740.61
550.871	26733.83
551.235	26743.1
551.599	26910.55
551.962	26772.7
552.326	26791.46
552.689	26843.21
553.053	26727.5
553.417	26824.68
553.78	27017.67
554.143	26985.58
554.507	26933.37
554.87	26925.46
555.234	27186.02
555.597	26923.88
555.96	26963.2
556.323	27104.44
556.686	26949.64
557.05	27138.57
557.413	27147.61
557.776	27075.29
558.139	27326.36
558.502	27171.56
558.865	27132.24
559.228	27233.93
559.59	27291.1
559.953	27306.02
560.316	27462.4
560.679	27454.72
561.041	27477.31
561.404	27633.92
561.767	27728.61
562.129	27479.12
562.492	27683.64
562.854	27694.26
563.217	27700.81
563.579	27979.45
563.941	27941.26
564.304	27953.01
564.666	28222.61
565.028	28023.74
565.39	28146
565.753	28332.88
566.115	28268.48
566.477	28389.83
566.839	28399.32
567.201	28724.51
567.563	28584.86
567.925	28703.72
568.287	28709.6
568.648	28799.77
569.01	28999.08
569.372	29141.23
569.734	29136.93
570.095	29309.58
570.457	29387.32
570.819	29381.9
571.18	29368.11
571.542	29480.2
571.903	29497.83
572.265	29711.83
572.626	29804.48
572.987	29786.63
573.349	29895.78
573.71	30023.24
574.071	30204.7
574.432	30175.77
574.794	30401.08
575.155	30409.21
575.516	30442.43
575.877	30620.51
576.238	30611.24
576.599	30583.45
576.96	30694.18
577.32	30794.74
577.681	30865.25
578.042	31143.21
578.403	31126.26
578.763	31232.7
579.124	31176.43
579.485	31302.52
579.845	31344.11
580.206	31367.16
580.566	31296.2
580.927	31432.46
581.287	31484.89
581.648	31536.87
582.008	31634.04
582.368	31707.94
582.728	31740.25
583.089	31764.43
583.449	31833.36
583.809	31801.49
584.169	32048.49
584.529	32006.91
584.889	32258.21
585.249	32067.93
585.609	31858.89
585.969	32292.78
586.329	32098.89
586.688	32352.67
587.048	32390.41
587.408	32355.38
587.768	32346.11
588.127	32551.08
588.487	32458.43
588.846	32686.89
589.206	32413.91
589.565	32492.55
589.925	32788.81
590.284	32738.87
590.643	32795.59
591.003	32911.07
591.362	33017.73
591.721	33049.82
592.08	32838.76
592.44	33319.87
592.799	33164.17
593.158	33216.82
593.517	33157.39
593.876	33335.01
594.235	33370.27
594.593	33298.4
594.952	33540.43
595.311	33421.34
595.67	33500.43
596.029	33672.63
596.387	33920.99
596.746	33932.29
597.104	33834.89
597.463	33754.44
597.822	33967.31
598.18	33902.91
598.538	34040.98
598.897	34112.85
599.255	34016.8
599.613	34287.3
599.972	34290.24
600.33	34290.92
600.688	34236.91
601.046	34387.64
601.404	34560.74
601.762	34452.5
602.12	34613.62
602.478	34713.28
602.836	34755.09
603.194	34576.79
603.552	34709.21
603.91	34638.03
604.268	34904.24
604.625	34905.14
604.983	35012.48
605.341	34782.66
605.698	35094.97
606.056	35277.11
606.413	35059.49
606.771	35376.32
607.128	35273.27
607.485	35246.6
607.843	35219.71
608.2	35360.72
608.557	35513.04
608.914	35470.1
609.272	35699.47
609.629	35887.04
609.986	35809.3
610.343	35835.29
610.7	36088.39
611.057	36038.67
611.414	36045.22
611.771	36116.18
612.127	36217.65
612.484	36252
612.841	36468.94
613.198	36339.45
613.554	36274.37
613.911	36609.5
614.267	36619.9
614.624	36543.06
614.98	36679.11
615.337	36904.41
615.693	36881.13
616.05	36915.03
616.406	37105.31
616.762	36941.02
617.118	36995.93
617.475	36993.22
617.831	37263.95
618.187	37310.05
618.543	37327.22
618.899	37490.38
619.255	37483.15
619.611	37341.24
619.967	37598.18
620.323	37633.21
620.678	37712.75
621.034	37550.04
621.39	37565.41
621.746	37680.89
622.101	38142.12
622.457	37762.02
622.812	37924.05
623.168	37900.77
623.523	37952.97
623.879	38014.44
624.234	37769.25
624.589	38029.58
624.945	37956.59
625.3	37990.03
625.655	38032.74
626.01	38062.35
626.365	38091.72
626.72	37996.36
627.075	37940.32
627.43	38046.08
627.785	38124.04
628.14	37970.15
628.495	38029.81
628.85	37909.36
629.205	37903.71
629.559	38047.66
629.914	37948.9
630.269	37954.78
630.623	37581
630.978	37747.78
631.332	38020.54
631.687	38128.33
632.041	37923.59
632.396	37929.69
632.75	37719.76
633.104	37875.01
633.459	37683.6
633.813	37741.45
634.167	37725.18
634.521	37709.59
634.875	37723.37
635.229	37535.81
635.583	37376.04
635.937	37384.4
636.291	37434.57
636.645	37326.09
636.999	37157.51
637.352	37363.38
637.706	37073.67
638.06	37164.29
638.413	37139.66
638.767	37084.29
639.121	37143.27
639.474	37073.45
639.828	36992.09
640.181	36945.54
640.534	37045.88
640.888	36897.86
641.241	36730.18
641.594	36753.45
641.947	37004.97
642.301	36840.01
642.654	36992.09
643.007	36932.43
643.36	36903.96
643.713	36833.45
644.066	36859.67
644.419	36846.79
644.771	36476.4
645.124	36113.25
645.477	35936.07
645.83	35942.63
646.182	35897.88
646.535	35826.25
646.888	36072.57
647.24	35769.75
647.593	36047.03
647.945	35874.16
648.298	35805.68
648.65	35628.29
649.002	35433.49
649.355	35501.51
649.707	35340.61
650.059	35468.52
650.411	35947.15
650.763	36218.55
651.115	36664.64
651.467	36499.45
651.819	36489.05
652.171	36367.7
652.523	36356.18
652.875	36581.03
653.227	36445.21
653.578	36640.46
653.93	36573.8
654.282	36501.71
654.633	36395.72
654.985	36485.21
655.337	36626.68
655.688	36484.99
656.039	36700.8
656.391	36197.31
656.742	36471.43
657.094	36474.14
657.445	36631.65
657.796	36594.14
658.147	36570.86
658.498	36659.67
658.849	36806.56
659.2	36586.68
659.551	36639.79
659.902	36836.62
660.253	36715.49
660.604	36881.13
660.955	36750.06
661.306	36960.45
661.656	36845.66
662.007	36822.15
662.358	36926.78
662.708	36999.78
663.059	36902.38
663.409	36688.6
663.76	37038.64
664.11	37040
664.461	36961.36
664.811	37061.92
665.161	37016.95
665.511	36933.56
665.862	37151.18
666.212	37054.46
666.562	37182.37
666.912	37079.77
667.262	37087.01
667.612	37047.01
667.962	37041.81
668.312	37009.27
668.662	37297.4
669.011	37120
669.361	37109.38
669.711	37198.41
670.06	37017.63
670.41	37044.52
670.76	37000
671.109	37064.86
671.459	36978.99
671.808	37051.07
672.157	37099.43
672.507	36883.39
672.856	36893.56
673.205	36928.14
673.554	36938.53
673.904	36830.74
674.253	37030.74
674.602	36787.35
674.951	36427.14
675.3	36179.23
675.649	36757.52
675.998	36747.13
676.346	36549.17
676.695	36774.7
677.044	36550.75
677.393	36584.42
677.741	36777.63
678.09	36531.77
678.438	36452.9
678.787	36520.92
679.135	36456.97
679.484	36265.33
679.832	36491.54
680.181	36253.81
680.529	36342.39
680.877	36223.75
681.225	36206.58
681.573	36457.87
681.922	36100.82
682.27	36085.68
682.618	36027.6
682.966	35921.84
683.314	35961.61
683.661	35927.26
684.009	35666.25
684.357	35678.68
684.705	35573.6
685.053	35510.1
685.4	35306.94
685.748	35238.01
686.095	35213.61
686.443	35102.88
686.79	35108.53
687.138	35149.43
687.485	35086.61
687.832	34798.03
688.18	34800.29
688.527	34568.43
688.874	34620.86
689.221	34587.41
689.568	34443.01
689.915	34291.82
690.262	34394.65
690.609	34189
690.956	33953.3
691.303	33925.05
691.65	33660.43
691.997	33662.01
692.344	33598.06
692.69	33332.75
693.037	33495.91
693.383	33239.65
693.73	33224.96
694.077	32888.02
694.423	32814.8
694.769	32723.28
695.116	32683.51
695.462	32475.15
695.808	32482.61
696.155	32402.16
696.501	32067.02
696.847	32037.19
697.193	31882.4
697.539	31912.45
697.885	31739.58
698.231	31437.44
698.577	31435.63
698.923	31290.1
699.269	31140.27
699.614	31027.73
699.96	30803.1
700.306	30914.51
700.651	30531.92
700.997	30511.36
701.342	30511.13
701.688	30305.26
702.033	30184.14
702.379	30232.04
702.724	30127.41
703.069	30112.5
703.415	29778.5
703.76	29665.05
704.105	29710.48
704.45	29538.95
704.795	29393.65
705.14	29220.55
705.485	29156.14
705.83	28936.03
706.175	28998.63
706.52	28944.17
706.865	28824.85
707.209	28752.53
707.554	28627.34
707.899	28620.11
708.243	28444.52
708.588	28449.27
708.932	28187.58
709.277	28381.92
709.621	28144.42
709.966	28121.59
710.31	27975.15
710.654	27820.13
710.998	27916.4
711.342	27794.59
711.687	27705.78
712.031	27572.23
712.375	27534.04
712.719	27505.34
713.063	27335.85
713.407	27632.11
713.75	27309.18
714.094	27396.41
714.438	27307.38
714.782	27132.69
715.125	27102.18
715.469	27251.78
715.812	27086.59
716.156	26990.1
716.499	26983.32
716.843	27021.06
717.186	26918.91
717.53	27019.93
717.873	27084.56
718.216	26949.64
718.559	26862.19
718.902	26553.27
719.246	26795.75
719.589	26748.97
719.932	26627.39
720.275	26623.78
720.617	26713.94
720.96	26693.15
721.303	26699.03
721.646	26742.87
721.989	26685.7
722.331	26799.14
722.674	26696.32
723.016	26690.44
723.359	26596.89
723.701	26644.79
724.044	26472.59
724.386	26486.15
724.729	26694.28
725.071	26559.82
725.413	26602.08
725.755	26610.44
726.097	26427.85
726.439	26557.34
726.782	26554.17
727.124	26636.88
727.465	26520.05
727.807	26524.34
728.149	26677.11
728.491	26531.12
728.833	26678.92
729.175	26596.89
729.516	26537.9
729.858	26587.17
730.199	26843.21
730.541	26642.31
730.882	26527.96
731.224	26708.52
731.565	26665.13
731.906	26751.46
732.248	26890.44
732.589	26814.73
732.93	26685.24
733.271	26659.93
733.612	26735.19
733.953	26861.74
734.294	26882.3
734.635	26921.17
734.976	27056.76
735.317	26943.09
735.658	26951.68
735.999	26974.95
736.339	27098.57
736.68	27071.22
737.021	27101.28
737.361	27178.57
737.702	27277.09
738.042	27292.01
738.383	27432.57
738.723	27563.19
739.063	27399.8
739.404	27572.45
739.744	27665.56
740.084	27655.84
740.424	27824.65
740.764	27786.01
741.104	27947.81
741.444	28001.37
741.784	28049.5
742.124	28162.72
742.464	28198.88
742.804	28404.97
743.143	28518.87
743.483	28543.5
743.823	28542.6
744.162	28696.04
744.502	28946.43
744.841	28949.37
745.181	29170.6
745.52	29222.35
745.86	29289.7
746.199	29474.1
746.538	29665.51
746.877	29864.37
747.216	29912.28
747.556	30021.2
747.895	30093.29
748.234	30233.17
748.573	30533.05
748.911	30517.69
749.25	30911.8
749.589	30710.9
749.928	31041.06
750.267	31321.96
750.605	31410.32
750.944	31579.58
751.283	31712.01
751.621	31913.81
751.96	31915.39
752.298	32180.92
752.636	32442.61
752.975	32541.81
753.313	32631.98
753.651	32999.2
753.989	33070.16
754.327	33311.96
754.666	33330.04
755.004	33796.24
755.342	33785.62
755.679	33918.27
756.017	34031.94
756.355	34456.57
756.693	34460.86
757.031	34809.78
757.368	34808.65
757.706	35064.23
758.044	35091.35
758.381	35279.82
758.719	35434.62
759.056	35680.49
759.394	35750.54
759.731	35719.58
760.068	35935.4
760.405	36121.15
760.743	36049.74
761.08	36450.86
761.417	36352.56
761.754	36452.22
762.091	36661.71
762.428	36634.36
762.765	36731.31
763.102	36969.27
763.438	36920
763.775	36952.09
764.112	37141.01
764.449	37269.6
764.785	37209.94
765.122	37162.94
765.458	37153.9
765.795	37332.2
766.131	37379.2
766.467	37452.87
766.804	37351.63
767.14	37340.33
767.476	37358.64
767.812	37540.33
768.148	37714.56
768.485	37608.8
768.821	37426.43
769.157	37416.26
769.492	37478.63
769.828	37515.24
770.164	37246.32
770.5	37337.17
770.836	37405.64
771.171	37448.8
771.507	37367.22
771.842	37186.21
772.178	37171.75
772.513	37268.47
772.849	37109.15
773.184	37165.87
773.519	37082.26
773.855	37015.37
774.19	36892.66
774.525	36861.93
774.86	36908.7
775.195	36915.03
775.53	36667.58
775.865	36647.02
776.2	36439.79
776.535	36265.33
776.87	36190.31
777.205	36170.19
777.539	36154.15
777.874	36135.62
778.209	36082.06
778.543	35996.86
778.878	35833.93
779.212	35756.64
779.547	35518.23
779.881	35580.83
780.215	35472.36
780.55	35591.9
780.884	35196.89
781.218	35141.97
781.552	35310.1
781.886	35101.75
782.22	35016.1
782.554	34704.47
782.888	34574.53
783.222	34535.66
783.556	34449.56
783.889	34318.72
784.223	34072.17
784.557	34147.2
784.89	34231.49
785.224	33940.42
785.557	33820.2
785.891	33769.58
786.224	33625.18
786.558	33686.42
786.891	33434.67
787.224	33206.43
787.557	33130.5
787.891	33225.86
788.224	32947.23
788.557	32965.53
788.89	32896.61
789.223	32800.79
789.556	32629.5
789.888	32617.07
790.221	32303.63
790.554	32253.69
790.887	32260.92
791.219	32236.06
791.552	32206.91
791.884	31959.46
792.217	31893.02
792.549	31707.94
792.882	31565.12
793.214	31543.65
793.546	31546.59
793.879	31445.12
794.211	31179.82
794.543	31302.07
794.875	31207.39
795.207	31100.27
795.539	31053.04
795.871	31054.17
796.203	30794.52
796.535	30686.72
796.867	30630.9
797.198	30511.58
797.53	30472.49
797.862	30323.12
798.193	30280.4
798.525	30080.86
798.856	30254.87
799.188	29931.04
799.519	29917.93
799.85	29784.15
800.182	29700.76
800.513	29780.08
800.844	29390.03
801.175	29657.82
801.506	29567.65
801.837	29280.2
802.168	29297.38
802.499	29229.13
802.83	29091.28
803.161	28859.42
803.491	29006.09
803.822	29073.43
804.153	28764.29
804.483	28640.67
804.814	28460.34
805.145	28607.23
805.475	28606.55
805.805	28496.27
806.136	28520.45
806.466	28398.87
806.796	28352.55
807.126	28024.87
807.457	28143.29
807.787	28219.44
808.117	28009.28
808.447	27943.74
808.777	28094.25
809.107	27746.69
809.436	27651.55
809.766	27689.29
810.096	27754.37
810.426	27549.18
810.755	27760.92
811.085	27507.37
811.414	27496.97
811.744	27373.59
812.073	27305.34
812.403	27336.98
812.732	27054.5
813.061	27215.85
813.39	26982.41
813.719	26846.6
814.049	27063.31
814.378	27020.15
814.707	26839.82
815.036	26803.66
815.365	26651.35
815.693	26549.2
816.022	26542.65
816.351	26440.05
816.68	26350.79
817.008	26445.48
817.337	26209.55
817.665	26212.04
817.994	26266.72
818.322	26263.56
818.651	26080.51
818.979	25961.42
819.307	26022.89
819.636	26087.07
819.964	25951.93
820.292	25918.49
820.62	25954.42
820.948	26026.5
821.276	25848.2
821.604	25979.73
821.932	26090.68
822.259	25926.39
822.587	25914.87
822.915	25810.47
823.243	25803.91
823.57	25753.74
823.898	25934.3
824.225	25848.88
824.553	25791.03
824.88	26050.91
825.207	25975.21
825.535	25859.05
825.862	25983.57
826.189	25764.59
826.516	26045.71
826.843	25981.53
827.17	25981.76
827.497	25999.84
827.824	25978.37
828.151	26013.4
828.478	25946.73
828.805	26015.66
829.131	26008.88
829.458	26083.9
829.785	25776.34
830.111	25857.47
830.438	26131.81
830.764	25943.57
831.09	26041.42
831.417	25952.61
831.743	26114.86
832.069	25916.23
832.395	25931.82
832.722	25979.27
833.048	25913.97
833.374	25875.1
833.7	25865.61
834.026	25923.68
834.351	25932.72
834.677	25979.27
835.003	25960.52
835.329	25820.41
835.654	25820.63
835.98	25702.67
836.306	25843.91
836.631	25703.58
836.956	25768.21
837.282	25805.95
837.607	25756.23
837.932	25773.86
838.258	25540.19
838.583	25560.3
838.908	25532.51
839.233	25548.33
839.558	25531.6
839.883	25440.31
840.208	25351.72
840.533	25423.36
840.858	25376.35
841.182	25389.01
841.507	25378.16
841.832	25042.8
842.156	25263.81
842.481	25126.87
842.805	25048.45
843.13	24900.43
843.454	24931.39
843.778	24860.43
844.103	24925.06
844.427	24815.24
844.751	24858.4
845.075	24675.81
845.399	24643.94
845.723	24503.61
846.047	24425.19
846.371	24405.76
846.695	24233.78
847.019	24279.66
847.343	24050.06
847.666	24004.64
847.99	23963.96
848.313	23760.58
848.637	23688.49
848.96	23707.47
849.284	23646.91
849.607	23373.47
849.931	23459.11
850.254	23279.01
850.577	23170.76
850.9	23013.25
851.223	23049.63
851.546	22934.16
851.869	22750.43
852.192	22864.78
852.515	22590.21
852.838	22544.56
853.161	22571.45
853.483	22385.92
853.806	22383.21
854.129	22385.02
854.451	22280.61
854.774	22142.77
855.096	22185.02
855.419	21994.29
855.741	21956.33
856.063	21939.61
856.385	21782.77
856.708	21715.21
857.03	21691.93
857.352	21774.41
857.674	21644.47
857.996	21530.13
858.318	21364.25
858.64	21387.3
858.961	21354.76
859.283	21243.35
859.605	21070.25
859.926	21100.76
860.248	21160.19
860.57	21019.63
860.891	21071.15
861.212	20904.61
861.534	20846.08
861.855	20810.82
862.176	20813.76
862.498	20804.72
862.819	20748.23
863.14	20690.15
863.461	20624.61
863.782	20590.49
864.103	20574.9
864.424	20532.64
864.745	20521.79
865.065	20459.65
865.386	20194.57
865.707	20341.23
866.027	20371.06
866.348	20209.48
866.668	20260.55
866.989	20224.62
867.309	20071.86
867.63	20157.73
867.95	20077.06
868.27	19931.98
868.59	20162.7
868.91	19978.3
869.23	19970.17
869.55	19836.16
869.87	19952.77
870.19	19800
870.51	19875.03
870.83	19747.8
871.15	19732.89
871.469	19755.26
871.789	19733.79
872.109	19642.94
872.428	19614.02
872.748	19636.84
873.067	19562.95
873.386	19560.69
873.706	19580.8
874.025	19448.6
874.344	19358.43
874.663	19456.06
874.982	19295.16
875.301	19331.77
875.62	19252.9
875.939	19247.25
876.258	19209.28
876.577	19142.39
876.896	19197.98
877.214	19113.47
877.533	19177.87
877.852	19154.14
878.17	19041.6
878.489	19054.48
878.807	18918.9
879.125	19011.1
879.444	18932.68
879.762	18887.03
880.08	18965
880.398	18878.67
880.716	18828.5
881.034	18792.8
881.352	18759.13
881.67	18703.31
881.988	18663.31
882.306	18521.62
882.624	18563.88
882.941	18555.51
883.259	18587.15
883.577	18514.16
883.894	18495.86
884.212	18311.45
884.529	18298.12
884.846	18225.58
885.164	18165.02
885.481	18130.22
885.798	18216.77
886.115	18007.05
886.432	18086.6
886.75	18051.35
887.067	18076.43
887.383	17916.66
887.7	17922.99
888.017	17760.51
888.334	17773.84
888.651	17839.15
888.967	17692.49
889.284	17696.1
889.6	17570.91
889.917	17507.18
890.233	17576.11
890.55	17553.06
890.866	17388.54
891.182	17440.97
891.498	17381.76
891.815	17253.4
892.131	17173.4
892.447	17167.75
892.763	17174.53
893.079	17090.02
893.395	17033.07
893.71	17012.96
894.026	16988.32
894.342	16996.23
894.657	16810.48
894.973	16658.16
895.289	16707.43
895.604	16625.85
895.92	16611.84
896.235	16552.86
896.55	16542.69
896.865	16441.67
897.181	16412.52
897.496	16422.01
897.811	16316.25
898.126	16222.02
898.441	16090.95
898.756	16158.29
899.071	16119.42
899.386	16108.35
899.7	16013.89
900.015	15781.58
900.33	15746.55
900.644	15626.55
900.959	15718.98
901.273	15641.47
901.588	15530.06
901.902	15544.29
902.216	15471.75
902.531	15438.53
902.845	15360.34
903.159	15284.64
903.473	15163.97
903.787	15119
904.101	15003.29
904.415	15093.46
904.729	15000.58
905.042	14925.55
905.356	14891.2
905.67	14843.75
905.984	14885.1
906.297	14795.84
906.611	14637.65
906.924	14686.01
907.237	14577.09
907.551	14688.05
907.864	14367.83
908.177	14434.27
908.491	14409.86
908.804	14305.46
909.117	14240.83
909.43	14121.51
909.743	14109.08
910.056	14117.21
910.368	14058.68
910.681	14026.37
910.994	13853.04
911.307	13817.56
911.619	13688.3
911.932	13738.47
912.244	13604.01
912.557	13600.16
912.869	13490.56
913.181	13535.08
913.494	13508.87
913.806	13403.79
914.118	13320.85
914.43	13286.27
914.742	13238.14
915.054	13189.78
915.366	13074.76
915.678	13091.25
915.99	13065.94
916.302	12874.31
916.613	12837.02
916.925	12833.86
917.236	12847.64
917.548	12751.37
917.859	12732.17
918.171	12733.07
918.482	12584.6
918.794	12576.69
919.105	12446.07
919.416	12423.25
919.727	12404.49
920.038	12404.49
920.349	12230.26
920.66	12204.95
920.971	12157.94
921.282	12140.99
921.593	12098.06
921.903	11987.1
922.214	11937.38
922.525	11834.34
922.835	11843.38
923.146	11740.55
923.456	11706.66
923.767	11668.69
924.077	11643.15
924.387	11675.92
924.697	11560.9
925.008	11552.99
925.318	11384.63
925.628	11414.46
925.938	11408.13
926.248	11296.5
926.558	11225.09
926.867	11244.07
927.177	11156.84
927.487	11120.46
927.796	11007.01
928.106	11083.4
928.416	11005.2
928.725	10944.87
929.034	10872.78
929.344	10882.72
929.653	10753.69
929.962	10695.16
930.271	10666.23
930.581	10643.63
930.89	10553.24
931.199	10602.73
931.508	10516.18
931.817	10424.43
932.125	10466.91
932.434	10467.14
932.743	10285.22
933.051	10287.71
933.36	10242.51
933.669	10177.88
933.977	10172.91
934.286	10075.96
934.594	10052.91
934.902	10005.01
935.21	9948.28
935.519	9951.22
935.827	9969.53
936.135	9804.56
936.443	9772.47
936.751	9727.27
937.059	9706.93
937.367	9643.43
937.674	9627.84
937.982	9612.7
938.29	9577.67
938.597	9564.56
938.905	9379.03
939.213	9340.62
939.52	9397.79
939.827	9373.16
940.135	9333.61
940.442	9166.16
940.749	9288.87
941.056	9255.19
941.363	9089.78
941.67	9054.07
941.977	9031.47
942.284	9010.91
942.591	9066.72
942.898	8964.35
943.205	8909.89
943.511	8815.21
943.818	8805.71
944.125	8822.66
944.431	8754.19
944.738	8744.02
945.044	8668.54
945.35	8641.2
945.657	8593.29
945.963	8532.05
946.269	8484.37
946.575	8466.29
946.881	8427.19
947.187	8414.54
947.493	8363.01
947.799	8330.47
948.105	8271.49
948.41	8238.72
948.716	8271.04
949.022	8287.08
949.327	8163.92
949.633	8057.94
949.938	8068.33
950.244	8048.9
950.549	7989.47
950.854	7951.95
951.16	7911.73
951.465	7916.02
951.77	7849.36
952.075	7797.83
952.38	7791.73
952.685	7818.62
952.99	7678.06
953.294	7649.14
953.599	7631.96
953.904	7604.16
954.209	7506.09
954.513	7555.13
954.818	7513.32
955.122	7440.33
955.426	7424.73
955.731	7399.42
956.035	7355.58
956.339	7342.48
956.643	7309.26
956.948	7290.95
957.252	7266.55
957.556	7216.38
957.86	7233.1
958.163	7191.97
958.467	7128.92
958.771	7157.85
959.075	7051.64
959.378	6955.82
959.682	7001.02
959.985	6960.11
960.289	6949.04
960.592	6870.17
960.896	6841.25
961.199	6883.96
961.502	6842.83
961.805	6811.87
962.108	6713.34
962.411	6681.93
962.714	6628.37
963.017	6634.02
963.32	6614.81
963.623	6554.93
963.926	6644.42
964.228	6515.38
964.531	6513.8
964.833	6517.87
965.136	6445.32
965.438	6396.51
965.741	6343.63
966.043	6374.59
966.345	6290.07
966.648	6250.98
966.95	6253.47
967.252	6215.73
967.554	6219.12
967.856	6219.12
968.158	6156.07
968.46	6129.17
968.761	6104.99
969.063	6149.06
969.365	6069.52
969.666	6034.04
969.968	5972.57
970.269	5924.66
970.571	5898.67
970.872	5936.64
971.174	5836.75
971.475	5876.53
971.776	5875.17
972.077	5785.46
972.378	5762.86
972.679	5720.82
972.98	5729.86
973.281	5713.82
973.582	5637.89
973.883	5652.58
974.183	5611.9
974.484	5594.95
974.785	5537.55
975.085	5514.05
975.386	5521.96
975.686	5452.81
975.986	5465.24
976.287	5467.5
976.587	5392.7
976.887	5389.99
977.187	5391.34
977.487	5370.1
977.787	5299.59
978.087	5294.39
978.387	5307.05
978.687	5278.8
978.987	5228.18
979.286	5147.73
979.586	5181.4
979.885	5137.34
980.185	5140.95
980.484	5084.23
980.784	5076.32
981.083	5077.45
981.382	5105.25
981.682	5012.59
981.981	5002.65
982.28	5015.31
982.579	4935.53
982.878	4917.68
983.177	4879.49
983.475	4892.37
983.774	4839.49
984.073	4807.63
984.372	4803.11
984.67	4761.75
984.969	4795.2
985.267	4761.98
985.566	4712.49
985.864	4705.71
986.162	4634.75
986.461	4648.99
986.759	4650.34
987.057	4558.59
987.355	4592.94
987.653	4583.23
987.951	4526.28
988.249	4509.78
988.547	4455.32
988.844	4447.41
989.142	4492.83
989.44	4447.86
989.737	4463
990.035	4393.85
990.332	4364.25
990.63	4384.59
990.927	4320.63
991.224	4297.36
991.521	4271.82
991.819	4229.56
992.116	4224.59
992.413	4252.61
992.71	4167.87
993.006	4201.77
993.303	4182.79
993.6	4152.96
993.897	4110.7
994.193	4146.18
994.49	4058.95
994.787	4076.35
995.083	4044.71
995.379	4027.76
995.676	3977.14
995.972	3993.41
996.268	3978.95
996.565	3916.35
996.861	3921.32
997.157	3894.88
997.453	3864.38
997.749	3867.09
998.044	3836.58
998.34	3794.1
998.636	3722.46
998.932	3776.02
999.227	3789.12
999.523	3737.15
999.818	3721.78
1000.114	3685.85
1000.409	3665.74
1000.704	3644.27
1001	3641.1
1001.295	3618.96
1001.59	3609.24
1001.885	3543.03
1002.18	3550.03
1002.475	3559.98
1002.77	3551.16
1003.065	3479.53
1003.359	3407.66
1003.654	3441.79
1003.949	3380.32
1004.243	3401.56
1004.538	3356.82
1004.832	3367.89
1005.127	3344.16
1005.421	3326.54
1005.715	3310.72
1006.009	3308.23
1006.304	3290.38
1006.598	3244.96
1006.892	3206.77
1007.186	3194.79
1007.48	3173.77
1007.773	3150.04
1008.067	3192.98
1008.361	3136.26
1008.655	3117.05
1008.948	3075.24
1009.242	3101.46
1009.535	3037.73
1009.829	3032.31
1010.122	2989.37
1010.415	3002.7
1010.708	2995.92
1011.001	2919.77
1011.295	2910.5
1011.588	2891.29
1011.881	2884.97
1012.173	2892.88
1012.466	2865.76
1012.759	2845.65
1013.052	2836.83
1013.344	2822.37
1013.637	2811.07
1013.93	2787.57
1014.222	2745.99
1014.514	2743.95
1014.807	2729.94
1015.099	2676.61
1015.391	2713.45
1015.683	2691.07
1015.976	2726.1
1016.268	2671.19
1016.56	2637.29
1016.851	2632.54
1017.143	2576.05
1017.435	2558.2
1017.727	2543.28
1018.018	2523.62
1018.31	2546.44
1018.602	2511.19
1018.893	2493.34
1019.185	2490.4
1019.476	2434.81
1019.767	2474.58
1020.058	2435.49
1020.35	2396.84
1020.641	2380.57
1020.932	2350.97
1021.223	2382.15
1021.514	2341.48
1021.804	2308.03
1022.095	2281.14
1022.386	2288.15
1022.677	2248.37
1022.967	2237.3
1023.258	2219.67
1023.548	2182.39
1023.839	2207.92
1024.129	2184.65
1024.419	2127.02
1024.709	2171.76
1025	2137.42
1025.29	2128.38
1025.58	2082.28
1025.87	2049.28
1026.16	2097.42
1026.449	2074.82
1026.739	2060.13
1027.029	2013.13
1027.319	2008.61
1027.608	2004.76
1027.898	2000.24
1028.187	1992.79
1028.477	1967.7
1028.766	1964.76
1029.055	1948.49
1029.344	1910.53
1029.634	1899.91
1029.923	1910.53
1030.212	1877.08
1030.501	1870.98
1030.79	1832.56
1031.078	1826.01
1031.367	1826.24
1031.656	1809.29
1031.945	1767.26
1032.233	1808.38
1032.522	1743.08
1032.81	1741.27
1033.099	1783.07
1033.387	1757.99
1033.675	1720.48
1033.963	1677.99
1034.251	1694.26
1034.54	1636.19
1034.828	1647.03
1035.116	1663.08
1035.403	1625.34
1035.691	1634.6
1035.979	1627.82
1036.267	1606.36
1036.554	1592.8
1036.842	1568.84
1037.129	1578.11
1037.417	1567.49
1037.704	1515.96
1037.992	1525.23
1038.279	1537.21
1038.566	1525.23
1038.853	1525.23
1039.14	1525.23
