Data from 15-5210_FLMS001491_003.txt Node
Date: Thu Apr 19 16:48:18 BST 2018
User: hsy
Spectrometer: FLMS00149
Trigger mode: 0
Integration Time (sec): 1.000000E-2
Scans to average: 10
Electric dark correction enabled: true
Nonlinearity correction enabled: false
Boxcar width: 0
XAxis mode: Wavelengths
Number of Pixels in Spectrum: 2048
>>>>>Begin Spectral Data<<<<<
341.393	-26.28
341.776	-26.28
342.16	-26.28
342.543	-68.77
342.927	-60.41
343.31	-61.99
343.693	-66.06
344.077	-62.22
344.46	-77.81
344.843	-62.89
345.226	-27.87
345.61	-33.52
345.993	-14.99
346.376	2.42
346.759	36.99
347.142	11
347.525	21.4
347.908	62.07
348.291	68.63
348.674	101.85
349.057	102.98
349.44	122.64
349.823	151.34
350.206	174.61
350.588	231.56
350.971	248.51
351.354	255.74
351.737	261.39
352.119	266.14
352.502	305.91
352.884	295.97
353.267	309.07
353.65	337.1
354.032	316.31
354.414	352.46
354.797	327.15
355.179	365.57
355.562	349.52
355.944	354.27
356.326	371.67
356.709	351.78
357.091	375.06
357.473	381.61
357.855	373.93
358.238	385.23
358.62	376.64
359.002	367.83
359.384	370.99
359.766	374.83
360.148	384.55
360.53	387.26
360.912	358.34
361.294	369.41
361.676	348.39
362.057	367.83
362.439	363.31
362.821	367.38
363.203	356.98
363.584	338.9
363.966	371.22
364.348	355.17
364.729	366.7
365.111	354.72
365.493	348.39
365.874	359.24
366.256	367.83
366.637	348.62
367.019	348.39
367.4	373.48
367.781	350.43
368.163	385
368.544	352.46
368.925	349.3
369.306	352.24
369.688	340.49
370.069	354.27
370.45	354.27
370.831	362.18
371.212	359.24
371.593	348.39
371.974	366.02
372.355	359.47
372.736	352.01
373.117	351.78
373.498	353.59
373.879	375.96
374.26	360.37
374.641	337.55
375.021	365.34
375.402	356.98
375.783	384.78
376.163	388.17
376.544	376.42
376.925	389.3
377.305	378
377.686	372.57
378.066	384.33
378.447	392.24
378.827	365.8
379.208	387.72
379.588	386.36
379.968	401.27
380.349	390.65
380.729	395.63
381.109	389.52
381.489	394.72
381.87	385.91
382.25	413.93
382.63	414.83
383.01	410.99
383.39	413.7
383.77	407.38
384.15	410.99
384.53	412.8
384.91	412.12
385.29	429.3
385.67	409.64
386.049	447.6
386.429	413.03
386.809	472.91
387.189	430.2
387.568	421.39
387.948	435.62
388.328	434.95
388.707	449.41
389.087	441.27
389.466	471.33
389.846	453.25
390.225	478.33
390.605	475.85
390.984	459.8
391.363	467.94
391.743	492.35
392.122	470.65
392.501	495.74
392.881	494.83
393.26	494.61
393.639	489.63
394.018	509.29
394.397	497.32
394.776	503.87
395.155	496.19
395.534	503.19
395.913	513.14
396.292	481.5
396.671	522.18
397.05	534.15
397.429	530.76
397.808	530.76
398.186	552.46
398.565	563.98
398.944	557.2
399.323	557.88
399.701	551.33
400.08	575.06
400.458	565.79
400.837	577.77
401.215	593.13
401.594	581.61
401.972	584.09
402.351	607.37
402.729	582.51
403.107	602.63
403.486	629.97
403.864	621.83
404.242	614.83
404.62	624.77
404.999	652.57
405.377	650.53
405.755	653.92
406.133	660.7
406.511	668.16
406.889	692.57
407.267	707.48
407.645	700.02
408.023	692.34
408.401	710.65
408.779	732.34
409.156	737.76
409.534	724.88
409.912	750.64
410.29	763.3
410.667	788.84
411.045	778.21
411.422	781.83
411.8	827.48
412.178	840.59
412.555	845.56
412.933	850.75
413.31	881.26
413.687	880.81
414.065	902.73
414.442	893.47
414.819	915.61
415.197	918.1
415.574	955.61
415.951	942.05
416.328	932.56
416.705	970.3
417.082	1015.27
417.46	993.58
417.837	991.77
418.214	1012.56
418.591	1014.82
418.967	1016.17
419.344	1010.07
419.721	1052.11
420.098	1039.22
420.475	1082.84
420.852	1081.03
421.228	1074.93
421.605	1117.64
421.982	1118.54
422.358	1122.61
422.735	1158.32
423.111	1140.69
423.488	1155.61
423.864	1184.76
424.241	1196.06
424.617	1201.71
424.994	1223.63
425.37	1234.25
425.746	1244.64
426.123	1252.1
426.499	1254.59
426.875	1302.95
427.251	1299.78
427.627	1320.35
428.003	1335.71
428.379	1337.3
428.756	1369.84
429.132	1380.23
429.507	1387.46
429.883	1431.3
430.259	1449.38
430.635	1436.5
431.011	1466.11
431.387	1509.04
431.763	1527.57
432.138	1520.57
432.514	1550.4
432.89	1578.64
433.265	1629.72
433.641	1641.24
434.016	1640.11
434.392	1665.87
434.767	1703.39
435.143	1712.88
435.518	1706.78
435.894	1770.05
436.269	1794.01
436.644	1815.47
437.02	1824.29
437.395	1826.55
437.77	1858.41
438.145	1883.27
438.52	1881.46
438.895	1938.18
439.271	1949.26
439.646	1935.7
440.021	2000.1
440.395	2009.59
440.77	1959.43
441.145	2002.14
441.52	2053.43
441.895	2044.17
442.27	2104.28
442.645	2064.51
443.019	2092.76
443.394	2098.41
443.769	2125.75
444.143	2135.24
444.518	2159.19
444.892	2161
445.267	2187.89
445.641	2199.19
446.016	2203.26
446.39	2252.75
446.764	2201.68
447.139	2260.43
447.513	2266.99
447.887	2271.06
448.262	2318.06
448.636	2321.45
449.01	2339.53
449.384	2349.47
449.758	2396.7
450.132	2436.25
450.506	2447.32
450.88	2465.63
451.254	2420.43
451.628	2478.06
452.002	2515.34
452.376	2567.55
452.75	2613.87
453.123	2581.1
453.497	2638.28
453.871	2662.68
454.244	2714.66
454.618	2715.56
454.992	2790.14
455.365	2785.62
455.739	2815.45
456.112	2869.23
456.486	2864.71
456.859	2936.58
457.232	2989
457.606	2978.61
457.979	3050.47
458.352	3095.44
458.725	3154.42
459.099	3206.4
459.472	3169.11
459.845	3263.57
460.218	3273.52
460.591	3273.74
460.964	3348.32
461.337	3373.17
461.71	3450.01
462.083	3521.19
462.456	3509.67
462.829	3546.5
463.201	3613.85
463.574	3633.73
463.947	3707.4
464.32	3714.63
464.692	3739.94
465.065	3842.09
465.438	3822.2
465.81	3867.4
466.183	3913.95
466.555	3998.69
466.928	4029.2
467.3	4054.96
467.672	4087.05
468.045	4187.62
468.417	4209.31
468.789	4203.43
469.161	4288.86
469.534	4334.5
469.906	4385.8
470.278	4381.96
470.65	4498.34
471.022	4587.61
471.394	4636.19
471.766	4693.82
472.138	4739.24
472.51	4799.35
472.882	4899.69
473.253	4915.96
473.625	4991.89
473.997	5102.62
474.369	5136.07
474.74	5182.39
475.112	5259.9
475.484	5441.14
475.855	5470.75
476.227	5529.95
476.598	5664.19
476.97	5677.29
477.341	5833
477.713	5926.55
478.084	5978.3
478.455	6130.84
478.827	6150.5
479.198	6323.6
479.569	6412.19
479.94	6555.01
480.311	6598.85
480.682	6763.14
481.053	6929.69
481.424	7026.64
481.795	7088.1
482.166	7208.78
482.537	7269.79
482.908	7489.22
483.279	7570.8
483.65	7787.3
484.021	7868.65
484.391	7956.56
484.762	8030.23
485.133	8173.27
485.503	8324.46
485.874	8547.73
486.244	8561.06
486.615	8804.22
486.985	8888.51
487.356	9063.19
487.726	9186.81
488.097	9402.62
488.467	9465.9
488.837	9607.59
489.207	9773.68
489.578	9867.01
489.948	10028.14
490.318	10211.41
490.688	10316.49
491.058	10514.68
491.428	10678.52
491.798	10771.62
492.168	10958.96
492.538	11052.52
492.908	11274.89
493.278	11429.23
493.648	11444.15
494.017	11702.22
494.387	11780.41
494.757	11995.32
495.126	12148.31
495.496	12204.35
495.866	12323
496.235	12497.91
496.605	12659.03
496.974	12759.82
497.344	12962.75
497.713	13063.77
498.082	13162.3
498.452	13269.86
498.821	13464.66
499.19	13506.24
499.559	13690.19
499.928	13834.59
500.298	13858.55
500.667	14065.77
501.036	14049.05
501.405	14262.83
501.774	14335.15
502.143	14475.25
502.512	14578.98
502.88	14736.94
503.249	14889.93
503.618	14902.14
503.987	15104.62
504.356	15226.87
504.724	15255.57
505.093	15313.2
505.462	15432.52
505.83	15587.09
506.199	15874.54
506.567	15927.87
506.936	15933.07
507.304	16228.2
507.672	16218.26
508.041	16347.3
508.409	16500.51
508.777	16597.91
509.145	16883.78
509.514	16795.19
509.882	16953.61
510.25	17006.94
510.618	17161.74
510.986	17077.45
511.354	17226.37
511.722	17510.88
512.09	17702.29
512.458	17657.54
512.826	17813.7
513.193	17891.66
513.561	17990.87
513.929	18155.61
514.297	18207.81
514.664	18310.41
515.032	18459.33
515.4	18617.97
515.767	18593.11
516.135	18764.86
516.502	18776.16
516.869	19053.89
517.237	19127.56
517.604	18988.81
517.972	19278.52
518.339	19407.55
518.706	19417.27
519.073	19507.21
519.44	19649.81
519.808	19808.9
520.175	19921.89
520.542	20068.55
520.909	20121.43
521.276	20287.76
521.643	20527.98
522.009	20467.87
522.376	20662.66
522.743	20737.92
523.11	20967.97
523.477	21172.03
523.843	21066.27
524.21	21455.18
524.577	21522.53
524.943	21544.9
525.31	21622.19
525.676	22010.88
526.043	22010.2
526.409	22039.8
526.776	22233.92
527.142	22426.46
527.508	22531.31
527.874	22648.15
528.241	22707.35
528.607	22828.48
528.973	23021.92
529.339	23027.8
529.705	23215.36
530.071	23371.74
530.437	23424.62
530.803	23567.9
531.169	23686.31
531.535	23679.76
531.901	23809.7
532.267	23776.48
532.632	23891.96
532.998	23984.38
533.364	24091.27
533.73	24080.88
534.095	24269.8
534.461	24245.62
534.826	24414.43
535.192	24514.99
535.557	24539.17
535.923	24499.85
536.288	24539.17
536.653	24642.67
537.019	24644.25
537.384	24668.66
537.749	24704.36
538.114	24625.27
538.479	24717.92
538.845	24840.41
539.21	24698.04
539.575	24953.17
539.94	24884.25
540.305	24949.56
540.67	24789.11
541.034	24880.41
541.399	24952.27
541.764	24990.91
542.129	25098.25
542.494	25011.02
542.858	25146.39
543.223	25021.87
543.587	25022.32
543.952	25066.39
544.316	25093.28
544.681	25002.21
545.045	25179.61
545.41	25136.22
545.774	24945.49
546.138	25074.98
546.503	25162.66
546.867	25075.43
547.231	25178.02
547.595	25113.17
547.959	25085.82
548.324	25104.58
548.688	25133.73
549.052	25146.61
549.416	25140.51
549.779	24984.81
550.143	25012.15
550.507	25071.36
550.871	25094.41
551.235	24981.87
551.599	25304.12
551.962	25147.29
552.326	25159.04
552.689	25135.31
553.053	24973.06
553.417	25211.47
553.78	25232.49
554.143	25322.43
554.507	25234.75
554.87	25172.83
555.234	25288.3
555.597	25118.59
555.96	25193.84
556.323	25201.3
556.686	25203.11
557.05	25312.94
557.413	25297.57
557.776	25382.54
558.139	25591.35
558.502	25361.52
558.865	25384.8
559.228	25510.22
559.59	25606.49
559.953	25456.89
560.316	25792.7
560.679	25581.86
561.041	25722.42
561.404	25690.1
561.767	25854.16
562.129	25770.1
562.492	25932.58
562.854	25938.23
563.217	25848.52
563.579	25915.63
563.941	25993.6
564.304	26051
564.666	26374.83
565.028	26239.47
565.39	26209.86
565.753	26346.36
566.115	26297.54
566.477	26401.72
566.839	26622.05
567.201	26624.99
567.563	26593.58
567.925	26712.67
568.287	26767.14
568.648	26776.85
569.01	27024.98
569.372	27121.48
569.734	27083.29
570.095	27151.08
570.457	27147.01
570.819	27264.75
571.18	27302.04
571.542	27514.01
571.903	27510.39
572.265	27619.54
572.626	27798.97
572.987	27808.46
573.349	27892.3
573.71	27870.38
574.071	27949.7
574.432	27979.53
574.794	28113.09
575.155	28334.78
575.516	28047.78
575.877	28327.55
576.238	28175.69
576.599	28451.38
576.96	28616.13
577.32	28649.57
577.681	28575.9
578.042	28814.54
578.403	28783.13
578.763	28781.32
579.124	28816.8
579.485	29106.96
579.845	29042.56
580.206	29070.58
580.566	29131.59
580.927	28958.94
581.287	29172.27
581.648	29195.55
582.008	29360.29
582.368	29390.8
582.728	29409.78
583.089	29433.73
583.449	29512.37
583.809	29479.15
584.169	29710.79
584.529	29601.86
584.889	29858.81
585.249	29680.28
585.609	29657.68
585.969	29887.51
586.329	29777.9
586.688	30042.3
587.048	29920.95
587.408	29827.62
587.768	29962.08
588.127	30006.15
588.487	29958.69
588.846	30337.66
589.206	30039.37
589.565	30236.2
589.925	30499.01
590.284	30361.39
590.643	30397.32
591.003	30618.11
591.362	30744.43
591.721	30597.77
592.08	30693.36
592.44	30876.86
592.799	30680.7
593.158	30781.27
593.517	30772.23
593.876	31081.82
594.235	30762.51
594.593	30882.73
594.952	30950.53
595.311	30934.71
595.67	31139.68
596.029	31286.11
596.387	31377.18
596.746	31560.68
597.104	31376.05
597.463	31398.43
597.822	31627.57
598.18	31513
598.538	31601.58
598.897	31902.59
599.255	31540.12
599.613	31980.33
599.972	31814.91
600.33	31818.75
600.688	31805.87
601.046	31901.69
601.404	32110.05
601.762	32063.49
602.12	32185.07
602.478	32267.33
602.836	32362.69
603.194	32128.35
603.552	32338.29
603.91	32231.17
604.268	32363.82
604.625	32397.95
604.983	32644.49
605.341	32409.02
605.698	32647.66
606.056	32819.86
606.413	32721.55
606.771	32925.39
607.128	32927.88
607.485	32817.15
607.843	32746.19
608.2	32976.92
608.557	33069.34
608.914	33058.5
609.272	33339.84
609.629	33506.39
609.986	33452.61
610.343	33373.97
610.7	33671.81
611.057	33569.44
611.414	33624.36
611.771	33785.26
612.127	33822.77
612.484	33923.56
612.841	33896.67
613.198	33896.89
613.554	33801.3
613.911	34122.42
614.267	34220.72
614.624	34136.21
614.98	34316.32
615.337	34538.46
615.693	34385.69
616.05	34546.14
616.406	34617.32
616.762	34653.48
617.118	34437.44
617.475	34526.93
617.831	34670.2
618.187	34716.08
618.543	34776.42
618.899	35043.75
619.255	34876.3
619.611	34879.46
619.967	35085.79
620.323	35184.09
620.678	35002.62
621.034	34914.27
621.39	35041.04
621.746	35058.22
622.101	35434.25
622.457	35145.67
622.812	35189.06
623.168	35435.83
623.523	35476.06
623.879	35421.14
624.234	35242.17
624.589	35517.41
624.945	35404.87
625.3	35439
625.655	35543.4
626.01	35399.9
626.365	35499.11
626.72	35444.65
627.075	35475.38
627.43	35398.77
627.785	35340.02
628.14	35560.58
628.495	35598.32
628.85	35587.47
629.205	35418.89
629.559	35570.52
629.914	35332.11
630.269	35321.26
630.623	35177.08
630.978	35202.85
631.332	35382.5
631.687	35390.86
632.041	35193.81
632.396	35328.94
632.75	35278.1
633.104	35258.89
633.459	35168.04
633.813	35057.54
634.167	35052.57
634.521	35127.82
634.875	35088.27
635.229	34967.15
635.583	34824.55
635.937	34818.22
636.291	34825.45
636.645	34762.18
636.999	34688.51
637.352	34991.78
637.706	34526.48
638.06	34853.7
638.413	34754.95
638.767	34587.49
639.121	34682.18
639.474	34518.8
639.828	34599.7
640.181	34560.6
640.534	34662.75
640.888	34409.87
641.241	34247.16
641.594	34326.26
641.947	34526.71
642.301	34399.93
642.654	34417.56
643.007	34316.32
643.36	34491.23
643.713	34360.83
644.066	34551.11
644.419	34291.01
644.771	33872.03
645.124	33682.66
645.477	33479.95
645.83	33508.88
646.182	33440.41
646.535	33487.86
646.888	33657.58
647.24	33388.66
647.593	33534.87
647.945	33408.77
648.298	33436.11
648.65	33299.39
649.002	33216.01
649.355	33125.16
649.707	33119.28
650.059	33066.63
650.411	33558.37
650.763	33825.25
651.115	34190.22
651.467	34092.82
651.819	34072.48
652.171	34117.45
652.523	34004.23
652.875	34019.15
653.227	33971.24
653.578	34290.78
653.93	34107.06
654.282	34121.29
654.633	34057.79
654.985	34116.32
655.337	34226.37
655.688	34061.63
656.039	34107.96
656.391	33986.38
656.742	34048.98
657.094	34083.1
657.445	34198.58
657.796	34179.6
658.147	34166.04
658.498	34129.65
658.849	34340.27
659.2	34118.13
659.551	34203.78
659.902	34372.36
660.253	34215.53
660.604	34263.44
660.955	34191.35
661.306	34468.63
661.656	34326.48
662.007	34395.86
662.358	34411.91
662.708	34419.59
663.059	34466.59
663.409	34232.93
663.76	34485.58
664.11	34509.76
664.461	34574.84
664.811	34593.82
665.161	34651.45
665.511	34521.96
665.862	34481.96
666.212	34705.68
666.562	34677.66
666.912	34655.74
667.262	34592.47
667.612	34596.53
667.962	34651.9
668.312	34596.53
668.662	34787.04
669.011	34650.32
669.361	34604.44
669.711	34590.43
670.06	34599.02
670.41	34479.02
670.76	34416.88
671.109	34666.14
671.459	34573.03
671.808	34431.79
672.157	34655.52
672.507	34276.77
672.856	34351.34
673.205	34437.89
673.554	34457.55
673.904	34341.17
674.253	34665.46
674.602	34258.69
674.951	33867.74
675.3	33762.88
675.649	34422.3
675.998	34369.65
676.346	34335.98
676.695	34426.82
677.044	34043.55
677.393	34152.25
677.741	34243.32
678.09	34117.22
678.438	34102.99
678.787	34016.44
679.135	34023.44
679.484	33782.09
679.832	33865.03
680.181	33921.52
680.529	33900.51
680.877	33663.45
681.225	33698.03
681.573	33884.91
681.922	33632.27
682.27	33494.64
682.618	33547.75
682.966	33469.78
683.314	33442.21
683.661	33488.99
684.009	33213.97
684.357	33332.84
684.705	33124.71
685.053	33123.8
685.4	33016.46
685.748	32997.03
686.095	32869.12
686.443	32644.95
686.79	32565.63
687.138	32795.45
687.485	32569.02
687.832	32428.23
688.18	32401.34
688.527	32266.2
688.874	32184.62
689.221	32132.19
689.568	32019.43
689.915	31916.83
690.262	31960.67
690.609	31879.54
690.956	31674.58
691.303	31698.08
691.65	31437.75
691.997	31231.65
692.344	31177.41
692.69	31086.8
693.037	31220.35
693.383	30922.28
693.73	30971.54
694.077	30738.56
694.423	30664.66
694.769	30628.28
695.116	30507.6
695.462	30240.49
695.808	30228.29
696.155	30171.79
696.501	29813.83
696.847	29888.18
697.193	29682.31
697.539	29689.77
697.885	29445.71
698.231	29264.02
698.577	29189.67
698.923	29204.13
699.269	28928.66
699.614	28824.48
699.96	28797.36
700.306	28612.28
700.651	28501.78
700.997	28455.45
701.342	28341.78
701.688	28222.01
702.033	28136.59
702.379	28071.73
702.724	28015.01
703.069	27975.01
703.415	27560.79
703.76	27535.48
704.105	27521.92
704.45	27301.58
704.795	27258.42
705.14	27120.35
705.485	27003.51
705.83	26883.52
706.175	27011.42
706.52	26869.96
706.865	26722.84
707.209	26760.81
707.554	26555.16
707.899	26526.69
708.243	26359.46
708.588	26292.8
708.932	26160.37
709.277	26157.89
709.621	26076.76
709.966	25899.59
710.31	25930.1
710.654	25706.6
710.998	25832.24
711.342	25768.29
711.687	25626.6
712.031	25629.76
712.375	25417.11
712.719	25559.26
713.063	25386.61
713.407	25453.95
713.75	25438.81
714.094	25266.84
714.438	25219.83
714.782	25281.3
715.125	25081.53
715.469	25222.77
715.812	24974.19
716.156	24932.83
716.499	25036.79
716.843	25039.72
717.186	24866.62
717.53	24997.24
717.873	25033.4
718.216	24992.27
718.559	24986.84
718.902	24686.29
719.246	24799.28
719.589	24734.65
719.932	24708.88
720.275	24699.39
720.617	24726.51
720.96	24606.51
721.303	24678.83
721.646	24792.5
721.989	24705.27
722.331	24687.42
722.674	24525.39
723.016	24636.8
723.359	24511.15
723.701	24740.52
724.044	24593.86
724.386	24527.65
724.729	24661.65
725.071	24701.88
725.413	24716.12
725.755	24695.78
726.097	24563.8
726.439	24580.07
726.782	24572.39
727.124	24736
727.465	24707.53
727.807	24575.55
728.149	24684.03
728.491	24580.3
728.833	24758.83
729.175	24755.89
729.516	24624.59
729.858	24631.6
730.199	24742.78
730.541	24784.14
730.882	24766.74
731.224	24784.36
731.565	24808.77
731.906	24860.07
732.248	24881.31
732.589	24681.77
732.93	24835.89
733.271	24838.37
733.612	24960.85
733.953	25136.9
734.294	24999.05
734.635	25021.19
734.976	25277.91
735.317	25052.83
735.658	25091.7
735.999	25128.08
736.339	25157.01
736.68	25252.15
737.021	25386.38
737.361	25415.53
737.702	25506.6
738.042	25543.21
738.383	25652.14
738.723	25657.11
739.063	25598.58
739.404	25813.71
739.744	25856.65
740.084	25821.17
740.424	26044.67
740.764	25929.64
741.104	26254.83
741.444	26173.25
741.784	26181.16
742.124	26307.26
742.464	26528.95
742.804	26515.39
743.143	26612.11
743.483	26753.35
743.823	26808.94
744.162	26841.26
744.502	27089.16
744.841	27112.89
745.181	27319.89
745.52	27307.23
745.86	27548.81
746.199	27716.71
746.538	27818.18
746.877	27859.31
747.216	27944.73
747.556	28139.98
747.895	28424.04
748.234	28445.96
748.573	28699.97
748.911	28810.25
749.25	28999.17
749.589	29093.4
749.928	29225.83
750.267	29365.71
750.605	29591.69
750.944	29713.27
751.283	29892.25
751.621	30228.74
751.96	30123.88
752.298	30399.81
752.636	30496.75
752.975	30749.63
753.313	30855.84
753.651	31170.18
753.989	31221.93
754.327	31519.1
754.666	31502.6
755.004	31816.95
755.342	32216.26
755.679	32353.88
756.017	32288.35
756.355	32605.85
756.693	32825.28
757.031	33121.54
757.368	32965.62
757.706	33345.49
758.044	33390.92
758.381	33645.82
758.719	33745.03
759.056	33833.84
759.394	34004.23
759.731	33947.96
760.068	34154.96
760.405	34232.02
760.743	34362.87
761.08	34682.41
761.417	34661.16
761.754	34854.83
762.091	34858.9
762.428	34914.94
762.765	35069.97
763.102	35110.19
763.438	35245.56
763.775	35210.3
764.112	35334.14
764.449	35488.49
764.785	35581.82
765.122	35550.18
765.458	35573.68
765.795	35698.43
766.131	35709.72
766.467	35738.65
766.804	35706.11
767.14	35608.94
767.476	35790.4
767.812	35868.36
768.148	35910.4
768.485	35890.96
768.821	35631.31
769.157	35795.37
769.492	35783.17
769.828	35870.4
770.164	35617.07
770.5	35662.27
770.836	35758.31
771.171	35765.09
771.507	35756.5
771.842	35493.91
772.178	35531.2
772.513	35539.79
772.849	35550.86
773.184	35540.24
773.519	35492.78
773.855	35326.91
774.19	35325.1
774.525	35294.37
774.86	35349.73
775.195	35285.33
775.53	35155.16
775.865	35012.57
776.2	34848.5
776.535	34786.59
776.87	34665.91
777.205	34554.5
777.539	34657.32
777.874	34651.45
778.209	34361.06
778.543	34471.11
778.878	34204
779.212	34248.07
779.547	34008.3
779.881	34058.02
780.215	33801.98
780.55	34015.76
780.884	33682.21
781.218	33562.21
781.552	33791.58
781.886	33524.92
782.22	33418.03
782.554	33317.02
782.888	33063.01
783.222	33077.48
783.556	32976.01
783.889	32834.09
784.223	32676.13
784.557	32722.91
784.89	32709.58
785.224	32557.27
785.557	32435.69
785.891	32440.21
786.224	32241.79
786.558	32239.53
786.891	32128.8
787.224	31939.43
787.557	31807
787.891	31914.8
788.224	31633.22
788.557	31713.67
788.89	31573.34
789.223	31553.45
789.556	31328.82
789.888	31259.22
790.221	31119.56
790.554	31080.92
790.887	31047.47
791.219	30859
791.552	30879.57
791.884	30712.34
792.217	30606.81
792.549	30677.99
792.882	30299.02
793.214	30307.83
793.546	30341.73
793.879	30097.22
794.211	29972.93
794.543	30123.43
794.875	29953.49
795.207	29920.27
795.539	29730.45
795.871	29743.1
796.203	29717.79
796.535	29405.48
796.867	29486.39
797.198	29310.8
797.53	29256.11
797.862	29020.86
798.193	29236
798.525	28991.03
798.856	29060.63
799.188	28725.73
799.519	28601.66
799.85	28436.7
800.182	28428.33
800.513	28497.94
800.844	28176.82
801.175	28438.73
801.506	28408.67
801.837	28284.84
802.168	28146.99
802.499	28186.53
802.83	27963.71
803.161	27848.91
803.491	27771.85
803.822	27956.26
804.153	27750.61
804.483	27471.07
804.814	27509.94
805.145	27503.84
805.475	27539.77
805.805	27417.74
806.136	27309.95
806.466	27111.98
806.796	27098.2
807.126	26998.77
807.457	27005.77
807.787	26906.11
808.117	26932.1
808.447	26780.69
808.777	26806.68
809.107	26601.26
809.436	26530.98
809.766	26650.75
810.096	26666.12
810.426	26486.69
810.755	26448.73
811.085	26469.06
811.414	26471.78
811.744	26187.04
812.073	26197.88
812.403	26087.83
812.732	26037.66
813.061	26029.08
813.39	25865.92
813.719	25880.6
814.049	26002.41
814.378	25868.85
814.707	25736.65
815.036	25697.78
815.365	25559.71
815.693	25416.66
816.022	25445.14
816.351	25417.57
816.68	25181.87
817.008	25342.09
817.337	25193.62
817.665	25192.04
817.994	25119.72
818.322	25041.08
818.651	25093.96
818.979	25015.32
819.307	25012.61
819.636	24959.5
819.964	24894.87
820.292	24920.18
820.62	24806.96
820.948	24798.6
821.276	24918.14
821.604	24771.93
821.932	24953.17
822.259	24869.33
822.587	24855.77
822.915	24839.95
823.243	24879.28
823.57	24730.8
823.898	24924.25
824.225	24851.25
824.553	24828.88
824.88	24797.24
825.207	24852.16
825.535	24768.32
825.862	24926.28
826.189	24828.2
826.516	25013.96
826.843	24957.24
827.17	25028.2
827.497	24971.7
827.824	24948.65
828.151	24971.93
828.478	24929.22
828.805	25028.2
829.131	25030.23
829.458	24983.68
829.785	24845.15
830.111	24955.43
830.438	25044.69
830.764	24982.55
831.09	24949.56
831.417	24862.55
831.743	24976.9
832.069	24919.5
832.395	24817.36
832.722	24928.54
833.048	24793.63
833.374	24866.62
833.7	24768.32
834.026	24801.76
834.351	24769.22
834.677	24871.37
835.003	24816.45
835.329	24757.47
835.654	24759.96
835.98	24608.55
836.306	24799.28
836.631	24696
836.956	24762.67
837.282	24715.44
837.607	24662.78
837.932	24568.77
838.258	24641.09
838.583	24641.54
838.908	24497.14
839.233	24432.96
839.558	24321.55
839.883	24378.05
840.208	24346.18
840.533	24255.56
840.858	24315.45
841.182	24284.94
841.507	24396.35
841.832	24108.22
842.156	24081.33
842.481	24096.02
842.805	24004.5
843.13	24023.7
843.454	23945.29
843.778	23830.04
844.103	23776.93
844.427	23804.28
844.751	23702.13
845.075	23774.22
845.399	23681.34
845.723	23532.87
846.047	23600.89
846.371	23434.12
846.695	23287.45
847.019	23175.59
847.343	23088.59
847.666	22929.5
847.99	22969.49
848.313	22847.46
848.637	22702.38
848.96	22863.28
849.284	22746.22
849.607	22529.28
849.931	22598.88
850.254	22319.57
850.577	22232.34
850.9	22137.2
851.223	22139.01
851.546	22086.58
851.869	21944.21
852.192	21988.96
852.515	21810.43
852.838	21620.83
853.161	21570.66
853.483	21492.25
853.806	21461.51
854.129	21307.39
854.451	21360.5
854.774	21220.61
855.096	21217.9
855.419	21113.27
855.741	21057.68
856.063	20962.54
856.385	20971.58
856.708	20860.85
857.03	20824.69
857.352	20741.53
857.674	20647.97
857.996	20595.77
858.318	20483.23
858.64	20486.4
858.961	20508.77
859.283	20449.11
859.605	20279.17
859.926	20344.93
860.248	20249.57
860.57	20153.07
860.891	20145.61
861.212	20011.38
861.534	20019.97
861.855	19917.15
862.176	19911.27
862.498	19931.16
862.819	19916.92
863.14	19816.36
863.461	19857.26
863.782	19719.41
864.103	19685.29
864.424	19691.62
864.745	19775.68
865.065	19588.34
865.386	19538.17
865.707	19549.02
866.027	19510.15
866.348	19468.12
866.668	19464.05
866.989	19469.93
867.309	19216.83
867.63	19220.67
867.95	19336.82
868.27	19194.9
868.59	19187
868.91	19173.89
869.23	19198.75
869.55	19066.77
869.87	19163.95
870.19	19014.12
870.51	19121.91
870.83	19062.48
871.15	18813.9
871.469	18895.93
871.789	18972.76
872.109	18828.59
872.428	18775.25
872.748	18861.13
873.067	18784.07
873.386	18781.36
873.706	18718.08
874.025	18637.18
874.344	18576.16
874.663	18649.16
874.982	18535.71
875.301	18557.41
875.62	18460.23
875.939	18448.03
876.258	18542.49
876.577	18391.31
876.896	18351.09
877.214	18406
877.533	18324.42
877.852	18299.79
878.17	18372.33
878.489	18373.23
878.807	18225.66
879.125	18190.86
879.444	18175.72
879.762	18154.03
880.08	18285.32
880.398	18020.47
880.716	18125.78
881.034	18060.47
881.352	17996.74
881.67	17912.9
881.988	17961.72
882.306	17810.76
882.624	17827.26
882.941	17809.63
883.259	17825
883.577	17839.23
883.894	17717.66
884.212	17665.91
884.529	17618
884.846	17557.21
885.164	17476.76
885.481	17492.35
885.798	17462.97
886.115	17356.99
886.432	17327.38
886.75	17277.44
887.067	17323.77
887.383	17194.73
887.7	17216.43
888.017	17100.72
888.334	17046.03
888.651	17074.73
888.967	16978.24
889.284	16924
889.6	16791.13
889.917	16834.06
890.233	16847.17
890.55	16825.93
890.866	16754.52
891.182	16740.73
891.498	16626.16
891.815	16571.25
892.131	16446.28
892.447	16512.04
892.763	16361.76
893.079	16328.54
893.395	16370.12
893.71	16315.21
894.026	16281.76
894.342	16293.96
894.657	16123.35
894.973	16099.17
895.289	16117.92
895.604	16014.65
895.92	15984.14
896.235	15843.13
896.55	15952.73
896.865	15820.53
897.181	15774.43
897.496	15698.95
897.811	15651.04
898.126	15590.71
898.441	15571.05
898.756	15518.39
899.071	15484.95
899.386	15446.98
899.7	15310.49
900.015	15222.35
900.33	15089.25
900.644	15049.03
900.959	15091.28
901.273	15024.39
901.588	14981.91
901.902	14881.35
902.216	14900.1
902.531	14876.6
902.845	14791.63
903.159	14685.19
903.473	14647.68
903.787	14567.68
904.101	14532.43
904.415	14538.08
904.729	14430.74
905.042	14320.23
905.356	14365.2
905.67	14204.53
905.984	14202.95
906.297	14167.92
906.611	14071.88
906.924	14125.21
907.237	14064.87
907.551	13955.95
907.864	13853.58
908.177	13897.64
908.491	13843.86
908.804	13757.08
909.117	13609.97
909.43	13538.56
909.743	13533.36
910.056	13547.82
910.368	13460.14
910.681	13474.15
910.994	13350.54
911.307	13240.94
911.619	13197.32
911.932	13175.85
912.244	13160.04
912.557	13071.45
912.869	13019.02
913.181	12961.17
913.494	12978.8
913.806	12835.75
914.118	12831.23
914.43	12742.42
914.742	12753.04
915.054	12592.59
915.366	12615.19
915.678	12615.87
915.99	12506.49
916.302	12415.65
916.613	12292.94
916.925	12327.51
917.236	12357.34
917.548	12215.2
917.859	12205.48
918.171	12192.15
918.482	12016.11
918.794	11955.55
919.105	12043.45
919.416	11900.41
919.727	11914.64
920.038	11902.89
920.349	11739.73
920.66	11695.22
920.971	11678.04
921.282	11623.58
921.593	11633.07
921.903	11460.87
922.214	11475.11
922.525	11363.47
922.835	11436.69
923.146	11341.33
923.456	11303.36
923.767	11196.02
924.077	11172.07
924.387	11166.19
924.697	11083.03
925.008	11055.23
925.318	11009.58
925.628	11022.46
925.938	10920.32
926.248	10804.17
926.558	10793.09
926.867	10821.34
927.177	10751.06
927.487	10658.41
927.796	10651.17
928.106	10604.85
928.416	10616.83
928.725	10492.53
929.034	10426.1
929.344	10472.65
929.653	10399.88
929.962	10349.94
930.271	10283.5
930.581	10251.64
930.89	10154.46
931.199	10080.79
931.508	10055.71
931.817	10149.49
932.125	10062.72
932.434	10058.42
932.743	9941.59
933.051	9944.3
933.36	9819.11
933.669	9704.53
933.977	9712.44
934.286	9751.99
934.594	9656.85
934.902	9695.72
935.21	9553.12
935.519	9510.19
935.827	9527.59
936.135	9497.08
936.443	9460.47
936.751	9374.82
937.059	9377.99
937.367	9329.85
937.674	9344.09
937.982	9186.81
938.29	9240.59
938.597	9211.89
938.905	9041.95
939.213	9112.91
939.52	9024.78
939.827	9048.73
940.135	8935.51
940.442	8930.99
940.749	8872.46
941.056	8880.37
941.363	8746.14
941.67	8796.99
941.977	8656.42
942.284	8736.65
942.591	8592.25
942.898	8600.38
943.205	8570.55
943.511	8536.2
943.818	8537.78
944.125	8418.69
944.431	8438.58
944.738	8412.36
945.044	8324.46
945.35	8286.04
945.657	8274.74
945.963	8218.7
946.269	8215.76
946.575	8121.3
946.881	8045.14
947.187	8118.36
947.493	8044.46
947.799	7995.65
948.105	8045.37
948.41	7894.41
948.716	7937.57
949.022	7917.01
949.327	7862.77
949.633	7733.96
949.938	7749.1
950.244	7744.81
950.549	7640.63
950.854	7654.87
951.16	7611.93
951.465	7574.65
951.77	7560.18
952.075	7556.11
952.38	7468.89
952.685	7469.56
952.99	7420.07
953.294	7434.99
953.599	7337.14
953.904	7339.17
954.209	7267.08
954.513	7273.64
954.818	7226.63
955.122	7252.62
955.426	7173.3
955.731	7206.07
956.035	7138.27
956.339	7037.26
956.643	7041.33
956.948	6996.36
957.252	6975.34
957.556	6884.04
957.86	6954.32
958.163	6947.54
958.467	6868.68
958.771	6832.97
959.075	6814.67
959.378	6702.35
959.682	6693.99
959.985	6714.33
960.289	6632.98
960.592	6663.71
960.896	6586.2
961.199	6609.7
961.502	6555.24
961.805	6497.39
962.108	6489.7
962.411	6494
962.714	6386.2
963.017	6407.44
963.32	6421.23
963.623	6371.29
963.926	6285.87
964.228	6300.33
964.531	6281.8
964.833	6265.3
965.136	6198.64
965.438	6202.93
965.741	6138.07
966.043	6083.39
966.345	6051.97
966.648	6035.02
966.95	6002.26
967.252	5988.02
967.554	5979.66
967.856	5934.46
968.158	5920.68
968.46	5901.02
968.761	5892.43
969.063	5868.02
969.365	5861.92
969.666	5758.42
969.968	5715.49
970.269	5712.77
970.571	5701.47
970.872	5694.47
971.174	5652.21
971.475	5575.6
971.776	5655.83
972.077	5576.96
972.378	5521.37
972.679	5597.07
972.98	5543.74
973.281	5498.99
973.582	5455.38
973.883	5439.56
974.183	5435.94
974.484	5387.36
974.785	5293.8
975.085	5356.17
975.386	5315.95
975.686	5289.06
975.986	5246.57
976.287	5272.79
976.587	5277.76
976.887	5172.22
977.187	5185.78
977.487	5181.04
977.787	5125.22
978.087	5073.02
978.387	5105.11
978.687	5082.06
978.987	5033.92
979.286	5044.77
979.586	5013.81
979.885	4973.13
980.185	4919.8
980.484	4898.11
980.784	4866.92
981.083	4816.75
981.382	4830.76
981.682	4831.21
981.981	4797.54
982.28	4784.66
982.579	4715.96
982.878	4748.51
983.177	4690.43
983.475	4716.87
983.774	4660.37
984.073	4636.64
984.372	4606.81
984.67	4588.96
984.969	4629.41
985.267	4561.84
985.566	4505.8
985.864	4497.21
986.162	4477.1
986.461	4467.83
986.759	4423.54
987.057	4410.66
987.355	4399.36
987.653	4379.02
987.951	4380.38
988.249	4388.97
988.547	4271.23
988.844	4287.27
989.142	4299.93
989.44	4253.6
989.737	4253.6
990.035	4188.75
990.332	4204.56
990.63	4174.28
990.927	4113.95
991.224	4111.91
991.521	4134.51
991.819	4100.39
992.116	4061.29
992.413	4041.63
992.71	4042.53
993.006	4022.87
993.303	4026.04
993.6	4012.03
993.897	3974.29
994.193	3970.22
994.49	3939.71
994.787	3954.63
995.083	3886.61
995.379	3893.16
995.676	3839.83
995.972	3814.52
996.268	3778.59
996.565	3767.06
996.861	3744.24
997.157	3785.37
997.453	3745.59
997.749	3691.58
998.044	3678.02
998.34	3650.91
998.636	3677.12
998.932	3632.6
999.227	3599.83
999.523	3571.81
999.818	3557.12
1000.114	3586.95
1000.409	3508.31
1000.704	3496.56
1001	3492.27
1001.295	3469.89
1001.59	3484.13
1001.885	3437.58
1002.18	3396.45
1002.475	3368.2
1002.77	3405.26
1003.065	3387.41
1003.359	3344.7
1003.654	3328.66
1003.949	3297.7
1004.243	3298.6
1004.538	3235.78
1004.832	3252.5
1005.127	3217.47
1005.421	3208.66
1005.715	3189.45
1006.009	3190.81
1006.304	3162.33
1006.598	3106.51
1006.892	3120.98
1007.186	3109.9
1007.48	3083.46
1007.773	3028.1
1008.067	3027.42
1008.361	2987.87
1008.655	2979.51
1008.948	2981.32
1009.242	2951.49
1009.535	2919.17
1009.829	2918.27
1010.122	2910.81
1010.415	2886.41
1010.708	2872.62
1011.001	2819.06
1011.295	2834.66
1011.588	2802.79
1011.881	2816.13
1012.173	2770.7
1012.466	2760.53
1012.759	2750.37
1013.052	2726.86
1013.344	2706.07
1013.637	2728.9
1013.93	2650.71
1014.222	2661.33
1014.514	2639.63
1014.807	2633.31
1015.099	2633.76
1015.391	2595.57
1015.683	2582.23
1015.976	2573.65
1016.268	2547.43
1016.56	2505.63
1016.851	2510.82
1017.143	2489.81
1017.435	2477.6
1017.727	2444.84
1018.018	2462.01
1018.31	2456.59
1018.602	2436.25
1018.893	2370.26
1019.185	2398.28
1019.476	2341.11
1019.767	2330.49
1020.058	2303.37
1020.35	2306.54
1020.641	2318.96
1020.932	2263.6
1021.223	2286.65
1021.514	2249.81
1021.804	2244.62
1022.095	2198.74
1022.386	2206.88
1022.677	2212.53
1022.967	2197.61
1023.258	2150.38
1023.548	2158.74
1023.839	2097.5
1024.129	2142.7
1024.419	2095.02
1024.709	2071.51
1025	2047.33
1025.29	2030.61
1025.58	2017.5
1025.87	2022.25
1026.16	1995.36
1026.449	1983.61
1026.739	1993.78
1027.029	1958.52
1027.319	1959.2
1027.608	1942.03
1027.898	1927.11
1028.187	1896.83
1028.477	1852.31
1028.766	1876.94
1029.055	1870.61
1029.344	1865.87
1029.634	1836.27
1029.923	1821.35
1030.212	1802.59
1030.501	1790.16
1030.79	1757.62
1031.078	1785.87
1031.367	1771.18
1031.656	1749.26
1031.945	1722.6
1032.233	1709.49
1032.522	1717.4
1032.81	1672.65
1033.099	1706.55
1033.387	1654.8
1033.675	1656.83
1033.963	1629.04
1034.251	1637.63
1034.54	1611.19
1034.828	1624.07
1035.116	1607.57
1035.403	1595.82
1035.691	1583.62
1035.979	1564.18
1036.267	1577.74
1036.554	1527.12
1036.842	1532.54
1037.129	1518.53
1037.417	1506.78
1037.704	1495.03
1037.992	1488.03
1038.279	1471.98
1038.566	1491.19
1038.853	1491.19
1039.14	1491.19
