Data from 15-5210_FLMS001491_007.txt Node
Date: Thu Apr 19 16:48:29 BST 2018
User: hsy
Spectrometer: FLMS00149
Trigger mode: 0
Integration Time (sec): 1.000000E-2
Scans to average: 10
Electric dark correction enabled: true
Nonlinearity correction enabled: false
Boxcar width: 0
XAxis mode: Wavelengths
Number of Pixels in Spectrum: 2048
>>>>>Begin Spectral Data<<<<<
341.393	-4.76
341.776	-4.76
342.16	-4.76
342.543	-77.53
342.927	-67.36
343.31	-90.63
343.693	-67.13
344.077	-64.65
344.46	-77.07
344.843	-39.34
345.226	-50.18
345.61	-21.93
345.993	-10.64
346.376	-0.01
346.759	12.19
347.142	33.66
347.525	40.66
347.908	46.99
348.291	86.54
348.674	90.15
349.057	111.4
349.44	120.43
349.823	121.56
350.206	178.51
350.588	207.66
350.971	221.22
351.354	276.14
351.737	287.66
352.119	274.55
352.502	293.54
352.884	309.36
353.267	315.91
353.65	320.66
354.032	335.12
354.414	366.98
354.797	352.74
355.179	340.77
355.562	368.56
355.944	368.11
356.326	366.76
356.709	377.6
357.091	400.88
357.473	362.91
357.855	368.56
358.238	385.96
358.62	380.54
359.002	370.37
359.384	377.38
359.766	365.4
360.148	363.59
360.53	378.51
360.912	369.69
361.294	391.16
361.676	380.99
362.057	364.04
362.439	366.3
362.821	376.7
363.203	345.06
363.584	368.34
363.966	348.45
364.348	349.58
364.729	367.43
365.111	374.89
365.493	385.06
365.874	350.26
366.256	359.98
366.637	339.19
367.019	344.16
367.4	373.08
367.781	354.1
368.163	348
368.544	340.09
368.925	372.86
369.306	359.3
369.688	365.4
370.069	372.41
370.45	361.11
370.831	357.72
371.212	369.24
371.593	369.47
371.974	354.78
372.355	350.71
372.736	373.54
373.117	367.21
373.498	366.08
373.879	382.35
374.26	373.08
374.641	355
375.021	385.06
375.402	376.93
375.783	372.18
376.163	386.19
376.544	395
376.925	392.07
377.305	385.06
377.686	381.67
378.066	406.08
378.447	376.25
378.827	401.11
379.208	396.59
379.588	395.68
379.968	395.46
380.349	414.44
380.729	406.98
381.109	397.94
381.489	398.17
381.87	402.91
382.25	439.75
382.63	436.36
383.01	418.51
383.39	424.61
383.77	426.19
384.15	407.43
384.53	440.65
384.91	423.7
385.29	410.6
385.67	449.69
386.049	455.57
386.429	449.92
386.809	437.04
387.189	463.02
387.568	472.52
387.948	473.87
388.328	474.1
388.707	466.41
389.087	473.87
389.466	479.97
389.846	486.53
390.225	470.71
390.605	497.6
390.984	491.72
391.363	479.97
391.743	486.3
392.122	487.66
392.501	498.05
392.881	503.93
393.26	499.86
393.639	498.28
394.018	516.36
394.397	502.12
394.776	535.79
395.155	542.12
395.534	550.48
395.913	540.76
396.292	546.86
396.671	567.2
397.05	552.29
397.429	573.76
397.808	574.66
398.186	573.53
398.565	552.06
398.944	566.98
399.323	580.76
399.701	574.89
400.08	607.2
400.458	580.08
400.837	588.67
401.215	607.2
401.594	618.95
401.972	635
402.351	635.9
402.729	632.96
403.107	650.59
403.486	675.45
403.864	668.67
404.242	666.41
404.62	669.35
404.999	650.59
405.377	652.62
405.755	668.89
406.133	690.14
406.511	719.74
406.889	730.14
407.267	732.4
407.645	759.06
408.023	743.02
408.401	763.13
408.779	767.42
409.156	779.17
409.534	804.71
409.912	819.17
410.29	826.18
410.667	829.34
411.045	836.35
411.422	878.61
411.8	874.99
412.178	863.47
412.555	886.52
412.933	887.65
413.31	923.13
413.687	934.65
414.065	959.28
414.442	964.03
414.819	957.7
415.197	999.28
415.574	997.02
415.951	999.06
416.328	1038.6
416.705	1009.45
417.082	1045.83
417.46	1060.07
417.837	1064.59
418.214	1059.85
418.591	1117.92
418.967	1119.5
419.344	1120.63
419.721	1130.13
420.098	1156.79
420.475	1177.58
420.852	1157.47
421.228	1180.29
421.605	1169.9
421.982	1199.05
422.358	1217.58
422.735	1246.51
423.111	1246.28
423.488	1241.54
423.864	1299.61
424.241	1297.13
424.617	1286.51
424.994	1291.25
425.37	1305.26
425.746	1323.79
426.123	1348.88
426.499	1382.77
426.875	1377.35
427.251	1433.62
427.627	1460.29
428.003	1472.26
428.379	1467.07
428.756	1470
429.132	1498.25
429.507	1503
429.883	1549.55
430.259	1556.33
430.635	1580.51
431.011	1576.89
431.387	1644.24
431.763	1630
432.138	1675.87
432.514	1666.38
432.89	1697.12
433.265	1725.59
433.641	1756.1
434.016	1767.17
434.392	1844.91
434.767	1860.73
435.143	1850.33
435.518	1847.17
435.894	1921.29
436.269	1949.99
436.644	1985.24
437.02	1979.14
437.395	1999.03
437.77	2033.38
438.145	2019.59
438.52	2060.5
438.895	2092.59
439.271	2085.35
439.646	2112.47
440.021	2132.36
440.395	2161.51
440.77	2150.66
441.145	2144.56
441.52	2206.26
441.895	2196.99
442.27	2253.26
442.645	2251.9
443.019	2281.96
443.394	2287.61
443.769	2283.54
444.143	2298
444.518	2350.21
444.892	2347.95
445.267	2343.2
445.641	2406.7
446.016	2426.14
446.39	2419.36
446.764	2382.52
447.139	2411
447.513	2453.25
447.887	2446.25
448.262	2507.26
448.636	2513.37
449.01	2540.48
449.384	2556.08
449.758	2583.65
450.132	2607.83
450.506	2630.88
450.88	2645.11
451.254	2634.72
451.628	2712
452.002	2745
452.376	2771.44
452.75	2793.58
453.123	2830.19
453.497	2836.75
453.871	2893.24
454.244	2944.77
454.618	2964.88
454.992	2996.07
455.365	3010.53
455.739	3074.03
456.112	3090.75
456.486	3116.97
456.859	3186.57
457.232	3235.16
457.606	3275.61
457.979	3301.59
458.352	3386.79
458.725	3391.99
459.099	3401.7
459.472	3466.56
459.845	3517.63
460.218	3557.18
460.591	3601.25
460.964	3638.76
461.337	3667.69
461.71	3756.27
462.083	3792.88
462.456	3821.35
462.829	3853.9
463.201	3917.17
463.574	3897.74
463.947	3992.2
464.32	4010.28
464.692	4072.65
465.065	4155.58
465.438	4201.01
465.81	4206.2
466.183	4258.86
466.555	4346.09
466.928	4376.37
467.3	4354.22
467.672	4382.24
468.045	4569.58
468.417	4564.61
468.789	4565.52
469.161	4623.37
469.534	4698.17
469.906	4789.24
470.278	4858.39
470.65	4899.07
471.022	4992.17
471.394	5013.41
471.766	5088.89
472.138	5149.45
472.51	5284.14
472.882	5261.09
473.253	5366.17
473.625	5471.71
473.997	5629.22
474.369	5626.96
474.74	5704.02
475.112	5758.93
475.484	5850.45
475.855	5964.35
476.227	6013.39
476.598	6142.65
476.97	6196.89
477.341	6356.2
477.713	6482.98
478.084	6531.57
478.455	6640.94
478.827	6698.57
479.198	6859.24
479.569	6969.07
479.94	7150.31
480.311	7252
480.682	7397.08
481.053	7509.17
481.424	7677.07
481.795	7751.87
482.166	7832.1
482.537	7923.62
482.908	8144.63
483.279	8242.71
483.65	8421.01
484.021	8602.92
484.391	8710.49
484.762	8852.63
485.133	8835.91
485.503	9054.21
485.874	9307.99
486.244	9413.98
486.615	9585.04
486.985	9631.15
487.356	9862.1
487.726	9988.2
488.097	10207.63
488.467	10326.27
488.837	10505.25
489.207	10568.52
489.578	10887.84
489.948	11056.64
490.318	11231.33
490.688	11251.67
491.058	11439.46
491.428	11680.13
491.798	11712.22
492.168	11971.87
492.538	12099.78
492.908	12255.26
493.278	12474.23
493.648	12571.41
494.017	12776.6
494.387	12909.7
494.757	13006.2
495.126	13226.98
495.496	13257.49
495.866	13442.12
496.235	13577.48
496.605	13805.95
496.974	13840.3
497.344	14026.28
497.713	14229.22
498.082	14326.61
498.452	14542.88
498.821	14667.4
499.19	14685.48
499.559	14863.1
499.928	14895.19
500.298	15143.77
500.667	15317.1
501.036	15331.56
501.405	15541.27
501.774	15559.8
502.143	15780.81
502.512	15882.51
502.88	15997.08
503.249	16035.72
503.618	16209.28
503.987	16315.04
504.356	16489.5
504.724	16561.36
505.093	16624.41
505.462	16736.95
505.83	16892.65
506.199	17112.08
506.567	17329.93
506.936	17308.91
507.304	17499.41
507.672	17584.16
508.041	17681.1
508.409	17818.95
508.777	17974.2
509.145	18116.12
509.514	18131.03
509.882	18253.29
510.25	18395.21
510.618	18613.96
510.986	18549.55
511.354	18673.62
511.722	18985.93
512.09	19116.77
512.458	18966.49
512.826	19322.64
513.193	19305.69
513.561	19411.45
513.929	19605.12
514.297	19600.15
514.664	19823.42
515.032	19932.8
515.4	20058.89
515.767	20154.48
516.135	20417.08
516.502	20199.91
516.869	20505.89
517.237	20643.51
517.604	20474.93
517.972	20916.5
518.339	21018.19
518.706	21087.34
519.073	21096.83
519.44	21270.16
519.808	21408.91
520.175	21517.39
520.542	21761
520.909	21814.33
521.276	21911.95
521.643	22202.34
522.009	22254.09
522.376	22330.7
522.743	22487.08
523.11	22689.78
523.477	22859.72
523.843	22912.83
524.21	23319.15
524.577	23400.73
524.943	23475.53
525.31	23538.58
525.676	23912.13
526.043	23946.02
526.409	23846.36
526.776	24232.8
527.142	24179.01
527.508	24364.09
527.874	24557.08
528.241	24614.93
528.607	24824.87
528.973	25020.57
529.339	24885.89
529.705	25271.64
530.071	25250.17
530.437	25399.09
530.803	25526.32
531.169	25638.86
531.535	25639.09
531.901	25652.42
532.267	25875.92
532.632	26062.35
532.998	26045.18
533.364	26160.2
533.73	26213.08
534.095	26401.78
534.461	26376.47
534.826	26500.98
535.192	26557.48
535.557	26583.69
535.923	26693.07
536.288	26669.57
536.653	26863.91
537.019	26694.43
537.384	26783.46
537.749	26814.2
538.114	26857.81
538.479	26870.69
538.845	26983.23
539.21	26917.92
539.575	26944.14
539.94	26935.55
540.305	27100.74
540.67	27110.23
541.034	27111.36
541.399	27114.08
541.764	27177.12
542.129	27168.76
542.494	27227.29
542.858	27206.28
543.223	27165.83
543.587	27316.78
543.952	27282.66
544.316	27262.32
544.681	27154.3
545.045	27332.37
545.41	27347.74
545.774	27307.52
546.138	27288.31
546.503	27259.61
546.867	27176.9
547.231	27434.97
547.595	27328.08
547.959	27429.77
548.324	27289.66
548.688	27305.03
549.052	27269.55
549.416	27225.48
549.779	27196.78
550.143	27347.74
550.507	27326.27
550.871	27359.72
551.235	27297.35
551.599	27535.76
551.962	27435.87
552.326	27404.01
552.689	27578.02
553.053	27254.64
553.417	27447.63
553.78	27561.97
554.143	27572.59
554.507	27516.78
554.87	27518.13
555.234	27714.96
555.597	27433.39
555.96	27490.34
556.323	27623.21
556.686	27584.57
557.05	27613.27
557.413	27659.6
557.776	27738.47
558.139	27746.37
558.502	27693.95
558.865	27781.85
559.228	27921.51
559.59	27937.78
559.953	27924.68
560.316	28145.46
560.679	27994.73
561.041	28122.86
561.404	28142.52
561.767	28205.35
562.129	28181.84
562.492	28432.01
562.854	28375.96
563.217	28436.07
563.579	28419.58
563.941	28410.09
564.304	28582.96
564.666	28763.52
565.028	28708.16
565.39	28682.62
565.753	28819.57
566.115	28920.81
566.477	29061.59
566.839	29125.77
567.201	29320.8
567.563	29257.97
567.925	29345.88
568.287	29363.28
568.648	29480.57
569.01	29651.18
569.372	29794.46
569.734	29749.94
570.095	29848.69
570.457	29974.79
570.819	29911.97
571.18	29917.84
571.542	30166.42
571.903	30161.45
572.265	30260.66
572.626	30446.87
572.987	30420.43
573.349	30664.04
573.71	30703.59
574.071	30776.58
574.432	30965.05
574.794	31210.01
575.155	31120.3
575.516	31048.66
575.877	31233.74
576.238	31233.29
576.599	31393.96
576.96	31357.81
577.32	31519.38
577.681	31522.09
578.042	31775.2
578.403	31752.6
578.763	31750.56
579.124	31917.11
579.485	31964.57
579.845	32206.82
580.206	32259.48
580.566	32143.32
580.927	32059.48
581.287	32334.95
581.648	32198.24
582.008	32426.03
582.368	32460.83
582.728	32456.08
583.089	32560.03
583.449	32486.14
583.809	32541.96
584.169	32773.59
584.529	32632.57
584.889	32846.58
585.249	32853.13
585.609	32718.22
585.969	32828.95
586.329	32867.14
586.688	33120.47
587.048	33021.72
587.408	33032.56
587.768	33051.77
588.127	33152.11
588.487	33185.1
588.846	33424.42
589.206	33186.23
589.565	33204.99
589.925	33449.28
590.284	33337.87
590.643	33443.63
591.003	33456.73
591.362	33735.37
591.721	33737.63
592.08	33791.64
592.44	33950.51
592.799	33946.44
593.158	34017.4
593.517	33893.78
593.876	34102.37
594.235	34087
594.593	34163.83
594.952	34150.5
595.311	34034.12
595.67	34299.42
596.029	34574.44
596.387	34463.26
596.746	34561.34
597.104	34454.67
597.463	34559.76
597.822	34811.5
598.18	34489.47
598.538	34664.16
598.897	34900.76
599.255	34646.31
599.613	35108.67
599.972	34905.96
600.33	35060.98
600.688	35046.52
601.046	35139.85
601.404	35333.75
601.762	35312.73
602.12	35309.11
602.478	35447.19
602.836	35422.33
603.194	35298.27
603.552	35331.26
603.91	35439.28
604.268	35542.1
604.625	35531.71
604.983	35827.97
605.341	35533.06
605.698	35725.6
606.056	35948.65
606.413	35786.39
606.771	36062.31
607.128	36180.5
607.485	35989.1
607.843	36006.27
608.2	36141.41
608.557	36281.07
608.914	36233.16
609.272	36502.98
609.629	36531.23
609.986	36691.45
610.343	36612.13
610.7	36786.36
611.057	36744.56
611.414	36738
611.771	37030.42
612.127	36986.58
612.484	37034.49
612.841	37173.02
613.198	36943.87
613.554	37130.53
613.911	37267.03
614.267	37377.53
614.624	37285.56
614.98	37443.75
615.337	37711.54
615.693	37580.69
616.05	37677.64
616.406	37773.68
616.762	37678.32
617.118	37670.63
617.475	37771.2
617.831	37907.01
618.187	38087.57
618.543	38111.07
618.899	38240.34
619.255	38142.71
619.611	38163.28
619.967	38224.97
620.323	38462.03
620.678	38368.24
621.034	38272.43
621.39	38318.07
621.746	38398.3
622.101	38727.56
622.457	38527.56
622.812	38565.07
623.168	38650.95
623.523	38529.37
623.879	38791.28
624.234	38494.34
624.589	38637.39
624.945	38635.81
625.3	38604.62
625.655	38699.31
626.01	38712.64
626.365	38871.96
626.72	38661.12
627.075	38623.83
627.43	38721.68
627.785	38671.74
628.14	38655.24
628.495	38695.01
628.85	38722.81
629.205	38696.37
629.559	38806.65
629.914	38542.93
630.269	38774.56
630.623	38505.87
630.978	38491.18
631.332	38652.3
631.687	38539.99
632.041	38619.54
632.396	38456.15
632.75	38485.98
633.104	38521.68
633.459	38165.99
633.813	38314.68
634.167	38283.73
634.521	38364.63
634.875	38472.19
635.229	38172.09
635.583	38097.52
635.937	38006.67
636.291	38020.91
636.645	38165.54
636.999	37930.06
637.352	38024.07
637.706	37868.59
638.06	37971.19
638.413	37946.56
638.767	37764.42
639.121	37921.25
639.474	37742.72
639.828	37698.2
640.181	37684.64
640.534	37768.48
640.888	37559.22
641.241	37451.88
641.594	37473.12
641.947	37551.09
642.301	37406.91
642.654	37615.27
643.007	37430.64
643.36	37473.58
643.713	37554.48
644.066	37605.78
644.419	37411.88
644.771	36878.11
645.124	36617.1
645.477	36621.17
645.83	36477.44
646.182	36405.81
646.535	36375.98
646.888	36512.02
647.24	36347.73
647.593	36522.42
647.945	36390.89
648.298	36452.59
648.65	36215.53
649.002	36147.51
649.355	36006.27
649.707	36067.96
650.059	36027.06
650.411	36549.08
650.763	36756.99
651.115	37249.18
651.467	37064.32
651.819	37152.91
652.171	37066.13
652.523	37141.61
652.875	37106.35
653.227	36817.55
653.578	37385.67
653.93	37152.46
654.282	36904.78
654.633	37047.15
654.985	37201.27
655.337	37159.91
655.688	37036.53
656.039	37314.94
656.391	36954.72
656.742	37219.35
657.094	37110.87
657.445	37246.46
657.796	37133.47
658.147	37205.11
658.498	37275.39
658.849	37436.52
659.2	37386.35
659.551	37265.22
659.902	37432
660.253	37244.43
660.604	37500.24
660.955	37348.38
661.306	37567.13
661.656	37386.8
662.007	37406.69
662.358	37661.59
662.708	37567.59
663.059	37590.41
663.409	37343.64
663.76	37652.33
664.11	37604.19
664.461	37711.08
664.811	37766.22
665.161	37742.27
665.511	37559
665.862	37815.49
666.212	37738.43
666.562	37771.65
666.912	37809.84
667.262	37478.32
667.612	37705.44
667.962	37848.71
668.312	37655.27
668.662	37949.04
669.011	37715.38
669.361	37707.69
669.711	37812.55
670.06	37674.25
670.41	37689.62
670.76	37718.77
671.109	37721.03
671.459	37657.3
671.808	37601.26
672.157	37698.66
672.507	37620.47
672.856	37468.38
673.205	37506.8
673.554	37479
673.904	37567.81
674.253	37757.19
674.602	37482.84
674.951	37024.55
675.3	36841.5
675.649	37491.2
675.998	37394.26
676.346	37376.86
676.695	37422.05
677.044	37207.37
677.393	37187.03
677.741	37209.63
678.09	37138.22
678.438	37152.46
678.787	37175.05
679.135	37118.56
679.484	36862.97
679.832	37002.85
680.181	36949.97
680.529	36833.14
680.877	36733.94
681.225	36734.61
681.573	36807.83
681.922	36774.84
682.27	36612.81
682.618	36579.59
682.966	36570.1
683.314	36415.3
683.661	36471.12
684.009	36375.98
684.357	36197.23
684.705	35994.07
685.053	36044.01
685.4	36020.51
685.748	35918.82
686.095	35918.14
686.443	35610.8
686.79	35612.61
687.138	35737.35
687.485	35694.19
687.832	35401.31
688.18	35309.57
688.527	35245.39
688.874	35242.45
689.221	35066.41
689.568	34824.83
689.915	34785.96
690.262	34834.1
690.609	34770.37
690.956	34488.34
691.303	34434.11
691.65	34292.87
691.997	34283.83
692.344	34108.92
692.69	33958.42
693.037	33989.83
693.383	33561.14
693.73	33619.89
694.077	33537.18
694.423	33466.68
694.769	33167.7
695.116	33310.75
695.462	33047.25
695.808	32948.27
696.155	32956.63
696.501	32659.92
696.847	32634.38
697.193	32372.02
697.539	32340.6
697.885	32083.44
698.231	32019.93
698.577	31948.98
698.923	31869.2
699.269	31572.94
699.614	31454.07
699.96	31301.76
700.306	31348.54
700.651	31161.65
700.997	30999.17
701.342	31092.73
701.688	30862.45
702.033	30821.1
702.379	30653.19
702.724	30385.4
703.069	30519.18
703.415	30152.41
703.76	30061.12
704.105	30106.54
704.45	29901.12
704.795	29797.17
705.14	29632.2
705.485	29615.7
705.83	29504.97
706.175	29494.8
706.52	29325.09
706.865	29254.13
707.209	29067.92
707.554	29024.76
707.899	29023.86
708.243	28877.64
708.588	28715.16
708.932	28617.31
709.277	28576.18
709.621	28500.71
709.966	28276.3
710.31	28413.7
710.654	28072.69
710.998	28111.56
711.342	28297.55
711.687	28122.86
712.031	27985.01
712.375	27838.12
712.719	27915.64
713.063	27849.65
713.407	27953.15
713.75	27599.49
714.094	27822.76
714.438	27598.58
714.782	27563.55
715.125	27490.34
715.469	27661.18
715.812	27301.64
716.156	27412.82
716.499	27440.17
716.843	27512.26
717.186	27380.51
717.53	27390
717.873	27476.78
718.216	27387.97
718.559	27183.45
718.902	27073.4
719.246	27220.29
719.589	27163.34
719.932	27095.77
720.275	27082.21
720.617	27049.67
720.96	27073.62
721.303	27064.13
721.646	27075.43
721.989	26966.06
722.331	27025.26
722.674	26987.75
723.016	27027.07
723.359	26922.67
723.701	27026.17
724.044	26824.82
724.386	26850.13
724.729	27017.13
725.071	26763.8
725.413	26932.16
725.755	26979.16
726.097	26759.28
726.439	26818.26
726.782	26794.99
727.124	26976
727.465	26850.35
727.807	26867.98
728.149	26891.03
728.491	26894.87
728.833	26982.55
729.175	26978.49
729.516	27073.85
729.858	27054.42
730.199	27131.7
730.541	27032.27
730.882	27032.72
731.224	27102.32
731.565	27079.5
731.906	27127.41
732.248	27251.02
732.589	27177.35
732.93	27042.89
733.271	27221.19
733.612	27176.9
733.953	27386.16
734.294	27360.62
734.635	27314.97
734.976	27540.28
735.317	27423.9
735.658	27555.19
735.999	27468.19
736.339	27645.81
736.68	27713.61
737.021	27787.5
737.361	27678.58
737.702	27909.53
738.042	27924
738.383	27900.5
738.723	27979.59
739.063	27914.28
739.404	28179.13
739.744	28126.93
740.084	28142.97
740.424	28278.79
740.764	28294.61
741.104	28525.11
741.444	28518.11
741.784	28516.75
742.124	28724.2
742.464	28714.94
742.804	28770.53
743.143	28905.89
743.483	29087.58
743.823	28944.54
744.162	29219.1
744.502	29502.94
744.841	29448.7
745.181	29580.68
745.52	29594.46
745.86	29890.05
746.199	29852.53
746.538	30090.49
746.877	30247.33
747.216	30358.74
747.556	30491.61
747.895	30668.11
748.234	30645.28
748.573	30775.22
748.911	31042.33
749.25	31321.65
749.589	31295.89
749.928	31583.34
750.267	31706.27
750.605	31774.74
750.944	32050.67
751.283	32197.78
751.621	32357.78
751.96	32470.32
752.298	32648.62
752.636	32783.98
752.975	32859.23
753.313	33163.41
753.651	33454.93
753.989	33474.36
754.327	33833.22
754.666	33703.28
755.004	33916.83
755.342	34320.67
755.679	34485.63
756.017	34461.9
756.355	34768.56
756.693	34987.09
757.031	35248.1
757.368	35091.27
757.706	35220.08
758.044	35422.78
758.381	35611.93
758.719	35867.07
759.056	36005.59
759.394	36080.85
759.731	35966.5
760.068	36204.91
760.405	36420.72
760.743	36390.22
761.08	36619.14
761.417	36729.19
761.754	36767.61
762.091	36817.1
762.428	36959.24
762.765	36948.17
763.102	37267.48
763.438	37080.37
763.775	37165.79
764.112	37427.25
764.449	37443.07
764.785	37531.43
765.122	37468.38
765.458	37403.75
765.795	37559.9
766.131	37661.82
766.467	37649.17
766.804	37580.47
767.14	37528.26
767.476	37670.63
767.812	37593.8
768.148	37701.14
768.485	37753.12
768.821	37634.7
769.157	37618.66
769.492	37597.42
769.828	37758.32
770.164	37495.5
770.5	37388.38
770.836	37520.13
771.171	37423.18
771.507	37488.27
771.842	37361.72
772.178	37316.74
772.513	37391.32
772.849	37246.69
773.184	37300.02
773.519	37173.47
773.855	37037.88
774.19	37074.27
774.525	36869.98
774.86	37112.68
775.195	36972.57
775.53	36794.95
775.865	36646.71
776.2	36488.97
776.535	36354.74
776.87	36496.65
777.205	36270.22
777.539	36262.08
777.874	36227.28
778.209	36115.87
778.543	35969.89
778.878	35759.27
779.212	35937.12
779.547	35613.96
779.881	35723.79
780.215	35426.4
780.55	35624.59
780.884	35374.65
781.218	35144.6
781.552	35365.38
781.886	35081.1
782.22	34917.49
782.554	34868.45
782.888	34705.29
783.222	34562.92
783.556	34557.95
783.889	34364.96
784.223	34234.79
784.557	34218.52
784.89	34242.93
785.224	34074.34
785.557	33884.29
785.891	33765.43
786.224	33791.64
786.558	33717.97
786.891	33552.55
787.224	33275.5
787.557	33334.93
787.891	33291.31
788.224	33063.07
788.557	33230.75
788.89	33020.59
789.223	32943.3
789.556	32767.03
789.888	32624.21
790.221	32379.25
790.554	32399.13
790.887	32412.47
791.219	32354.62
791.552	32227.16
791.884	32125.02
792.217	32062.19
792.549	31916.21
792.882	31657.01
793.214	31595.54
793.546	31582.88
793.879	31420.4
794.211	31228.32
794.543	31372.04
794.875	31272.84
795.207	31199.84
795.539	31073.75
795.871	31026.97
796.203	31046.63
796.535	30645.28
796.867	30795.79
797.198	30528.67
797.53	30533.65
797.862	30366.42
798.193	30420.43
798.525	30233.77
798.856	30377.49
799.188	30097.95
799.519	29964.17
799.85	29827.68
800.182	29925.07
800.513	29958.52
800.844	29505.65
801.175	29706.32
801.506	29760.11
801.837	29468.59
802.168	29401.7
802.499	29461.58
802.83	29132.1
803.161	29128.49
803.491	29253.68
803.822	29187.69
804.153	28911.32
804.483	28710.87
804.814	28604.21
805.145	28670.64
805.475	28631.1
805.805	28563.75
806.136	28679.46
806.466	28537.09
806.796	28403.76
807.126	28185.91
807.457	28263.65
807.787	28227.49
808.117	28180.49
808.447	28025.24
808.777	28136.42
809.107	27885.58
809.436	27750.89
809.766	27735.75
810.096	27727.62
810.426	27662.99
810.755	27660.95
811.085	27547.06
811.414	27619.15
811.744	27472.03
812.073	27410.56
812.403	27394.97
812.732	27074.53
813.061	27221.87
813.39	27044.25
813.719	26998.82
814.049	27088.77
814.378	27119.95
814.707	26854.65
815.036	26945.49
815.365	26740.3
815.693	26629.79
816.022	26583.69
816.351	26454.88
816.68	26400.87
817.008	26464.37
817.337	26269.13
817.665	26354.55
817.994	26209.47
818.322	26397.94
818.651	26307.32
818.979	26132.86
819.307	26113.88
819.636	26125.17
819.964	26029.58
820.292	26116.81
820.62	25891.06
820.948	26061.67
821.276	26023.26
821.604	25888.12
821.932	26050.15
822.259	25953.43
822.587	25877.95
822.915	25911.17
823.243	26024.61
823.57	25823.94
823.898	26032.75
824.225	25914.56
824.553	25884.73
824.88	25948.23
825.207	26033.88
825.535	25821
825.862	25926.99
826.189	25851.96
826.516	26123.59
826.843	25993.2
827.17	26058.96
827.497	26052.18
827.824	26088.57
828.151	25998.17
828.478	25886.08
828.805	26057.15
829.131	26095.57
829.458	26061.22
829.785	25758.86
830.111	25895.8
830.438	26153.42
830.764	26040.88
831.09	26093.09
831.417	25860.55
831.743	26020.54
832.069	25995.01
832.395	25954.33
832.722	25944.39
833.048	25944.39
833.374	25993.88
833.7	25752.08
834.026	25861
834.351	25844.05
834.677	25963.82
835.003	25877.95
835.329	25871.85
835.654	25864.16
835.98	25724.06
836.306	25760.66
836.631	25721.8
836.956	25836.82
837.282	25796.14
837.607	25616.26
837.932	25576.94
838.258	25635.02
838.583	25604.06
838.908	25491.52
839.233	25516.83
839.558	25465.53
839.883	25366.1
840.208	25313.44
840.533	25398.64
840.858	25305.08
841.182	25359.77
841.507	25294.24
841.832	25158.19
842.156	25191.64
842.481	25089.04
842.805	25002.72
843.13	25020.34
843.454	25017.41
843.778	24871.87
844.103	24827.36
844.427	24820.12
844.751	24859.9
845.075	24850.18
845.399	24646.57
845.723	24534.71
846.047	24478.21
846.371	24378.55
846.695	24209.52
847.019	24267.37
847.343	24000.03
847.666	24005
847.99	23848.62
848.313	23713.26
848.637	23786.71
848.96	23718.91
849.284	23704.9
849.607	23407.96
849.931	23459.93
850.254	23309.43
850.577	23168.64
850.9	23019.04
851.223	23005.71
851.546	22796.67
851.869	22752.38
852.192	22973.85
852.515	22651.82
852.838	22551.71
853.161	22461.54
853.483	22385.16
853.806	22408.44
854.129	22329.79
854.451	22250.7
854.774	22097.94
855.096	22116.01
855.419	22098.84
855.741	21847.32
856.063	21828.34
856.385	21798.28
856.708	21697.72
857.03	21607.33
857.352	21678.29
857.674	21522.58
857.996	21562.81
858.318	21283.72
858.64	21394.45
858.961	21178.86
859.283	21127.11
859.605	21062.93
859.926	21166.66
860.248	21018.19
860.57	21065.42
860.891	20965.08
861.212	20829.72
861.534	20905.2
861.855	20744.07
862.176	20755.82
862.498	20685.77
862.819	20790.85
863.14	20662.04
863.461	20619.78
863.782	20566
864.103	20654.58
864.424	20413.91
864.745	20457.3
865.065	20387.25
865.386	20337.76
865.707	20322.62
866.027	20281.03
866.348	20273.35
866.668	20234.93
866.989	20214.37
867.309	20056.63
867.63	20086.24
867.95	20218.44
868.27	19952.23
868.59	20071.77
868.91	19988.84
869.23	19943.42
869.55	19870.2
869.87	19908.61
870.19	19872.91
870.51	19850.99
870.83	19688.51
871.15	19608.06
871.469	19697.55
871.789	19764.89
872.109	19645.57
872.428	19587.27
872.748	19611.45
873.067	19570.32
873.386	19552.92
873.706	19444.22
874.025	19418.23
874.344	19367.61
874.663	19449.64
874.982	19238.58
875.301	19328.52
875.62	19216.43
875.939	19192.48
876.258	19247.39
876.577	19078.58
876.896	19137.11
877.214	19182.53
877.533	19077.9
877.852	19144.12
878.17	19109.31
878.489	19128.52
878.807	18906.83
879.125	19075.87
879.444	18890.56
879.762	18908.42
880.08	18852.37
880.398	18688.08
880.716	18836.78
881.034	18701.42
881.352	18753.62
881.67	18682.66
881.988	18661.64
882.306	18638.59
882.624	18581.42
882.941	18587.29
883.259	18395.89
883.577	18497.8
883.894	18420.74
884.212	18432.95
884.529	18437.47
884.846	18241.31
885.164	18268.21
885.481	18171.49
885.798	18144.82
886.115	18069.79
886.432	18133.29
886.75	18016.24
887.067	18011.72
887.383	17880.42
887.7	17908.22
888.017	17794.09
888.334	17806.3
888.651	17823.47
888.967	17763.81
889.284	17574.21
889.6	17664.38
889.917	17507.32
890.233	17560.88
890.55	17403.6
890.866	17468
891.182	17434.78
891.498	17434.1
891.815	17296.48
892.131	17223.49
892.447	17124.96
892.763	17112.76
893.079	17063.72
893.395	16932.87
893.71	16896.26
894.026	16808.58
894.342	16865.53
894.657	16759.55
894.973	16783.27
895.289	16670.96
895.604	16691.07
895.92	16607.68
896.235	16489.95
896.55	16515.94
896.865	16401.36
897.181	16366.11
897.496	16328.37
897.811	16248.37
898.126	16201.82
898.441	16188.49
898.756	16133.35
899.071	15937.19
899.386	16062.16
899.7	15966.12
900.015	15860.36
900.33	15712.34
900.644	15800.93
900.959	15786.69
901.273	15659.01
901.588	15537.66
901.902	15456.53
902.216	15482.52
902.531	15474.38
902.845	15418.34
903.159	15244.33
903.473	15233.94
903.787	15150.32
904.101	15104
904.415	15042.08
904.729	15064.45
905.042	14910.78
905.356	14879.59
905.67	14935.64
905.984	14936.09
906.297	14785.13
906.611	14666.94
906.924	14648.41
907.237	14629.43
907.551	14645.93
907.864	14497.91
908.177	14513.28
908.491	14417.23
908.804	14199.84
909.117	14254.53
909.43	14157.13
909.743	14136.11
910.056	14175.66
910.368	14054.53
910.681	13936.57
910.994	13873.97
911.307	13850.02
911.619	13771.6
911.932	13747.42
912.244	13594.66
912.557	13673.07
912.869	13636.92
913.181	13454.77
913.494	13478.05
913.806	13315.34
914.118	13366.41
914.43	13284.16
914.742	13193.54
915.054	13123.93
915.366	13099.53
915.678	13045.52
915.99	13016.59
916.302	12944.73
916.613	12902.02
916.925	12880.1
917.236	12802.14
917.548	12667.68
917.859	12786.99
918.171	12523.05
918.482	12532.76
918.794	12467.23
919.105	12438.3
919.416	12349.72
919.727	12340.45
920.038	12367.57
920.349	12197.63
920.66	12260
920.971	12104.53
921.282	12131.87
921.593	12058.88
921.903	11938.2
922.214	11856.85
922.525	11924.19
922.835	11786.79
923.146	11839.22
923.456	11709.96
923.767	11631.09
924.077	11639.45
924.387	11542.28
924.697	11498.67
925.008	11472.23
925.318	11421.61
925.628	11408.5
925.938	11368.27
926.248	11292.12
926.558	11210.09
926.867	11240.37
927.177	11162.63
927.487	11136.64
927.796	11000.15
928.106	11023.88
928.416	10994.27
928.725	10874.5
929.034	10840.83
929.344	10864.56
929.653	10851
929.962	10676.99
930.271	10658.91
930.581	10618.46
930.89	10651.68
931.199	10517.9
931.508	10532.36
931.817	10429.77
932.125	10418.02
932.434	10364.91
932.743	10263.44
933.051	10258.25
933.36	10240.39
933.669	10194.75
933.977	10071.13
934.286	10136.22
934.594	10007.41
934.902	10047.41
935.21	9928.09
935.519	9883.79
935.827	9912.72
936.135	9795.66
936.443	9754.08
936.751	9786.85
937.059	9698.49
937.367	9709.56
937.674	9630.24
937.982	9624.37
938.29	9592.95
938.597	9519.51
938.905	9459.85
939.213	9421.66
939.52	9395.22
939.827	9340.76
940.135	9289.69
940.442	9248.33
940.749	9216.69
941.056	9282.91
941.363	9105.74
941.67	9099.86
941.977	9051.05
942.284	8995
942.591	8985.29
942.898	8900.77
943.205	8946.42
943.511	8844.95
943.818	8859.64
944.125	8704.84
944.431	8746.87
944.738	8714.11
945.044	8690.15
945.35	8603.38
945.657	8489.93
945.963	8505.75
946.269	8485.41
946.575	8472.53
946.881	8393.66
947.187	8406.32
947.493	8378.07
947.799	8314.12
948.105	8248.81
948.41	8259.66
948.716	8253.1
949.022	8193.89
949.327	8162.48
949.633	8039.55
949.938	8055.82
950.244	8034.12
950.549	7999.1
950.854	7904.41
951.16	7895.6
951.465	7871.19
951.77	7859.67
952.075	7835.26
952.38	7830.51
952.685	7764.98
952.99	7728.82
953.294	7681.59
953.599	7607.7
953.904	7583.74
954.209	7565.66
954.513	7571.99
954.818	7542.84
955.122	7519.56
955.426	7473.46
955.731	7400.47
956.035	7386.68
956.339	7353.92
956.643	7357.98
956.948	7214.49
957.252	7251.77
957.556	7241.15
957.86	7186.24
958.163	7159.35
958.467	7118.22
958.771	7119.35
959.075	7041.38
959.378	7008.16
959.682	6996.41
959.985	6929.07
960.289	6923.42
960.592	6842.07
960.896	6838.22
961.199	6882.29
961.502	6793.03
961.805	6746.7
962.108	6720.04
962.411	6681.17
962.714	6654.5
963.017	6646.14
963.32	6670.77
963.623	6612.47
963.926	6635.97
964.228	6522.3
964.531	6488.4
964.833	6526.82
965.136	6476.88
965.438	6357.11
965.741	6339.48
966.043	6352.36
966.345	6304.68
966.648	6289.54
966.95	6267.39
967.252	6214.96
967.554	6236.88
967.856	6208.86
968.158	6108.75
968.46	6125.93
968.761	6129.32
969.063	6064.91
969.365	5990.56
969.666	5950.56
969.968	5958.47
970.269	5922.32
970.571	5956.44
970.872	5929.32
971.174	5835.31
971.475	5866.05
971.776	5818.59
972.077	5793.73
972.378	5770.23
972.679	5715.09
972.98	5718.48
973.281	5671.25
973.582	5662.89
973.883	5625.15
974.183	5619.27
974.484	5644.13
974.785	5526.85
975.085	5533.85
975.386	5501.99
975.686	5476.68
975.986	5474.64
976.287	5442.55
976.587	5410.47
976.887	5360.97
977.187	5363.69
977.487	5324.14
977.787	5283.46
978.087	5255.21
978.387	5280.52
978.687	5211.83
978.987	5185.16
979.286	5200.53
979.586	5147.42
979.885	5182.45
980.185	5071.94
980.484	5068.33
980.784	5073.07
981.083	5044.82
981.382	5071.94
981.682	4956.92
981.981	4964.83
982.28	4914.88
982.579	4898.16
982.878	4935.45
983.177	4849.12
983.475	4853.64
983.774	4842.8
984.073	4827.2
984.372	4758.28
984.67	4780.65
984.969	4762.35
985.267	4752.86
985.566	4669.02
985.864	4696.13
986.162	4676.47
986.461	4580.88
986.759	4606.87
987.057	4548.79
987.355	4584.95
987.653	4493.65
987.951	4530.26
988.249	4527.1
988.547	4466.08
988.844	4424.73
989.142	4457.04
989.44	4373.88
989.737	4384.05
990.035	4423.82
990.332	4353.09
990.63	4326.65
990.927	4302.92
991.224	4242.13
991.521	4295.92
991.819	4211.63
992.116	4223.38
992.413	4194.23
992.71	4185.41
993.006	4166.88
993.303	4144.06
993.6	4126.88
993.897	4117.62
994.193	4083.04
994.49	4084.17
994.787	4015.47
995.083	4031.74
995.379	3997.17
995.676	3963.95
995.972	3970.28
996.268	3949.49
996.565	3932.54
996.861	3911.97
997.157	3926.44
997.453	3823.61
997.749	3830.85
998.044	3794.46
998.34	3803.05
998.636	3795.14
998.932	3727.12
999.227	3739.77
999.523	3697.74
999.818	3695.93
1000.114	3645.09
1000.409	3619.55
1000.704	3593.79
1001	3614.35
1001.295	3601.93
1001.59	3574.13
1001.885	3539.33
1002.18	3521.93
1002.475	3474.92
1002.77	3504.98
1003.065	3451.65
1003.359	3452.32
1003.654	3425.66
1003.949	3415.72
1004.243	3361.25
1004.538	3327.13
1004.832	3353.57
1005.127	3339.33
1005.421	3282.39
1005.715	3284.19
1006.009	3226.12
1006.304	3269.28
1006.598	3224.31
1006.892	3235.38
1007.186	3172.11
1007.48	3139.56
1007.773	3142.73
1008.067	3098.66
1008.361	3090.3
1008.655	3081.26
1008.948	3070.64
1009.242	3079
1009.535	3024.99
1009.829	3018.89
1010.122	2998.78
1010.415	3011.88
1010.708	2955.84
1011.001	2957.87
1011.295	2922.85
1011.588	2918.33
1011.881	2889.63
1012.173	2886.24
1012.466	2857.31
1012.759	2861.15
1013.052	2865.9
1013.344	2794.94
1013.637	2802.4
1013.93	2742.96
1014.222	2731.44
1014.514	2710.42
1014.807	2688.5
1015.099	2707.03
1015.391	2656.87
1015.683	2661.38
1015.976	2634.94
1016.268	2641.72
1016.56	2579.35
1016.851	2572.8
1017.143	2572.12
1017.435	2568.05
1017.727	2531.67
1018.018	2487.83
1018.31	2502.29
1018.602	2470.66
1018.893	2451.67
1019.185	2465.23
1019.476	2425.46
1019.767	2429.07
1020.058	2425.46
1020.35	2376.65
1020.641	2354.73
1020.932	2355.63
1021.223	2326.7
1021.514	2350.43
1021.804	2298.23
1022.095	2291.68
1022.386	2276.08
1022.677	2286.93
1022.967	2225.46
1023.258	2216.42
1023.548	2218.46
1023.839	2180.04
1024.129	2201.74
1024.419	2174.84
1024.709	2117.9
1025	2113.15
1025.29	2087.39
1025.58	2101.4
1025.87	2079.71
1026.16	2084.68
1026.449	2050.78
1026.739	2024.11
1027.029	2043.77
1027.319	2025.7
1027.608	1972.36
1027.898	1967.39
1028.187	1946.83
1028.477	1944.34
1028.766	1913.16
1029.055	1907.05
1029.344	1908.18
1029.634	1905.25
1029.923	1862.08
1030.212	1885.59
1030.501	1862.08
1030.79	1820.05
1031.078	1837.23
1031.367	1774.63
1031.656	1769.88
1031.945	1811.01
1032.233	1775.98
1032.522	1762.88
1032.81	1766.95
1033.099	1761.97
1033.387	1701.18
1033.675	1693.5
1033.963	1671.35
1034.251	1681.07
1034.54	1665.03
1034.828	1672.48
1035.116	1639.04
1035.403	1618.25
1035.691	1630.45
1035.979	1634.75
1036.267	1606.72
1036.554	1563.11
1036.842	1553.39
1037.129	1576.22
1037.417	1552.71
1037.704	1525.37
1037.992	1535.09
1038.279	1501.19
1038.566	1475.43
1038.853	1475.43
1039.14	1475.43
