Data from 15-5210_FLMS001491_008.txt Node
Date: Thu Apr 19 16:48:31 BST 2018
User: hsy
Spectrometer: FLMS00149
Trigger mode: 0
Integration Time (sec): 1.000000E-2
Scans to average: 10
Electric dark correction enabled: true
Nonlinearity correction enabled: false
Boxcar width: 0
XAxis mode: Wavelengths
Number of Pixels in Spectrum: 2048
>>>>>Begin Spectral Data<<<<<
341.393	-18.91
341.776	-18.91
342.16	-18.91
342.543	-63.66
342.927	-54.39
343.31	-71.57
343.693	-72.47
344.077	-68.18
344.46	-65.92
344.843	-51.91
345.226	-44.45
345.61	-43.32
345.993	-5.8
346.376	26.51
346.759	7.98
347.142	27.19
347.525	38.26
347.908	49.11
348.291	79.84
348.674	94.53
349.057	100.18
349.44	137.47
349.823	147.86
350.206	179.73
350.588	224.92
350.971	215.66
351.354	260.63
351.737	268.76
352.119	272.38
352.502	297.24
352.884	320.74
353.267	305.83
353.65	299.95
354.032	339.95
354.414	364.81
354.797	336.78
355.179	338.82
355.562	358.93
355.944	353.51
356.326	371.13
356.709	378.59
357.091	374.98
357.473	384.24
357.855	383.56
358.238	373.85
358.62	360.74
359.002	409.78
359.384	382.43
359.766	369.33
360.148	374.3
360.53	377.69
360.912	379.27
361.294	374.3
361.676	364.35
362.057	367.97
362.439	379.5
362.821	360.97
363.203	382.21
363.584	351.47
363.966	380.17
364.348	371.13
364.729	342.89
365.111	359.16
365.493	375.88
365.874	358.48
366.256	365.71
366.637	368.2
367.019	350.34
367.4	378.82
367.781	343.56
368.163	359.38
368.544	350.12
368.925	360.51
369.306	357.12
369.688	381.53
370.069	374.07
370.45	361.19
370.831	360.97
371.212	351.47
371.593	358.25
371.974	377.01
372.355	374.98
372.736	360.51
373.117	375.2
373.498	377.69
373.879	377.69
374.26	354.19
374.641	367.74
375.021	353.51
375.402	380.63
375.783	388.31
376.163	387.18
376.544	395.54
376.925	389.44
377.305	380.4
377.686	383.79
378.066	398.48
378.447	406.84
378.827	396.44
379.208	398.48
379.588	388.76
379.968	394.86
380.349	396.22
380.729	426.27
381.109	391.92
381.489	407.29
381.87	417.69
382.25	406.39
382.63	421.53
383.01	432.15
383.39	417.91
383.77	420.62
384.15	426.05
384.53	440.96
384.91	402.77
385.29	419.27
385.67	437.57
386.049	457.46
386.429	464.24
386.809	445.48
387.189	447.06
387.568	453.39
387.948	457.01
388.328	456.78
388.707	469.21
389.087	467.85
389.466	471.7
389.846	483.45
390.225	484.13
390.605	494.97
390.984	487.97
391.363	476.89
391.743	501.53
392.122	495.88
392.501	500.17
392.881	493.16
393.26	501.07
393.639	502.2
394.018	511.47
394.397	506.72
394.776	544.46
395.155	510.57
395.534	536.1
395.913	534.29
396.292	539.94
396.671	558.47
397.05	531.13
397.429	551.02
397.808	532.94
398.186	566.61
398.565	559.6
398.944	555.76
399.323	586.27
399.701	574.97
400.08	609.55
400.458	592.37
400.837	585.14
401.215	594.63
401.594	613.61
401.972	607.29
402.351	613.16
402.729	624.46
403.107	622.2
403.486	632.82
403.864	639.6
404.242	657.45
404.62	647.74
404.999	629.88
405.377	640.51
405.755	666.04
406.133	665.14
406.511	680.5
406.889	705.14
407.267	712.59
407.645	712.14
408.023	739.94
408.401	737.68
408.779	746.94
409.156	760.95
409.534	779.26
409.912	775.64
410.29	787.39
410.667	810.44
411.045	805.93
411.422	820.39
411.8	846.38
412.178	886.6
412.555	900.84
412.933	878.24
413.31	895.19
413.687	896.54
414.065	912.36
414.442	952.81
414.819	952.59
415.197	949.88
415.574	982.19
415.951	980.84
416.328	987.62
416.705	1000.95
417.082	1040.04
417.46	1021.29
417.837	1033.26
418.214	1031.68
418.591	1061.06
418.967	1063.09
419.344	1085.24
419.721	1079.36
420.098	1080.04
420.475	1100.38
420.852	1125.92
421.228	1128.85
421.605	1113.26
421.982	1139.25
422.358	1178.57
422.735	1205.69
423.111	1167.05
423.488	1191.9
423.864	1209.98
424.241	1217.44
424.617	1257.21
424.994	1266.7
425.37	1288.62
425.746	1272.13
426.123	1299.25
426.499	1325.01
426.875	1342.41
427.251	1341.96
427.627	1365.68
428.003	1386.47
428.379	1417.21
428.756	1414.5
429.132	1452.69
429.507	1454.5
429.883	1490.43
430.259	1502.63
430.635	1505.57
431.011	1497.21
431.387	1571.78
431.763	1602.06
432.138	1571.33
432.514	1619.24
432.89	1630.08
433.265	1658.11
433.641	1690.65
434.016	1698.56
434.392	1754.15
434.767	1762.96
435.143	1760.7
435.518	1788.27
435.894	1798.44
436.269	1832.11
436.644	1866.01
437.02	1880.7
437.395	1908.95
437.77	1922.51
438.145	1949.85
438.52	1974.48
438.895	2008.15
439.271	1994.59
439.646	2028.94
440.021	2066.23
440.395	2059.23
440.77	2061.03
441.145	2070.98
441.52	2140.58
441.895	2127.92
442.27	2144.42
442.645	2139.45
443.019	2157.75
443.394	2171.54
443.769	2194.14
444.143	2200.92
444.518	2251.76
444.892	2252.21
445.267	2247.7
445.641	2273.01
446.016	2291.99
446.39	2310.52
446.764	2316.85
447.139	2334.25
447.513	2372.89
447.887	2369.95
448.262	2361.82
448.636	2416.28
449.01	2440.23
449.384	2440.01
449.758	2497.63
450.132	2502.15
450.506	2478.42
450.88	2559.33
451.254	2544.18
451.628	2569.04
452.002	2601.58
452.376	2648.36
452.75	2650.62
453.123	2690.85
453.497	2726.1
453.871	2737.63
454.244	2820.34
454.618	2811.3
454.992	2842.93
455.365	2873.89
455.739	2922.03
456.112	2990.5
456.486	2981.24
456.859	3035.47
457.232	3094.9
457.606	3106.88
457.979	3154.79
458.352	3209.48
458.725	3246.54
459.099	3260.32
459.472	3274.11
459.845	3387.78
460.218	3381
460.591	3394.56
460.964	3456.93
461.337	3534.21
461.71	3558.85
462.083	3586.64
462.456	3652.63
462.829	3671.61
463.201	3773.08
463.574	3727.2
463.947	3843.13
464.32	3851.49
464.692	3898.95
465.065	3912.28
465.438	3981.43
465.81	4022.11
466.183	4080.42
466.555	4135.33
466.928	4218.26
467.3	4192.28
467.672	4224.14
468.045	4312.5
468.417	4313.63
468.789	4358.15
469.161	4343.46
469.534	4425.26
469.906	4554.3
470.278	4631.81
470.65	4654.86
471.022	4762.21
471.394	4816.89
471.766	4837.01
472.138	4913.16
472.51	4998.13
472.882	5071.12
473.253	5119.94
473.625	5207.84
473.997	5312.7
474.369	5340.5
474.74	5399.48
475.112	5443.54
475.484	5555.4
475.855	5670.2
476.227	5718.11
476.598	5869.97
476.97	5951.33
477.341	6018.67
477.713	6168.95
478.084	6197.87
478.455	6341.15
478.827	6406.68
479.198	6573.91
479.569	6614.36
479.94	6760.12
480.311	6876.73
480.682	7026.78
481.053	7180.9
481.424	7307.68
481.795	7347.22
482.166	7499.76
482.537	7602.13
482.908	7794.22
483.279	7864.95
483.65	7991.05
484.021	8238.5
484.391	8309.23
484.762	8417.02
485.133	8454.09
485.503	8661.99
485.874	8847.07
486.244	8913.06
486.615	9117.8
486.985	9207.51
487.356	9310.11
487.726	9483.44
488.097	9698.8
488.467	9808.17
488.837	10008.62
489.207	10152.12
489.578	10289.29
489.948	10444.99
490.318	10595.72
490.688	10650.41
491.058	10884.3
491.428	10984.19
491.798	11113.22
492.168	11412.65
492.538	11583.95
492.908	11567
493.278	11767.9
493.648	11979.64
494.017	12034.78
494.387	12298.28
494.757	12418.95
495.126	12527.42
495.496	12651.72
495.866	12822.78
496.235	12938.94
496.605	13012.61
496.974	13103.45
497.344	13333.51
497.713	13514.97
498.082	13594.06
498.452	13714.29
498.821	13889.87
499.19	13909.76
499.559	14068.18
499.928	14212.58
500.298	14389.3
500.667	14493.7
501.036	14592.68
501.405	14745.9
501.774	14818.89
502.143	14886.91
502.512	15087.36
502.88	15171.65
503.249	15289.61
503.618	15475.37
503.987	15556.5
504.356	15659.55
504.724	15751.75
505.093	16001.46
505.462	15909.26
505.83	16065.86
506.199	16304.05
506.567	16445.97
506.936	16432.41
507.304	16703.13
507.672	16739.97
508.041	16772.51
508.409	16991.71
508.777	17212.5
509.145	17345.6
509.514	17261.54
509.882	17446.17
510.25	17498.37
510.618	17601.64
510.986	17642.32
511.354	17900.16
511.722	18135.86
512.09	18242.53
512.458	18164.34
512.826	18351
513.193	18467.16
513.561	18483.43
513.929	18677.09
514.297	18884.32
514.664	18804.32
515.032	19035.95
515.4	19252.45
515.767	19291.09
516.135	19301.94
516.502	19301.94
516.869	19625.54
517.237	19660.57
517.604	19528.6
517.972	19965.65
518.339	19988.25
518.706	20024.63
519.073	20195.7
519.44	20280.22
519.808	20416.71
520.175	20553.65
520.542	20690.83
520.909	20807.66
521.276	20798.62
521.643	21089.23
522.009	21232.73
522.376	21395.21
522.743	21428.21
523.11	21572.84
523.477	21747.52
523.843	21953.84
524.21	22142.09
524.577	22236.55
524.943	22265.25
525.31	22411.01
525.676	22595.41
526.043	22779.81
526.409	22775.06
526.776	23044.21
527.142	23053.93
527.508	23263.19
527.874	23378.66
528.241	23584.54
528.607	23597.87
528.973	23863.4
529.339	23799.22
529.705	24010.51
530.071	24175.03
530.437	24221.35
530.803	24433.33
531.169	24518.07
531.535	24502.25
531.901	24541.8
532.267	24606.66
532.632	24761.45
532.998	24962.13
533.364	24921.45
533.73	25047.55
534.095	25182.46
534.461	25203.25
534.826	25364.38
535.192	25321.66
535.557	25547.87
535.923	25485.05
536.288	25409.12
536.653	25668.32
537.019	25464.94
537.384	25641.88
537.749	25611.6
538.114	25710.36
538.479	25681.2
538.845	25825.15
539.21	25695.21
539.575	25713.97
539.94	25865.61
540.305	25865.61
540.67	25751.48
541.034	25920.74
541.399	25863.57
541.764	26040.97
542.129	25874.42
542.494	26023.12
542.858	26130.46
543.223	26027.41
543.587	26024.92
543.952	25957.35
544.316	26019.05
544.681	25973.85
545.045	26137.46
545.41	26080.74
545.774	26046.62
546.138	26032.38
546.503	26061.76
546.867	26085.03
547.231	26156.45
547.595	26239.61
547.959	26172.26
548.324	26138.59
548.688	26062.21
549.052	26246.61
549.416	26108.54
549.779	26099.95
550.143	26190.79
550.507	26285.93
550.871	26294.52
551.235	26158.25
551.599	26417.46
551.962	26290.45
552.326	26387.4
552.689	26401.18
553.053	26111.25
553.417	26331.81
553.78	26513.27
554.143	26369.32
554.507	26348.3
554.87	26467.17
555.234	26630.1
555.597	26430.34
555.96	26482.99
556.323	26509.88
556.686	26468.3
557.05	26605.7
557.413	26566.83
557.776	26632.82
558.139	26679.82
558.502	26653.16
558.865	26608.86
559.228	26751.91
559.59	26766.82
559.953	26739.71
560.316	27027.16
560.679	26831.46
561.041	27040.04
561.404	27186.25
561.767	27248.17
562.129	27148.74
562.492	27374.49
562.854	27233.25
563.217	27375.62
563.579	27332.46
563.941	27458.33
564.304	27518.9
564.666	27705.56
565.028	27699
565.39	27737.65
565.753	27806.8
566.115	27896.29
566.477	27990.75
566.839	27927.47
567.201	28317.74
567.563	28075.94
567.925	28270.29
568.287	28299.44
568.648	28322.49
569.01	28553.22
569.372	28632.54
569.734	28597.28
570.095	28894
570.457	28937.84
570.819	28848.58
571.18	28792.99
571.542	29016.71
571.903	29121.11
572.265	29229.58
572.626	29375.34
572.987	29317.94
573.349	29488.11
573.71	29630.93
574.071	29642.91
574.432	29778.72
574.794	30015.55
575.155	30011.26
575.516	29931.71
575.877	30102.1
576.238	30095.32
576.599	30162.67
576.96	30209.45
577.32	30292.16
577.681	30389.78
578.042	30436.33
578.403	30550
578.763	30595.42
579.124	30537.8
579.485	30752.93
579.845	30814.18
580.206	30922.2
580.566	30804.91
580.927	30817.57
581.287	31078.12
581.648	31013.27
582.008	31018.92
582.368	31346.59
582.728	31229.08
583.089	31155.86
583.449	31363.09
583.809	31326.03
584.169	31538.68
584.529	31420.71
584.889	31573.7
585.249	31578.22
585.609	31510.88
585.969	31758.78
586.329	31669.97
586.688	31903.41
587.048	31951.55
587.408	31893.47
587.768	31844.21
588.127	31963.3
588.487	31992
588.846	32337.53
589.206	32062.05
589.565	32104.09
589.925	32313.57
590.284	32238.77
590.643	32258.88
591.003	32288.94
591.362	32491.19
591.721	32561.7
592.08	32580
592.44	32719.89
592.799	32658.19
593.158	32737.97
593.517	32686.44
593.876	32926.44
594.235	32950.62
594.593	32888.47
594.952	33004.17
595.311	33052.99
595.67	33126.43
596.029	33329.82
596.387	33351.96
596.746	33500.43
597.104	33329.14
597.463	33358.29
597.822	33602.35
598.18	33466.31
598.538	33528.45
598.897	33746.3
599.255	33581.79
599.613	34034.43
599.972	33957.6
600.33	33904.72
600.688	33805.51
601.046	33893.19
601.404	34190.36
601.762	34210.47
602.12	34318.49
602.478	34358.49
602.836	34454.31
603.194	34251.15
603.552	34405.27
603.91	34340.64
604.268	34497.47
604.625	34444.59
604.983	34686.39
605.341	34504.02
605.698	34694.98
606.056	35032.6
606.413	34792.15
606.771	34923.22
607.128	35057
607.485	34835.54
607.843	35029.88
608.2	35116.66
608.557	35369.76
608.914	35194.85
609.272	35484.79
609.629	35532.7
609.986	35659.7
610.343	35703.09
610.7	35923.87
611.057	35793.48
611.414	35749.41
611.771	36028.73
612.127	35953.02
612.484	36041.61
612.841	36444.76
613.198	36109.63
613.554	36174.49
613.911	36422.62
614.267	36325.22
614.624	36324.54
614.98	36518.88
615.337	36691.54
615.693	36830.74
616.05	36730.4
616.406	36860.57
616.762	36799.55
617.118	36797.52
617.475	36941.25
617.831	37171.3
618.187	37190.51
618.543	37122.03
618.899	37407.9
619.255	37280.67
619.611	37228.02
619.967	37326.55
620.323	37432.53
620.678	37443.38
621.034	37287.9
621.39	37478.86
621.746	37390.27
622.101	37783.94
622.457	37566.99
622.812	37732.86
623.168	37799.98
623.523	37675.46
623.879	37836.36
624.234	37568.8
624.589	37860.32
624.945	37738.06
625.3	37793.65
625.655	37872.3
626.01	37917.94
626.365	37885.18
626.72	37785.97
627.075	37868.68
627.43	37872.75
627.785	38009.47
628.14	37712.07
628.495	37893.99
628.85	37917.04
629.205	37702.81
629.559	37831.62
629.914	37708.23
630.269	37825.97
630.623	37745.97
630.978	37495.81
631.332	37794.33
631.687	37730.15
632.041	37714.56
632.396	37768.12
632.75	37601.57
633.104	37662.13
633.459	37492.19
633.813	37437.73
634.167	37385.08
634.521	37406.09
634.875	37411.06
635.229	37461.91
635.583	37202.48
635.937	37385.08
636.291	37177.4
636.645	37324.51
636.999	37084.97
637.352	37240.22
637.706	37047.68
638.06	37080.45
638.413	36998.65
638.767	36969.95
639.121	37061.24
639.474	36926.11
639.828	36810.85
640.181	36739.44
640.534	36907.35
640.888	36757.52
641.241	36528.6
641.594	36684.53
641.947	36703.29
642.301	36712.55
642.654	36578.09
643.007	36673.91
643.36	36662.84
643.713	36622.16
644.066	36760.46
644.419	36488.6
644.771	36169.06
645.124	35878.9
645.477	35708.28
645.83	35720.71
646.182	35565.01
646.535	35665.12
646.888	35739.92
647.24	35639.59
647.593	35746.93
647.945	35703.09
648.298	35526.59
648.65	35332.47
649.002	35202.08
649.355	35189.65
649.707	35119.6
650.059	35171.12
650.411	35685.69
650.763	35984.66
651.115	36385.1
651.467	36183.75
651.819	36205.9
652.171	36177.42
652.523	36196.86
652.875	36170.64
653.227	35994.83
653.578	36449.28
653.93	36158.44
654.282	36077.99
654.633	36120.93
654.985	36275.73
655.337	36227.82
655.688	36342.84
656.039	36328.61
656.391	36067.82
656.742	36249.29
657.094	36170.19
657.445	36244.99
657.796	36421.49
658.147	36361.37
658.498	36394.59
658.849	36549.62
659.2	36366.12
659.551	36391.66
659.902	36578.32
660.253	36462.39
660.604	36524.76
660.955	36349.4
661.306	36549.39
661.656	36451.99
662.007	36545.1
662.358	36489.73
662.708	36636.62
663.059	36651.54
663.409	36368.38
663.76	36572.22
664.11	36588.04
664.461	36728.6
664.811	36662.38
665.161	36633.68
665.511	36605.21
665.862	36668.03
666.212	36797.75
666.562	36720.24
666.912	36617.64
667.262	36499.22
667.612	36636.17
667.962	36842.04
668.312	36551.2
668.662	36796.62
669.011	36752.78
669.361	36755.71
669.711	36821.25
670.06	36564.53
670.41	36533.57
670.76	36647.47
671.109	36758.2
671.459	36758.2
671.808	36668.71
672.157	36898.99
672.507	36504.65
672.856	36563.18
673.205	36609.73
673.554	36605.89
673.904	36469.17
674.253	36789.84
674.602	36516.4
674.951	36105.56
675.3	35902.86
675.649	36551.2
675.998	36414.03
676.346	36402.73
676.695	36483.41
677.044	36371.77
677.393	36393.92
677.741	36421.94
678.09	36279.12
678.438	36201.38
678.787	36383.52
679.135	36309.17
679.484	36195.28
679.832	36098.33
680.181	35996.41
680.529	35980.37
680.877	35852.69
681.225	35862.63
681.573	36132.45
681.922	35864.66
682.27	35640.26
682.618	35674.39
682.966	35662.18
683.314	35617.21
683.661	35603.88
684.009	35357.78
684.357	35262.42
684.705	35236.43
685.053	35168.19
685.4	35171.12
685.748	35172.48
686.095	34959.6
686.443	34812.26
686.79	34800.29
687.138	34762.77
687.485	34628.31
687.832	34551.93
688.18	34540.86
688.527	34470.35
688.874	34375.66
689.221	34212.28
689.568	34086.63
689.915	34029.91
690.262	34045.96
690.609	33847.32
690.956	33747.43
691.303	33636.25
691.65	33536.14
691.997	33473.54
692.344	33320.78
692.69	33201.68
693.037	33221.34
693.383	32850.96
693.73	32870.84
694.077	32776.16
694.423	32767.34
694.769	32567.58
695.116	32505.88
695.462	32383.17
695.808	32308.83
696.155	32291.42
696.501	31937.76
696.847	32025.9
697.193	31676.07
697.539	31772.79
697.885	31408.06
698.231	31216.2
698.577	31234.96
698.923	31188.18
699.269	30878.13
699.614	30896.43
699.96	30758.58
700.306	30773.05
700.651	30542.09
700.997	30418.93
701.342	30425.03
701.688	30237.92
702.033	30128.09
702.379	30101.88
702.724	29773.75
703.069	29944.14
703.415	29524.94
703.76	29476.58
704.105	29390.26
704.45	29349.81
704.795	29234.33
705.14	28999.08
705.485	29077.72
705.83	28924.28
706.175	28971.51
706.52	28787.79
706.865	28641.13
707.209	28524.07
707.554	28448.36
707.899	28389.15
708.243	28286.33
708.588	28263.51
708.932	28063.06
709.277	28087.47
709.621	27873.46
709.966	27810.86
710.31	27880.47
710.654	27645.9
710.998	27706.23
711.342	27576.52
711.687	27548.95
712.031	27489.29
712.375	27381.05
712.719	27345.11
713.063	27287.94
713.407	27390.54
713.75	27221.5
714.094	27250.2
714.438	27060.38
714.782	27169.07
715.125	26890.66
715.469	27015.18
715.812	26916.88
716.156	26804.34
716.499	26804.56
716.843	27054.27
717.186	26807.05
717.53	26923.66
717.873	26898.35
718.216	26717.79
718.559	26605.7
718.902	26531.58
719.246	26631.01
719.589	26458.13
719.932	26474.18
720.275	26591.01
720.617	26491.35
720.96	26471.69
721.303	26494.97
721.646	26635.98
721.989	26500.84
722.331	26520.96
722.674	26465.14
723.016	26434.18
723.359	26418.81
723.701	26376.33
724.044	26462.65
724.386	26200.96
724.729	26384.01
725.071	26365.71
725.413	26341.07
725.755	26311.02
726.097	26213.39
726.439	26205.26
726.782	26226.73
727.124	26462.43
727.465	26359.6
727.807	26240.51
728.149	26326.38
728.491	26264.01
728.833	26424.46
729.175	26517.79
729.516	26323.22
729.858	26291.13
730.199	26501.97
730.541	26457.45
730.882	26507.4
731.224	26516.66
731.565	26530.45
731.906	26540.84
732.248	26645.25
732.589	26445.25
732.93	26514.63
733.271	26590.78
733.612	26578.81
733.953	26803.66
734.294	26638.24
734.635	26603.21
734.976	26787.39
735.317	26875.52
735.658	26837.78
735.999	26889.08
736.339	26845.92
736.68	27148.51
737.021	27059.7
737.361	26973.82
737.702	27208.39
738.042	27106.25
738.383	27243.42
738.723	27338.79
739.063	27392.57
739.404	27385.57
739.744	27498.33
740.084	27387.6
740.424	27516.64
740.764	27660.13
741.104	27770.87
741.444	27667.82
741.784	27869.17
742.124	27983.52
742.464	28037.75
742.804	28106.9
743.143	28193.68
743.483	28365.88
743.823	28340.34
744.162	28512.54
744.502	28742.14
744.841	28658.75
745.181	28964.05
745.52	28881.57
745.86	29055.8
746.199	29224.39
746.538	29242.92
746.877	29617.6
747.216	29691.04
747.556	29693.3
747.895	29931.49
748.234	30005.61
748.573	30161.54
748.911	30179.39
749.25	30428.42
749.589	30465.94
749.928	30718.58
750.267	30914.06
750.605	31076.32
750.944	31195.63
751.283	31390.21
751.621	31707.03
751.96	31815.05
752.298	31804.66
752.636	32076.52
752.975	32134.59
753.313	32245.32
753.651	32744.97
753.989	32677.4
754.327	32899.09
754.666	32910.62
755.004	33171.4
755.342	33327.78
755.679	33576.14
756.017	33544.5
756.355	33963.25
756.693	34054.54
757.031	34343.35
757.368	34173.64
757.706	34502.44
758.044	34518.71
758.381	34764.13
758.719	34821.98
759.056	35051.58
759.394	35163.21
759.731	35267.39
760.068	35303.32
760.405	35564.33
760.743	35633.03
761.08	35752.8
761.417	35754.16
761.754	35929.3
762.091	36066.69
762.428	36006.36
762.765	35986.7
763.102	36224.43
763.438	36253.81
763.775	36285.22
764.112	36594.59
764.449	36635.72
764.785	36647.02
765.122	36614.25
765.458	36580.8
765.795	36659.22
766.131	36736.28
766.467	36933.34
766.804	36812.21
767.14	36682.72
767.476	36853.79
767.812	36887.01
768.148	37059.89
768.485	37033.45
768.821	36857.86
769.157	36828.25
769.492	36844.98
769.828	36951.42
770.164	36756.62
770.5	36762.49
770.836	36934.92
771.171	36773.57
771.507	36715.94
771.842	36674.36
772.178	36705.77
772.513	36583.29
772.849	36584.19
773.184	36489.51
773.519	36554.59
773.855	36416.74
774.19	36395.72
774.525	36308.49
774.86	36357.53
775.195	36092.45
775.53	36083.42
775.865	36049.97
776.2	35861.5
776.535	35749.87
776.87	35799.81
777.205	35530.44
777.539	35693.37
777.874	35613.82
778.209	35328.18
778.543	35412.25
778.878	35159.82
779.212	35218.35
779.547	35130.45
779.881	35118.92
780.215	34887.06
780.55	35035.76
780.884	34604.58
781.218	34667.41
781.552	34724.36
781.886	34520.07
782.22	34372.95
782.554	34360.3
782.888	34081.43
783.222	34041.44
783.556	33857.71
783.889	33844.15
784.223	33599.41
784.557	33515.8
784.89	33774.55
785.224	33612.97
785.557	33302.92
785.891	33188.8
786.224	33202.59
786.558	33306.31
786.891	33095.47
787.224	32874.01
787.557	32740
787.891	32759.66
788.224	32412.78
788.557	32546.11
788.89	32551.53
789.223	32453.45
789.556	32169.85
789.888	32237.64
790.221	31969.17
790.554	31983.64
790.887	31795.39
791.219	31636.3
791.552	31785
791.884	31578.22
792.217	31478.56
792.549	31380.49
792.882	31080.38
793.214	30957
793.546	30993.61
793.879	31039.93
794.211	30816.21
794.543	30797
794.875	30827.73
795.207	30633.39
795.539	30703.67
795.871	30624.8
796.203	30414.86
796.535	30303.45
796.867	30357.46
797.198	30058.72
797.53	30060.07
797.862	29799.97
798.193	30022.11
798.525	29755.9
798.856	29836.8
799.188	29629.35
799.519	29532.4
799.85	29419.41
800.182	29384.83
800.513	29320.88
800.844	29150.04
801.175	29282.69
801.506	29081.11
801.837	29028.46
802.168	28966.77
802.499	28938.74
802.83	28796.38
803.161	28714.8
803.491	28708.69
803.822	28626.89
804.153	28568.13
804.483	28299.44
804.814	28210.18
805.145	28178.99
805.475	28268.71
805.805	28152.55
806.136	28116.17
806.466	27964.53
806.796	28038.88
807.126	27767.7
807.457	27727.25
807.787	27849.73
808.117	27664.88
808.447	27612.45
808.777	27654.26
809.107	27358.9
809.436	27323.65
809.766	27325.91
810.096	27391.21
810.426	27163.88
810.755	27245.91
811.085	27141.05
811.414	27073.03
811.744	26910.78
812.073	26928.18
812.403	26883.43
812.732	26662.42
813.061	26761.63
813.39	26529.99
813.719	26556.66
814.049	26651.35
814.378	26542.2
814.707	26455.87
815.036	26397.34
815.365	26358.93
815.693	26266.95
816.022	26242.77
816.351	26115.54
816.68	26026.5
817.008	25962.55
817.337	25846.4
817.665	25805.27
817.994	25913.51
818.322	25953.96
818.651	25830.35
818.979	25682.33
819.307	25648.66
819.636	25745.16
819.964	25660.64
820.292	25634.88
820.62	25507.65
820.948	25646.4
821.276	25754.87
821.604	25604.82
821.932	25787.42
822.259	25495.45
822.587	25632.62
822.915	25661.77
823.243	25737.25
823.57	25518.27
823.898	25680.75
824.225	25550.59
824.553	25525.95
824.88	25670.13
825.207	25687.76
825.535	25544.71
825.862	25608.66
826.189	25528.21
826.516	25809.79
826.843	25771.82
827.17	25796
827.497	25693.18
827.824	25648.89
828.151	25726.63
828.478	25634.88
828.805	25820.86
829.131	25777.02
829.458	25660.86
829.785	25546.74
830.111	25631.94
830.438	25833.06
830.764	25720.52
831.09	25720.98
831.417	25551.94
831.743	25724.59
832.069	25543.58
832.395	25624.93
832.722	25788.55
833.048	25573.18
833.374	25693.86
833.7	25495.22
834.026	25555.1
834.351	25518.72
834.677	25619.28
835.003	25518.04
835.329	25561.21
835.654	25550.59
835.98	25420.65
836.306	25586.97
836.631	25347.88
836.956	25570.25
837.282	25542.45
837.607	25369.35
837.932	25327.99
838.258	25397.82
838.583	25144.72
838.908	25225.62
839.233	25227.2
839.558	25141.33
839.883	25080.32
840.208	25004.84
840.533	25142.69
840.858	24990.15
841.182	25038.06
841.507	24969.58
841.832	24914.44
842.156	24850.94
842.481	24789.93
842.805	24722.58
843.13	24685.3
843.454	24638.07
843.778	24576.83
844.103	24537.28
844.427	24402.82
844.751	24420.9
845.075	24394.46
845.399	24368.24
845.723	24217.74
846.047	24250.05
846.371	23979.33
846.695	24013.22
847.019	23886.67
847.343	23730.07
847.666	23741.37
847.99	23514.25
848.313	23557.64
848.637	23549.73
848.96	23469.51
849.284	23454.37
849.607	23092.57
849.931	23134.6
850.254	23055.51
850.577	22858.23
850.9	22733.71
851.223	22701.17
851.546	22547.5
851.869	22490.78
852.192	22669.31
852.515	22380.27
852.838	22298.47
853.161	22171.92
853.483	22128.53
853.806	22140.28
854.129	22004.01
854.451	22005.14
854.774	21850.12
855.096	21701.19
855.419	21729.44
855.741	21641.54
856.063	21657.35
856.385	21470.92
856.708	21398.6
857.03	21403.8
857.352	21259.85
857.674	21319.51
857.996	21175.11
858.318	21006.07
858.64	21082.23
858.961	21031.61
859.283	20976.02
859.605	20804.04
859.926	20914.55
860.248	20683.14
860.57	20680.2
860.891	20684.27
861.212	20571.96
861.534	20583.94
861.855	20510.72
862.176	20516.59
862.498	20498.51
862.819	20509.59
863.14	20433.43
863.461	20399.08
863.782	20306.2
864.103	20362.93
864.424	20266.66
864.745	20235.92
865.065	20006.32
865.386	20035.93
865.707	20143.27
866.027	20160.67
866.348	19976.72
866.668	19970.84
866.989	19842.71
867.309	19834.58
867.63	19806.56
867.95	19887.23
868.27	19689.5
868.59	19779.89
868.91	19705.32
869.23	19724.52
869.55	19595.04
869.87	19779.66
870.19	19601.36
870.51	19656.95
870.83	19515.04
871.15	19489.73
871.469	19400.69
871.789	19508.94
872.109	19418.77
872.428	19359.34
872.748	19394.36
873.067	19208.38
873.386	19283.63
873.706	19254.03
874.025	19141.94
874.344	19215.61
874.663	19120.25
874.982	19089.96
875.301	19117.76
875.62	19020.14
875.939	18939.91
876.258	18977.42
876.577	18967.26
876.896	18935.39
877.214	18838.22
877.533	18858.78
877.852	18826.47
878.17	18790.54
878.489	18872.79
878.807	18871.21
879.125	18763.42
879.444	18749.63
879.762	18656.08
880.08	18643.87
880.398	18421.51
880.716	18685.46
881.034	18563.2
881.352	18496.99
881.67	18420.83
881.988	18464.67
882.306	18354.62
882.624	18343.77
882.941	18236.88
883.259	18200.95
883.577	18170.89
883.894	18160.05
884.212	18181.74
884.529	18101.74
884.846	17960.73
885.164	17958.24
885.481	17929.99
885.798	17800.28
886.115	17892.48
886.432	17861.07
886.75	17869.88
887.067	17840.73
887.383	17776.78
887.7	17684.58
888.017	17580.4
888.334	17609.55
888.651	17664.92
888.967	17549.44
889.284	17446.84
889.6	17347.19
889.917	17272.84
890.233	17302.21
890.55	17262.22
890.866	17217.25
891.182	17188.55
891.498	17169.34
891.815	17041.88
892.131	17054.31
892.447	16942.9
892.763	16932.51
893.079	16869.01
893.395	16783.58
893.71	16806.41
894.026	16676.92
894.342	16547.66
894.657	16467.89
894.973	16602.57
895.289	16621.1
895.604	16502.01
895.92	16469.02
896.235	16335.01
896.55	16311.96
896.865	16164.17
897.181	16165.07
897.496	16189.93
897.811	16066.09
898.126	16026.99
898.441	16021.57
898.756	15969.82
899.071	15848.24
899.386	15883.04
899.7	15719.88
900.015	15609.6
900.33	15559.21
900.644	15572.99
900.959	15634.46
901.273	15478.99
901.588	15470.4
901.902	15374.36
902.216	15326.45
902.531	15307.46
902.845	15260.91
903.159	15166.23
903.473	15088.71
903.787	14949.51
904.101	14956.51
904.415	14953.8
904.729	14881.94
905.042	14813.47
905.356	14826.57
905.67	14743.64
905.984	14773.24
906.297	14658.89
906.611	14479.24
906.924	14477.43
907.237	14489.86
907.551	14449.86
907.864	14397.88
908.177	14372.35
908.491	14231.11
908.804	14167.16
909.117	13994.96
909.43	13950.21
909.743	13941.4
910.056	13942.08
910.368	13856.88
910.681	13738.92
910.994	13665.7
911.307	13665.02
911.619	13524.01
911.932	13595.87
912.244	13478.81
912.557	13526.04
912.869	13396.33
913.181	13368.76
913.494	13268.42
913.806	13267.74
914.118	13177.13
914.43	13199.27
914.742	13066.39
915.054	13031.14
915.366	13022.1
915.678	12860.52
915.99	12872.05
916.302	12766.97
916.613	12676.12
916.925	12735.55
917.236	12714.09
917.548	12605.84
917.859	12531.04
918.171	12479.06
918.482	12425.28
918.794	12371.04
919.105	12372.63
919.416	12254.44
919.727	12186.19
920.038	12197.94
920.349	12136.7
920.66	12041.11
920.971	12133.99
921.282	11973.09
921.593	11915.46
921.903	11778.29
922.214	11811.74
922.525	11778.07
922.835	11688.35
923.146	11650.61
923.456	11586.66
923.767	11535.13
924.077	11495.81
924.387	11489.71
924.697	11422.82
925.008	11395.93
925.318	11343.73
925.628	11239.1
925.938	11275.93
926.248	11220.11
926.558	11102.6
926.867	11127.24
927.177	11029.61
927.487	10974.7
927.796	10919.33
928.106	10880.24
928.416	10933.57
928.725	10818.77
929.034	10765.89
929.344	10797.53
929.653	10706.23
929.962	10627.81
930.271	10629.17
930.581	10587.81
930.89	10496.29
931.199	10436.18
931.508	10390.98
931.817	10380.81
932.125	10322.06
932.434	10318.22
932.743	10204.32
933.051	10156.41
933.36	10126.36
933.669	10084.33
933.977	10068.73
934.286	10005.23
934.594	10003.88
934.902	9917.32
935.21	9848.85
935.519	9790.77
935.827	9824.45
936.135	9729.98
936.443	9693.38
936.751	9649.31
937.059	9618.12
937.367	9563.21
937.674	9505.81
937.982	9574.51
938.29	9440.05
938.597	9418.81
938.905	9335.64
939.213	9351.69
939.52	9335.64
939.827	9326.61
940.135	9257.91
940.442	9104.24
940.749	9128.42
941.056	9210.22
941.363	9048.42
941.67	9009.1
941.977	9032.6
942.284	8910.8
942.591	8891.81
942.898	8862.66
943.205	8824.92
943.511	8776.56
943.818	8723.68
944.125	8744.7
944.431	8638.26
944.738	8667.19
945.044	8607.98
945.35	8541.99
945.657	8503.12
945.963	8501.77
946.269	8419.28
946.575	8416.12
946.881	8352.17
947.187	8348.33
947.493	8343.58
947.799	8290.25
948.105	8227.88
948.41	8212.74
948.716	8156.69
949.022	8128.9
949.327	8095.9
949.633	8006.19
949.938	8007.54
950.244	8015.68
950.549	7914.21
950.854	7850.49
951.16	7862.91
951.465	7872.86
951.77	7808.9
952.075	7749.92
952.38	7711.96
952.685	7723.26
952.99	7622.7
953.294	7611.4
953.599	7546.99
953.904	7494.56
954.209	7469.93
954.513	7501.79
954.818	7449.59
955.122	7426.09
955.426	7369.59
955.731	7367.11
956.035	7326.66
956.339	7284.4
956.643	7192.88
956.948	7234.91
957.252	7160.79
957.556	7158.98
957.86	7124.86
958.163	7064.07
958.467	7029.94
958.771	7007.8
959.075	6991.07
959.378	6920.34
959.682	6937.52
959.985	6883.73
960.289	6819.78
960.592	6760.8
960.896	6813
961.199	6759.67
961.502	6746.33
961.805	6663.4
962.108	6637.86
962.411	6633.79
962.714	6606
963.017	6570.97
963.32	6564.19
963.623	6544.08
963.926	6512.67
964.228	6491.65
964.531	6468.38
964.833	6451.43
965.136	6387.47
965.438	6393.57
965.741	6268.15
966.043	6282.62
966.345	6248.72
966.648	6287.59
966.95	6205.33
967.252	6194.26
967.554	6223.86
967.856	6129.17
968.158	6077.2
968.46	6089.85
968.761	6047.6
969.063	6032.91
969.365	6009.4
969.666	5968.73
969.968	5889.18
970.269	5879.24
970.571	5872.46
970.872	5846.92
971.174	5835.17
971.475	5818.9
971.776	5767.38
972.077	5742.52
972.378	5731.22
972.679	5731.45
972.98	5638.11
973.281	5667.27
973.582	5620.71
973.883	5655.29
974.183	5620.71
974.484	5534.61
974.785	5516.31
975.085	5539.59
975.386	5474.5
975.686	5452.58
975.986	5454.84
976.287	5407.61
976.587	5335.98
976.887	5372.58
977.187	5330.55
977.487	5320.38
977.787	5283.77
978.087	5255.3
978.387	5234.28
978.687	5244.23
978.987	5182.76
979.286	5134.62
979.586	5151.12
979.885	5101.18
980.185	5070.22
980.484	5025.48
980.784	5015.08
981.083	5024.35
981.382	5008.53
981.682	4965.14
981.981	4969.43
982.28	4910.68
982.579	4894.63
982.878	4871.35
983.177	4868.19
983.475	4832.03
983.774	4808.76
984.073	4755.88
984.372	4745.03
984.67	4774.86
984.969	4727.4
985.267	4697.57
985.566	4657.8
985.864	4655.54
986.162	4644.02
986.461	4631.14
986.759	4615.77
987.057	4500.29
987.355	4535.32
987.653	4480.18
987.951	4458.94
988.249	4464.81
988.547	4464.36
988.844	4406.06
989.142	4431.59
989.44	4367.87
989.737	4362.44
990.035	4351.37
990.332	4332.84
990.63	4323.35
990.927	4329.22
991.224	4293.74
991.521	4212.84
991.819	4200.19
992.116	4205.61
992.413	4182.56
992.71	4135.33
993.006	4150.02
993.303	4100.75
993.6	4107.08
993.897	4087.19
994.193	4098.95
994.49	4038.61
994.787	4057.37
995.083	4033.41
995.379	3947.54
995.676	3970.36
995.972	3914.77
996.268	3891.27
996.565	3893.53
996.861	3849.69
997.157	3865.51
997.453	3849.46
997.749	3828.9
998.044	3803.13
998.34	3823.02
998.636	3724.72
998.932	3751.84
999.227	3748.9
999.523	3713.87
999.818	3690.37
1000.114	3612.41
1000.409	3631.16
1000.704	3570.6
1001	3584.38
1001.295	3598.17
1001.59	3538.51
1001.885	3493.99
1002.18	3520.66
1002.475	3497.15
1002.77	3499.41
1003.065	3426.42
1003.359	3432.75
1003.654	3429.13
1003.949	3366.54
1004.243	3407.89
1004.538	3343.71
1004.832	3351.62
1005.127	3328.57
1005.421	3254
1005.715	3278.18
1006.009	3257.39
1006.304	3241.12
1006.598	3214.45
1006.892	3188.69
1007.186	3170.16
1007.48	3166.09
1007.773	3160.67
1008.067	3091.06
1008.361	3088.8
1008.655	3071.4
1008.948	3028.92
1009.242	3035.47
1009.535	3005.42
1009.829	2997.28
1010.122	2981.01
1010.415	2943.95
1010.708	2927.45
1011.001	2925.19
1011.295	2903.05
1011.588	2928.13
1011.881	2880.22
1012.173	2876.15
1012.466	2884.29
1012.759	2833.67
1013.052	2853.78
1013.344	2781.92
1013.637	2780.11
1013.93	2763.84
1014.222	2740.79
1014.514	2723.61
1014.807	2698.76
1015.099	2692.66
1015.391	2670.96
1015.683	2658.08
1015.976	2644.07
1016.268	2620.11
1016.56	2609.04
1016.851	2579.89
1017.143	2564.3
1017.435	2552.09
1017.727	2533.56
1018.018	2542.6
1018.31	2521.36
1018.602	2479.33
1018.893	2468.71
1019.185	2454.24
1019.476	2439.1
1019.767	2416.5
1020.058	2411.53
1020.35	2389.16
1020.641	2382.38
1020.932	2325.89
1021.223	2331.76
1021.514	2311.65
1021.804	2296.28
1022.095	2259.45
1022.386	2274.59
1022.677	2223.97
1022.967	2223.97
1023.258	2217.41
1023.548	2210.86
1023.839	2209.73
1024.129	2146.68
1024.419	2149.62
1024.709	2134.7
1025	2117.98
1025.29	2074.37
1025.58	2067.13
1025.87	2056.06
1026.16	2044.08
1026.449	2071.65
1026.739	2046.8
1027.029	2045.89
1027.319	2021.03
1027.608	2008.15
1027.898	1981.26
1028.187	1941.49
1028.477	1969.28
1028.766	1929.06
1029.055	1896.97
1029.344	1921.15
1029.634	1870.98
1029.923	1878.44
1030.212	1853.36
1030.501	1842.96
1030.79	1814.94
1031.078	1807.93
1031.367	1811.32
1031.656	1804.54
1031.945	1781.04
1032.233	1758.22
1032.522	1727.03
1032.81	1724.32
1033.099	1722.74
1033.387	1689.52
1033.675	1701.27
1033.963	1728.61
1034.251	1696.3
1034.54	1665.56
1034.828	1655.62
1035.116	1649.07
1035.403	1646.81
1035.691	1647.71
1035.979	1608.39
1036.267	1586.92
1036.554	1593.7
1036.842	1573.81
1037.129	1565.91
1037.417	1568.16
1037.704	1534.49
1037.992	1518.22
1038.279	1512.57
1038.566	1525.68
1038.853	1525.68
1039.14	1525.68
