Data from 15-5210_FLMS001491_009.txt Node
Date: Thu Apr 19 16:48:33 BST 2018
User: hsy
Spectrometer: FLMS00149
Trigger mode: 0
Integration Time (sec): 1.000000E-2
Scans to average: 10
Electric dark correction enabled: true
Nonlinearity correction enabled: false
Boxcar width: 0
XAxis mode: Wavelengths
Number of Pixels in Spectrum: 2048
>>>>>Begin Spectral Data<<<<<
341.393	-10.24
341.776	-10.24
342.16	-10.24
342.543	-54.08
342.927	-81.42
343.31	-82.1
343.693	-71.03
344.077	-69.9
344.46	-40.75
344.843	-66.96
345.226	-39.84
345.61	-20.64
345.993	-33.52
346.376	-3.46
346.759	6.03
347.142	12.13
347.525	53.04
347.908	43.54
348.291	76.31
348.674	106.37
349.057	130.77
349.44	125.58
349.823	129.19
350.206	169.19
350.588	231.34
350.971	236.53
351.354	243.54
351.737	264.56
352.119	284.67
352.502	295.51
352.884	286.02
353.267	320.6
353.65	316.31
354.032	343.88
354.414	344.55
354.797	351.56
355.179	351.33
355.562	335.97
355.944	363.54
356.326	366.7
356.709	359.92
357.091	359.47
357.473	378
357.855	368.06
358.238	385
358.62	375.74
359.002	382.07
359.384	398.11
359.766	381.39
360.148	378.22
360.53	361.95
360.912	369.86
361.294	369.64
361.676	371.45
362.057	369.86
362.439	349.52
362.821	369.86
363.203	361.73
363.584	362.41
363.966	355.4
364.348	375.06
364.729	352.24
365.111	367.6
365.493	384.78
365.874	359.92
366.256	356.3
366.637	357.43
367.019	354.5
367.4	352.69
367.781	350.88
368.163	362.86
368.544	361.5
368.925	365.34
369.306	361.05
369.688	364.89
370.069	367.6
370.45	373.03
370.831	371.9
371.212	377.32
371.593	367.15
371.974	361.05
372.355	378.9
372.736	356.08
373.117	365.12
373.498	366.7
373.879	366.02
374.26	371.22
374.641	342.75
375.021	342.07
375.402	368.96
375.783	364.44
376.163	385
376.544	416.64
376.925	397.21
377.305	379.81
377.686	397.89
378.066	402.18
378.447	416.87
378.827	403.99
379.208	384.1
379.588	396.76
379.968	409.18
380.349	392.91
380.729	389.98
381.109	390.88
381.489	407.83
381.87	416.87
382.25	423.2
382.63	415.29
383.01	438.56
383.39	435.4
383.77	416.87
384.15	425.91
384.53	402.4
384.91	417.09
385.29	432.91
385.67	441.5
386.049	450.54
386.429	450.76
386.809	454.83
387.189	436.98
387.568	476.53
387.948	460.03
388.328	449.18
388.707	474.95
389.087	467.04
389.466	487.6
389.846	487.83
390.225	485.79
390.605	494.38
390.984	487.6
391.363	483.76
391.743	491.44
392.122	500.26
392.501	491.44
392.881	493.7
393.26	515.62
393.639	498.9
394.018	502.52
394.397	535.73
394.776	516.98
395.155	533.7
395.534	508.62
395.913	529.86
396.292	515.62
396.671	548.84
397.05	541.38
397.429	564.89
397.808	592.23
398.186	575.73
398.565	580.25
398.944	574.6
399.323	570.76
399.701	577.09
400.08	587.03
400.458	575.06
400.837	580.48
401.215	600.37
401.594	593.59
401.972	587.03
402.351	630.87
402.729	638.1
403.107	629.74
403.486	620.7
403.864	638.33
404.242	634.94
404.62	636.07
404.999	637.43
405.377	685.56
405.755	653.25
406.133	686.69
406.511	692.57
406.889	689.4
407.267	704.77
407.645	730.08
408.023	737.31
408.401	745.67
408.779	743.86
409.156	777.31
409.534	802.17
409.912	814.6
410.29	791.77
410.667	831.09
411.045	848.72
411.422	821.15
411.8	837.87
412.178	852.79
412.555	888.49
412.933	895.05
413.31	884.65
413.687	934.37
414.065	925.78
414.442	943.86
414.819	929.62
415.197	982.28
415.574	975.5
415.951	961.94
416.328	979.56
416.705	997.87
417.082	1000.13
417.46	1003.74
417.837	1012.56
418.214	1050.75
418.591	1050.07
418.967	1063.63
419.344	1066.12
419.721	1079.9
420.098	1099.79
420.475	1088.04
420.852	1122.84
421.228	1129.39
421.605	1149.73
421.982	1141.14
422.358	1165.77
422.735	1172.55
423.111	1162.84
423.488	1200.12
423.864	1205.55
424.241	1233.34
424.617	1246.22
424.994	1237.86
425.37	1276.28
425.746	1275.38
426.123	1320.12
426.499	1299.1
426.875	1320.12
427.251	1329.84
427.627	1375.03
428.003	1399.89
428.379	1372.77
428.756	1431.76
429.132	1464.07
429.507	1474.24
429.883	1465.2
430.259	1486.9
430.635	1486.44
431.011	1514.01
431.387	1553.56
431.763	1601.92
432.138	1589.27
432.514	1621.36
432.89	1620.45
433.265	1667.23
433.641	1682.82
434.016	1676.72
434.392	1723.05
434.767	1785.65
435.143	1799.88
435.518	1782.48
435.894	1805.76
436.269	1814.12
436.644	1873.55
437.02	1892.76
437.395	1886.66
437.77	1912.2
438.145	1929.6
438.52	1936.6
438.895	2007.33
439.271	1973.44
439.646	2026.54
440.021	2047.33
440.395	2062.7
440.77	2040.78
441.145	2053.43
441.52	2113.77
441.895	2093.21
442.27	2124.62
442.645	2148.12
443.019	2154
443.394	2186.09
443.769	2202.36
444.143	2186.09
444.518	2252.53
444.892	2228.57
445.267	2252.53
445.641	2269.7
446.016	2280.55
446.39	2293.65
446.764	2332.52
447.139	2290.94
447.513	2349.92
447.887	2376.14
448.262	2349.7
448.636	2373.2
449.01	2432.41
449.384	2446.87
449.758	2468.79
450.132	2534.33
450.506	2522.8
450.88	2512.63
451.254	2544.5
451.628	2568.22
452.002	2595.79
452.376	2619.3
452.75	2668.56
453.123	2678.05
453.497	2694.32
453.871	2735
454.244	2813.64
454.618	2833.98
454.992	2859.29
455.365	2859.29
455.739	2937.25
456.112	2976.12
456.486	2989.46
456.859	2979.74
457.232	3106.29
457.606	3080.75
457.979	3116.23
458.352	3194.87
458.725	3193.29
459.099	3221.77
459.472	3294.31
459.845	3376.11
460.218	3391.7
460.591	3407.3
460.964	3423.79
461.337	3478.03
461.71	3597.8
462.083	3646.16
462.456	3604.58
462.829	3629.44
463.201	3711.7
463.574	3741.98
463.947	3804.12
464.32	3842.09
464.692	3901.52
465.065	3904.23
465.438	4009.99
465.81	4001.86
466.183	4005.93
466.555	4131.57
466.928	4174.06
467.3	4138.13
467.672	4254.96
468.045	4312.13
468.417	4309.19
468.789	4368.4
469.161	4417.89
469.534	4435.74
469.906	4580.6
470.278	4593.48
470.65	4618.34
471.022	4702.4
471.394	4783.31
471.766	4843.42
472.138	4934.94
472.51	5016.75
472.882	5081.15
473.253	5084.54
473.625	5226.01
473.997	5346.91
474.369	5284.99
474.74	5419.67
475.112	5485.21
475.484	5536.06
475.855	5689.05
476.227	5679.33
476.598	5854.24
476.97	5936.72
477.341	6033.44
477.713	6138.75
478.084	6202.7
478.455	6308.01
478.827	6407.67
479.198	6580.55
479.569	6611.96
479.94	6740.77
480.311	6819.19
480.682	6982.8
481.053	7148.89
481.424	7287.2
481.795	7353.63
482.166	7462.11
482.537	7556.34
482.908	7746.17
483.279	7806.96
483.65	7979.83
484.021	8142.77
484.391	8254.18
484.762	8326.72
485.133	8506.15
485.503	8583.21
485.874	8768.51
486.244	8861.17
486.615	9060.03
486.985	9236.07
487.356	9364.43
487.726	9463.64
488.097	9701.6
488.467	9820.01
488.837	10016.39
489.207	10152.66
489.578	10269.49
489.948	10485.08
490.318	10582.48
490.688	10652.3
491.058	10925.29
491.428	11044.84
491.798	11178.62
492.168	11401.66
492.538	11466.75
492.908	11607.76
493.278	11824.48
493.648	11929.33
494.017	12089.1
494.387	12308.76
494.757	12341.98
495.126	12490.45
495.496	12585.36
495.866	12731.12
496.235	12926.82
496.605	13010.89
496.974	13173.59
497.344	13300.14
497.713	13485.22
498.082	13520.7
498.452	13727.7
498.821	13897.19
499.19	13899
499.559	14098.77
499.928	14190.74
500.298	14315.71
500.667	14551.86
501.036	14514.8
501.405	14722.25
501.774	14801.35
502.143	14976.48
502.512	15048.57
502.88	15248.57
503.249	15307.78
503.618	15484.04
503.987	15550.03
504.356	15662.79
504.724	15720.65
505.093	15881.77
505.462	15997.93
505.83	16058.26
506.199	16209.45
506.567	16363.57
506.936	16480.4
507.304	16703.9
507.672	16800.62
508.041	16834.29
508.409	16932.14
508.777	17153.83
509.145	17288.74
509.514	17304.33
509.882	17396.31
510.25	17481.05
510.618	17654.38
510.986	17706.13
511.354	17865.9
511.722	17945.22
512.09	18218.89
512.458	18150.41
512.826	18271.99
513.193	18347.24
513.561	18511.99
513.929	18563.74
514.297	18731.87
514.664	18843.5
515.032	19004.85
515.4	19059.99
515.767	19166.66
516.135	19328.46
516.502	19227.67
516.869	19524.84
517.237	19655.46
517.604	19476.48
517.972	19883.25
518.339	19941.1
518.706	20036.01
519.073	20111.94
519.44	20177.03
519.808	20441.43
520.175	20381.77
520.542	20751.93
520.909	20727.75
521.276	20805.94
521.643	20993.05
522.009	21135.64
522.376	21187.85
522.743	21394.17
523.11	21664.22
523.477	21713.93
523.843	21883.87
524.21	22186.24
524.577	22225.11
524.943	22336.97
525.31	22368.15
525.676	22616.28
526.043	22760.23
526.409	22701.93
526.776	22985.31
527.142	22974.01
527.508	23053.11
527.874	23403.38
528.241	23391.63
528.607	23501.91
528.973	23731.28
529.339	23765.18
529.705	24023.7
530.071	24137.15
530.437	24180.76
530.803	24320.19
531.169	24511.38
531.535	24397.71
531.901	24585.5
532.267	24501.66
532.632	24650.35
532.998	24758.15
533.364	24920.86
533.73	24915.88
534.095	25134.18
534.461	25052.38
534.826	25142.77
535.192	25137.57
535.557	25318.81
535.923	25241.98
536.288	25409.2
536.653	25492.37
537.019	25371.92
537.384	25520.61
537.749	25537.79
538.114	25571.01
538.479	25575.75
538.845	25735.07
539.21	25571.91
539.575	25588.64
539.94	25610.78
540.305	25820.72
540.67	25660.5
541.034	25773.94
541.399	25800.38
541.764	25813.04
542.129	25808.29
542.494	25922.64
542.858	25858.91
543.223	25736.2
543.587	25946.37
543.952	25963.99
544.316	25892.36
544.681	25802.41
545.045	26026.82
545.41	26064.78
545.774	25822.98
546.138	25879.93
546.503	25961.51
546.867	25940.04
547.231	26065.01
547.595	26081.96
547.959	26090.77
548.324	25943.2
548.688	25974.16
549.052	25994.95
549.416	25930.77
549.779	25935.07
550.143	25922.64
550.507	26042.18
550.871	26064.33
551.235	25964.9
551.599	26117.21
551.962	26155.17
552.326	26146.59
552.689	26096.42
553.053	25941.62
553.417	26115.85
553.78	26223.87
554.143	26227.26
554.507	26112.24
554.87	26221.84
555.234	26419.12
555.597	26071.11
555.96	26291.22
556.323	26184.1
556.686	26088.28
557.05	26393.59
557.413	26308.84
557.776	26259.13
558.139	26446.01
558.502	26356.75
558.865	26313.59
559.228	26495.96
559.59	26500.25
559.953	26454.15
560.316	26628.61
560.679	26668.38
561.041	26717.87
561.404	26768.72
561.767	26912.44
562.129	26852.33
562.492	26831.54
562.854	26860.69
563.217	26952.44
563.579	26886.68
563.941	27116.05
564.304	27149.27
564.666	27330.96
565.028	27238.54
565.39	27151.53
565.753	27424.97
566.115	27338.19
566.477	27492.31
566.839	27625.42
567.201	27759.65
567.563	27680.56
567.925	27730.5
568.287	27784.51
568.648	27758.52
569.01	28017.27
569.372	28202.35
569.734	28150.83
570.095	28260.43
570.457	28332.07
570.819	28478.28
571.18	28281.22
571.542	28569.35
571.903	28629.46
572.265	28647.76
572.626	28772.73
572.987	28706.75
573.349	28874.88
573.71	29027.19
574.071	28996.23
574.432	29243.68
574.794	29332.94
575.155	29270.57
575.516	29250.23
575.877	29510.11
576.238	29514.86
576.599	29623.11
576.96	29704.01
577.32	29675.53
577.681	29828.98
578.042	29900.84
578.403	29893.15
578.763	29904.68
579.124	29937.45
579.485	30155.75
579.845	30161.4
580.206	30209.98
580.566	30306.7
580.927	30133.6
581.287	30390.99
581.648	30357.32
582.008	30574.04
582.368	30466.7
582.728	30514.83
583.089	30580.59
583.449	30625.56
583.809	30797.99
584.169	30810.87
584.529	30744.66
584.889	30978.32
585.249	30902.62
585.609	30796.41
585.969	30971.32
586.329	31033.24
586.688	31270.52
587.048	31125.66
587.408	31083.63
587.768	31221.93
588.127	31301.03
588.487	31338.54
588.846	31564.3
589.206	31319.78
589.565	31539.21
589.925	31603.17
590.284	31625.76
590.643	31742.37
591.003	31676.38
591.362	31999.09
591.721	31948.47
592.08	31929.49
592.44	32114.79
592.799	32051.29
593.158	32059.43
593.517	32123.38
593.876	32266.2
594.235	32387.55
594.593	32305.75
594.952	32495.8
595.311	32418.96
595.67	32552.75
596.029	32726.53
596.387	32794.32
596.746	32967.2
597.104	32738.96
597.463	32792.51
597.822	32990.47
598.18	32897.37
598.538	32885.84
598.897	33129.23
599.255	32998.16
599.613	33366.51
599.972	33291.94
600.33	33307.75
600.688	33206.74
601.046	33334.19
601.404	33643.11
601.762	33374.87
602.12	33740.74
602.478	33846.72
602.836	33834.75
603.194	33635.2
603.552	33864.8
603.91	33777.57
604.268	33908.64
604.625	33945.48
604.983	34226.37
605.341	33979.37
605.698	34141.86
606.056	34357.9
606.413	34167.17
606.771	34320.16
607.128	34355.41
607.485	34402.64
607.843	34437.67
608.2	34638.79
608.557	34705.91
608.914	34743.87
609.272	34870.65
609.629	35090.76
609.986	35090.08
610.343	35086.46
610.7	35349.06
611.057	35225.22
611.414	35256.18
611.771	35414.59
612.127	35577.07
612.484	35495.49
612.841	35549.96
613.198	35434.03
613.554	35449.84
613.911	35849.61
614.267	35774.81
614.624	35820.91
614.98	35876.05
615.337	36031.75
615.693	36028.13
616.05	36035.82
616.406	36155.59
616.762	36106.55
617.118	36194.01
617.475	36103.39
617.831	36285.75
618.187	36383.61
618.543	36342.93
618.899	36575.01
619.255	36524.17
619.611	36454.34
619.967	36631.28
620.323	36803.48
620.678	36671.06
621.034	36643.49
621.39	36629.7
621.746	36555.58
622.101	37084.83
622.457	36766.19
622.812	36866.3
623.168	37008.67
623.523	37038.05
623.879	37127.99
624.234	36950.14
624.589	37080.08
624.945	37153.08
625.3	37135.22
625.655	37174.09
626.01	37156.47
626.365	37182.45
626.72	37113.76
627.075	36999.41
627.43	37095
627.785	37148.78
628.14	37182.45
628.495	37220.19
628.85	37166.64
629.205	37114.43
629.559	37180.87
629.914	36987.88
630.269	37092.97
630.623	36954.89
630.978	36968.45
631.332	37108.11
631.687	36989.01
632.041	37039.86
632.396	37030.59
632.75	36938.62
633.104	37061.1
633.459	36772.97
633.813	36885.74
634.167	36865.85
634.521	36940.43
634.875	36796.25
635.229	36802.13
635.583	36618.18
635.937	36625.63
636.291	36661.34
636.645	36601.9
636.999	36476.26
637.352	36621.11
637.706	36324.4
638.06	36593.32
638.413	36528.01
638.767	36329.14
639.121	36524.62
639.474	36290.5
639.828	36358.97
640.181	36391.29
640.534	36309.48
640.888	36238.75
641.241	36066.55
641.594	36054.35
641.947	36259.99
642.301	36184.29
642.654	36164.63
643.007	36075.59
643.36	36125.76
643.713	36080.34
644.066	36223.16
644.419	36017.29
644.771	35660.91
645.124	35338.44
645.477	35244.88
645.83	35087.14
646.182	35089.4
646.535	35165.11
646.888	35210.53
647.24	35216.63
647.593	35311.77
647.945	35118.78
648.298	35164.43
648.65	34865.23
649.002	34795.4
649.355	34661.62
649.707	34667.27
650.059	34698.23
650.411	35163.07
650.763	35397.64
651.115	35970.51
651.467	35877.86
651.819	35810.97
652.171	35686
652.523	35714.47
652.875	35672.21
653.227	35522.84
653.578	35829.5
653.93	35767.35
654.282	35661.82
654.633	35688.71
654.985	35605.32
655.337	35757.18
655.688	35777.29
656.039	35908.59
656.391	35602.38
656.742	35728.26
657.094	35631.08
657.445	35780.01
657.796	35800.8
658.147	35702.95
658.498	35877.18
658.849	35944.07
659.2	35919.44
659.551	35725.09
659.902	35949.72
660.253	35794.69
660.604	35898.42
660.955	35861.36
661.306	36019.32
661.656	35929.83
662.007	35996.72
662.358	35926.67
662.708	36208.24
663.059	36113.56
663.409	35853.22
663.76	36128.92
664.11	36190.62
664.461	36171.63
664.811	36322.36
665.161	36306.55
665.511	36244.85
665.862	36244.17
666.212	36300.22
666.562	36259.54
666.912	36411.4
667.262	36263.83
667.612	36205.98
667.962	36325.53
668.312	36280.56
668.662	36398.52
669.011	36315.13
669.361	36252.08
669.711	36306.32
670.06	36271.74
670.41	36211.63
670.76	36150.39
671.109	36337.05
671.459	36223.16
671.808	36170.28
672.157	36173.89
672.507	36032.65
672.856	36081.24
673.205	36162.82
673.554	36154.68
673.904	35972.99
674.253	36169.83
674.602	35950.4
674.951	35613
675.3	35428.15
675.649	35989.27
675.998	35961.7
676.346	35961.24
676.695	36092.77
677.044	35759.67
677.393	35692.78
677.741	35869.49
678.09	35788.82
678.438	35629.95
678.787	35780.68
679.135	35702.95
679.484	35494.36
679.832	35568.94
680.181	35453.01
680.529	35546.79
680.877	35393.35
681.225	35301.83
681.573	35626.11
681.922	35302.96
682.27	35192.45
682.618	35216.63
682.966	35104.32
683.314	34993.59
683.661	35031.78
684.009	34795.85
684.357	34790.65
684.705	34651
685.053	34759.02
685.4	34630.66
685.748	34511.56
686.095	34499.59
686.443	34272.47
686.79	34192.25
687.138	34270.44
687.485	34192.93
687.832	33995.19
688.18	34173.72
688.527	33874.29
688.874	33853.5
689.221	33821.41
689.568	33656.22
689.915	33506.62
690.262	33554.53
690.609	33387.53
690.956	33156.8
691.303	33239.96
691.65	32936.46
691.997	32891.95
692.344	32731.27
692.69	32621.44
693.037	32705.28
693.383	32286.09
693.73	32408.34
694.077	32235.47
694.423	32319.98
694.769	32013.32
695.116	32002.93
695.462	31767.46
695.808	31800.9
696.155	31644.07
696.501	31474.36
696.847	31545.31
697.193	31165.66
697.539	31171.09
697.885	30932
698.231	30799.57
698.577	30813.81
698.923	30736.07
699.269	30441.39
699.614	30370.43
699.96	30330.88
700.306	30191.45
700.651	30155.29
700.997	29921.63
701.342	29816.55
701.688	29699.94
702.033	29565.93
702.379	29546.95
702.724	29332.04
703.069	29240.29
703.415	29016.79
703.76	28922.78
704.105	28967.76
704.45	28811.38
704.795	28626.97
705.14	28669.23
705.485	28500.2
705.83	28342.46
706.175	28460.65
706.52	28245.06
706.865	28250.49
707.209	28021.11
707.554	27920.55
707.899	27913.09
708.243	27865.64
708.588	27702.25
708.932	27604.18
709.277	27704.96
709.621	27540.22
709.966	27359.21
710.31	27392.88
710.654	27166.67
710.998	27142.49
711.342	27191.08
711.687	27106.34
712.031	26924.87
712.375	26843.97
712.719	26853.01
713.063	26840.81
713.407	26978.2
713.75	26771.2
714.094	26737.76
714.438	26598.55
714.782	26616.63
715.125	26510.64
715.469	26559.23
715.812	26331.21
716.156	26328.5
716.499	26380.25
716.843	26309.29
717.186	26265.91
717.53	26548.16
717.873	26480.14
718.216	26308.84
718.559	26224.78
718.902	26175.06
719.246	26182.74
719.589	26092.8
719.932	25982.3
720.275	26026.36
720.617	26097.1
720.96	26119.24
721.303	26137.32
721.646	26175.29
721.989	26029.75
722.331	26123.31
722.674	26107.72
723.016	26003.09
723.359	25952.24
723.701	25976.87
724.044	26019.81
724.386	25972.13
724.729	25969.42
725.071	25990.21
725.413	26016.65
725.755	25963.31
726.097	25987.04
726.439	25916.76
726.782	25930.77
727.124	26145.91
727.465	25978
727.807	25974.16
728.149	25923.32
728.491	25897.78
728.833	26079.7
729.175	26042.86
729.516	26031.56
729.858	25969.19
730.199	26127.15
730.541	26196.98
730.882	26101.84
731.224	26242.86
731.565	26093.93
731.906	26168.96
732.248	26263.65
732.589	26255.51
732.93	26189.07
733.271	26288.05
733.612	26316.3
733.953	26461.38
734.294	26345.23
734.635	26269.97
734.976	26474.26
735.317	26502.06
735.658	26452.12
735.999	26402.85
736.339	26547.93
736.68	26586.8
737.021	26672.45
737.361	26651.43
737.702	26890.97
738.042	26860.92
738.383	26975.04
738.723	26969.84
739.063	26998.32
739.404	27253
739.744	27153.79
740.084	27165.77
740.424	27278.76
740.764	27211.19
741.104	27484.86
741.444	27521.01
741.784	27567.11
742.124	27721.69
742.464	27732.53
742.804	27806.43
743.143	27962.81
743.483	28051.85
743.823	28024.5
744.162	28190.6
744.502	28305.17
744.841	28472.63
745.181	28682.79
745.52	28638.95
745.86	28808.89
746.199	29081.65
746.538	28939.06
746.877	29315.09
747.216	29409.55
747.556	29490.68
747.895	29707.85
748.234	29821.29
748.573	29956.43
748.911	30112.81
749.25	30331.79
749.589	30275.52
749.928	30596.41
750.267	30756.63
750.605	30770.19
750.944	30997.98
751.283	31132.67
751.621	31512.55
751.96	31491.08
752.298	31576.05
752.636	31974.91
752.975	32018.07
753.313	32140.78
753.651	32387.33
753.989	32564.72
754.327	32674.55
754.666	32690.6
755.004	33047.65
755.342	33161.32
755.679	33423.91
756.017	33492.38
756.355	33835.65
756.693	33891.47
757.031	34178.24
757.368	34111.35
757.706	34395.64
758.044	34502.07
758.381	34689.19
758.719	34734.61
759.056	35020.03
759.394	34968.28
759.731	35050.53
760.068	35239.91
760.405	35489.39
760.743	35331.88
761.08	35541.14
761.417	35726.45
761.754	35817.52
762.091	36036.72
762.428	36021.13
762.765	36164.63
763.102	36149.94
763.438	36363.94
763.775	36260.9
764.112	36495.24
764.449	36428.8
764.785	36493.21
765.122	36556.26
765.458	36431.97
765.795	36660.21
766.131	36911.28
766.467	36880.99
766.804	36647.55
767.14	36693.43
767.476	36742.01
767.812	36744.05
768.148	36919.64
768.485	36920.99
768.821	36795.35
769.157	36892.52
769.492	36887.1
769.828	36914.44
770.164	36673.99
770.5	36603.71
770.836	36685.97
771.171	36674.9
771.507	36696.59
771.842	36625.86
772.178	36659.98
772.513	36606.2
772.849	36552.87
773.184	36555.8
773.519	36471.74
773.855	36389.48
774.19	36314.68
774.525	36329.6
774.86	36348.35
775.195	36100.22
775.53	36039.21
775.865	36059.77
776.2	35838.99
776.535	35716.28
776.87	35650.29
777.205	35539.79
777.539	35452.1
777.874	35486.68
778.209	35215.73
778.543	35467.7
778.878	35229.74
779.212	35239
779.547	35028.84
779.881	34981.83
780.215	34693.25
780.55	34820.26
780.884	34546.82
781.218	34558.57
781.552	34718.11
781.886	34470.44
782.22	34292.59
782.554	34196.09
782.888	33978.7
783.222	33937.57
783.556	33776.44
783.889	33721.08
784.223	33584.36
784.557	33460.97
784.89	33618.93
785.224	33352.5
785.557	33195.21
785.891	33060.76
786.224	33119.96
786.558	33051.72
786.891	32825.96
787.224	32671.16
787.557	32705.51
787.891	32613.76
788.224	32456.48
788.557	32510.04
788.89	32380.32
789.223	32291.28
789.556	32112.98
789.888	32067.56
790.221	32059.88
790.554	31814.23
790.887	31832.76
791.219	31662.6
791.552	31568.82
791.884	31536.5
792.217	31452.44
792.549	31378.31
792.882	30997.31
793.214	31034.37
793.546	31023.75
793.879	30846.12
794.211	30766.58
794.543	30851.77
794.875	30670.54
795.207	30776.97
795.539	30543.53
795.871	30626.02
796.203	30333.14
796.535	30241.85
796.867	30275.29
797.198	30073.94
797.53	30037.78
797.862	29778.81
798.193	29917.79
798.525	29611.58
798.856	29862.87
799.188	29476.22
799.519	29369.78
799.85	29364.58
800.182	29309.67
800.513	29389.21
800.844	28977.7
801.175	29218.14
801.506	29101.54
801.837	28819.06
802.168	28935.67
802.499	28967.08
802.83	28725.73
803.161	28678.95
803.491	28633.07
803.822	28682.11
804.153	28422.01
804.483	28250.94
804.814	28080.55
805.145	28197.61
805.475	28259.07
805.805	28139.08
806.136	28111.96
806.466	27852.53
806.796	27936.14
807.126	27767.79
807.457	27822.47
807.787	27859.76
808.117	27681.24
808.447	27501.13
808.777	27529.15
809.107	27434.01
809.436	27321.02
809.766	27352.43
810.096	27331.19
810.426	27202.6
810.755	27133.91
811.085	27083.06
811.414	27125.54
811.744	26896.4
812.073	26874.93
812.403	26857.53
812.732	26671.54
813.061	26905.44
813.39	26506.35
813.719	26584.99
814.049	26634.94
814.378	26510.87
814.707	26505.45
815.036	26380.48
815.365	26265.91
815.693	26194.27
816.022	26092.35
816.351	26165.34
816.68	25918.34
817.008	26035.18
817.337	25776.88
817.665	25846.71
817.994	25765.58
818.322	25886.93
818.651	25693.72
818.979	25729.42
819.307	25762.42
819.636	25686.71
819.964	25581.63
820.292	25551.35
820.62	25507.73
820.948	25511.57
821.276	25605.13
821.604	25551.57
821.932	25705.24
822.259	25527.62
822.587	25465.7
822.915	25448.75
823.243	25534.17
823.57	25468.19
823.898	25600.61
824.225	25502.08
824.553	25470.45
824.88	25574.85
825.207	25653.04
825.535	25456.44
825.862	25603.78
826.189	25615.75
826.516	25744.79
826.843	25709.54
827.17	25643.77
827.497	25783.43
827.824	25679.93
828.151	25760.38
828.478	25603.1
828.805	25778.91
829.131	25607.39
829.458	25703.66
829.785	25610.33
830.111	25554.96
830.438	25726.71
830.764	25563.55
831.09	25651.46
831.417	25508.64
831.743	25641.06
832.069	25637.9
832.395	25625.24
832.722	25551.12
833.048	25533.04
833.374	25558.13
833.7	25462.08
834.026	25513.16
834.351	25471.58
834.677	25501.18
835.003	25481.29
835.329	25542.53
835.654	25451.24
835.98	25315.2
836.306	25461.41
836.631	25334.86
836.956	25468.41
837.282	25429.09
837.607	25298.93
837.932	25293.73
838.258	25299.6
838.583	25329.88
838.908	25113.85
839.233	25244.24
839.558	25034.07
839.883	25120.4
840.208	24904.36
840.533	25004.47
840.858	25000.63
841.182	25043.11
841.507	24927.64
841.832	24753.63
842.156	24928.09
842.481	24771.03
842.805	24734.19
843.13	24535.78
843.454	24679.51
843.778	24519.51
844.103	24543.69
844.427	24494.65
844.751	24550.24
845.075	24381.66
845.399	24366.75
845.723	24190.03
846.047	24179.86
846.371	24099.18
846.695	23986.19
847.019	24002.91
847.343	23719.76
847.666	23658.97
847.99	23604.05
848.313	23481.12
848.637	23512.76
848.96	23385.98
849.284	23371.07
849.607	23144.63
849.931	23073.45
850.254	22904.41
850.577	22931.3
850.9	22635.49
851.223	22641.14
851.546	22584.87
851.869	22382.84
852.192	22548.49
852.515	22329.96
852.838	22287.03
853.161	22355.5
853.483	22104.88
853.806	21966.58
854.129	22026.02
854.451	21948.73
854.774	21859.92
855.096	21722.75
855.419	21697.21
855.741	21784.22
856.063	21648.17
856.385	21506.26
856.708	21441.63
857.03	21376.54
857.352	21351.23
857.674	21316.66
857.996	21167.51
858.318	21086.83
858.64	21125.25
858.961	21119.15
859.283	20942.88
859.605	20907.18
859.926	20821.75
860.248	20893.17
860.57	20705.15
860.891	20664.47
861.212	20606.17
861.534	20558.03
861.855	20462.89
862.176	20544.7
862.498	20530.91
862.819	20505.6
863.14	20419.51
863.461	20374.08
863.782	20269.9
864.103	20300.19
864.424	20127.08
864.745	20142.22
865.065	20088.89
865.386	19964.83
865.707	20092.51
866.027	20000.99
866.348	20026.97
866.668	20016.13
866.989	19928.67
867.309	19759.64
867.63	19813.42
867.95	19849.58
868.27	19760.99
868.59	19877.37
868.91	19709.02
869.23	19772.29
869.55	19606.42
869.87	19716.47
870.19	19539.08
870.51	19479.42
870.83	19579.98
871.15	19401.23
871.469	19403.71
871.789	19543.37
872.109	19454.33
872.428	19343.38
872.748	19419.76
873.067	19327.33
873.386	19387.44
873.706	19246.2
874.025	19177.96
874.344	19114
874.663	19189.93
874.982	19099.77
875.301	19049.15
875.62	19088.69
875.939	19033.78
876.258	19001.69
876.577	18857.29
876.896	18827.46
877.214	18850.73
877.533	18905.42
877.852	18843.95
878.17	18858.87
878.489	18730.74
878.807	18707.01
879.125	18701.81
879.444	18710.85
879.762	18531.42
880.08	18710.62
880.398	18582.04
880.716	18567.35
881.034	18392.21
881.352	18468.82
881.67	18358.77
881.988	18416.39
882.306	18281.03
882.624	18326
882.941	18260.01
883.259	18274.48
883.577	18165.55
883.894	18148.6
884.212	18090.53
884.529	18074.03
884.846	17928.95
885.164	17904.32
885.481	17911.32
885.798	17863.64
886.115	17770.76
886.432	17820.7
886.75	17723.31
887.067	17752.23
887.383	17721.27
887.7	17685.34
888.017	17617.09
888.334	17562.86
888.651	17559.69
888.967	17507.27
889.284	17431.34
889.6	17299.81
889.917	17277.89
890.233	17320.15
890.55	17145.92
890.866	17222.08
891.182	17113.83
891.498	17065.24
891.815	17008.97
892.131	16930.78
892.447	16856.66
892.763	16831.13
893.079	16794.52
893.395	16757.91
893.71	16695.08
894.026	16651.47
894.342	16689.43
894.657	16411.02
894.973	16488.76
895.289	16436.11
895.604	16420.06
895.92	16416.9
896.235	16337.35
896.55	16332.38
896.865	16162.67
897.181	16245.15
897.496	16110.69
897.811	16080.41
898.126	16029.34
898.441	15944.82
898.756	16037.93
899.071	15743.92
899.386	15849
899.7	15704.38
900.015	15574.21
900.33	15496.47
900.644	15471.84
900.959	15519.52
901.273	15365.85
901.588	15434.1
901.902	15347.55
902.216	15246.08
902.531	15144.62
902.845	15187.55
903.159	15048.12
903.473	14984.62
903.787	14954.11
904.101	14830.05
904.415	14916.15
904.729	14811.07
905.042	14688.36
905.356	14697.17
905.67	14682.26
905.984	14667.11
906.297	14553.9
906.611	14548.02
906.924	14521.13
907.237	14345.09
907.551	14387.8
907.864	14141.7
908.177	14336.95
908.491	14205.21
908.804	14065.1
909.117	14017.41
909.43	14004.53
909.743	13925.66
910.056	13960.47
910.368	13839.79
910.681	13787.14
910.994	13749.17
911.307	13767.7
911.619	13551.66
911.932	13544.43
912.244	13460.37
912.557	13401.38
912.869	13374.27
913.181	13307.83
913.494	13367.04
913.806	13179.02
914.118	13155.52
914.43	13043.65
914.742	13106.93
915.054	12992.36
915.366	12932.24
915.678	12932.47
915.99	12857.22
916.302	12773.6
916.613	12710.56
916.925	12698.58
917.236	12623.33
917.548	12568.19
917.859	12533.39
918.171	12378.36
918.482	12410.68
918.794	12407.51
919.105	12374.52
919.416	12247.29
919.727	12273.96
920.038	12085.49
920.349	12092.94
920.66	12060.4
920.971	11980.86
921.282	12005.04
921.593	11923.68
921.903	11876.91
922.214	11895.21
922.525	11711.94
922.835	11711.03
923.146	11627.87
923.456	11540.64
923.767	11507.65
924.077	11527.31
924.387	11448.89
924.697	11358.73
925.008	11386.07
925.318	11305.85
925.628	11244.83
925.938	11222.23
926.248	11074.89
926.558	11067.21
926.867	11026.53
927.177	11015.68
927.487	10961
927.796	10900.89
928.106	10906.76
928.416	10799.19
928.725	10789.02
929.034	10746.54
929.344	10672.19
929.653	10687.78
929.962	10575.92
930.271	10605.07
930.581	10586.09
930.89	10374.8
931.199	10382.71
931.508	10355.82
931.817	10304.74
932.125	10330.05
932.434	10252.09
932.743	10181.81
933.051	10111.08
933.36	10085.31
933.669	10006.22
933.977	10007.12
934.286	9978.2
934.594	9934.81
934.902	9844.87
935.21	9870.63
935.519	9820.69
935.827	9802.61
936.135	9626.12
936.443	9645.1
936.751	9618.21
937.059	9544.99
937.367	9562.39
937.674	9503.63
937.982	9495.05
938.29	9404.88
938.597	9373.92
938.905	9365.56
939.213	9261.15
939.52	9250.53
939.827	9311.32
940.135	9229.29
940.442	9179.35
940.749	9099.58
941.056	9175.96
941.363	9044.89
941.67	8939.13
941.977	8938.23
942.284	8891
942.591	8864.33
942.898	8804.44
943.205	8911.79
943.511	8754.73
943.818	8726.48
944.125	8651.68
944.431	8589.53
944.738	8634.73
945.044	8564.68
945.35	8539.59
945.657	8444
945.963	8406.71
946.269	8439.71
946.575	8407.62
946.881	8316.55
947.187	8317.9
947.493	8267.73
947.799	8238.13
948.105	8226.15
948.41	8143.22
948.716	8110.22
949.022	8100.06
949.327	8062.99
949.633	8009.44
949.938	7986.84
950.244	7921.98
950.549	7914.75
950.854	7896.22
951.16	7884.47
951.465	7819.61
951.77	7766.96
952.075	7755.21
952.38	7678.6
952.685	7709.11
952.99	7646.96
953.294	7597.92
953.599	7522.44
953.904	7474.54
954.209	7448.32
954.513	7417.14
954.818	7402.45
955.122	7405.84
955.426	7352.28
955.731	7300.3
956.035	7259.4
956.339	7218.95
956.643	7206.52
956.948	7176.92
957.252	7137.82
957.556	7145.05
957.86	7049.91
958.163	7065.05
958.467	7011.5
958.771	7004.26
959.075	6991.61
959.378	6875
959.682	6933.53
959.985	6853.53
960.289	6810.82
960.592	6777.6
960.896	6746.19
961.199	6751.62
961.502	6709.36
961.805	6674.33
962.108	6657.38
962.411	6621
962.714	6586.2
963.017	6591.62
963.32	6575.58
963.623	6525.86
963.926	6470.72
964.228	6462.81
964.531	6422.59
964.833	6404.96
965.136	6374.45
965.438	6319.09
965.741	6284.06
966.043	6316.37
966.345	6245.19
966.648	6242.48
966.95	6193.44
967.252	6194.79
967.554	6142.14
967.856	6075.02
968.158	6128.81
968.46	6040.22
968.761	6002.94
969.063	6059.88
969.365	5925.88
969.666	5916.16
969.968	5906.21
970.269	5854.24
970.571	5873.22
970.872	5860.57
971.174	5804.52
971.475	5861.92
971.776	5753.9
972.077	5716.16
972.378	5724.07
972.679	5762.04
972.98	5712.77
973.281	5685.43
973.582	5610.86
973.883	5592.55
974.183	5576.96
974.484	5545.77
974.785	5448.6
975.085	5434.81
975.386	5470.07
975.686	5406.79
975.986	5412.44
976.287	5447.24
976.587	5345.55
976.887	5347.13
977.187	5284.54
977.487	5262.39
977.787	5258.77
978.087	5207.7
978.387	5271.43
978.687	5201.15
978.987	5174.71
979.286	5130.42
979.586	5099.46
979.885	5046.12
980.185	5066.01
980.484	5066.69
980.784	5044.54
981.083	5001.61
981.382	4999.57
981.682	4943.08
981.981	4888.84
982.28	4893.36
982.579	4863.53
982.878	4906.02
983.177	4876.19
983.475	4833.25
983.774	4830.31
984.073	4809.07
984.372	4713.93
984.67	4756.19
984.969	4713.7
985.267	4687.72
985.566	4673.03
985.864	4632.35
986.162	4612.92
986.461	4585.12
986.759	4588.74
987.057	4538.57
987.355	4498.34
987.653	4473.48
987.951	4439.13
988.249	4463.54
988.547	4390.77
988.844	4398.68
989.142	4370.21
989.44	4373.83
989.737	4336.76
990.035	4294.73
990.332	4303.09
990.63	4266.94
990.927	4261.74
991.224	4260.38
991.521	4203.89
991.819	4203.43
992.116	4174.96
992.413	4166.83
992.71	4126.83
993.006	4122.76
993.303	4093.83
993.6	4130.44
993.897	4063.33
994.193	4049.31
994.49	4037.56
994.787	4032.14
995.083	4025.36
995.379	3979.94
995.676	3923.44
995.972	3907.17
996.268	3926.38
996.565	3878.02
996.861	3881.41
997.157	3834.4
997.453	3803.45
997.749	3786.95
998.044	3776.55
998.34	3767.29
998.636	3766.38
998.932	3726.61
999.227	3731.81
999.523	3659.04
999.818	3659.04
1000.114	3641.19
1000.409	3590.34
1000.704	3574.52
1001	3551.02
1001.295	3527.29
1001.59	3532.27
1001.885	3521.64
1002.18	3520.29
1002.475	3456.56
1002.77	3470.12
1003.065	3421.31
1003.359	3431.48
1003.654	3407.75
1003.949	3382.67
1004.243	3341.08
1004.538	3318.49
1004.832	3360.07
1005.127	3338.15
1005.421	3283.91
1005.715	3268.54
1006.009	3285.27
1006.304	3232.39
1006.598	3136.57
1006.892	3183.8
1007.186	3188.77
1007.48	3132.05
1007.773	3139.73
1008.067	3097.7
1008.361	3093.86
1008.655	3058.83
1008.948	3045.27
1009.242	3024.26
1009.535	2970.47
1009.829	2986.07
1010.122	2980.87
1010.415	2966.63
1010.708	2929.34
1011.001	2879.4
1011.295	2872.4
1011.588	2871.72
1011.881	2878.05
1012.173	2847.31
1012.466	2837.14
1012.759	2838.95
1013.052	2803.7
1013.344	2775.45
1013.637	2758.73
1013.93	2731.38
1014.222	2692.74
1014.514	2703.14
1014.807	2685.06
1015.099	2656.36
1015.391	2644.61
1015.683	2632.4
1015.976	2652.52
1016.268	2612.97
1016.56	2554.21
1016.851	2536.36
1017.143	2560.77
1017.435	2509.24
1017.727	2522.35
1018.018	2488
1018.31	2484.61
1018.602	2463.14
1018.893	2469.02
1019.185	2412.52
1019.476	2396.25
1019.767	2367.78
1020.058	2382.69
1020.35	2374.78
1020.641	2334.11
1020.932	2357.16
1021.223	2302.69
1021.514	2256.59
1021.804	2278.29
1022.095	2235.35
1022.386	2262.92
1022.677	2241.9
1022.967	2181.34
1023.258	2175.01
1023.548	2186.99
1023.839	2156.26
1024.129	2147.9
1024.419	2166.88
1024.709	2101.12
1025	2093.66
1025.29	2104.51
1025.58	2061.8
1025.87	2027.67
1026.16	2023.6
1026.449	1999.2
1026.739	1993.1
1027.029	1995.81
1027.319	1984.96
1027.608	1965.53
1027.898	1935.7
1028.187	1942.03
1028.477	1939.99
1028.766	1926.88
1029.055	1910.84
1029.344	1892.31
1029.634	1867.45
1029.923	1865.64
1030.212	1876.49
1030.501	1824.29
1030.79	1853.44
1031.078	1805.76
1031.367	1831.07
1031.656	1811.63
1031.945	1771.41
1032.233	1769.15
1032.522	1757.85
1032.81	1725.53
1033.099	1743.61
1033.387	1694.35
1033.675	1675.82
1033.963	1659.32
1034.251	1681.47
1034.54	1661.58
1034.828	1637.4
1035.116	1623.39
1035.403	1644.41
1035.691	1606.67
1035.979	1605.76
1036.267	1566.67
1036.554	1565.76
1036.842	1558.31
1037.129	1577.06
1037.417	1547.01
1037.704	1540.91
1037.992	1552.43
1038.279	1486.67
1038.566	1516.05
1038.853	1516.05
1039.14	1516.05
