Data from 15-6437_FLMS001491_002.txt Node
Date: Thu Apr 19 15:40:02 BST 2018
User: hsy
Spectrometer: FLMS00149
Trigger mode: 0
Integration Time (sec): 1.000000E-2
Scans to average: 10
Electric dark correction enabled: true
Nonlinearity correction enabled: false
Boxcar width: 0
XAxis mode: Wavelengths
Number of Pixels in Spectrum: 2048
>>>>>Begin Spectral Data<<<<<
341.393	-1.5
341.776	-1.5
342.16	-1.5
342.543	-55.06
342.927	-66.58
343.31	-89.18
343.693	-70.65
344.077	-53.02
344.46	-72.23
344.843	-61.83
345.226	-54.15
345.61	-36.3
345.993	-17.09
346.376	12.06
346.759	31.5
347.142	20.2
347.525	44.83
347.908	50.25
348.291	81.21
348.674	107.43
349.057	106.97
349.44	123.92
349.823	156.24
350.206	153.98
350.588	227.2
350.971	254.99
351.354	240.53
351.737	288.21
352.119	293.41
352.502	298.16
352.884	316.46
353.267	323.69
353.65	333.18
354.032	363.92
354.414	336.57
354.797	381.09
355.179	360.98
355.562	370.24
355.944	361.21
356.326	373.86
356.709	381.77
357.091	368.89
357.473	393.75
357.855	382.45
358.238	366.4
358.62	370.92
359.002	388.32
359.384	382
359.766	389.68
360.148	381.77
360.53	376.8
360.912	386.06
361.294	386.97
361.676	374.54
362.057	376.12
362.439	400.3
362.821	355.78
363.203	372.73
363.584	358.95
363.966	363.47
364.348	367.76
364.729	377.02
365.111	348.1
365.493	363.69
365.874	339.28
366.256	366.63
366.637	371.6
367.019	362.56
367.4	374.54
367.781	371.6
368.163	358.49
368.544	363.47
368.925	354.43
369.306	375.89
369.688	378.38
370.069	331.15
370.45	373.18
370.831	382
371.212	375.22
371.593	353.97
371.974	386.06
372.355	359.17
372.736	370.92
373.117	368.66
373.498	384.48
373.879	376.35
374.26	375.22
374.641	350.13
375.021	380.64
375.402	384.26
375.783	375.67
376.163	369.57
376.544	412.5
376.925	373.41
377.305	406.18
377.686	392.39
378.066	383.58
378.447	388.32
378.827	399.4
379.208	398.04
379.588	401.43
379.968	392.39
380.349	396.68
380.729	408.66
381.109	407.31
381.489	417.7
381.87	416.57
382.25	420.19
382.63	414.54
383.01	415.67
383.39	414.99
383.77	412.5
384.15	419.51
384.53	436.23
384.91	453.41
385.29	458.15
385.67	444.59
386.049	462.45
386.429	451.15
386.809	401.88
387.189	454.31
387.568	426.97
387.948	467.19
388.328	471.48
388.707	467.19
389.087	458.6
389.466	462.22
389.846	466.06
390.225	455.21
390.605	472.84
390.984	475.78
391.363	470.81
391.743	476.46
392.122	475.55
392.501	489.11
392.881	514.65
393.26	516.23
393.639	508.09
394.018	501.31
394.397	493.41
394.776	527.08
395.155	527.53
395.534	489.34
395.913	523.46
396.292	547.87
396.671	519.62
397.05	525.04
397.429	508.32
397.808	533.4
398.186	512.16
398.565	524.36
398.944	559.62
399.323	543.35
399.701	513.97
400.08	565.27
400.458	537.47
400.837	579.5
401.215	544.7
401.594	539.51
401.972	559.84
402.351	563.69
402.729	589
403.107	585.15
403.486	592.39
403.864	577.92
404.242	576.57
404.62	604.59
404.999	601.42
405.377	612.5
405.755	602.1
406.133	634.64
406.511	640.97
406.889	643.23
407.267	643.01
407.645	652.95
408.023	664.25
408.401	663.12
408.779	654.76
409.156	678.26
409.534	665.38
409.912	661.76
410.29	701.99
410.667	697.24
411.045	694.3
411.422	712.61
411.8	741.31
412.178	719.61
412.555	733.4
412.933	733.4
413.31	736.11
413.687	751.7
414.065	766.17
414.442	789.67
414.819	775.88
415.197	803
415.574	805.49
415.951	828.99
416.328	792.83
416.705	801.87
417.082	794.87
417.46	836.9
417.837	850.91
418.214	832.61
418.591	864.69
418.967	866.05
419.344	853.62
419.721	886.84
420.098	866.95
420.475	862.66
420.852	895.2
421.228	881.42
421.605	896.78
421.982	885.03
422.358	917.12
422.735	927.07
423.111	916.22
423.488	910.8
423.864	930.46
424.241	949.66
424.617	951.92
424.994	970.23
425.37	973.17
425.746	967.29
426.123	985.37
426.499	993.5
426.875	979.49
427.251	1027.4
427.627	1060.85
428.003	1033.5
428.379	1033.05
428.756	1033.05
429.132	1087.06
429.507	1092.26
429.883	1088.42
430.259	1097.91
430.635	1140.17
431.011	1134.74
431.387	1124.8
431.763	1127.06
432.138	1167.06
432.514	1173.16
432.89	1172.71
433.265	1189.88
433.641	1193.05
434.016	1222.43
434.392	1239.37
434.767	1292.03
435.143	1268.07
435.518	1285.25
435.894	1288.86
436.269	1294.97
436.644	1317.11
437.02	1338.81
437.395	1323.89
437.77	1339.48
438.145	1366.83
438.52	1391.91
438.895	1401.86
439.271	1396.21
439.646	1432.82
440.021	1444.79
440.395	1444.11
440.77	1426.26
441.145	1447.5
441.52	1450.89
441.895	1460.61
442.27	1474.17
442.645	1451.35
443.019	1523.89
443.394	1506.71
443.769	1527.73
444.143	1513.04
444.518	1521.85
444.892	1545.81
445.267	1541.29
445.641	1569.99
446.016	1574.73
446.39	1570.89
446.764	1564.79
447.139	1583.55
447.513	1611.57
447.887	1575.18
448.262	1600.27
448.636	1656.31
449.01	1629.42
449.384	1656.31
449.758	1672.13
450.132	1709.64
450.506	1680.27
450.88	1714.62
451.254	1718.23
451.628	1745.35
452.002	1782.41
452.376	1784.67
452.75	1825.12
453.123	1817.66
453.497	1869.41
453.871	1844.56
454.244	1881.84
454.618	1913.71
454.992	1953.93
455.365	1969.3
455.739	1998.45
456.112	1984.89
456.486	2028.73
456.859	2030.99
457.232	2075.28
457.606	2105.11
457.979	2120.03
458.352	2160.03
458.725	2183.76
459.099	2179.24
459.472	2194.15
459.845	2243.42
460.218	2266.47
460.591	2282.74
460.964	2321.38
461.337	2351.44
461.71	2393.24
462.083	2402.06
462.456	2448.16
462.829	2466.69
463.201	2487.03
463.574	2472.79
463.947	2537.42
464.32	2566.34
464.692	2594.37
465.065	2652.44
465.438	2697.19
465.81	2680.47
466.183	2675.04
466.555	2772.44
466.928	2792.1
467.3	2787.58
467.672	2795.49
468.045	2888.37
468.417	2891.08
468.789	2938.99
469.161	2961.81
469.534	2986.45
469.906	3048.14
470.278	3047.69
470.65	3108.48
471.022	3165.65
471.394	3234.58
471.766	3253.78
472.138	3276.83
472.51	3363.16
472.882	3415.81
473.253	3433.67
473.625	3498.3
473.997	3572.42
474.369	3602.48
474.74	3603.15
475.112	3725.86
475.484	3796.82
475.855	3813.09
476.227	3867.33
476.598	3948.68
476.97	4054.67
477.341	4111.16
477.713	4150.26
478.084	4205.62
478.455	4343.25
478.827	4378.5
479.198	4441.78
479.569	4548.67
479.94	4627.76
480.311	4712.96
480.682	4823.01
481.053	4917.47
481.424	4991.37
481.795	5059.16
482.166	5139.84
482.537	5280.4
482.908	5346.16
483.279	5477.45
483.65	5561.29
484.021	5661.4
484.391	5751.57
484.762	5855.07
485.133	5932.13
485.503	6065.01
485.874	6182.3
486.244	6358.11
486.615	6436.07
486.985	6629.29
487.356	6779.57
487.726	6822.96
488.097	7015.04
488.467	7059.56
488.837	7272.89
489.207	7458.19
489.578	7585.2
489.948	7763.95
490.318	7893.44
490.688	7953.32
491.058	8229.25
491.428	8409.58
491.798	8441.9
492.168	8703.13
492.538	8903.35
492.908	9017.02
493.278	9245.72
493.648	9356.22
494.017	9514.64
494.387	9707.85
494.757	9873.5
495.126	10079.14
495.496	10246.14
495.866	10422.64
496.235	10557.55
496.605	10849.52
496.974	11052.45
497.344	11237.3
497.713	11481.59
498.082	11667.12
498.452	11848.59
498.821	12099.2
499.19	12259.65
499.559	12503.48
499.928	12719.52
500.298	12910.03
500.667	13157.25
501.036	13375.55
501.405	13672.04
501.774	13800.63
502.143	14066.38
502.512	14334.62
502.88	14624.78
503.249	14705.46
503.618	15003.76
503.987	15222.96
504.356	15507.93
504.724	15702.95
505.093	15922.83
505.462	16201.01
505.83	16376.6
506.199	16731.17
506.567	17096.58
506.936	17197.37
507.304	17435.78
507.672	17724.14
508.041	17908.77
508.409	18231.7
508.777	18493.61
509.145	18743.09
509.514	18948.06
509.882	19038.68
510.25	19319.8
510.618	19583.52
510.986	19687.25
511.354	19964.53
511.722	20336.73
512.09	20535.59
512.458	20503.95
512.826	20895.13
513.193	21016.48
513.561	21199.98
513.929	21482.01
514.297	21684.49
514.664	21980.07
515.032	22087.41
515.4	22331.93
515.767	22507.52
516.135	22692.14
516.502	22574.18
516.869	23080.16
517.237	23219.59
517.604	23260.72
517.972	23593.36
518.339	23683.3
518.706	23884.88
519.073	24101.82
519.44	24165.78
519.808	24380.46
520.175	24531.19
520.542	24885.31
520.909	25086.88
521.276	25014.79
521.643	25343.37
522.009	25544.72
522.376	25695.45
522.743	25815.68
523.11	26169.79
523.477	26383.12
523.843	26370.69
524.21	26739.04
524.577	26852.49
524.943	27070.79
525.31	26976.78
525.676	27459.93
526.043	27530.66
526.409	27645.69
526.776	27939.46
527.142	28093.13
527.508	28152.11
527.874	28297.65
528.241	28461.94
528.607	28510.75
528.973	28894.92
529.339	28823.06
529.705	29088.13
530.071	29206.32
530.437	29430.05
530.803	29566.99
531.169	29547.56
531.535	29586.2
531.901	29786.65
532.267	29800.43
532.632	30035.45
532.998	30081.78
533.364	30098.05
533.73	30277.48
534.095	30411.94
534.461	30434.76
534.826	30471.83
535.192	30498.27
535.557	30703.01
535.923	30685.38
536.288	30753.85
536.653	30797.47
537.019	30640.64
537.384	30806.73
537.749	30749.11
538.114	30937.35
538.479	30748.43
538.845	30910.01
539.21	30831.14
539.575	30911.36
539.94	30814.87
540.305	30966.95
540.67	30867.3
541.034	30935.99
541.399	31030.23
541.764	31070.45
542.129	30984.13
542.494	30959.95
542.858	31118.59
543.223	30956.78
543.587	31003.11
543.952	31023
544.316	31179.83
544.681	31044.01
545.045	31142.99
545.41	31204.46
545.774	30947.75
546.138	31040.62
546.503	30931.47
546.867	31123.56
547.231	31221.64
547.595	31152.71
547.959	31174.41
548.324	31222.31
548.688	31201.52
549.052	31180.06
549.416	31054.86
549.779	31054.18
550.143	31141.86
550.507	31202.43
550.871	31278.81
551.235	31140.06
551.599	31284.69
551.962	31279.71
552.326	31180.28
552.689	31128.31
553.053	31115.65
553.417	31055.09
553.78	31454.85
554.143	31352.93
554.507	31260.05
554.87	31311.58
555.234	31455.08
555.597	31357.45
555.96	31244.01
556.323	31317.68
556.686	31384.34
557.05	31484.91
557.413	31453.72
557.776	31515.41
558.139	31669.31
558.502	31649.42
558.865	31604.45
559.228	31821.39
559.59	31785.69
559.953	31858.91
560.316	32087.6
560.679	31928.06
561.041	32140.93
561.404	32171.67
561.767	32308.39
562.129	32079.47
562.492	32316.98
562.854	32266.13
563.217	32263.42
563.579	32404.66
563.941	32465.67
564.304	32485.33
564.666	32808.71
565.028	32686.91
565.39	32688.26
565.753	32910.18
566.115	32894.81
566.477	33045.77
566.839	33137.97
567.201	33311.75
567.563	33153.56
567.925	33392.88
568.287	33435.36
568.648	33437.62
569.01	33591.74
569.372	33741.8
569.734	33607.79
570.095	33787.44
570.457	33983.82
570.819	34018.63
571.18	33991.28
571.542	34285.51
571.903	34199.41
572.265	34176.14
572.626	34279.18
572.987	34130.26
573.349	34509.23
573.71	34485.05
574.071	34680.08
574.432	34597.82
574.794	34845.5
575.155	34850.69
575.516	34695.22
575.877	34851.37
576.238	34747.19
576.599	34894.08
576.96	34873.97
577.32	34827.42
577.681	35003.91
578.042	35152.38
578.403	34981.31
578.763	34974.31
579.124	34964.36
579.485	35185.6
579.845	35086.85
580.206	35132.49
580.566	35109.44
580.927	35095.43
581.287	35245.94
581.648	35092.95
582.008	35073.06
582.368	35098.6
582.728	35108.77
583.089	35111.03
583.449	34893.63
583.809	34984.25
584.169	35028.54
584.529	34963.01
584.889	35177.69
585.249	34836.68
585.609	34748.32
585.969	34804.82
586.329	34835.33
586.688	34865.16
587.048	34792.16
587.408	34624.94
587.768	34702.68
588.127	34690.47
588.487	34445.28
588.846	34821.99
589.206	34381.33
589.565	34446.18
589.925	34672.17
590.284	34520.53
590.643	34427.43
591.003	34318.5
591.362	34456.58
591.721	34528.44
592.08	34377.03
592.44	34534.32
592.799	34423.36
593.158	34329.13
593.517	34314.89
593.876	34284.61
594.235	34077.15
594.593	34313.31
594.952	34294.1
595.311	34078.28
595.67	34020.89
596.029	34251.16
596.387	34226.08
596.746	34370.93
597.104	34031.51
597.463	34149.02
597.822	34362.12
598.18	34110.15
598.538	34253.2
598.897	34381.1
599.255	34206.64
599.613	34530.7
599.972	34139.3
600.33	34318.05
600.688	34183.59
601.046	34152.18
601.404	34443.92
601.762	34305.4
602.12	34309.24
602.478	34388.33
602.836	34429.69
603.194	34220.2
603.552	34295
603.91	34216.36
604.268	34400.31
604.625	34314.21
604.983	34374.55
605.341	34268.11
605.698	34450.25
606.056	34586.52
606.413	34353.08
606.771	34530.48
607.128	34549.68
607.485	34534.54
607.843	34530.02
608.2	34651.38
608.557	34740.19
608.914	34643.24
609.272	34790.58
609.629	34857.93
609.986	34962.33
610.343	34792.16
610.7	35149.67
611.057	34909.68
611.414	35015.21
611.771	35096.34
612.127	35109.22
612.484	35164.81
612.841	35202.1
613.198	35139.95
613.554	34971.59
613.911	35198.93
614.267	35212.04
614.624	35317.12
614.98	35327.07
615.337	35635.31
615.693	35439.83
616.05	35492.26
616.406	35590.79
616.762	35601.41
617.118	35676.21
617.475	35657
617.831	35623.33
618.187	35754.62
618.543	35820.61
618.899	36027.61
619.255	35862.19
619.611	35865.13
619.967	35981.06
620.323	36280.94
620.678	35960.95
621.034	35935.19
621.39	36024
621.746	36042.3
622.101	36427.6
622.457	36096.76
622.812	36255.85
623.168	36284.33
623.523	36309.64
623.879	36404.55
624.234	36215.63
624.589	36271.67
624.945	36470.76
625.3	36376.98
625.655	36252.24
626.01	36433.03
626.365	36472.12
626.72	36302.86
627.075	36259.24
627.43	36366.59
627.785	36391.22
628.14	36349.41
628.495	36423.31
628.85	36357.09
629.205	36203.88
629.559	36433.7
629.914	36325.01
630.269	36318
630.623	36171.34
630.978	36037.33
631.332	36275.06
631.687	36286.36
632.041	36131.34
632.396	36154.39
632.75	36071.9
633.104	36124.56
633.459	35944.22
633.813	35871.68
634.167	35942.19
634.521	35855.19
634.875	35900.16
635.229	35683.67
635.583	35700.84
635.937	35638.92
636.291	35664.23
636.645	35584.23
636.999	35405.03
637.352	35551.92
637.706	35142.44
638.06	35640.73
638.413	35485.71
638.767	35171.14
639.121	35398.25
639.474	35203.23
639.828	35236.9
640.181	35261.3
640.534	35175.66
640.888	35141.53
641.241	34900.18
641.594	34940.86
641.947	35050.01
642.301	34863.12
642.654	35036.23
643.007	34840.52
643.36	34929.79
643.713	34871.71
644.066	35028.99
644.419	34794.88
644.771	34335
645.124	34174.55
645.477	34171.84
645.83	34070.6
646.182	33944.95
646.535	33745.64
646.888	34020.89
647.24	33995.8
647.593	34071.51
647.945	33900.44
648.298	33813.21
648.65	33667.22
649.002	33518.53
649.355	33375.93
649.707	33294.12
650.059	33384.29
650.411	33877.84
650.763	33928.68
651.115	34694.77
651.467	34495.67
651.819	34560.31
652.171	34357.6
652.523	34301.56
652.875	34392.85
653.227	34276.25
653.578	34577.03
653.93	34369.12
654.282	34313.08
654.633	34248.9
654.985	34455.68
655.337	34400.31
655.688	34295.23
656.039	34353.31
656.391	34104.05
656.742	34222.69
657.094	34340.88
657.445	34325.51
657.796	34372.29
658.147	34196.7
658.498	34384.49
658.849	34476.01
659.2	34389.91
659.551	34303.36
659.902	34618.61
660.253	34326.87
660.604	34521.66
660.955	34338.84
661.306	34568.22
661.656	34407.32
662.007	34312.85
662.358	34579.74
662.708	34557.37
663.059	34570.25
663.409	34224.72
663.76	34546.97
664.11	34631.49
664.461	34758.49
664.811	34787.42
665.161	34676.46
665.511	34621.32
665.862	34746.06
666.212	34755.78
666.562	34824.48
666.912	34823.12
667.262	34669.46
667.612	34597.14
667.962	34809.56
668.312	34642.56
668.662	34867.19
669.011	34710.36
669.361	34709.45
669.711	34793.29
670.06	34758.94
670.41	34657.93
670.76	34635.11
671.109	34796.01
671.459	34728.89
671.808	34664.94
672.157	34763.24
672.507	34618.16
672.856	34652.73
673.205	34504.04
673.554	34662.22
673.904	34531.15
674.253	34736.35
674.602	34637.37
674.951	34080.32
675.3	33982.69
675.649	34501.1
675.998	34424.94
676.346	34492.74
676.695	34506.3
677.044	34260.65
677.393	34343.59
677.741	34276.25
678.09	34203.25
678.438	34151.73
678.787	34187.43
679.135	34211.84
679.484	34004.84
679.832	34136.14
680.181	34061.34
680.529	33994.45
680.877	33780.44
681.225	33761.46
681.573	33916.26
681.922	33780.67
682.27	33645.98
682.618	33611.86
682.966	33671.06
683.314	33600.11
683.661	33558.52
684.009	33401.24
684.357	33424.29
684.705	33144.98
685.053	33129.84
685.4	32937.3
685.748	32964.87
686.095	32989.05
686.443	32704.76
686.79	32760.58
687.138	32799.45
687.485	32683.97
687.832	32589.74
688.18	32531.43
688.527	32409.4
688.874	32385.67
689.221	32344.32
689.568	32214.83
689.915	32076.53
690.262	32123.08
690.609	32045.34
690.956	31843.77
691.303	31809.19
691.65	31704.34
691.997	31511.35
692.344	31413.27
692.69	31338.47
693.037	31398.58
693.383	30981.42
693.73	31206.5
694.077	30851.25
694.423	30841.99
694.769	30714.31
695.116	30723.57
695.462	30492.16
695.808	30405.39
696.155	30505.5
696.501	30133.98
696.847	30131.95
697.193	29925.17
697.539	29983.25
697.885	29743.48
698.231	29791.17
698.577	29672.75
698.923	29542.81
699.269	29343.95
699.614	29058.76
699.96	29047.68
700.306	29036.61
700.651	28854.02
700.997	28769.5
701.342	28717.3
701.688	28624.64
702.033	28465.78
702.379	28524.31
702.724	28288.61
703.069	28287.48
703.415	27900.37
703.76	28010.65
704.105	27978.11
704.45	27854.49
704.795	27619.47
705.14	27558.68
705.485	27749.86
705.83	27342.19
706.175	27548.51
706.52	27237.11
706.865	27107.17
707.209	27060.16
707.554	27079.15
707.899	26962.31
708.243	26848.42
708.588	26953.95
708.932	26639.38
709.277	26582.44
709.621	26615.2
709.966	26417.7
710.31	26453.17
710.654	26173.86
710.998	26354.19
711.342	26200.75
711.687	26134.99
712.031	26216.8
712.375	26010.25
712.719	25975.22
713.063	25950.59
713.407	25890.03
713.75	25866.52
714.094	25855.22
714.438	25652.52
714.782	25622.46
715.125	25508.11
715.469	25712.85
715.812	25484.61
716.156	25410.72
716.499	25391.51
716.843	25450.71
717.186	25367.55
717.53	25471.51
717.873	25444.16
718.216	25383.82
718.559	25368.01
718.902	25067.9
719.246	25122.81
719.589	24995.81
719.932	25123.94
720.275	25074.23
720.617	25083.04
720.96	24873.78
721.303	25123.04
721.646	25111.06
721.989	24916.49
722.331	25033.78
722.674	25019.77
723.016	24861.8
723.359	24815.48
723.701	24928.69
724.044	24839.88
724.386	24711.98
724.729	25001.01
725.071	24845.31
725.413	24845.08
725.755	24892.31
726.097	24624.3
726.439	24728.47
726.782	24763.28
727.124	24897.06
727.465	24886.89
727.807	24714.92
728.149	24730.06
728.491	24854.57
728.833	24754.01
729.175	24818.19
729.516	24742.03
729.858	24808.92
730.199	24779.32
730.541	24847.57
730.882	24864.74
731.224	24886.66
731.565	24853.22
731.906	24765.76
732.248	24824.06
732.589	24806.89
732.93	24805.76
733.271	24963.5
733.612	24858.87
733.953	25032.42
734.294	24946.32
734.635	24940.45
734.976	25132.08
735.317	24970.05
735.658	25061.12
735.999	25102.7
736.339	25062.02
736.68	25134.11
737.021	25155.36
737.361	25117.16
737.702	25499.75
738.042	25359.42
738.383	25372.07
738.723	25466.53
739.063	25498.62
739.404	25561.22
739.744	25547.44
740.084	25511.73
740.424	25589.47
740.764	25701.1
741.104	25893.87
741.444	25693.42
741.784	25824.26
742.124	26053.19
742.464	25986.29
742.804	26070.36
743.143	26199.4
743.483	26416.34
743.823	26309.45
744.162	26332.95
744.502	26534.53
744.841	26566.84
745.181	26687.07
745.52	26798.48
745.86	27074.85
746.199	27018.58
746.538	27197.79
746.877	27387.39
747.216	27474.39
747.556	27578.79
747.895	27734.5
748.234	27861.73
748.573	27931.1
748.911	28008.16
749.25	28172.45
749.589	28340.58
749.928	28511.65
750.267	28647.92
750.605	28759.1
750.944	29018.98
751.283	29060.34
751.621	29331.74
751.96	29468.69
752.298	29562.7
752.636	29823.48
752.975	29977.83
753.313	30084.49
753.651	30513.18
753.989	30597.7
754.327	30745.49
754.666	30801.08
755.004	31136.67
755.342	31284.46
755.679	31459.82
756.017	31561.29
756.355	32014.61
756.693	31961.73
757.031	32340.25
757.368	32273.36
757.706	32736.63
758.044	32592.45
758.381	32851.65
758.719	33020.69
759.056	33211.19
759.394	33382.03
759.731	33326.67
760.068	33470.62
760.405	33672.42
760.743	33781.8
761.08	34071.73
761.417	34088.23
761.754	34285.74
762.091	34282.8
762.428	34382.91
762.765	34421.78
763.102	34536.58
763.438	34754.43
763.775	34785.16
764.112	35022.89
764.449	35246.62
764.785	35282.32
765.122	35201.42
765.458	35222.44
765.795	35297.24
766.131	35539.94
766.467	35602.09
766.804	35599.6
767.14	35627.4
767.476	35802.31
767.812	35787.17
768.148	35948.74
768.485	35800.95
768.821	35766.6
769.157	35908.07
769.492	35978.12
769.828	36017.44
770.164	35826.26
770.5	35924.11
770.836	35893.6
771.171	35995.75
771.507	35824.45
771.842	35716.89
772.178	35954.17
772.513	35777.9
772.849	35909.2
773.184	35793.72
773.519	35863.77
773.855	35747.62
774.19	35785.58
774.525	35701.29
774.86	35634.18
775.195	35696.1
775.53	35526.16
775.865	35417.68
776.2	35380.4
776.535	35316.9
776.87	35230.12
777.205	35076
777.539	35010.01
777.874	35146.73
778.209	34783.12
778.543	35001.88
778.878	34946.06
779.212	34904.25
779.547	34643.02
779.881	34646.63
780.215	34443.47
780.55	34543.58
780.884	34344.27
781.218	34390.14
781.552	34379.07
781.886	34168.23
782.22	34104.27
782.554	33729.14
782.888	33759.2
783.222	33742.25
783.556	33580.67
783.889	33491.86
784.223	33344.07
784.557	33375.03
784.89	33393.33
785.224	33141.81
785.557	32991.99
785.891	33105.43
786.224	33017.3
786.558	32987.47
786.891	32759.22
787.224	32462.06
787.557	32524.88
787.891	32509.74
788.224	32382.74
788.557	32233.14
788.89	32358.33
789.223	32171.44
789.556	31981.16
789.888	31977.32
790.221	31861.62
790.554	31752.7
790.887	31747.05
791.219	31568.97
791.552	31486.94
791.884	31505.92
792.217	31454.85
792.549	31342.09
792.882	31102.54
793.214	31000.17
793.546	31042.43
793.879	30948.2
794.211	30681.09
794.543	30894.64
794.875	30726.51
795.207	30667.98
795.539	30583.24
795.871	30635.21
796.203	30415.33
796.535	30231.15
796.867	30215.34
797.198	30151.38
797.53	30044.94
797.862	29802.69
798.193	30039.52
798.525	29748.91
798.856	29997.71
799.188	29527.44
799.519	29448.35
799.85	29384.17
800.182	29319.09
800.513	29471.17
800.844	29059.89
801.175	29208.36
801.506	29104.63
801.837	28997.97
802.168	28954.35
802.499	29020.11
802.83	28830.29
803.161	28758.42
803.491	28596.17
803.822	28771.08
804.153	28476.4
804.483	28374.25
804.814	28268.04
805.145	28292.45
805.475	28310.75
805.805	28174.49
806.136	28148.05
806.466	28101.27
806.796	28109.85
807.126	27883.65
807.457	27938.56
807.787	27892.68
808.117	27782.41
808.447	27674.61
808.777	27745.57
809.107	27486.59
809.436	27476.65
809.766	27541.28
810.096	27557.55
810.426	27311.46
810.755	27446.37
811.085	27202.76
811.414	27322.98
811.744	27149.88
812.073	27114.17
812.403	27098.81
812.732	26873.05
813.061	27063.1
813.39	26970.22
813.719	26813.39
814.049	26919.83
814.378	26917.57
814.707	26676.67
815.036	26671.47
815.365	26525.26
815.693	26415.44
816.022	26459.5
816.351	26367.75
816.68	26206.18
817.008	26376.11
817.337	26006.86
817.665	26127.76
817.994	26136.57
818.322	26161.43
818.651	26076.24
818.979	25888.9
819.307	25982
819.636	25900.19
819.964	25815.9
820.292	25826.52
820.62	25753.08
820.948	25867.65
821.276	25955.33
821.604	25883.7
821.932	25908.56
822.259	25820.42
822.587	25847.77
822.915	25824.26
823.243	25878.5
823.57	25723.7
823.898	25799.86
824.225	25819.97
824.553	25735
824.88	25842.57
825.207	25933.64
825.535	25780.88
825.862	25968.44
826.189	25839.18
826.516	26032.17
826.843	26010.25
827.17	26004.82
827.497	25869.46
827.824	26000.31
828.151	25943.36
828.478	25877.6
828.805	26042.11
829.131	25965.5
829.458	26071.26
829.785	25763.93
830.111	25966.86
830.438	26064.94
830.764	25960.98
831.09	25977.48
831.417	25816.81
831.743	26024.94
832.069	25956.46
832.395	25868.33
832.722	25938.84
833.048	25800.99
833.374	25983.36
833.7	25812.97
834.026	25905.39
834.351	25821.78
834.677	25796.24
835.003	25780.88
835.329	25797.15
835.654	25703.59
835.98	25656.36
836.306	25842.34
836.631	25687.54
836.956	25856.58
837.282	25953.07
837.607	25524.61
837.932	25685.96
838.258	25577.27
838.583	25573.42
838.908	25476.03
839.233	25551.05
839.558	25367.78
839.883	25363.03
840.208	25243.94
840.533	25363.49
840.858	25376.14
841.182	25377.72
841.507	25243.71
841.832	25125.07
842.156	25250.04
842.481	25045.3
842.805	25024.74
843.13	24977.51
843.454	24922.14
843.778	24918.3
844.103	24857.51
844.427	24867.45
844.751	24860
845.075	24713.11
845.399	24634.01
845.723	24595.37
846.047	24524.19
846.371	24318.77
846.695	24207.13
847.019	24136.63
847.343	24052.79
847.666	24007.59
847.99	23904.31
848.313	23775.05
848.637	23811.21
848.96	23739.57
849.284	23690.76
849.607	23458.68
849.931	23456.87
850.254	23247.16
850.577	23129.42
850.9	22997.9
851.223	23047.16
851.546	22909.99
851.869	22901.86
852.192	23033.6
852.515	22691.92
852.838	22528.31
853.161	22607.63
853.483	22525.14
853.806	22458.03
854.129	22293.74
854.451	22274.3
854.774	22178.03
855.096	22184.59
855.419	22107.53
855.741	21831.38
856.063	21819.17
856.385	21883.8
856.708	21846.97
857.03	21797.93
857.352	21651.94
857.674	21624.83
857.996	21458.5
858.318	21360.88
858.64	21447.66
858.961	21324.72
859.283	21298.28
859.605	21102.81
859.926	21156.14
860.248	21155.23
860.57	21000.44
860.891	21016.48
861.212	20881.34
861.534	20922.7
861.855	20730.84
862.176	20777.84
862.498	20809.26
862.819	20762.7
863.14	20704.63
863.461	20681.8
863.782	20602.48
864.103	20666.43
864.424	20494.24
864.745	20497.17
865.065	20455.37
865.386	20232.55
865.707	20493.33
866.027	20477.06
866.348	20376.5
866.668	20302.6
866.989	20317.97
867.309	20187.12
867.63	20197.52
867.95	20113.68
868.27	20006.56
868.59	20139.44
868.91	19950.97
869.23	20064.87
869.55	19963.63
869.87	20048.37
870.19	19920.69
870.51	19885.44
870.83	19894.25
871.15	19743.29
871.469	19768.38
871.789	19880.01
872.109	19753.46
872.428	19660.81
872.748	19854.93
873.067	19706.91
873.386	19702.17
873.706	19656.29
874.025	19561.83
874.344	19389.18
874.663	19554.37
874.982	19466.47
875.301	19461.72
875.62	19412
875.939	19214.72
876.258	19313.25
876.577	19123.42
876.896	19187.38
877.214	19246.81
877.533	19251.78
877.852	19154.61
878.17	19136.3
878.489	19145.57
878.807	19089.75
879.125	19063.54
879.444	19005.46
879.762	18964.56
880.08	18994.61
880.398	18853.37
880.716	18908.97
881.034	18789.87
881.352	18802.75
881.67	18803.21
881.988	18788.07
882.306	18646.83
882.624	18660.16
882.941	18485.7
883.259	18463.33
883.577	18574.51
883.894	18506.26
884.212	18442.76
884.529	18351.92
884.846	18305.14
885.164	18212.49
885.481	18238.02
885.798	18161.87
886.115	18118.25
886.432	18199.15
886.75	18068.99
887.067	18171.36
887.383	18094.07
887.7	17994.87
888.017	17792.84
888.334	17880.52
888.651	17776.57
888.967	17763.46
889.284	17769.79
889.6	17747.87
889.917	17572.73
890.233	17652.73
890.55	17541.77
890.866	17481.21
891.182	17438.27
891.498	17425.16
891.815	17337.71
892.131	17300.87
892.447	17229.69
892.763	17260.42
893.079	17112.86
893.395	17120.76
893.71	17050.03
894.026	17070.82
894.342	17027.43
894.657	16803.94
894.973	16837.16
895.289	16801.9
895.604	16803.03
895.92	16656.6
896.235	16613.21
896.55	16597.16
896.865	16492.53
897.181	16472.19
897.496	16377.28
897.811	16365.76
898.126	16261.35
898.441	16187
898.756	16241.92
899.071	16177.96
899.386	16155.14
899.7	15956.05
900.015	15949.72
900.33	15744.08
900.644	15760.12
900.959	15813.23
901.273	15656.62
901.588	15631.76
901.902	15569.62
902.216	15540.24
902.531	15507.7
902.845	15457.31
903.159	15314.48
903.473	15332.11
903.787	15215.28
904.101	15197.2
904.415	15201.04
904.729	15097.99
905.042	14969.63
905.356	14968.96
905.67	14812.58
905.984	14918.11
906.297	14831.79
906.611	14718.79
906.924	14729.41
907.237	14671.79
907.551	14653.26
907.864	14533.71
908.177	14409.2
908.491	14401.74
908.804	14294.62
909.117	14345.02
909.43	14157.9
909.743	14162.42
910.056	14144.35
910.368	14039.49
910.681	14050.79
910.994	14038.13
911.307	13843.11
911.619	13773.73
911.932	13861.87
912.244	13685.6
912.557	13681.98
912.869	13557.47
913.181	13573.97
913.494	13584.81
913.806	13430.24
914.118	13347.76
914.43	13332.84
914.742	13218.49
915.054	13230.25
915.366	13215.56
915.678	13107.31
915.99	13058.05
916.302	12999.97
916.613	12930.82
916.925	12945.96
917.236	12868.22
917.548	12828.9
917.859	12770.14
918.171	12664.61
918.482	12596.59
918.794	12506.65
919.105	12531.28
919.416	12442.47
919.727	12443.15
920.038	12443.37
920.349	12273.43
920.66	12249.71
920.971	12233.89
921.282	12170.61
921.593	12176.94
921.903	12037.51
922.214	12040.9
922.525	11971.07
922.835	11861.24
923.146	11815.59
923.456	11778.31
923.767	11724.3
924.077	11712.32
924.387	11586.67
924.697	11617.63
925.008	11578.99
925.318	11495.15
925.628	11426.45
925.938	11496.96
926.248	11301.26
926.558	11297.41
926.867	11291.09
927.177	11181.94
927.487	11135.39
927.796	11028.5
928.106	11026.69
928.416	11052.22
928.725	10981.49
929.034	10918.44
929.344	10959.34
929.653	10910.31
929.962	10816.07
930.271	10733.36
930.581	10678.9
930.89	10634.38
931.199	10628.28
931.508	10608.85
931.817	10635.51
932.125	10492.01
932.434	10468.74
932.743	10323.43
933.051	10297.89
933.36	10245.24
933.669	10246.14
933.977	10205.69
934.286	10208.18
934.594	10158.24
934.902	10128.18
935.21	10026.71
935.519	9995.98
935.827	9932.93
936.135	9838.47
936.443	9768.87
936.751	9803.22
937.059	9802.99
937.367	9732.94
937.674	9693.62
937.982	9615.65
938.29	9605.03
938.597	9629.21
938.905	9449.78
939.213	9480.74
939.52	9484.13
939.827	9457.46
940.135	9400.97
940.442	9294.53
940.749	9290.46
941.056	9226.28
941.363	9235.55
941.67	9123.91
941.977	9091.37
942.284	9022.9
942.591	9054.54
942.898	8943.13
943.205	8985.16
943.511	8919.4
943.818	8913.75
944.125	8816.12
944.431	8758.72
944.738	8795.33
945.044	8675.34
945.35	8681.89
945.657	8666.3
945.963	8607.09
946.269	8603.93
946.575	8535.23
946.881	8462.24
947.187	8463.14
947.493	8400.77
947.799	8410.71
948.105	8289.13
948.41	8282.8
948.716	8248
949.022	8257.04
949.327	8218.17
949.633	8129.36
949.938	8101.57
950.244	8110.38
950.549	8021.34
950.854	8014.56
951.16	7965.07
951.465	7917.39
951.77	7932.98
952.075	7878.07
952.38	7903.61
952.685	7871.74
952.99	7703.39
953.294	7820.67
953.599	7715.59
953.904	7654.12
954.209	7547
954.513	7620
954.818	7582.03
955.122	7519.66
955.426	7467.69
955.731	7435.6
956.035	7420.68
956.339	7343.17
956.643	7358.31
956.948	7266.33
957.252	7256.17
957.556	7278.09
957.86	7190.4
958.163	7254.81
958.467	7158.77
958.771	7145.66
959.075	7135.26
959.378	7052.1
959.682	6973.91
959.985	6989.73
960.289	6951.77
960.592	6923.52
960.896	6916.51
961.199	6890.75
961.502	6895.27
961.805	6803.07
962.108	6757.2
962.411	6765.78
962.714	6752.68
963.017	6669.74
963.32	6711.55
963.623	6645.79
963.926	6549.97
964.228	6585.22
964.531	6575.05
964.833	6526.69
965.136	6497.77
965.438	6475.17
965.741	6407.6
966.043	6401.5
966.345	6356.3
966.648	6326.02
966.95	6300.26
967.252	6259.81
967.554	6244.67
967.856	6236.53
968.158	6161.28
968.46	6228.4
968.761	6204.22
969.063	6108.85
969.365	6096.65
969.666	6059.13
969.968	6020.94
970.269	6001.73
970.571	6015.52
970.872	5996.31
971.174	5902.75
971.475	5951.11
971.776	5883.77
972.077	5776.88
972.378	5849.87
972.679	5787.73
972.98	5743.44
973.281	5692.59
973.582	5689.65
973.883	5745.92
974.183	5667.96
974.484	5641.29
974.785	5584.34
975.085	5626.83
975.386	5581.86
975.686	5494.4
975.986	5483.78
976.287	5500.73
976.587	5454.86
976.887	5432.48
977.187	5463.44
977.487	5420.51
977.787	5350.68
978.087	5344.13
978.387	5303.67
978.687	5335.09
978.987	5227.29
979.286	5260.96
979.586	5217.8
979.885	5181.64
980.185	5148.65
980.484	5076.56
980.784	5125.37
981.083	5064.13
981.382	5025.04
981.682	5029.33
981.981	5057.13
982.28	5005.83
982.579	4955.89
982.878	5003.79
983.177	4933.74
983.475	4903.91
983.774	4884.02
984.073	4825.95
984.372	4823.23
984.67	4792.05
984.969	4761.09
985.267	4766.51
985.566	4761.99
985.864	4686.97
986.162	4665.27
986.461	4652.84
986.759	4643.58
987.057	4630.47
987.355	4633.64
987.653	4580.08
987.951	4565.61
988.249	4562.22
988.547	4506.18
988.844	4497.14
989.142	4481.77
989.44	4467.09
989.737	4416.69
990.035	4381.21
990.332	4385.73
990.63	4356.58
990.927	4395.45
991.224	4302.8
991.521	4305.06
991.819	4304.6
992.116	4278.39
992.413	4241.1
992.71	4212.63
993.006	4211.5
993.303	4183.25
993.6	4148.9
993.897	4152.29
994.193	4092.63
994.49	4067.77
994.787	4103.25
995.083	4021.22
995.379	4018.96
995.676	3996.14
995.972	3972.86
996.268	3962.69
996.565	3961.56
996.861	3908.46
997.157	3907.1
997.453	3893.77
997.749	3866.65
998.044	3848.35
998.34	3825.29
998.636	3774.67
998.932	3804.28
999.227	3750.95
999.523	3772.87
999.818	3746.2
1000.114	3719.99
1000.409	3671.63
1000.704	3645.64
1001	3595.92
1001.295	3614.9
1001.59	3585.75
1001.885	3562.25
1002.18	3547.79
1002.475	3505.3
1002.77	3516.38
1003.065	3492.87
1003.359	3497.85
1003.654	3482.25
1003.949	3453.33
1004.243	3405.64
1004.538	3370.62
1004.832	3372.65
1005.127	3353.22
1005.421	3351.86
1005.715	3355.48
1006.009	3301.47
1006.304	3252.88
1006.598	3284.97
1006.892	3291.52
1007.186	3205.88
1007.48	3174.24
1007.773	3186.44
1008.067	3195.48
1008.361	3114.13
1008.655	3162.04
1008.948	3104.41
1009.242	3091.53
1009.535	3078.87
1009.829	3032.32
1010.122	3017.41
1010.415	3035.03
1010.708	2994.58
1011.001	2975.15
1011.295	2931.53
1011.588	2941.7
1011.881	2899.44
1012.173	2910.06
1012.466	2924.3
1012.759	2895.15
1013.052	2885.21
1013.344	2854.02
1013.637	2807.92
1013.93	2795.27
1014.222	2762.95
1014.514	2738.77
1014.807	2758.2
1015.099	2715.27
1015.391	2686.57
1015.683	2690.86
1015.976	2659.22
1016.268	2657.19
1016.56	2608.6
1016.851	2600.47
1017.143	2616.51
1017.435	2590.3
1017.727	2588.27
1018.018	2561.15
1018.31	2518.44
1018.602	2511.21
1018.893	2504.88
1019.185	2460.59
1019.476	2468.95
1019.767	2460.59
1020.058	2429.17
1020.35	2422.39
1020.641	2410.42
1020.932	2414.71
1021.223	2331.1
1021.514	2344.88
1021.804	2308.27
1022.095	2285
1022.386	2317.09
1022.677	2258.33
1022.967	2256.07
1023.258	2236.64
1023.548	2199.12
1023.839	2228.27
1024.129	2189.63
1024.419	2167.26
1024.709	2130.42
1025	2140.14
1025.29	2109.86
1025.58	2116.41
1025.87	2104.89
1026.16	2086.13
1026.449	2047.04
1026.739	2062.63
1027.029	2021.5
1027.319	2005.23
1027.608	2019.69
1027.898	1988.96
1028.187	1982.86
1028.477	1967.72
1028.766	1981.95
1029.055	1907.38
1029.344	1944.21
1029.634	1922.07
1029.923	1929.3
1030.212	1878.91
1030.501	1864.22
1030.79	1854.5
1031.078	1826.48
1031.367	1830.09
1031.656	1804.11
1031.945	1819.92
1032.233	1789.64
1032.522	1783.99
1032.81	1769.53
1033.099	1768.63
1033.387	1718.23
1033.675	1728.85
1033.963	1713.71
1034.251	1692.92
1034.54	1692.7
1034.828	1664.45
1035.116	1666.48
1035.403	1665.8
1035.691	1657.67
1035.979	1630.32
1036.267	1644.79
1036.554	1605.47
1036.842	1585.35
1037.129	1589.2
1037.417	1572.7
1037.704	1559.82
1037.992	1567.5
1038.279	1544.45
1038.566	1524.11
1038.853	1524.11
1039.14	1524.11
