Data from 15-6437_FLMS001491_006.txt Node
Date: Thu Apr 19 15:40:12 BST 2018
User: hsy
Spectrometer: FLMS00149
Trigger mode: 0
Integration Time (sec): 1.000000E-2
Scans to average: 10
Electric dark correction enabled: true
Nonlinearity correction enabled: false
Boxcar width: 0
XAxis mode: Wavelengths
Number of Pixels in Spectrum: 2048
>>>>>Begin Spectral Data<<<<<
341.393	-0.72
341.776	-0.72
342.16	-0.72
342.543	-65.8
342.927	-58.12
343.31	-71.68
343.693	-66.03
344.077	-70.32
344.46	-61.28
344.843	-43.43
345.226	-51.57
345.61	-42.75
345.993	-11.57
346.376	-2.75
346.759	38.83
347.142	19.84
347.525	30.92
347.908	88.32
348.291	79.28
348.674	76.11
349.057	88.09
349.44	141.87
349.823	131.93
350.206	184.13
350.588	218.71
350.971	233.62
351.354	275.43
351.737	273.4
352.119	279.95
352.502	297.8
352.884	319.5
353.267	310.01
353.65	340.51
354.032	349.33
354.414	361.3
354.797	348.42
355.179	377.57
355.562	363.56
355.944	392.94
356.326	375.31
356.709	383.45
357.091	391.81
357.473	397.46
357.855	384.81
358.238	397.46
358.62	399.27
359.002	375.54
359.384	400.85
359.766	379.61
360.148	378.25
360.53	379.83
360.912	426.84
361.294	367.41
361.676	364.92
362.057	371.7
362.439	383.68
362.821	375.77
363.203	380.29
363.584	377.57
363.966	380.96
364.348	375.31
364.729	389.1
365.111	366.95
365.493	385.26
365.874	401.75
366.256	390.91
366.637	383
367.019	361.98
367.4	360.4
367.781	380.74
368.163	377.12
368.544	384.58
368.925	383
369.306	370.8
369.688	383.22
370.069	366.5
370.45	391.81
370.831	348.88
371.212	378.7
371.593	371.47
371.974	386.61
372.355	385.71
372.736	389.55
373.117	387.07
373.498	379.61
373.879	382.77
374.26	387.74
374.641	385.03
375.021	377.8
375.402	392.26
375.783	404.69
376.163	418.03
376.544	400.17
376.925	415.09
377.305	411.25
377.686	403.56
378.066	420.29
378.447	407.4
378.827	423.68
379.208	406.27
379.588	417.12
379.968	419.38
380.349	410.12
380.729	434.52
381.109	411.25
381.489	432.04
381.87	416.9
382.25	414.86
382.63	421.87
383.01	431.13
383.39	431.58
383.77	442.88
384.15	444.01
384.53	442.43
384.91	435.43
385.29	458.7
385.67	439.72
386.049	450.34
386.429	455.31
386.809	458.48
387.189	465.26
387.568	486.27
387.948	466.16
388.328	467.06
388.707	451.25
389.087	467.97
389.466	483.11
389.846	485.14
390.225	495.31
390.605	521.98
390.984	481.07
391.363	491.92
391.743	497.57
392.122	515.88
392.501	500.06
392.881	529.21
393.26	524.46
393.639	513.62
394.018	521.98
394.397	545.03
394.776	536.67
395.155	545.71
395.534	513.39
395.913	554.75
396.292	541.86
396.671	548.64
397.05	538.93
397.429	568.08
397.808	561.52
398.186	545.48
398.565	548.87
398.944	559.94
399.323	597.46
399.701	586.83
400.08	577.12
400.458	580.73
400.837	580.28
401.215	610.11
401.594	569.43
401.972	605.59
402.351	619.6
402.729	594.52
403.107	597.91
403.486	620.73
403.864	623.22
404.242	620.51
404.62	617.12
404.999	648.53
405.377	641.75
405.755	647.17
406.133	647.85
406.511	656.44
406.889	651.01
407.267	664.12
407.645	672.03
408.023	698.24
408.401	698.24
408.779	694.18
409.156	698.47
409.534	706.38
409.912	733.05
410.29	720.39
410.667	755.64
411.045	743.21
411.422	759.71
411.8	745.47
412.178	786.6
412.555	770.11
412.933	797.22
413.31	778.24
413.687	821.63
414.065	810.56
414.442	817.79
414.819	841.29
415.197	835.42
415.574	830.22
415.951	837.22
416.328	866.15
416.705	885.58
417.082	857.79
417.46	869.31
417.837	903.44
418.214	899.82
418.591	897.34
418.967	890.33
419.344	900.95
419.721	933.72
420.098	919.93
420.475	937.79
420.852	907.05
421.228	957.9
421.605	939.37
421.982	960.38
422.358	967.84
422.735	980.95
423.111	963.32
423.488	991.57
423.864	975.98
424.241	1030.89
424.617	1021.85
424.994	1000.84
425.37	1046.03
425.746	1043.09
426.123	1058.69
426.499	1047.61
426.875	1078.8
427.251	1094.62
427.627	1121.06
428.003	1103.43
428.379	1133.71
428.756	1135.07
429.132	1167.84
429.507	1171.9
429.883	1163.54
430.259	1180.49
430.635	1199.02
431.011	1188.17
431.387	1215.52
431.763	1248.96
432.138	1266.82
432.514	1267.49
432.89	1250.55
433.265	1298.91
433.641	1306.82
434.016	1333.71
434.392	1344.56
434.767	1376.42
435.143	1356.31
435.518	1362.86
435.894	1374.16
436.269	1404.44
436.644	1429.75
437.02	1435.85
437.395	1427.94
437.77	1475.85
438.145	1462.52
438.52	1502.29
438.895	1505.45
439.271	1524.66
439.646	1498.45
440.021	1554.94
440.395	1575.96
440.77	1556.98
441.145	1571.67
441.52	1594.49
441.895	1582.74
442.27	1575.51
442.645	1594.94
443.019	1612.57
443.394	1625.68
443.769	1643.08
444.143	1595.4
444.518	1670.65
444.892	1648.28
445.267	1668.39
445.641	1686.24
446.016	1676.3
446.39	1706.58
446.764	1735.73
447.139	1714.49
447.513	1747.93
447.887	1762.4
448.262	1747.03
448.636	1764.66
449.01	1796.75
449.384	1800.14
449.758	1777.09
450.132	1816.41
450.506	1855.05
450.88	1853.92
451.254	1852.56
451.628	1878.33
452.002	1919.23
452.376	1901.38
452.75	1950.87
453.123	2000.58
453.497	1981.15
453.871	1995.61
454.244	2022.96
454.618	2036.29
454.992	2071.54
455.365	2100.47
455.739	2161.48
456.112	2158.09
456.486	2158.54
456.859	2214.59
457.232	2266.11
457.606	2259.11
457.979	2286.23
458.352	2363.96
458.725	2323.74
459.099	2404.41
459.472	2406.67
459.845	2450.74
460.218	2454.81
460.591	2497.07
460.964	2531.19
461.337	2568.93
461.71	2615.26
462.083	2640.34
462.456	2666.33
462.829	2629.04
463.201	2723.5
463.574	2771.64
463.947	2744.74
464.32	2774.35
464.692	2815.02
465.065	2857.06
465.438	2882.14
465.81	2914.01
466.183	2927.11
466.555	3010.73
466.928	3038.52
467.3	3067.67
467.672	3066.32
468.045	3178.63
468.417	3169.37
468.789	3173.21
469.161	3224.28
469.534	3275.58
469.906	3279.65
470.278	3358.74
470.65	3413.88
471.022	3445.06
471.394	3521.22
471.766	3514.44
472.138	3616.13
472.51	3677.83
472.882	3702.01
473.253	3728.45
473.625	3773.64
473.997	3878.73
474.369	3901.32
474.74	3962.57
475.112	4038.95
475.484	4093.41
475.855	4169.79
476.227	4221.32
476.598	4392.16
476.97	4400.52
477.341	4487.98
477.713	4536.34
478.084	4583.11
478.455	4666.28
478.827	4788.08
479.198	4897
479.569	4889.55
479.94	5082.99
480.311	5085.7
480.682	5235.3
481.053	5311.91
481.424	5486.59
481.795	5532.02
482.166	5628.74
482.537	5707.6
482.908	5835.74
483.279	5943.08
483.65	6049.06
484.021	6173.13
484.391	6279.79
484.762	6364.08
485.133	6450.18
485.503	6564.3
485.874	6808.82
486.244	6865.31
486.615	7012.43
486.985	7165.42
487.356	7319.77
487.726	7389.59
488.097	7618.97
488.467	7712.98
488.837	7952.74
489.207	8038.84
489.578	8218.5
489.948	8432.96
490.318	8561.54
490.688	8652.39
491.058	8913.62
491.428	9090.57
491.798	9203.11
492.168	9458.47
492.538	9566.26
492.908	9775.97
493.278	9996.53
493.648	10139.13
494.017	10263.19
494.387	10475.39
494.757	10733.46
495.126	10883.74
495.496	11113.56
495.866	11255.93
496.235	11467.9
496.605	11707.22
496.974	11790.38
497.344	12033.54
497.713	12211.39
498.082	12508.78
498.452	12721.66
498.821	12917.13
499.19	13165.49
499.559	13404.58
499.928	13610.67
500.298	13838.01
500.667	14105.12
501.036	14227.15
501.405	14539.91
501.774	14757.31
502.143	15031.43
502.512	15227.35
502.88	15560.23
503.249	15712.99
503.618	15928.58
503.987	16195.24
504.356	16433.65
504.724	16696.69
505.093	16953.41
505.462	17221.43
505.83	17381.87
506.199	17761.52
506.567	17998.81
506.936	18158.35
507.304	18512.92
507.672	18825.23
508.041	19006.69
508.409	19296.63
508.777	19561.48
509.145	19794.69
509.514	19966.44
509.882	20206.43
510.25	20457.5
510.618	20752.41
510.986	20857.49
511.354	21156.01
511.722	21524.59
512.09	21821.3
512.458	21733.4
512.826	22146.04
513.193	22319.14
513.561	22582.87
513.929	22779.92
514.297	23024.44
514.664	23251.32
515.032	23473.24
515.4	23638.88
515.767	23857.64
516.135	24192.32
516.502	23948.25
516.869	24517.28
517.237	24679.76
517.604	24662.36
517.972	25196.13
518.339	25190.48
518.706	25456.01
519.073	25498.27
519.44	25684.48
519.808	26027.52
520.175	26049.22
520.542	26320.4
520.909	26501.86
521.276	26616.43
521.643	27054.84
522.009	27048.96
522.376	27320.14
522.743	27424.77
523.11	27834.71
523.477	27815.05
523.843	28088.03
524.21	28478.76
524.577	28658.41
524.943	28859.54
525.31	28865.41
525.676	29253.88
526.043	29455
526.409	29514.21
526.776	29747.88
527.142	29899.96
527.508	30041.65
527.874	30257.92
528.241	30447.97
528.607	30411.81
528.973	30872.59
529.339	30749.43
529.705	31110.1
530.071	31207.05
530.437	31414.72
530.803	31452.01
531.169	31621.05
531.535	31646.58
531.901	31809.06
532.267	31744.66
532.632	32030.75
532.998	32093.13
533.364	32323.4
533.73	32168.83
534.095	32647.01
534.461	32472.55
534.826	32672.54
535.192	32618.08
535.557	32897.17
535.923	32852.2
536.288	32840.9
536.653	32827.12
537.019	32789.15
537.384	32996.15
537.749	32955.02
538.114	32952.31
538.479	33084.74
538.845	33034.34
539.21	32892.2
539.575	33086.55
539.94	33178.75
540.305	33214.23
540.67	33132.65
541.034	33221.01
541.399	33188.92
541.764	33258.07
542.129	33257.61
542.494	33280.89
542.858	33257.61
543.223	33181.46
543.587	33464.61
543.952	33404.05
544.316	33360.44
544.681	33273.21
545.045	33399.08
545.41	33344.39
545.774	33211.29
546.138	33438.17
546.503	33337.39
546.867	33416.71
547.231	33559.3
547.595	33473.43
547.959	33452.41
548.324	33465.07
548.688	33317.05
549.052	33576.25
549.416	33294
549.779	33362.47
550.143	33400.66
550.507	33519.3
550.871	33610.83
551.235	33399.08
551.599	33623.71
551.962	33616.7
552.326	33525.86
552.689	33488.57
553.053	33346.88
553.417	33506.2
553.78	33823.25
554.143	33768.34
554.507	33694.21
554.87	33850.14
555.234	33937.6
555.597	33801.1
555.96	33847.66
556.323	33800.42
556.686	33736.92
557.05	33946.64
557.413	33908.9
557.776	33852.85
558.139	34057.59
558.502	34056.24
558.865	34057.14
559.228	34103.24
559.59	34133.75
559.953	34227.31
560.316	34555.66
560.679	34387.3
561.041	34414.42
561.404	34735.54
561.767	34763.11
562.129	34526.28
562.492	34885.37
562.854	34937.57
563.217	34826.84
563.579	34877.46
563.941	34959.72
564.304	35121.52
564.666	35547.95
565.028	35326.03
565.39	35404.22
565.753	35498.91
566.115	35381.85
566.477	35625.24
566.839	35717.44
567.201	36056.41
567.563	35850.09
567.925	36086.47
568.287	36111.55
568.648	36108.84
569.01	36247.14
569.372	36434.71
569.734	36375.72
570.095	36664.53
570.457	36633.34
570.819	36581.59
571.18	36587.47
571.542	36890.97
571.903	36888.93
572.265	36941.81
572.626	37078.98
572.987	36988.59
573.349	37182.48
573.71	37240.33
574.071	37352.42
574.432	37558.29
574.794	37658.4
575.155	37547.67
575.516	37444.62
575.877	37654.79
576.238	37612.08
576.599	37784.95
576.96	37746.08
577.32	37710.6
577.681	37889.81
578.042	37836.93
578.403	37817.95
578.763	37848.68
579.124	37717.16
579.485	38040.09
579.845	37923.03
580.206	37773.43
580.566	37794.22
580.927	37763.26
581.287	37870.37
581.648	37729.59
582.008	37930.71
582.368	37882.13
582.728	37814.56
583.089	37684.39
583.449	37685.97
583.809	37809.58
584.169	37805.29
584.529	37667.22
584.889	37955.57
585.249	37579.99
585.609	37326.89
585.969	37815.46
586.329	37475.81
586.688	37680.32
587.048	37482.36
587.408	37516.03
587.768	37347
588.127	37438.3
588.487	37390.61
588.846	37591.51
589.206	37059.55
589.565	37213.44
589.925	37436.49
590.284	37327.34
590.643	37260.9
591.003	37140.22
591.362	37340.9
591.721	37338.18
592.08	37241.69
592.44	37419.31
592.799	37275.36
593.158	37297.73
593.517	36974.8
593.876	37252.31
594.235	37086.21
594.593	37166.89
594.952	37072.43
595.311	37176.38
595.67	37215.02
596.029	37338.41
596.387	37274.68
596.746	37274.91
597.104	36960.34
597.463	37016.84
597.822	37177.29
598.18	37023.84
598.538	37109.94
598.897	37243.05
599.255	36940.91
599.613	37327.34
599.972	37080.34
600.33	37120.11
600.688	37152.43
601.046	37180
601.404	37375.02
601.762	37119.89
602.12	37336.38
602.478	37296.6
602.836	37179.55
603.194	37117.4
603.552	37343.38
603.91	37129.15
604.268	37267
604.625	37265.19
604.983	37452.31
605.341	37184.74
605.698	37369.82
606.056	37392.19
606.413	37188.13
606.771	37469.48
607.128	37388.58
607.485	37398.3
607.843	37454.34
608.2	37550.83
608.557	37660.44
608.914	37521
609.272	37717.38
609.629	37820.43
609.986	37940.65
610.343	37819.75
610.7	38011.16
611.057	37885.74
611.414	38045.28
611.771	38208.9
612.127	38259.29
612.484	38209.57
612.841	38126.86
613.198	38229.91
613.554	38229.23
613.911	38416.57
614.267	38428.1
614.624	38411.38
614.98	38501.54
615.337	38659.28
615.693	38580.41
616.05	38671.03
616.406	38782.21
616.762	38668.09
617.118	38683.01
617.475	38591.94
617.831	38768.88
618.187	38819.05
618.543	38894.75
618.899	39137.23
619.255	38861.76
619.611	39062.66
619.967	39173.39
620.323	39306.72
620.678	39073.51
621.034	39180.85
621.39	38983.57
621.746	39024.47
622.101	39546.71
622.457	39159.15
622.812	39392.37
623.168	39457.23
623.523	39399.6
623.879	39372.93
624.234	39253.16
624.589	39403.22
624.945	39357.79
625.3	39338.13
625.655	39334.97
626.01	39470.56
626.365	39472.37
626.72	39282.09
627.075	39253.84
627.43	39405.25
627.785	39464.68
628.14	39343.33
628.495	39381.97
628.85	39374.06
629.205	39242.77
629.559	39458.13
629.914	39168.87
630.269	39137.69
630.623	39068.76
630.978	39066.5
631.332	39104.92
631.687	39073.73
632.041	39105.14
632.396	39151.47
632.75	38969.1
633.104	39089.1
633.459	38827.86
633.813	38892.27
634.167	38805.72
634.521	38769.56
634.875	38717.36
635.229	38751.71
635.583	38623.57
635.937	38531.83
636.291	38537.48
636.645	38550.58
636.999	38413.18
637.352	38590.36
637.706	38244.83
638.06	38523.92
638.413	38305.17
638.767	38082.8
639.121	38286.18
639.474	38137.26
639.828	38005.96
640.181	38196.47
640.534	38205.73
640.888	38050.26
641.241	37933.88
641.594	37901.33
641.947	37976.36
642.301	37887.77
642.654	37963.25
643.007	37816.59
643.36	37917.15
643.713	37745.63
644.066	38033.31
644.419	37734.33
644.771	37450.95
645.124	36968.03
645.477	37025.65
645.83	36838.76
646.182	36810.29
646.535	36975.93
646.888	36914.69
647.24	36682.61
647.593	37043.05
647.945	36838.99
648.298	36674.02
648.65	36636.28
649.002	36483.97
649.355	36373.92
649.707	36296.63
650.059	36223.19
650.411	36793.11
650.763	37028.81
651.115	37542.47
651.467	37369.14
651.819	37444.17
652.171	37352.87
652.523	37241.01
652.875	37345.42
653.227	37144.29
653.578	37551.29
653.93	37381.57
654.282	37121.69
654.633	37242.82
654.985	37322.59
655.337	37237.17
655.688	37187.45
656.039	37423.61
656.391	37009.61
656.742	37214.57
657.094	37321.91
657.445	37193.78
657.796	37274.01
658.147	37239.88
658.498	37272.2
658.849	37466.54
659.2	37315.36
659.551	37247.34
659.902	37531.4
660.253	37427.45
660.604	37510.16
660.955	37281.01
661.306	37535.02
661.656	37299.77
662.007	37426.32
662.358	37376.83
662.708	37425.64
663.059	37492.98
663.409	37255.25
663.76	37449.59
664.11	37546.77
664.461	37586.31
664.811	37537.05
665.161	37490.27
665.511	37508.8
665.862	37492.08
666.212	37447.33
666.562	37592.64
666.912	37690.27
667.262	37329.6
667.612	37556.71
667.962	37466.09
668.312	37479.88
668.662	37739.53
669.011	37535.69
669.361	37385.87
669.711	37586.99
670.06	37393.78
670.41	37425.64
670.76	37457.73
671.109	37660.89
671.459	37507.22
671.808	37466.54
672.157	37428.8
672.507	37398.07
672.856	37304.29
673.205	37350.61
673.554	37436.49
673.904	37326.89
674.253	37424.28
674.602	37370.5
674.951	36865.65
675.3	36775.71
675.649	37286.66
675.998	37205.53
676.346	37229.94
676.695	37258.64
677.044	37007.8
677.393	37043.73
677.741	37187.23
678.09	37132.54
678.438	36982.49
678.787	37083.73
679.135	37112.88
679.484	36853
679.832	36923.96
680.181	36868.37
680.529	36775.04
680.877	36597.41
681.225	36538.66
681.573	36950.4
681.922	36680.12
682.27	36469.96
682.618	36469.73
682.966	36368.72
683.314	36341.83
683.661	36446.46
684.009	36104.32
684.357	36106.58
684.705	36064.77
685.053	35976.41
685.4	35934.38
685.748	35768.06
686.095	35720.37
686.443	35364.9
686.79	35503.88
687.138	35588.4
687.485	35423.88
687.832	35344.11
688.18	35310.44
688.527	35122.42
688.874	34949.32
689.221	34949.55
689.568	34897.57
689.915	34742.55
690.262	34769.44
690.609	34593.4
690.956	34402.89
691.303	34397.92
691.65	34167.19
691.997	34155.67
692.344	34071.6
692.69	33901.44
693.037	33911.38
693.383	33622.35
693.73	33750.71
694.077	33472.07
694.423	33501.68
694.769	33278.18
695.116	33253.09
695.462	33072.31
695.808	32960.45
696.155	32923.84
696.501	32643.39
696.847	32634.35
697.193	32411.53
697.539	32373.57
697.885	32322.05
698.231	32229.62
698.577	32058.1
698.923	32020.81
699.269	31802.96
699.614	31775.39
699.96	31456.31
700.306	31561.16
700.651	31358.91
700.997	31207.72
701.342	31217.44
701.688	30965.02
702.033	30913.5
702.379	30922.31
702.724	30635.76
703.069	30701.07
703.415	30376.56
703.76	30361.87
704.105	30313.74
704.45	30187.41
704.795	30008.89
705.14	29898.83
705.485	29948.1
705.83	29760.76
706.175	29902.45
706.52	29621.55
706.865	29456.81
707.209	29413.65
707.554	29279.19
707.899	29427.43
708.243	29056.59
708.588	28984.96
708.932	28949.93
709.277	28955.35
709.621	28919.42
709.966	28698.86
710.31	28735.7
710.654	28444.86
710.998	28620.45
711.342	28537.51
711.687	28407.35
712.031	28478.53
712.375	28308.82
712.719	28195.37
713.063	28059.56
713.407	28284.86
713.75	28194.02
714.094	28102.95
714.438	27903.18
714.782	27971.88
715.125	27738.21
715.469	27934.59
715.812	27682.85
716.156	27730.3
716.499	27683.52
716.843	27652.56
717.186	27532.34
717.53	27685.33
717.873	27626.8
718.216	27573.47
718.559	27393.36
718.902	27280.37
719.246	27429.29
719.589	27331.22
719.932	27264.78
720.275	27373.7
720.617	27383.19
720.96	27291.9
721.303	27459.12
721.646	27268.39
721.989	27240.15
722.331	27215.74
722.674	27245.34
723.016	27279.01
723.359	27153.37
723.701	27218.45
724.044	27091.9
724.386	26937.1
724.729	27121.96
725.071	27168.06
725.413	27089.41
725.755	27152.24
726.097	27011.68
726.439	27016.87
726.782	27081.73
727.124	27106.82
727.465	27082.41
727.807	26814.17
728.149	27049.64
728.491	26993.15
728.833	27101.17
729.175	27132.35
729.516	27079.25
729.858	27099.13
730.199	27126.02
730.541	27117.89
730.882	27024.78
731.224	27068.4
731.565	27113.82
731.906	26985.24
732.248	27174.16
732.589	27068.4
732.93	26963.32
733.271	27062.3
733.612	27093.03
733.953	27196.76
734.294	27159.02
734.635	27031.79
734.976	27263.42
735.317	27108.85
735.658	27234.72
735.999	27234.27
736.339	27234.5
736.68	27369.18
737.021	27394.72
737.361	27300.26
737.702	27512.45
738.042	27314.27
738.383	27496.41
738.723	27642.85
739.063	27506.13
739.404	27680.81
739.744	27606.01
740.084	27691.66
740.424	27909.05
740.764	27722.84
741.104	27996.28
741.444	27952.89
741.784	27868.15
742.124	28017.98
742.464	28094.36
742.804	28200.8
743.143	28204.87
743.483	28429.27
743.823	28308.37
744.162	28478.08
744.502	28668.13
744.841	28709.03
745.181	28893.21
745.52	28806.88
745.86	29031.96
746.199	29060.66
746.538	29231.51
746.877	29418.85
747.216	29500.88
747.556	29576.36
747.895	29794.43
748.234	29911.71
748.573	30152.39
748.911	30222.44
749.25	30341.98
749.589	30454.75
749.928	30696.55
750.267	30839.37
750.605	30991.01
750.944	31111.46
751.283	31121.85
751.621	31526.59
751.96	31478.23
752.298	31812.23
752.636	31850.65
752.975	32042.96
753.313	32186.91
753.651	32634.81
753.989	32633
754.327	32873.22
754.666	32836.16
755.004	33155.24
755.342	33350.95
755.679	33594.1
756.017	33523.37
756.355	33974.21
756.693	33915.9
757.031	34365.61
757.368	34333.52
757.706	34701.64
758.044	34677.69
758.381	34932.82
758.719	34991.13
759.056	35317.45
759.394	35368.75
759.731	35398.57
760.068	35609.87
760.405	35737.1
760.743	35829.52
761.08	36095.28
761.417	36088.73
761.754	36260.02
762.091	36504.08
762.428	36542.05
762.765	36684.19
763.102	36832.44
763.438	36804.64
763.775	36761.93
764.112	37112.65
764.449	37198.3
764.785	37204.86
765.122	37240.79
765.458	37231.3
765.795	37385.64
766.131	37518.29
766.467	37560.78
766.804	37602.36
767.14	37529.14
767.476	37608.01
767.812	37717.84
768.148	37891.16
768.485	37807.78
768.821	37749.02
769.157	37802.58
769.492	37857.72
769.828	37876.02
770.164	37736.59
770.5	37622.25
770.836	37673.54
771.171	37683.49
771.507	37607.56
771.842	37621.57
772.178	37641
772.513	37829.7
772.849	37670.38
773.184	37649.59
773.519	37636.93
773.855	37554.22
774.19	37546.32
774.525	37457.05
774.86	37440.56
775.195	37375.02
775.53	37353.55
775.865	37226.1
776.2	37015.03
776.535	36992.88
776.87	37110.17
777.205	36849.61
777.539	36767.8
777.874	36820.68
778.209	36667.02
778.543	36759.9
778.878	36521.71
779.212	36555.38
779.547	36364.65
779.881	36385.22
780.215	36147.26
780.55	36298.66
780.884	36004.21
781.218	36013.47
781.552	36004.66
781.886	35885.57
782.22	35696.87
782.554	35660.49
782.888	35510.44
783.222	35433.83
783.556	35269.76
783.889	35199.48
784.223	35081.3
784.557	34980.28
784.89	35143.89
785.224	35002.2
785.557	34730.8
785.891	34800.17
786.224	34655.54
786.558	34628.2
786.891	34433.18
787.224	34338.94
787.557	34225.05
787.891	34114.31
788.224	34085.39
788.557	34119.29
788.89	33978.5
789.223	34122.68
789.556	33823.48
789.888	33790.93
790.221	33477.95
790.554	33512.75
790.887	33544.61
791.219	33293.55
791.552	33354.56
791.884	33040.22
792.217	33007
792.549	32931.52
792.882	32710.06
793.214	32696.73
793.546	32759.32
793.879	32476.84
794.211	32339.45
794.543	32481.14
794.875	32443.85
795.207	32254.25
795.539	32148.72
795.871	32314.59
796.203	31998.89
796.535	31804.09
796.867	31794.15
797.198	31688.62
797.53	31557.32
797.862	31445.23
798.193	31521.39
798.525	31278.68
798.856	31344.22
799.188	30927.51
799.519	30974.51
799.85	30871.46
800.182	30958.47
800.513	31000.5
800.844	30532.94
801.175	30786.49
801.506	30687.29
801.837	30431.93
802.168	30508.53
802.499	30496.1
802.83	30224.93
803.161	30240.07
803.491	30238.71
803.822	30139.96
804.153	29996.68
804.483	29876.01
804.814	29600.54
805.145	29746.07
805.475	29781.77
805.805	29696.58
806.136	29684.83
806.466	29625.85
806.796	29523.7
807.126	29305.4
807.457	29353.08
807.787	29381.11
808.117	29263.82
808.447	29149.25
808.777	29141.34
809.107	28929.59
809.436	28869.26
809.766	28808.24
810.096	28911.29
810.426	28722.37
810.755	28676.94
811.085	28534.35
811.414	28593.33
811.744	28417.97
812.073	28448.7
812.403	28287.8
812.732	28365.09
813.061	28277.41
813.39	28083.06
813.719	28073.8
814.049	28356.5
814.378	28080.8
814.707	28013.46
815.036	27989.96
815.365	27849.62
815.693	27615.5
816.022	27732.34
816.351	27666.35
816.68	27368.96
817.008	27487.6
817.337	27369.86
817.665	27358.33
817.994	27284.89
818.322	27396.75
818.651	27289.86
818.979	27148.62
819.307	27294.38
819.636	27182.97
819.964	27087.16
820.292	27181.16
820.62	27112.92
820.948	27084.67
821.276	27334.38
821.604	27121.5
821.932	27283.99
822.259	27047.38
822.587	27192.69
822.915	27115.85
823.243	27189.3
823.57	27018.68
823.898	27127.15
824.225	27068.4
824.553	27130.09
824.88	27071.56
825.207	27191.79
825.535	27055.74
825.862	27186.36
826.189	27048.06
826.516	27279.92
826.843	27231.56
827.17	27306.81
827.497	27269.07
827.824	27221.84
828.151	27296.19
828.478	27097.1
828.805	27342.52
829.131	27267.49
829.458	27264.78
829.785	27016.42
830.111	27150.88
830.438	27218.68
830.764	27145.01
831.09	27381.84
831.417	27092.35
831.743	27274.95
832.069	27221.84
832.395	27108.85
832.722	27242.41
833.048	27096.19
833.374	27232.24
833.7	27043.77
834.026	27121.5
834.351	27023.2
834.677	27202.86
835.003	27137.55
835.329	27128.06
835.654	27014.16
835.98	27026.14
836.306	27125.35
836.631	26899.14
836.956	27226.13
837.282	27019.36
837.607	26960.15
837.932	27088.74
838.258	26894.17
838.583	26756.99
838.908	26671.57
839.233	26765.36
839.558	26768.75
839.883	26711.12
840.208	26445.36
840.533	26620.73
840.858	26636.32
841.182	26619.82
841.507	26536.44
841.832	26497.34
842.156	26378.25
842.481	26330.11
842.805	26222.32
843.13	26174.86
843.454	26139.84
843.778	26099.38
844.103	26082.21
844.427	25989.1
844.751	25964.92
845.075	25955.43
845.399	25876.79
845.723	25796.57
846.047	25795.89
846.371	25506.18
846.695	25390.93
847.019	25432.74
847.343	25278.39
847.666	25242.91
847.99	25053.08
848.313	24976.48
848.637	24898.96
848.96	24752.08
849.284	24812.19
849.607	24607.45
849.931	24551.4
850.254	24478.41
850.577	24228.93
850.9	24099.66
851.223	24198.64
851.546	24052.43
851.869	23892.89
852.192	24110.28
852.515	23775.38
852.838	23621.71
853.161	23617.42
853.483	23501.71
853.806	23516.85
854.129	23376.74
854.451	23357.99
854.774	23278.22
855.096	23124.32
855.419	23134.72
855.741	23065.57
856.063	22813.82
856.385	22829.87
856.708	22770.43
857.03	22718.91
857.352	22691.56
857.674	22720.94
857.996	22543.32
858.318	22464.45
858.64	22492.25
858.961	22366.6
859.283	22232.37
859.605	22212.71
859.926	22162.99
860.248	22200.28
860.57	22122.99
860.891	22063.56
861.212	22068.3
861.534	21899.95
861.855	21951.02
862.176	21920.51
862.498	21867.86
862.819	21829.21
863.14	21700.63
863.461	21643
863.782	21654.08
864.103	21575.44
864.424	21630.58
864.745	21607.3
865.065	21385.38
865.386	21367.76
865.707	21364.37
866.027	21468.77
866.348	21303.13
866.668	21368.66
866.989	21236.69
867.309	21100.42
867.63	21097.48
867.95	21138.84
868.27	21095
868.59	21111.94
868.91	20990.14
869.23	20969.8
869.55	20992.85
869.87	21024.26
870.19	20890.03
870.51	20871.05
870.83	20763.48
871.15	20765.97
871.469	20690.26
871.789	20924.83
872.109	20712.41
872.428	20570.04
872.748	20685.74
873.067	20610.72
873.386	20633.54
873.706	20488.68
874.025	20515.8
874.344	20396.48
874.663	20488.46
874.982	20444.39
875.301	20349.25
875.62	20352.87
875.939	20379.08
876.258	20341.57
876.577	20204.4
876.896	20188.13
877.214	20054.35
877.533	20143.38
877.852	20072.2
878.17	19981.13
878.489	20082.14
878.807	20009.83
879.125	19978.42
879.444	19884.18
879.762	19883.73
880.08	19977.29
880.398	19858.19
880.716	19813.67
881.034	19728.7
881.352	19701.81
881.67	19612.78
881.988	19602.61
882.306	19593.79
882.624	19439.9
882.941	19420.69
883.259	19424.98
883.577	19451.42
883.894	19254.37
884.212	19271.09
884.529	19276.74
884.846	19235.38
885.164	19165.56
885.481	19093.47
885.798	19167.82
886.115	19064.77
886.432	18961.72
886.75	19001.49
887.067	19002.17
887.383	18898.67
887.7	18902.51
888.017	18702.29
888.334	18840.14
888.651	18695.29
888.967	18653.93
889.284	18522.86
889.6	18519.92
889.917	18483.31
890.233	18491.9
890.55	18467.95
890.866	18397.21
891.182	18360.38
891.498	18356.31
891.815	18074.96
892.131	18147.5
892.447	18055.3
892.763	18066.15
893.079	18023.89
893.395	17848.3
893.71	17918.58
894.026	17760.62
894.342	17728.53
894.657	17632.94
894.973	17610.57
895.289	17625.93
895.604	17529.67
895.92	17537.58
896.235	17356.34
896.55	17378.48
896.865	17269.79
897.181	17199.28
897.496	17192.73
897.811	17051.94
898.126	17026.85
898.441	16909.34
898.756	16904.82
899.071	16902.11
899.386	16832.96
899.7	16703.47
900.015	16700.31
900.33	16525.17
900.644	16567.43
900.959	16501.44
901.273	16453.76
901.588	16491.73
901.902	16407.66
902.216	16283.82
902.531	16286.76
902.845	16192.3
903.159	16015.13
903.473	16175.13
903.787	15910.27
904.101	15820.33
904.415	15981.01
904.729	15841.8
905.042	15706.44
905.356	15609.94
905.67	15636.83
905.984	15631.19
906.297	15477.52
906.611	15480
906.924	15432.55
907.237	15365.43
907.551	15340.12
907.864	15206.79
908.177	15089.28
908.491	15093.12
908.804	14975.61
909.117	14883.18
909.43	14847.7
909.743	14831.43
910.056	14882.5
910.368	14647.71
910.681	14625.11
910.994	14627.37
911.307	14474.83
911.619	14376.3
911.932	14484.1
912.244	14352.12
912.557	14344.21
912.869	14231.67
913.181	14150.09
913.494	14214.73
913.806	14094.73
914.118	13999.14
914.43	13953.26
914.742	13890.89
915.054	13883.43
915.366	13831.68
915.678	13830.78
915.99	13737
916.302	13623.1
916.613	13535.87
916.925	13544.23
917.236	13512.6
917.548	13426.27
917.859	13376.1
918.171	13248.65
918.482	13207.97
918.794	13207.29
919.105	13101.31
919.416	13046.85
919.727	13009.56
920.038	12942.44
920.349	12870.35
920.66	12878.72
920.971	12865.61
921.282	12833.74
921.593	12707.87
921.903	12606.63
922.214	12596.24
922.525	12456.13
922.835	12516.69
923.146	12383.59
923.456	12310.82
923.767	12258.39
924.077	12191.05
924.387	12201.44
924.697	12189.47
925.008	12038.96
925.318	12080.54
925.628	11923.94
925.938	12009.59
926.248	11787.44
926.558	11800.1
926.867	11788.8
927.177	11730.04
927.487	11650.5
927.796	11539.99
928.106	11590.16
928.416	11528.69
928.725	11570.73
929.034	11440.33
929.344	11454.12
929.653	11314.91
929.962	11269.04
930.271	11202.6
930.581	11204.41
930.89	11176.61
931.199	11064.53
931.508	11083.28
931.817	10965.77
932.125	10971.65
932.434	10943.17
932.743	10864.76
933.051	10750.64
933.36	10772.56
933.669	10666.57
933.977	10651.43
934.286	10611.2
934.594	10526.01
934.902	10544.99
935.21	10464.09
935.519	10450.3
935.827	10387.71
936.135	10300.7
936.443	10225.68
936.751	10255.06
937.059	10201.95
937.367	10189.29
937.674	10176.19
937.982	10134.61
938.29	10078.79
938.597	10060.94
938.905	9906.82
939.213	9928.74
939.52	9821.39
939.827	9899.36
940.135	9755.41
940.442	9764.9
940.749	9646.94
941.056	9724.45
941.363	9566.26
941.67	9499.14
941.977	9522.19
942.284	9500.05
942.591	9479.03
942.898	9427.73
943.205	9395.42
943.511	9298.92
943.818	9312.03
944.125	9194.97
944.431	9146.16
944.738	9133.28
945.044	9131.69
945.35	9060.51
945.657	9034.3
945.963	9023.45
946.269	8962.89
946.575	8937.8
946.881	8833.4
947.187	8864.81
947.493	8756.56
947.799	8787.75
948.105	8681.54
948.41	8649.67
948.716	8616
949.022	8647.19
949.327	8592.05
949.633	8512.73
949.938	8490.81
950.244	8473.18
950.549	8406.52
950.854	8360.64
951.16	8341.43
951.465	8344.37
951.77	8237.03
952.075	8279.29
952.38	8191.38
952.685	8157.26
952.99	8105.96
953.294	8064.15
953.599	8077.71
953.904	8042.23
954.209	7952.74
954.513	7940.54
954.818	7894.67
955.122	7896.02
955.426	7815.35
955.731	7756.59
956.035	7719.75
956.339	7725.18
956.643	7704.61
956.948	7598.85
957.252	7664.84
957.556	7652.19
957.86	7534.45
958.163	7527.22
958.467	7479.76
958.771	7420.1
959.075	7414.68
959.378	7336.94
959.682	7421.91
959.985	7306.66
960.289	7270.27
960.592	7277.05
960.896	7216.72
961.199	7169.26
961.502	7211.29
961.805	7126.32
962.108	7058.76
962.411	7044.52
962.714	6960.23
963.017	6935.59
963.32	6977.4
963.623	6930.17
963.926	6859.66
964.228	6893.79
964.531	6878.19
964.833	6834.35
965.136	6794.58
965.438	6789.84
965.741	6727.92
966.043	6641.14
966.345	6647.92
966.648	6604.53
966.95	6588.94
967.252	6558.66
967.554	6563.4
967.856	6548.71
968.158	6434.82
968.46	6490.63
968.761	6408.15
969.063	6412.44
969.365	6310.98
969.666	6338.1
969.968	6283.86
970.269	6236.86
970.571	6193.24
970.872	6228.04
971.174	6178.33
971.475	6130.87
971.776	6125.22
972.077	6095.39
972.378	6052
972.679	6056.97
972.98	6067.14
973.281	6005.68
973.582	5945.79
973.883	5936.3
974.183	5892.68
974.484	5941.5
974.785	5837.09
975.085	5847.94
975.386	5841.61
975.686	5824.66
975.986	5748.73
976.287	5702.86
976.587	5731.11
976.887	5697.89
977.187	5672.35
977.487	5614.95
977.787	5613.14
978.087	5554.16
978.387	5580.6
978.687	5535.41
978.987	5448.63
979.286	5402.75
979.586	5398.01
979.885	5372.7
980.185	5355.3
980.484	5373.15
980.784	5320.5
981.083	5293.15
981.382	5254.28
981.682	5242.76
981.981	5258.12
982.28	5191.01
982.579	5186.49
982.878	5169.54
983.177	5131.12
983.475	5154.85
983.774	5100.61
984.073	5060.16
984.372	5020.16
984.67	5043.21
984.969	5023.55
985.267	4948.98
985.566	4917.12
985.864	4926.61
986.162	4924.12
986.461	4882.99
986.759	4848.19
987.057	4839.6
987.355	4784.24
987.653	4791.92
987.951	4775.43
988.249	4741.98
988.547	4698.82
988.844	4660.63
989.142	4693.39
989.44	4673.73
989.737	4637.8
990.035	4583.34
990.332	4550.12
990.63	4531.36
990.927	4534.08
991.224	4536.79
991.521	4505.6
991.819	4410.46
992.116	4451.82
992.413	4387.86
992.71	4384.02
993.006	4394.64
993.303	4340.86
993.6	4408.43
993.897	4305.16
994.193	4347.64
994.49	4277.81
994.787	4255.89
995.083	4230.35
995.379	4159.85
995.676	4182.67
995.972	4151.03
996.268	4151.94
996.565	4130.7
996.861	4117.14
997.157	4120.75
997.453	4046.4
997.749	4058.38
998.044	3987.2
998.34	4035.78
998.636	3989.91
998.932	3963.02
999.227	3937.26
999.523	3918.72
999.818	3901.32
1000.114	3857.94
1000.409	3796.92
1000.704	3783.36
1001	3788.33
1001.295	3752.63
1001.59	3744.72
1001.885	3723.7
1002.18	3684.83
1002.475	3723.48
1002.77	3652.06
1003.065	3654.55
1003.359	3629.69
1003.654	3595.34
1003.949	3547.66
1004.243	3561.45
1004.538	3539.53
1004.832	3533.2
1005.127	3506.53
1005.421	3445.52
1005.715	3436.25
1006.009	3470.37
1006.304	3377.27
1006.598	3423.37
1006.892	3347.44
1007.186	3360.77
1007.48	3315.12
1007.773	3305.18
1008.067	3295.01
1008.361	3257.27
1008.655	3243.71
1008.948	3208.46
1009.242	3199.65
1009.535	3189.48
1009.829	3150.38
1010.122	3117.84
1010.415	3125.07
1010.708	3090.05
1011.001	3094.34
1011.295	3066.09
1011.588	3073.1
1011.881	2997.39
1012.173	3026.09
1012.466	2982.03
1012.759	2964.85
1013.052	2944.74
1013.344	2949.94
1013.637	2916.72
1013.93	2852.09
1014.222	2904.06
1014.514	2857.51
1014.807	2804.86
1015.099	2796.72
1015.391	2812.31
1015.683	2813.22
1015.976	2769.6
1016.268	2749.04
1016.56	2735.7
1016.851	2729.15
1017.143	2695.71
1017.435	2656.16
1017.727	2656.38
1018.018	2628.36
1018.31	2635.59
1018.602	2591.75
1018.893	2596.27
1019.185	2546.33
1019.476	2534.13
1019.767	2502.04
1020.058	2515.37
1020.35	2526.9
1020.641	2438.09
1020.932	2432.44
1021.223	2441.7
1021.514	2429.95
1021.804	2408.48
1022.095	2363.06
1022.386	2367.35
1022.677	2362.83
1022.967	2332.33
1023.258	2301.14
1023.548	2313.57
1023.839	2281.48
1024.129	2267.92
1024.419	2280.12
1024.709	2234.25
1025	2213.68
1025.29	2166.68
1025.58	2202.16
1025.87	2159.22
1026.16	2193.57
1026.449	2123.52
1026.739	2126
1027.029	2119.45
1027.319	2091.43
1027.608	2050.75
1027.898	2081.26
1028.187	2055.95
1028.477	2050.07
1028.766	2022.73
1029.055	2014.37
1029.344	2007.59
1029.634	1965.33
1029.923	1992.67
1030.212	1957.19
1030.501	1909.29
1030.79	1938.44
1031.078	1902.05
1031.367	1879.68
1031.656	1901.83
1031.945	1852.11
1032.233	1868.61
1032.522	1826.58
1032.81	1820.02
1033.099	1801.27
1033.387	1782.06
1033.675	1785.22
1033.963	1784.09
1034.251	1745.22
1034.54	1760.59
1034.828	1736.64
1035.116	1724.43
1035.403	1730.08
1035.691	1687.14
1035.979	1658.67
1036.267	1679.01
1036.554	1664.32
1036.842	1635.62
1037.129	1617.99
1037.417	1629.29
1037.704	1606.92
1037.992	1599.92
1038.279	1555.85
1038.566	1549.52
1038.853	1549.52
1039.14	1549.52
