Data from 15-6437_FLMS001491_008.txt Node
Date: Thu Apr 19 15:40:30 BST 2018
User: hsy
Spectrometer: FLMS00149
Trigger mode: 0
Integration Time (sec): 1.000000E-2
Scans to average: 10
Electric dark correction enabled: true
Nonlinearity correction enabled: false
Boxcar width: 0
XAxis mode: Wavelengths
Number of Pixels in Spectrum: 2048
>>>>>Begin Spectral Data<<<<<
341.393	1.67
341.776	1.67
342.16	1.67
342.543	-65
342.927	-85.11
343.31	-85.34
343.693	-83.98
344.077	-60.03
344.46	-43.76
344.843	-68.16
345.226	-43.3
345.61	-8.28
345.993	-24.55
346.376	-2.4
346.759	19.97
347.142	31.27
347.525	52.29
347.908	51.61
348.291	74.21
348.674	94.55
349.057	95.9
349.44	103.36
349.823	169.12
350.206	173.19
350.588	220.64
350.971	269.23
351.354	268.78
351.737	271.72
352.119	291.6
352.502	300.42
352.884	342.22
353.267	320.98
353.65	318.27
354.032	342
354.414	341.54
354.797	350.58
355.179	358.27
355.562	380.87
355.944	362.56
356.326	377.48
356.709	363.92
357.091	373.18
357.473	385.61
357.855	378.61
358.238	389.23
358.62	381.54
359.002	393.97
359.384	372.73
359.766	397.14
360.148	384.26
360.53	398.49
360.912	390.13
361.294	371.15
361.676	393.29
362.057	394.42
362.439	377.25
362.821	374.99
363.203	372.28
363.584	371.15
363.966	378.38
364.348	364.59
364.729	396.23
365.111	359.62
365.493	360.08
365.874	368.89
366.256	356.01
366.637	378.61
367.019	386.97
367.4	376.57
367.781	359.17
368.163	384.03
368.544	381.32
368.925	371.15
369.306	385.39
369.688	369.34
370.069	366.4
370.45	372.28
370.831	371.83
371.212	357.36
371.593	382
371.974	391.26
372.355	403.46
372.736	388.32
373.117	363.24
373.498	375.89
373.879	374.31
374.26	385.39
374.641	381.09
375.021	387.42
375.402	390.58
375.783	412.5
376.163	387.87
376.544	404.37
376.925	407.98
377.305	405.27
377.686	437.14
378.066	401.66
378.447	393.07
378.827	376.57
379.208	420.64
379.588	397.81
379.968	403.46
380.349	390.58
380.729	396.91
381.109	435.33
381.489	440.3
381.87	410.02
382.25	428.1
382.63	407.76
383.01	416.57
383.39	419.06
383.77	452.28
384.15	453.63
384.53	432.62
384.91	436.46
385.29	452.05
385.67	445.95
386.049	435.1
386.429	438.49
386.809	466.51
387.189	429
387.568	444.82
387.948	460.86
388.328	486.63
388.707	483.01
389.087	465.16
389.466	482.56
389.846	470.58
390.225	504.48
390.605	511.26
390.984	484.14
391.363	512.84
391.743	498.15
392.122	506.51
392.501	508.55
392.881	491.82
393.26	490.47
393.639	506.51
394.018	505.16
394.397	522.1
394.776	514.42
395.155	530.92
395.534	530.01
395.913	529.79
396.292	535.89
396.671	532.27
397.05	538.6
397.429	545.38
397.808	517.59
398.186	548.09
398.565	560.07
398.944	549.9
399.323	548.32
399.701	564.36
400.08	535.21
400.458	568.88
400.837	585.15
401.215	587.19
401.594	585.61
401.972	583.8
402.351	603.68
402.729	576.34
403.107	606.85
403.486	604.81
403.864	630.35
404.242	614.76
404.62	637.81
404.999	621.99
405.377	640.75
405.755	625.15
406.133	632.16
406.511	626.51
406.889	646.62
407.267	670.58
407.645	655.66
408.023	664.7
408.401	686.85
408.779	697.24
409.156	692.5
409.534	701.08
409.912	725.04
410.29	736.79
410.667	719.39
411.045	720.74
411.422	719.16
411.8	723
412.178	759.61
412.555	755.09
412.933	766.17
413.31	768.65
413.687	787.18
414.065	778.37
414.442	799.84
414.819	820.18
415.197	818.37
415.574	814.07
415.951	824.24
416.328	839.84
416.705	841.19
417.082	848.88
417.46	846.39
417.837	889.78
418.214	860.4
418.591	850.68
418.967	905.15
419.344	880.29
419.721	887.75
420.098	893.62
420.475	896.78
420.852	895.2
421.228	924.13
421.605	954.64
421.982	925.71
422.358	938.37
422.735	965.94
423.111	952.83
423.488	977.91
423.864	967.52
424.241	998.02
424.617	975.2
424.994	1001.19
425.37	1017.69
425.746	1013.62
426.123	1019.94
426.499	1031.24
426.875	1040.28
427.251	1045.93
427.627	1078.93
428.003	1094.29
428.379	1073.73
428.756	1079.6
429.132	1141.52
429.507	1131.13
429.883	1162.54
430.259	1142.88
430.635	1165.48
431.011	1158.92
431.387	1186.49
431.763	1217
432.138	1207.06
432.514	1228.08
432.89	1237.11
433.265	1264.01
433.641	1289.32
434.016	1270.11
434.392	1292.93
434.767	1302.65
435.143	1346.49
435.518	1344.46
435.894	1359.37
436.269	1378.35
436.644	1372.03
437.02	1395.98
437.395	1399.14
437.77	1440.05
438.145	1453.38
438.52	1441.85
438.895	1473.04
439.271	1459.48
439.646	1472.81
440.021	1509.2
440.395	1474.17
440.77	1492.93
441.145	1490.44
441.52	1540.38
441.895	1535.19
442.27	1543.1
442.645	1544.9
443.019	1589.87
443.394	1577.9
443.769	1586.94
444.143	1580.38
444.518	1595.75
444.892	1582.87
445.267	1635.75
445.641	1627.16
446.016	1621.06
446.39	1650.21
446.764	1657.22
447.139	1644.34
447.513	1677.1
447.887	1706.03
448.262	1673.26
448.636	1701.96
449.01	1718.23
449.384	1746.25
449.758	1769.76
450.132	1759.36
450.506	1781.51
450.88	1784.9
451.254	1816.08
451.628	1835.06
452.002	1847.72
452.376	1864.44
452.75	1896.31
453.123	1898.34
453.497	1932.92
453.871	1945.57
454.244	2002.97
454.618	1987.83
454.992	2034.61
455.365	2030.09
455.739	2087.94
456.112	2103.08
456.486	2135.62
456.859	2157.32
457.232	2211.1
457.606	2203.19
457.979	2201.16
458.352	2257.65
458.725	2263.53
459.099	2272.79
459.472	2350.53
459.845	2356.86
460.218	2366.58
460.591	2437.53
460.964	2421.49
461.337	2486.8
461.71	2518.66
462.083	2538.32
462.456	2557.08
462.829	2557.98
463.201	2635.95
463.574	2627.36
463.947	2680.47
464.32	2685.89
464.692	2766.34
465.065	2754.59
465.438	2804.53
465.81	2810.18
466.183	2838.88
466.555	2886.79
466.928	2938.54
467.3	2936.73
467.672	2987.35
468.045	3044.3
468.417	3036.16
468.789	3051.98
469.161	3138.53
469.534	3169.27
469.906	3257.63
470.278	3280.22
470.65	3318.19
471.022	3368.13
471.394	3397.96
471.766	3418.98
472.138	3484.29
472.51	3527.45
472.882	3617.84
473.253	3630.72
473.625	3653.55
473.997	3784.39
474.369	3800.44
474.74	3825.52
475.112	3886.99
475.484	3959.98
475.855	4036.81
476.227	4044.27
476.598	4201.1
476.97	4245.4
477.341	4256.92
477.713	4392.96
478.084	4428.89
478.455	4538.04
478.827	4601.32
479.198	4703.01
479.569	4759.51
479.94	4881.31
480.311	4969.45
480.682	5085.37
481.053	5191.36
481.424	5237.01
481.795	5361.75
482.166	5473.61
482.537	5498.47
482.908	5666.15
483.279	5724.68
483.65	5872.92
484.021	6000.6
484.391	6129.19
484.762	6203.09
485.133	6294.38
485.503	6368.96
485.874	6609.85
486.244	6638.55
486.615	6778.66
486.985	6876.74
487.356	7041.48
487.726	7153.79
488.097	7380
488.467	7451.87
488.837	7718.3
489.207	7819.99
489.578	7940.67
489.948	8151.96
490.318	8320.09
490.688	8314.22
491.058	8583.14
491.428	8821.32
491.798	8906.29
492.168	9175.44
492.538	9288.88
492.908	9492.04
493.278	9647.29
493.648	9829.66
494.017	10013.38
494.387	10240.95
494.757	10418.12
495.126	10583.08
495.496	10723.64
495.866	10928.61
496.235	11125.89
496.605	11456.51
496.974	11561.81
497.344	11771.75
497.713	11975.59
498.082	12121.57
498.452	12410.83
498.821	12582.13
499.19	12736.02
499.559	13035.22
499.928	13246.29
500.298	13413.74
500.667	13748.2
501.036	13924.69
501.405	14135.76
501.774	14376.88
502.143	14572.13
502.512	14844.67
502.88	15149.06
503.249	15260.93
503.618	15465.89
503.987	15689.84
504.356	16023.62
504.724	16254.8
505.093	16411.86
505.462	16658.63
505.83	16866.76
506.199	17253.64
506.567	17500.19
506.936	17635.33
507.304	18007.52
507.672	18321.18
508.041	18366.83
508.409	18662.87
508.777	18997.33
509.145	19271.89
509.514	19421.27
509.882	19734.71
510.25	19861.48
510.618	20171.98
510.986	20341.47
511.354	20541.47
511.722	20951.62
512.09	21131.51
512.458	21232.75
512.826	21569.91
513.193	21641.32
513.561	21912.28
513.929	22016.68
514.297	22505.03
514.664	22658.02
515.032	22743.67
515.4	23056.2
515.767	23228.63
516.135	23299.59
516.502	23246.03
516.869	23749.52
517.237	23972.56
517.604	23818.67
517.972	24376.17
518.339	24481.93
518.706	24610.06
519.073	24735.03
519.44	24937.96
519.808	25250.04
520.175	25330.94
520.542	25646.64
520.909	25706.08
521.276	25861.1
521.643	26181.32
522.009	26284.37
522.376	26535.88
522.743	26678.25
523.11	26979.04
523.477	27146.72
523.843	27282.76
524.21	27631.45
524.577	27840.26
524.943	27980.59
525.31	28101.94
525.676	28370.86
526.043	28519.33
526.409	28545.77
526.776	28799.78
527.142	28958.87
527.508	29224.18
527.874	29322.25
528.241	29456.26
528.607	29456.49
528.973	29791.39
529.339	29846.53
529.705	30126.75
530.071	30265.28
530.437	30298.95
530.803	30626.85
531.169	30523.58
531.535	30631.82
531.901	30742.55
532.267	30697.81
532.632	30997.01
532.998	30959.72
533.364	31050.12
533.73	31140.51
534.095	31469.09
534.461	31221.86
534.826	31407.17
535.192	31439.03
535.557	31751.11
535.923	31572.59
536.288	31754.96
536.653	31747.5
537.019	31667.95
537.384	31758.57
537.749	31866.37
538.114	31982.75
538.479	31820.27
538.845	31883.31
539.21	31804.67
539.575	31981.39
539.94	32034.04
540.305	32069.98
540.67	31991.56
541.034	31951.11
541.399	32003.09
541.764	32098
542.129	32114.04
542.494	32092.8
542.858	32214.38
543.223	32043.76
543.587	32211.22
543.952	31998.34
544.316	32159.69
544.681	31994.72
545.045	32265.45
545.41	32217.09
545.774	32156.98
546.138	32187.94
546.503	32222.29
546.867	32083.08
547.231	32255.51
547.595	32218.22
547.959	32296.41
548.324	32195.4
548.688	32148.17
549.052	32266.58
549.416	32258.22
549.779	32174.38
550.143	32184.32
550.507	32441.49
550.871	32341.61
551.235	32282.85
551.599	32465.22
551.962	32442.62
552.326	32478.55
552.689	32413.7
553.053	32297.54
553.417	32351.78
553.78	32537.99
554.143	32550.87
554.507	32343.87
554.87	32489.4
555.234	32645.33
555.597	32470.64
555.96	32460.7
556.323	32591.32
556.686	32573.69
557.05	32679.9
557.413	32701.6
557.776	32586.35
558.139	32726.91
558.502	32837.87
558.865	32804.19
559.228	32995.38
559.59	32953.57
559.953	32989.73
560.316	33164.41
560.679	33043.28
561.041	33175.26
561.404	33165.99
561.767	33448.7
562.129	33227.01
562.492	33408.7
562.854	33468.81
563.217	33443.73
563.579	33618.86
563.941	33735.47
564.304	33965.07
564.666	33909.7
565.028	33807.11
565.39	33967.55
565.753	34147.44
566.115	34045.29
566.477	34090.26
566.839	34352.63
567.201	34550.59
567.563	34322.8
567.925	34690.92
568.287	34542
568.648	34634.43
569.01	34811.15
569.372	34921.88
569.734	34949.67
570.095	35139.73
570.457	35249.33
570.819	35230.57
571.18	35089.11
571.542	35385.82
571.903	35367.29
572.265	35583.1
572.626	35466.04
572.987	35475.08
573.349	35697.45
573.71	35816.54
574.071	35737.9
574.432	35872.36
574.794	36115.75
575.155	36041.17
575.516	36025.13
575.877	36167.5
576.238	36022.64
576.599	36160.26
576.96	36132.92
577.32	36187.38
577.681	36380.82
578.042	36480.48
578.403	36423.31
578.763	36346.47
579.124	36380.6
579.485	36649.52
579.845	36517.32
580.206	36307.38
580.566	36400.26
580.927	36307.6
581.287	36434.83
581.648	36351.9
582.008	36408.39
582.368	36317.32
582.728	36280.71
583.089	36363.42
583.449	36318.68
583.809	36287.72
584.169	36238.68
584.529	36136.99
584.889	36428.28
585.249	36090.21
585.609	36003.21
585.969	36058.35
586.329	36047.05
586.688	36077.78
587.048	36003.21
587.408	35936.99
587.768	35894.28
588.127	35853.15
588.487	35809.54
588.846	36146.48
589.206	35724.8
589.565	35774.06
589.925	35843.21
590.284	35814.28
590.643	35892.25
591.003	35852.93
591.362	35884.79
591.721	35781.06
592.08	35840.95
592.44	35885.69
592.799	35710.33
593.158	35743.1
593.517	35725.25
593.876	35755.75
594.235	35622.42
594.593	35675.08
594.952	35659.26
595.311	35529.32
595.67	35499.72
596.029	35679.6
596.387	35682.31
596.746	35813.38
597.104	35540.85
597.463	35540.62
597.822	35643.89
598.18	35510.11
598.538	35426.72
598.897	35772.93
599.255	35451.81
599.613	35831.91
599.972	35549.21
600.33	35507.85
600.688	35541.98
601.046	35586.27
601.404	35700.39
601.762	35717.79
602.12	35711.24
602.478	35576.55
602.836	35643.22
603.194	35407.52
603.552	35597.34
603.91	35611.35
604.268	35847.05
604.625	35578.36
604.983	35843.66
605.341	35559.6
605.698	35857.22
606.056	35929.99
606.413	35793.49
606.771	36160.26
607.128	35953.94
607.485	35869.65
607.843	35878.46
608.2	35978.35
608.557	36002.53
608.914	35829.65
609.272	36184.9
609.629	36248.17
609.986	36303.99
610.343	36172.24
610.7	36419.01
611.057	36395.06
611.414	36284.78
611.771	36567.48
612.127	36478
612.484	36497.66
612.841	36489.07
613.198	36363.42
613.554	36574.04
613.911	36813.13
614.267	36790.76
614.624	36723.86
614.98	36721.38
615.337	37009.51
615.693	36973.8
616.05	36976.29
616.406	36970.86
616.762	37103.29
617.118	36933.8
617.475	36944.88
617.831	37219.22
618.187	37249.27
618.543	37248.37
618.899	37425.77
619.255	37394.36
619.611	37394.13
619.967	37398.65
620.323	37685.42
620.678	37420.34
621.034	37394.13
621.39	37347.8
621.746	37329.72
622.101	37763.39
622.457	37522.94
622.812	37702.6
623.168	37654.24
623.523	37628.02
623.879	37828.24
624.234	37601.13
624.589	37752.54
624.945	37780.79
625.3	37828.47
625.655	37884.06
626.01	37767.68
626.365	37797.73
626.72	37656.04
627.075	37709.38
627.43	37724.06
627.785	37715.7
628.14	37686.33
628.495	37713.9
628.85	37784.4
629.205	37816.04
629.559	37839.32
629.914	37692.65
630.269	37722.26
630.623	37391.19
630.978	37470.06
631.332	37740.79
631.687	37664.18
632.041	37455.6
632.396	37440.23
632.75	37406.56
633.104	37422.83
633.459	37286.79
633.813	37294.47
634.167	37307.58
634.521	37216.06
634.875	37179.67
635.229	37077.98
635.583	36991.65
635.937	36923.86
636.291	37007.7
636.645	37002.95
636.999	36823.98
637.352	37014.93
637.706	36783.75
638.06	36925.89
638.413	36766.35
638.767	36679.12
639.121	36652.68
639.474	36454.72
639.828	36543.3
640.181	36483.65
640.534	36652.68
640.888	36421.05
641.241	36211.79
641.594	36399.13
641.947	36413.59
642.301	36295.85
642.654	36393.7
643.007	36101.28
643.36	36317.55
643.713	36169.08
644.066	36369.98
644.419	36033.94
644.771	35646.15
645.124	35387.63
645.477	35451.81
645.83	35267.18
646.182	35212.72
646.535	35248.2
646.888	35373.39
647.24	35197.13
647.593	35479.15
647.945	35305.37
648.298	35218.59
648.65	34946.74
649.002	34829.68
649.355	34787.42
649.707	34718.95
650.059	34763.46
650.411	35308.99
650.763	35487.97
651.115	35911
651.467	35822.42
651.819	35776.09
652.171	35783.78
652.523	35638.92
652.875	35688.41
653.227	35588.75
653.578	35857
653.93	35714.85
654.282	35551.92
654.633	35677.34
654.985	35789.2
655.337	35690.45
655.688	35549.66
656.039	35686.6
656.391	35428.76
656.742	35607.51
657.094	35584.69
657.445	35705.81
657.796	35584.46
658.147	35603.22
658.498	35716.43
658.849	35761.86
659.2	35814.74
659.551	35696.1
659.902	35896.77
660.253	35778.58
660.604	35947.16
660.955	35668.98
661.306	35871.46
661.656	35772.03
662.007	35856.09
662.358	36032.36
662.708	35952.36
663.059	36059.02
663.409	35778.81
663.76	35964.34
664.11	36053.37
664.461	36074.62
664.811	36026.48
665.161	36067.84
665.511	36053.83
665.862	36110.77
666.212	36118.68
666.562	36193.26
666.912	36144.67
667.262	36027.61
667.612	36060.83
667.962	35878.01
668.312	36085.69
668.662	36202.07
669.011	36182.86
669.361	36020.61
669.711	36130.66
670.06	35965.24
670.41	36072.36
670.76	35965.69
671.109	36151.9
671.459	35882.76
671.808	35859.25
672.157	36087.95
672.507	35701.52
672.856	35651.12
673.205	35802.99
673.554	35941.51
673.904	35858.35
674.253	36019.25
674.602	35843.66
674.951	35454.29
675.3	35161.65
675.649	35699.49
675.998	35772.03
676.346	35814.06
676.695	35887.28
677.044	35549.88
677.393	35674.63
677.741	35725.47
678.09	35576.78
678.438	35429.66
678.787	35442.77
679.135	35514.41
679.484	35273.06
679.832	35425.37
680.181	35255.65
680.529	35263.56
680.877	35155.54
681.225	35077.58
681.573	35412.26
681.922	35071.48
682.27	34958.04
682.618	35026.96
682.966	34721.66
683.314	34791.03
683.661	34734.54
684.009	34648.44
684.357	34599.18
684.705	34551.27
685.053	34490.25
685.4	34368.9
685.748	34235.79
686.095	34288.45
686.443	34113.31
686.79	34124.84
687.138	34152.63
687.485	33965.07
687.832	33812.3
688.18	33909.7
688.527	33673.32
688.874	33554.91
689.221	33482.59
689.568	33305.88
689.915	33241.02
690.262	33278.98
690.609	33189.72
690.956	33063.85
691.303	33144.98
691.65	32843.06
691.997	32761.94
692.344	32535.5
692.69	32478.33
693.037	32530.53
693.383	32247.37
693.73	32370.08
694.077	32050.99
694.423	31983.65
694.769	31899.13
695.116	31826.14
695.462	31690.78
695.808	31604.9
696.155	31572.81
696.501	31320.62
696.847	31297.79
697.193	31021.64
697.539	31253.73
697.885	30945.94
698.231	30899.16
698.577	30862.55
698.923	30672.95
699.269	30343.24
699.614	30323.36
699.96	30267.99
700.306	30162.91
700.651	29999.3
700.997	29865.74
701.342	29791.17
701.688	29758.85
702.033	29543.49
702.379	29608.8
702.724	29343.27
703.069	29404.06
703.415	29113.44
703.76	29042.26
704.105	28932.66
704.45	28856.95
704.795	28676.62
705.14	28645.21
705.485	28623.29
705.83	28325.22
706.175	28440.69
706.52	28287.25
706.865	28120.93
707.209	28099.68
707.554	28062.62
707.899	27970.87
708.243	27826.25
708.588	27847.94
708.932	27604.1
709.277	27556.87
709.621	27455.63
709.966	27386.26
710.31	27369.53
710.654	27058.58
710.998	27146.49
711.342	27192.59
711.687	27089.54
712.031	26979.94
712.375	26952.14
712.719	26852.71
713.063	26973.39
713.407	26871.92
713.75	26885.48
714.094	26760.74
714.438	26700.4
714.782	26603
715.125	26538.6
715.469	26751.02
715.812	26413.85
716.156	26392.61
716.499	26488.65
716.843	26529.1
717.186	26234.42
717.53	26492.04
717.873	26524.81
718.216	26367.53
718.559	26375.66
718.902	26175.44
719.246	26221.99
719.589	26106.29
719.932	26031.04
720.275	26115.56
720.617	26250.47
720.96	26071.94
721.303	26136.57
721.646	26127.99
721.989	26059.29
722.331	26035.11
722.674	25991.94
723.016	26031.94
723.359	25988.33
723.701	26000.31
724.044	25929.12
724.386	25847.54
724.729	25864.72
725.071	25941.78
725.413	25915.56
725.755	25857.71
726.097	25811.61
726.439	25860.65
726.782	25817.71
727.124	25883.7
727.465	25828.33
727.807	25895.68
728.149	25852.06
728.491	25702.69
728.833	25859.97
729.175	25780.2
729.516	25806.86
729.858	25783.59
730.199	25869.69
730.541	25806.19
730.882	25836.47
731.224	25911.95
731.565	25844.6
731.906	25907.88
732.248	25952.85
732.589	25865.17
732.93	25866.3
733.271	25883.92
733.612	25993.07
733.953	26012.73
734.294	25883.92
734.635	25860.87
734.976	26088.21
735.317	26025.39
735.658	26012.06
735.999	26005.28
736.339	26035.11
736.68	26163.01
737.021	26207.08
737.361	26143.13
737.702	26364.59
738.042	26250.47
738.383	26385.83
738.723	26375.66
739.063	26307.19
739.404	26585.15
739.744	26467.86
740.084	26599.39
740.424	26680.97
740.764	26753.05
741.104	26754.64
741.444	26714.41
741.784	26670.12
742.124	26846.16
742.464	26961.64
742.804	26979.71
743.143	27065.81
743.483	27252.48
743.823	27181.97
744.162	27470.55
744.502	27538.57
744.841	27499.47
745.181	27731.78
745.52	27655.4
745.86	27815.4
746.199	27950.31
746.538	27995.05
746.877	28376.74
747.216	28456.29
747.556	28400.92
747.895	28564.76
748.234	28766.79
748.573	28900.34
748.911	28915.93
749.25	29136.27
749.589	29261.91
749.928	29490.38
750.267	29655.8
750.605	29833.88
750.944	29812.86
751.283	30118.39
751.621	30276.58
751.96	30281.32
752.298	30607.87
752.636	30676.34
752.975	30967.63
753.313	31139.6
753.651	31477.45
753.989	31345.48
754.327	31686.94
754.666	31486.49
755.004	31940.94
755.342	32062.07
755.679	32396.52
756.017	32309.74
756.355	32705.21
756.693	32786.79
757.031	33174.35
757.368	33022.49
757.706	33414.12
758.044	33548.81
758.381	33670.39
758.719	33866.09
759.056	34130.94
759.394	34205.06
759.731	34179.07
760.068	34267.43
760.405	34549.46
760.743	34743.8
761.08	34902.44
761.417	34952.39
761.754	34947.41
762.091	35251.59
762.428	35184.92
762.765	35519.6
763.102	35598.47
763.438	35836.43
763.775	35759.14
764.112	35931.57
764.449	35950.33
764.785	36058.35
765.122	36034.84
765.458	36201.84
765.795	36405.23
766.131	36577.2
766.467	36511.22
766.804	36398.68
767.14	36456.3
767.476	36579.01
767.812	36560.93
768.148	36685.9
768.485	36816.29
768.821	36602.29
769.157	36654.71
769.492	36655.17
769.828	36745.11
770.164	36579.91
770.5	36659.23
770.836	36734.26
771.171	36696.52
771.507	36724.99
771.842	36489.97
772.178	36505.79
772.513	36542.63
772.849	36589.63
773.184	36741.94
773.519	36598.44
773.855	36458.56
774.19	36495.17
774.525	36516.86
774.86	36463.31
775.195	36485
775.53	36335.4
775.865	36343.08
776.2	36152.13
776.535	35915.98
776.87	36023.32
777.205	35989.65
777.539	35913.49
777.874	36015.86
778.209	35630.79
778.543	35849.99
778.878	35625.59
779.212	35786.94
779.547	35515.54
779.881	35593.5
780.215	35301.53
780.55	35356.67
780.884	35189.44
781.218	35141.31
781.552	35360.06
781.886	34986.96
782.22	34915.1
782.554	34742
782.888	34510.14
783.222	34519.86
783.556	34480.31
783.889	34307.88
784.223	34078.96
784.557	34130.03
784.89	34310.37
785.224	33912.19
785.557	33817.5
785.891	33894.56
786.224	33783.38
786.558	33787.9
786.891	33634
787.224	33431.07
787.557	33357.85
787.891	33273.11
788.224	33198.31
788.557	33263.62
788.89	33071.53
789.223	32978.65
789.556	32878.09
789.888	32727.59
790.221	32624.76
790.554	32535.05
790.887	32654.59
791.219	32456.86
791.552	32337.09
791.884	32170.54
792.217	32099.81
792.549	32025.91
792.882	31883.77
793.214	31733.94
793.546	31794.05
793.879	31677.22
794.211	31433.16
794.543	31529.43
794.875	31443.55
795.207	31349.54
795.539	31323.55
795.871	31364.91
796.203	31285.14
796.535	30949.78
796.867	30898.26
797.198	30767.19
797.53	30782.55
797.862	30669.11
798.193	30733.97
798.525	30468.66
798.856	30611.71
799.188	30232.51
799.519	30080.65
799.85	30113.87
800.182	30045.62
800.513	30126.07
800.844	29758.4
801.175	30016.47
801.506	29978.73
801.837	29709.36
802.168	29631.4
802.499	29715.91
802.83	29449.48
803.161	29360.67
803.491	29449.03
803.822	29450.61
804.153	29099.66
804.483	29120.67
804.814	28969.27
805.145	28883.85
805.475	28920.23
805.805	28881.81
806.136	28815.15
806.466	28782.83
806.796	28790.06
807.126	28652.66
807.457	28593.91
807.787	28597.07
808.117	28502.61
808.447	28334.93
808.777	28471.2
809.107	28205.22
809.436	28085.22
809.766	28134.26
810.096	28083.87
810.426	28034.6
810.755	28060.14
811.085	27901.95
811.414	27900.14
811.744	27741.95
812.073	27747.6
812.403	27562.07
812.732	27467.16
813.061	27652.47
813.39	27392.36
813.719	27381.51
814.049	27526.14
814.378	27352.36
814.707	27282.53
815.036	27264.9
815.365	27081.41
815.693	26878.93
816.022	27078.92
816.351	26922.77
816.68	26754.41
817.008	26979.94
817.337	26687.52
817.665	26640.29
817.994	26677.8
818.322	26791.47
818.651	26544.7
818.979	26546.28
819.307	26481.42
819.636	26530.46
819.964	26290.47
820.292	26550.12
820.62	26372.95
820.948	26489.11
821.276	26565.04
821.604	26513.06
821.932	26655.2
822.259	26464.47
822.587	26372.05
822.915	26402.55
823.243	26523
823.57	26417.02
823.898	26580.85
824.225	26526.84
824.553	26444.36
824.88	26508.09
825.207	26503.12
825.535	26517.35
825.862	26541.99
826.189	26516
826.516	26586.96
826.843	26669.44
827.17	26671.47
827.497	26678.71
827.824	26579.05
828.151	26719.61
828.478	26536.79
828.805	26647.52
829.131	26791.02
829.458	26692.49
829.785	26449.56
830.111	26602.78
830.438	26712.83
830.764	26556
831.09	26761.19
831.417	26478.26
831.743	26752.15
832.069	26649.33
832.395	26643.68
832.722	26702.89
833.048	26605.03
833.374	26692.94
833.7	26444.14
834.026	26483.46
834.351	26491.59
834.677	26584.7
835.003	26595.09
835.329	26508.99
835.654	26449.56
835.98	26320.97
836.306	26483
836.631	26351.26
836.956	26518.71
837.282	26434.87
837.607	26386.28
837.932	26360.75
838.258	26274.42
838.583	26302.22
838.908	26189.23
839.233	26264.93
839.558	25997.59
839.883	26024.26
840.208	25929.35
840.533	25966.41
840.858	25990.59
841.182	25899.97
841.507	25968.89
841.832	25820.42
842.156	25774.32
842.481	25762.8
842.805	25563.71
843.13	25598.28
843.454	25609.13
843.778	25568
844.103	25466.31
844.427	25377.72
844.751	25342.92
845.075	25422.47
845.399	25353.54
845.723	25165.98
846.047	25171.17
846.371	24973.89
846.695	24936.38
847.019	24721.24
847.343	24696.16
847.666	24579.33
847.99	24410.97
848.313	24406.67
848.637	24520.8
848.96	24288.94
849.284	24274.7
849.607	24098.43
849.931	23991.32
850.254	23933.69
850.577	23747.71
850.9	23624.1
851.223	23481.05
851.546	23470.2
851.869	23398.79
852.192	23566.47
852.515	23189.31
852.838	23057.78
853.161	23200.83
853.483	23001.06
853.806	22926.04
854.129	22985.47
854.451	22893.72
854.774	22707.28
855.096	22594.52
855.419	22509.55
855.741	22444.01
856.063	22405.82
856.385	22270.23
856.708	22320.63
857.03	22205.38
857.352	22221.2
857.674	22162.21
857.996	21948.66
858.318	21874.09
858.64	21982.78
858.961	21889.9
859.283	21768.1
859.605	21722.68
859.926	21724.03
860.248	21658.27
860.57	21597.03
860.891	21617.37
861.212	21414.89
861.534	21470.48
861.855	21350.94
862.176	21276.81
862.498	21287.66
862.819	21257.15
863.14	21210.15
863.461	21245.85
863.782	21141.68
864.103	21084.95
864.424	20986.88
864.745	21033.88
865.065	20926.99
865.386	20865.52
865.707	20900.33
866.027	20842.47
866.348	20923.15
866.668	20687.68
866.989	20726.32
867.309	20560.45
867.63	20574.46
867.95	20626.89
868.27	20543.95
868.59	20616.49
868.91	20523.16
869.23	20430.51
869.55	20399.32
869.87	20472.09
870.19	20351.87
870.51	20393.45
870.83	20379.89
871.15	20227.8
871.469	20214.24
871.789	20383.96
872.109	20225.77
872.428	20182.83
872.748	20204.98
873.067	20110.74
873.386	20162.04
873.706	20172.44
874.025	20060.12
874.344	20065.32
874.663	20013.34
874.982	19906.91
875.301	19904.87
875.62	19869.39
875.939	19831.2
876.258	19803.86
876.577	19729.96
876.896	19736.06
877.214	19672.34
877.533	19669.17
877.852	19590.98
878.17	19627.37
878.489	19690.19
878.807	19568.84
879.125	19547.82
879.444	19439.8
879.762	19426.92
880.08	19437.99
880.398	19356.41
880.716	19319.8
881.034	19265.11
881.352	19261.95
881.67	19174.72
881.988	19201.39
882.306	19040.04
882.624	19187.15
882.941	19037.55
883.259	18924.56
883.577	18992.35
883.894	18955.29
884.212	18842.08
884.529	18864.45
884.846	18698.35
885.164	18700.38
885.481	18722.53
885.798	18736.77
886.115	18590.78
886.432	18602.53
886.75	18696.99
887.067	18587.62
887.383	18506.49
887.7	18465.59
888.017	18368.19
888.334	18291.58
888.651	18334.97
888.967	18267.63
889.284	18133.39
889.6	18098.82
889.917	17968.2
890.233	18182.88
890.55	18043
890.866	17965.26
891.182	18012.94
891.498	17781.76
891.815	17739.05
892.131	17751.71
892.447	17732.5
892.763	17595.55
893.079	17527.99
893.395	17503.13
893.71	17485.73
894.026	17542.22
894.342	17436.24
894.657	17321.21
894.973	17248.22
895.289	17213.42
895.604	17244.38
895.92	17110.37
896.235	17038.73
896.55	16990.6
896.865	16905.63
897.181	16897.95
897.496	16842.81
897.811	16750.6
898.126	16688.91
898.441	16700.21
898.756	16636.26
899.071	16501.35
899.386	16602.13
899.7	16286.89
900.015	16307
900.33	16242.14
900.644	16178.19
900.959	16264.74
901.273	16115.82
901.588	16005.54
901.902	15975.48
902.216	15961.7
902.531	15895.26
902.845	15743.4
903.159	15685.77
903.473	15677.64
903.787	15639.45
904.101	15521.26
904.415	15575.27
904.729	15506.12
905.042	15322.85
905.356	15355.84
905.67	15290.53
905.984	15249.85
906.297	15211.89
906.611	15093.47
906.924	15046.92
907.237	15041.27
907.551	14930.99
907.864	14904.33
908.177	14892.57
908.491	14736.87
908.804	14657.78
909.117	14615.29
909.43	14511.79
909.743	14545.01
910.056	14408.52
910.368	14437.45
910.681	14286.26
910.994	14313.38
911.307	14194.74
911.619	14080.17
911.932	14063.44
912.244	13961.98
912.557	14047.62
912.869	13879.27
913.181	13828.65
913.494	13778.71
913.806	13731.7
914.118	13651.48
914.43	13586.39
914.742	13565.15
915.054	13506.17
915.366	13495.55
915.678	13392.05
915.99	13372.16
916.302	13274.76
916.613	13223.01
916.925	13171.49
917.236	13077.48
917.548	13104.15
917.859	13037.26
918.171	12927.2
918.482	12867.09
918.794	12880.65
919.105	12884.72
919.416	12709.36
919.727	12695.12
920.038	12577.38
920.349	12577.83
920.66	12528.79
920.971	12495.58
921.282	12416.71
921.593	12385.97
921.903	12305.52
922.214	12231.18
922.525	12221.23
922.835	12138.3
923.146	12034.34
923.456	12012.88
923.767	11976.72
924.077	11960.22
924.387	11971.75
924.697	11850.62
925.008	11830.51
925.318	11754.58
925.628	11763.62
925.938	11665.31
926.248	11582.61
926.558	11535.37
926.867	11504.42
927.177	11415.83
927.487	11348.49
927.796	11321.37
928.106	11333.35
928.416	11296.96
928.725	11239.79
929.034	11132.22
929.344	11153.92
929.653	11096.29
929.962	10950.08
930.271	10953.92
930.581	10899.01
930.89	10860.82
931.199	10833.25
931.508	10840.03
931.817	10720.25
932.125	10709.18
932.434	10619.69
932.743	10466.93
933.051	10457.89
933.36	10416.08
933.669	10417.89
933.977	10408.4
934.286	10404.1
934.594	10329.3
934.902	10322.75
935.21	10186.94
935.519	10127.5
935.827	10194.17
936.135	10064.68
936.443	10000.5
936.751	9984.45
937.059	9992.36
937.367	9892.03
937.674	9875.31
937.982	9877.79
938.29	9834.18
938.597	9819.04
938.905	9691.81
939.213	9633.05
939.52	9670.11
939.827	9730.9
940.135	9569.32
940.442	9495.65
940.749	9454.98
941.056	9471.7
941.363	9339.5
941.67	9380.4
941.977	9265.6
942.284	9234.87
942.591	9295.43
942.898	9241.2
943.205	9142.9
943.511	9173.18
943.818	9086.85
944.125	8947.65
944.431	8992.16
944.738	8943.35
945.044	8944.48
945.35	8847.54
945.657	8818.16
945.963	8817.48
946.269	8771.61
946.575	8750.82
946.881	8727.54
947.187	8590.59
947.493	8580.42
947.799	8545.4
948.105	8553.31
948.41	8513.31
948.716	8459.07
949.022	8423.14
949.327	8379.53
949.633	8268.79
949.938	8313.31
950.244	8248.68
950.549	8232.86
950.854	8190.15
951.16	8109.48
951.465	8100.89
951.77	8055.92
952.075	8119.19
952.38	8031.06
952.685	7974.56
952.99	7944.28
953.294	7941.12
953.599	7870.61
953.904	7807.11
954.209	7769.37
954.513	7794.68
954.818	7702.71
955.122	7685.53
955.426	7660
955.731	7575.03
956.035	7603.05
956.339	7525.76
956.643	7489.15
956.948	7458.65
957.252	7473.56
957.556	7413.9
957.86	7402.83
958.163	7441.7
958.467	7349.04
958.771	7290.06
959.075	7256.17
959.378	7221.59
959.682	7176.85
959.985	7154.7
960.289	7073.8
960.592	7072.22
960.896	7071.99
961.199	7032.67
961.502	7008.26
961.805	6986.79
962.108	6939.11
962.411	6925.33
962.714	6880.13
963.017	6875.84
963.32	6849.62
963.623	6739.57
963.926	6778.89
964.228	6728.72
964.531	6742.73
964.833	6692.11
965.136	6625.22
965.438	6577.31
965.741	6531.21
966.043	6493.93
966.345	6474.26
966.648	6473.36
966.95	6484.89
967.252	6438.11
967.554	6418
967.856	6429.29
968.158	6301.61
968.46	6357.66
968.761	6248.06
969.063	6225.68
969.365	6235.85
969.666	6210.09
969.968	6127.16
970.269	6086.25
970.571	6133.03
970.872	6082.86
971.174	6025.69
971.475	6020.72
971.776	5984.56
972.077	5925.35
972.378	6009.87
972.679	5939.14
972.98	5909.08
973.281	5859.37
973.582	5863.89
973.883	5791.12
974.183	5724.91
974.484	5776.2
974.785	5703.44
975.085	5662.53
975.386	5707.05
975.686	5638.35
975.986	5613.27
976.287	5588.64
976.587	5550.67
976.887	5519.49
977.187	5496.66
977.487	5511.8
977.787	5445.82
978.087	5392.71
978.387	5394.52
978.687	5400.17
978.987	5347.74
979.286	5366.05
979.586	5311.13
979.885	5283.11
980.185	5289.21
980.484	5245.6
980.784	5238.14
981.083	5165.15
981.382	5136.67
981.682	5166.05
981.981	5192.26
982.28	5138.03
982.579	5030.01
982.878	5042.21
983.177	5045.38
983.475	4984.13
983.774	4971.93
984.073	4920.18
984.372	4921.09
984.67	4917.47
984.969	4873.4
985.267	4897.58
985.566	4844.03
985.864	4838.38
986.162	4801.31
986.461	4790.02
986.759	4739.4
987.057	4770.13
987.355	4750.47
987.653	4683.13
987.951	4641.32
988.249	4583.69
988.547	4639.06
988.844	4601.55
989.142	4560.42
989.44	4503.92
989.737	4514.32
990.035	4532.62
990.332	4493.3
990.63	4512.06
990.927	4504.6
991.224	4393.42
991.521	4369.01
991.819	4409.01
992.116	4362.23
992.413	4297.6
992.71	4296.02
993.006	4307.54
993.303	4272.06
993.6	4243.59
993.897	4202.69
994.193	4200.43
994.49	4176.25
994.787	4142.8
995.083	4147.09
995.379	4098.96
995.676	4108.68
995.972	4066.42
996.268	4059.64
996.565	4035.91
996.861	4008.79
997.157	3948
997.453	3943.94
997.749	3939.42
998.044	3887.21
998.34	3921.11
998.636	3880.21
998.932	3834.56
999.227	3807.89
999.523	3806.99
999.818	3785.97
1000.114	3764.51
1000.409	3733.32
1000.704	3705.52
1001	3725.64
1001.295	3709.59
1001.59	3674.11
1001.885	3642.02
1002.18	3627.79
1002.475	3598.86
1002.77	3599.99
1003.065	3577.84
1003.359	3551.4
1003.654	3532.65
1003.949	3501.24
1004.243	3453.33
1004.538	3474.12
1004.832	3450.62
1005.127	3412.42
1005.421	3371.07
1005.715	3369.71
1006.009	3411.52
1006.304	3344.86
1006.598	3329.26
1006.892	3277.74
1007.186	3270.51
1007.48	3225.76
1007.773	3252.65
1008.067	3209.72
1008.361	3157.97
1008.655	3169.27
1008.948	3142.83
1009.242	3153.45
1009.535	3130.17
1009.829	3137.63
1010.122	3077.97
1010.415	3096.73
1010.708	3037.29
1011.001	3065.54
1011.295	2978.99
1011.588	2971.53
1011.881	2953.68
1012.173	2974.47
1012.466	2928.37
1012.759	2903.06
1013.052	2915.94
1013.344	2875.94
1013.637	2868.03
1013.93	2858.31
1014.222	2830.52
1014.514	2792.55
1014.807	2778.77
1015.099	2778.99
1015.391	2751.2
1015.683	2742.61
1015.976	2722.5
1016.268	2689.05
1016.56	2698.77
1016.851	2652.67
1017.143	2604.76
1017.435	2619
1017.727	2620.81
1018.018	2588.72
1018.31	2570.19
1018.602	2564.54
1018.893	2540.81
1019.185	2528.83
1019.476	2471.21
1019.767	2465.1
1020.058	2495.61
1020.35	2477.08
1020.641	2441.38
1020.932	2410.42
1021.223	2396.41
1021.514	2376.07
1021.804	2374.49
1022.095	2362.51
1022.386	2326.8
1022.677	2317.09
1022.967	2315.5
1023.258	2276.41
1023.548	2232.12
1023.839	2223.53
1024.129	2250.2
1024.419	2239.35
1024.709	2227.37
1025	2209.07
1025.29	2185.79
1025.58	2150.76
1025.87	2119.58
1026.16	2106.92
1026.449	2128.62
1026.739	2089.07
1027.029	2091.1
1027.319	2040.94
1027.608	2073.02
1027.898	2061.73
1028.187	2038.68
1028.477	2022.18
1028.766	1978.34
1029.055	1983.31
1029.344	1976.98
1029.634	1972.69
1029.923	1956.19
1030.212	1915.29
1030.501	1900.15
1030.79	1897.44
1031.078	1898.57
1031.367	1855.86
1031.656	1841.17
1031.945	1848.4
1032.233	1822.41
1032.522	1831.68
1032.81	1793.48
1033.099	1797.78
1033.387	1802.07
1033.675	1748.29
1033.963	1737.67
1034.251	1722.07
1034.54	1698.57
1034.828	1724.56
1035.116	1677.55
1035.403	1696.09
1035.691	1698.12
1035.979	1670.78
1036.267	1637.1
1036.554	1651.34
1036.842	1629.19
1037.129	1609.08
1037.417	1610.44
1037.704	1602.3
1037.992	1574.05
1038.279	1543.55
1038.566	1528.63
1038.853	1528.63
1039.14	1528.63
