Data from 15-6437_FLMS001491_001.txt Node
Date: Thu Apr 19 15:39:59 BST 2018
User: hsy
Spectrometer: FLMS00149
Trigger mode: 0
Integration Time (sec): 1.000000E-2
Scans to average: 10
Electric dark correction enabled: true
Nonlinearity correction enabled: false
Boxcar width: 0
XAxis mode: Wavelengths
Number of Pixels in Spectrum: 2048
>>>>>Begin Spectral Data<<<<<
341.393	-16.13
341.776	-16.13
342.16	-16.13
342.543	-60.42
342.927	-63.59
343.31	-48.22
343.693	-78.5
344.077	-69.24
344.46	-58.16
344.843	-69.46
345.226	-36.92
345.61	-29.69
345.993	-30.37
346.376	-26.52
346.759	16.41
347.142	25
347.525	43.76
347.908	76.52
348.291	98.67
348.674	76.75
349.057	109.97
349.44	123.3
349.823	149.52
350.206	175.96
350.588	239.68
350.971	249.17
351.354	250.08
351.737	277.87
352.119	294.82
352.502	311.77
352.884	312.9
353.267	315.16
353.65	336.18
354.032	330.08
354.414	337.53
354.797	322.84
355.179	368.49
355.562	362.84
355.944	390.87
356.326	392.9
356.709	365.78
357.091	368.95
357.473	400.58
357.855	383.63
358.238	391.54
358.62	387.48
359.002	387.25
359.384	375.95
359.766	387.48
360.148	383.63
360.53	389.28
360.912	371.88
361.294	372.33
361.676	373.01
362.057	391.54
362.439	368.95
362.821	388.61
363.203	383.63
363.584	390.64
363.966	360.81
364.348	369.62
364.729	377.98
365.111	379.57
365.493	393.13
365.874	374.37
366.256	370.53
366.637	379.79
367.019	388.38
367.4	378.89
367.781	356.97
368.163	360.81
368.544	350.41
368.925	370.98
369.306	376.85
369.688	376.18
370.069	384.31
370.45	380.02
370.831	385.89
371.212	404.42
371.593	375.95
371.974	376.63
372.355	377.31
372.736	382.05
373.117	378.44
373.498	375.05
373.879	376.18
374.26	368.49
374.641	367.14
375.021	382.73
375.402	406.01
375.783	399.45
376.163	417.08
376.544	424.08
376.925	406.46
377.305	406.46
377.686	410.75
378.066	406.91
378.447	405.33
378.827	410.07
379.208	410.75
379.588	399.45
379.968	406.01
380.349	414.37
380.729	419.11
381.109	414.37
381.489	426.34
381.87	423.63
382.25	435.38
382.63	414.59
383.01	421.15
383.39	446.46
383.77	435.38
384.15	426.57
384.53	447.14
384.91	434.48
385.29	461.82
385.67	446.01
386.049	444.65
386.429	448.94
386.809	436.51
387.189	439.23
387.568	479.9
387.948	469.28
388.328	480.13
388.707	470.64
389.087	477.64
389.466	474.93
389.846	475.83
390.225	494.14
390.605	471.77
390.984	489.17
391.363	490.75
391.743	499.34
392.122	499.56
392.501	490.07
392.881	512.9
393.26	521.26
393.639	521.26
394.018	514.25
394.397	543.18
394.776	529.62
395.155	527.13
395.534	534.36
395.913	525.55
396.292	525.55
396.671	532.33
397.05	562.16
397.429	545.89
397.808	556.28
398.186	547.7
398.565	556.74
398.944	567.36
399.323	585.66
399.701	553.12
400.08	574.14
400.458	596.28
400.837	592.89
401.215	588.15
401.594	590.86
401.972	596.74
402.351	598.09
402.729	627.24
403.107	586.57
403.486	607.36
403.864	613.23
404.242	603.06
404.62	646.68
404.999	634.47
405.377	640.58
405.755	628.37
406.133	653.68
406.511	669.5
406.889	664.53
407.267	657.53
407.645	674.93
408.023	704.3
408.401	699.78
408.779	695.94
409.156	705.21
409.534	722.38
409.912	715.15
410.29	726.68
410.667	731.87
411.045	750.63
411.422	742.04
411.8	748.37
412.178	757.64
412.555	762.83
412.933	779.78
413.31	789.27
413.687	799.67
414.065	829.27
414.442	796.73
414.819	835.83
415.197	824.53
415.574	842.38
415.951	848.48
416.328	868.37
416.705	847.35
417.082	859.1
417.46	866.56
417.837	893.68
418.214	870.85
418.591	879.89
418.967	894.58
419.344	886.22
419.721	904.98
420.098	911.98
420.475	912.43
420.852	921.7
421.228	932.77
421.605	956.95
421.982	940.46
422.358	946.78
422.735	959.89
423.111	970.96
423.488	973
423.864	971.42
424.241	1000.79
424.617	991.75
424.994	1017.52
425.37	1012.32
425.746	1031.53
426.123	1049.83
426.499	1043.28
426.875	1024.07
427.251	1078.08
427.627	1095.71
428.003	1102.26
428.379	1111.3
428.756	1116.5
429.132	1082.6
429.507	1163.05
429.883	1150.17
430.259	1186.78
430.635	1170.28
431.011	1172.77
431.387	1197.62
431.763	1248.47
432.138	1202.6
432.514	1233.1
432.89	1231.07
433.265	1258.41
433.641	1262.71
434.016	1302.71
434.392	1332.31
434.767	1339.99
435.143	1317.85
435.518	1341.35
435.894	1358.3
436.269	1373.66
436.644	1415.02
437.02	1373.21
437.395	1418.64
437.77	1419.54
438.145	1427.67
438.52	1479.2
438.895	1466.32
439.271	1449.14
439.646	1486.66
440.021	1513.77
440.395	1529.59
440.77	1518.97
441.145	1548.35
441.52	1551.96
441.895	1539.76
442.27	1589.03
442.645	1541.57
443.019	1577.5
443.394	1598.97
443.769	1595.58
444.143	1593.55
444.518	1624.28
444.892	1628.12
445.267	1640.32
445.641	1661.34
446.016	1680.55
446.39	1672.64
446.764	1684.16
447.139	1685.75
447.513	1710.6
447.887	1686.2
448.262	1711.73
448.636	1732.98
449.01	1765.74
449.384	1736.37
449.758	1776.59
450.132	1776.82
450.506	1824.27
450.88	1826.08
451.254	1825.4
451.628	1817.04
452.002	1861.56
452.376	1886.42
452.75	1897.04
453.123	1924.16
453.497	1956.47
453.871	1948.11
454.244	2040.77
454.618	2032.4
454.992	2054.1
455.365	2039.64
455.739	2095.91
456.112	2111.5
456.486	2151.27
456.859	2163.02
457.232	2189.01
457.606	2233.98
457.979	2238.05
458.352	2270.59
458.725	2327.09
459.099	2326.18
459.472	2302.68
459.845	2379.74
460.218	2397.59
460.591	2440.3
460.964	2467.42
461.337	2469.45
461.71	2570.02
462.083	2553.29
462.456	2582.22
462.829	2581.32
463.201	2653.86
463.574	2666.96
463.947	2680.07
464.32	2758.94
464.692	2791.48
465.065	2783.57
465.438	2822.44
465.81	2851.14
466.183	2876
466.555	2904.7
466.928	2975.43
467.3	2922.55
467.672	2998.03
468.045	3054.75
468.417	3048.2
468.789	3107.18
469.161	3147.18
469.534	3206.84
469.906	3231.24
470.278	3267.4
470.65	3313.27
471.022	3371.35
471.394	3417.23
471.766	3478.69
472.138	3540.61
472.51	3580.39
472.882	3579.93
473.253	3675.07
473.625	3744.9
473.997	3780.83
474.369	3791.45
474.74	3881.62
475.112	3959.36
475.484	3965.23
475.855	4065.8
476.227	4049.98
476.598	4243.19
476.97	4243.42
477.341	4309.86
477.713	4415.84
478.084	4429.63
478.455	4569.51
478.827	4601.38
479.198	4713.69
479.569	4797.53
479.94	4921.59
480.311	5040.23
480.682	5093.79
481.053	5222.6
481.424	5335.37
481.795	5404.29
482.166	5448.36
482.537	5532.43
482.908	5726.32
483.279	5794.34
483.65	5966.76
484.021	6042.69
484.391	6052.19
484.762	6194.78
485.133	6336.7
485.503	6426.64
485.874	6639.51
486.244	6712.73
486.615	6900.07
486.985	7001.77
487.356	7104.81
487.726	7192.04
488.097	7460.96
488.467	7531.92
488.837	7679.26
489.207	7867.5
489.578	8056.88
489.948	8149.08
490.318	8333.26
490.688	8418.45
491.058	8757.2
491.428	8845.33
491.798	9007.36
492.168	9252.78
492.538	9388.14
492.908	9549.49
493.278	9700.45
493.648	9871.75
494.017	10123.72
494.387	10268.8
494.757	10482.35
495.126	10633.76
495.496	10807.31
495.866	10988.78
496.235	11232.39
496.605	11443.91
496.974	11649.1
497.344	11887.06
497.713	12060.62
498.082	12238.24
498.452	12530.66
498.821	12689.98
499.19	12923.42
499.559	13183.07
499.928	13407.25
500.298	13668.26
500.667	13937.4
501.036	13990.06
501.405	14317.28
501.774	14519.99
502.143	14831.16
502.512	14952.74
502.88	15204.71
503.249	15425.5
503.618	15742.78
503.987	15825.04
504.356	16215.08
504.724	16439.71
505.093	16636.54
505.462	16881.28
505.83	17093.25
506.199	17455.28
506.567	17681.94
506.936	18003.96
507.304	18330.96
507.672	18545.87
508.041	18693.89
508.409	18975.01
508.777	19294.55
509.145	19522.11
509.514	19660.64
509.882	19946.74
510.25	20204.36
510.618	20405.48
510.986	20640.95
511.354	20894.96
511.722	21155.29
512.09	21489.07
512.458	21514.6
512.826	21787.59
513.193	21988.04
513.561	22214.7
513.929	22482.71
514.297	22699.43
514.664	22953.89
515.032	23162.47
515.4	23378.74
515.767	23456.02
516.135	23675.22
516.502	23675
516.869	24264.14
517.237	24443.11
517.604	24348.43
517.972	24734.86
518.339	24971.01
518.706	25091.01
519.073	25138.01
519.44	25352.69
519.808	25614.38
520.175	25725.79
520.542	25951.55
520.909	26173.92
521.276	26253.01
521.643	26568.48
522.009	26718.08
522.376	26895.71
522.743	27054.57
523.11	27280.78
523.477	27606.2
523.843	27723.71
524.21	27991.04
524.577	28259.06
524.943	28263.8
525.31	28406.63
525.676	28809.78
526.043	28868.76
526.409	28987.4
526.776	29420.38
527.142	29448.86
527.508	29600.94
527.874	29810.43
528.241	29986.92
528.607	29976.3
528.973	30394.37
529.339	30245.9
529.705	30419.23
530.071	30629.84
530.437	30848.14
530.803	31020.57
531.169	31049.27
531.535	31080.91
531.901	31113.22
532.267	31289.04
532.632	31472.08
532.998	31436.6
533.364	31659.65
533.73	31676.82
534.095	31828.23
534.461	31806.76
534.826	31857.83
535.192	31993.2
535.557	32123.82
535.923	32058.96
536.288	32165.4
536.653	32236.36
537.019	32245.62
537.384	32245.17
537.749	32232.51
538.114	32358.16
538.479	32291.5
538.845	32273.87
539.21	32330.14
539.575	32443.13
539.94	32467.54
540.305	32464.15
540.67	32431.6
541.034	32557.25
541.399	32461.21
541.764	32718.83
542.129	32603.8
542.494	32595.67
542.858	32721.77
543.223	32456.24
543.587	32672.05
543.952	32689.45
544.316	32687.19
544.681	32556.12
545.045	32613.07
545.41	32756.12
545.774	32640.41
546.138	32548.89
546.503	32571.26
546.867	32670.24
547.231	32747.75
547.595	32729
547.959	32640.41
548.324	32689.23
548.688	32626.4
549.052	32621.43
549.416	32627.31
549.779	32564.93
550.143	32608.55
550.507	32874.53
550.871	32657.59
551.235	32605.16
551.599	32827.3
551.962	32714.08
552.326	32901.87
552.689	32844.7
553.053	32531.72
553.417	32717.7
553.78	32962.21
554.143	32844.48
554.507	32930.8
554.87	32880.63
555.234	33240.85
555.597	32966.96
555.96	32932.61
556.323	32994.3
556.686	32938.03
557.05	33267.52
557.413	33088.99
557.776	33131.02
558.139	33151.59
558.502	33237.69
558.865	33081.76
559.228	33421.41
559.59	33295.31
559.953	33373.73
560.316	33652.82
560.679	33444.01
561.041	33660.05
561.404	33693.04
561.767	34071.11
562.129	33727.16
562.492	33883.77
562.854	33884.67
563.217	33909.31
563.579	34002.86
563.941	34208.96
564.304	34190.65
564.666	34545.67
565.028	34344.55
565.39	34411.67
565.753	34605.33
566.115	34486.24
566.477	34719.23
566.839	34820.47
567.201	35070.41
567.563	34840.13
567.925	35168.48
568.287	35039.67
568.648	35227.24
569.01	35366.67
569.372	35527.34
569.734	35482.37
570.095	35651.41
570.457	35769.6
570.819	35816.37
571.18	35702.71
571.542	35908.12
571.903	35767.11
572.265	36024.28
572.626	35930.5
572.987	36001.45
573.349	36178.17
573.71	36175.91
574.071	36323.03
574.432	36383.14
574.794	36491.84
575.155	36612.29
575.516	36600.08
575.877	36610.7
576.238	36616.13
576.599	36598.73
576.96	36599.63
577.32	36593.53
577.681	36693.19
578.042	36902.22
578.403	36617.94
578.763	36702.45
579.124	36679.63
579.485	36842.34
579.845	36889.57
580.206	36822
580.566	36635.34
580.927	36769.12
581.287	36776.8
581.648	36604.83
582.008	36884.37
582.368	36864.48
582.728	36800.98
583.089	36754.88
583.449	36798.72
583.809	36787.87
584.169	36877.14
584.529	36647.77
584.889	36864.93
585.249	36675.34
585.609	36387.43
585.969	36591.95
586.329	36544.27
586.688	36556.24
587.048	36402.57
587.408	36406.64
587.768	36476.02
588.127	36302.01
588.487	36290.26
588.846	36517.83
589.206	36270.83
589.565	36087.1
589.925	36405.51
590.284	36250.04
590.643	36168.68
591.003	36098.85
591.362	36280.54
591.721	36219.75
592.08	36124.62
592.44	36229.7
592.799	36111.06
593.158	36006.65
593.517	36048.46
593.876	36125.29
594.235	35935.47
594.593	35904.96
594.952	36047.55
595.311	35748.58
595.67	35841.68
596.029	36037.39
596.387	35823.61
596.746	36135.46
597.104	35874.9
597.463	35932.08
597.822	35928.01
598.18	35903.38
598.538	35770.27
598.897	36113.32
599.255	35818.63
599.613	36271.73
599.972	35775.92
600.33	35863.38
600.688	35805.98
601.046	35978.4
601.404	36137.04
601.762	36069.93
602.12	36165.29
602.478	36084.39
602.836	36195.8
603.194	35852.53
603.552	35953.09
603.91	35961.91
604.268	36062.02
604.625	36029.02
604.983	36013.88
605.341	35985.18
605.698	36112.19
606.056	36259.98
606.413	36142.47
606.771	36259.07
607.128	36162.58
607.485	36182.92
607.843	36140.89
608.2	36356.7
608.557	36513.31
608.914	36401.44
609.272	36559.41
609.629	36667.65
609.986	36784.03
610.343	36534.55
610.7	36891.15
611.057	36798.27
611.414	36626.75
611.771	36889.34
612.127	36879.4
612.484	36849.79
612.841	36941.09
613.198	36823.13
613.554	36852.05
613.911	37146.06
614.267	37033.29
614.624	36983.12
614.98	37079.62
615.337	37415.88
615.693	37375.2
616.05	37272.61
616.406	37545.82
616.762	37419.5
617.118	37264.02
617.475	37374.3
617.831	37582.2
618.187	37578.81
618.543	37656.33
618.899	37879.15
619.255	37865.81
619.611	37708.53
619.967	37843.44
620.323	37864.68
620.678	37739.49
621.034	37701.97
621.39	37809.32
621.746	37721.41
622.101	38203.88
622.457	37869.43
622.812	38071.46
623.168	38200.04
623.523	38039.59
623.879	38309.64
624.234	37912.14
624.589	38062.42
624.945	38109.87
625.3	38139.93
625.655	38179.48
626.01	38130.89
626.365	38193.94
626.72	38077.33
627.075	38093.6
627.43	38019.71
627.785	38111.23
628.14	38111
628.495	38016.54
628.85	38081.4
629.205	37904.91
629.559	38083.66
629.914	38007.96
630.269	37940.84
630.623	37801.41
630.978	37761.63
631.332	37864.68
631.687	37941.29
632.041	37770
632.396	37826.27
632.75	37727.06
633.104	37760.05
633.459	37489.32
633.813	37603.9
634.167	37447.97
634.521	37463.56
634.875	37540.17
635.229	37513.05
635.583	37481.64
635.937	37395.54
636.291	37294.98
636.645	37269.22
636.999	37228.99
637.352	37325.94
637.706	37063.8
638.06	37249.11
638.413	37113.06
638.767	37240.29
639.121	37035.33
639.474	36998.72
639.828	36923.69
640.181	36899.51
640.534	37068.09
640.888	36765.28
641.241	36645.28
641.594	36647.99
641.947	36775.45
642.301	36555.56
642.654	36791.94
643.007	36584.94
643.36	36711.04
643.713	36627.43
644.066	36668.78
644.419	36415
644.771	36118.29
645.124	35769.82
645.477	35798.75
645.83	35576.38
646.182	35725.3
646.535	35700.22
646.888	35804.85
647.24	35565.76
647.593	35810.5
647.945	35638.75
648.298	35533.44
648.65	35536.16
649.002	35266.78
649.355	35152.44
649.707	34974.81
650.059	34985.66
650.411	35517.63
650.763	35746.32
651.115	36316.93
651.467	36186.31
651.819	36100.21
652.171	36090.94
652.523	36021.57
652.875	36104.05
653.227	35969.59
653.578	36158.29
653.93	36152.19
654.282	35982.92
654.633	36094.79
654.985	36092.3
655.337	36063.37
655.688	36137.27
656.039	36369.58
656.391	35785.87
656.742	35950.83
657.094	36023.6
657.445	36004.17
657.796	36090.04
658.147	36019.99
658.498	36120.32
658.849	36255.23
659.2	36099.76
659.551	36048.01
659.902	36114.9
660.253	36054.56
660.604	36229.47
660.955	35948.35
661.306	36238.51
661.656	35908.58
662.007	36064.96
662.358	36224.05
662.708	36202.81
663.059	36139.3
663.409	35894.79
663.76	36187.89
664.11	36346.3
664.461	36182.01
664.811	36324.84
665.161	36142.92
665.511	36152.86
665.862	36218.4
666.212	36335.46
666.562	36255.23
666.912	36257.49
667.262	36229.25
667.612	36342.01
667.962	36297.04
668.312	36323.03
668.662	36382.24
669.011	36408.22
669.361	36299.75
669.711	36473.76
670.06	36271.28
670.41	36175.91
670.76	36164.84
671.109	36328
671.459	36265.4
671.808	36241.45
672.157	36335.68
672.507	36109.93
672.856	36228.34
673.205	36208.23
673.554	36276.02
673.904	35982.47
674.253	36182.01
674.602	36041
674.951	35640.79
675.3	35332.55
675.649	36093.88
675.998	35912.19
676.346	35999.19
676.695	35972.08
677.044	35842.14
677.393	35838.97
677.741	36023.6
678.09	35720.78
678.438	35670.39
678.787	35737.73
679.135	35846.88
679.484	35401.47
679.832	35718.98
680.181	35460.45
680.529	35650.28
680.877	35320.79
681.225	35317.86
681.573	35578.41
681.922	35258.88
682.27	35272.89
682.618	35273.34
682.966	35191.76
683.314	35117.86
683.661	35072.89
684.009	34897.3
684.357	34869.05
684.705	34602.62
685.053	34854.59
685.4	34641.94
685.748	34493.02
686.095	34480.59
686.443	34241.27
686.79	34216.19
687.138	34365.34
687.485	34253.48
687.832	34005.57
688.18	34125.12
688.527	33961.73
688.874	33844.9
689.221	33874.5
689.568	33638.58
689.915	33580.5
690.262	33449.66
690.609	33589.99
690.956	33202.88
691.303	33356.78
691.65	33054.87
691.997	32882.21
692.344	32938.71
692.69	32599.28
693.037	32720.41
693.383	32356.13
693.73	32496.69
694.077	32264.83
694.423	32253.53
694.769	32048.56
695.116	32091.95
695.462	31891.73
695.808	31689.48
696.155	31708.46
696.501	31463.49
696.847	31513.21
697.193	31281.13
697.539	31350.28
697.885	30974.69
698.231	30917.97
698.577	30791.42
698.923	30833
699.269	30593.69
699.614	30461.94
699.96	30535.38
700.306	30300.81
700.651	30122.29
700.997	30112.8
701.342	30037.32
701.688	29881.84
702.033	29741.28
702.379	29691.34
702.724	29517.78
703.069	29619.93
703.415	29251.58
703.76	29225.36
704.105	29230.79
704.45	29022.65
704.795	29033.28
705.14	28884.13
705.485	28810.46
705.83	28637.81
706.175	28823.11
706.52	28516.68
706.865	28464.25
707.209	28408.89
707.554	28367.98
707.899	28362.33
708.243	28156.01
708.588	28051.38
708.932	27884.15
709.277	27846.64
709.621	27787.43
709.966	27593.77
710.31	27697.27
710.654	27474.9
710.998	27541.56
711.342	27481.9
711.687	27292.53
712.031	27312.64
712.375	27102.25
712.719	27123.04
713.063	27004.4
713.407	27176.83
713.75	27081.46
714.094	26993.78
714.438	26954.01
714.782	26924.41
715.125	26917.4
715.469	26911.3
715.812	26835.37
716.156	26594.92
716.499	26616.39
716.843	26803.73
717.186	26521.93
717.53	26757.63
717.873	26610.74
718.216	26580.01
718.559	26454.81
718.902	26169.62
719.246	26435.83
719.589	26383.85
719.932	26297.75
720.275	26289.17
720.617	26317.19
720.96	26326.23
721.303	26249.39
721.646	26273.12
721.989	26089.85
722.331	26249.62
722.674	26225.44
723.016	26224.31
723.359	26180.24
723.701	26204.42
724.044	25919.69
724.386	25971.44
724.729	26102.28
725.071	26010.08
725.413	26039.23
725.755	26012.34
726.097	25887.37
726.439	25872
726.782	25901.38
727.124	26008.04
727.465	25945
727.807	25927.37
728.149	26029.51
728.491	25911.78
728.833	25982.28
729.175	26009.17
729.516	25906.8
729.858	25883.08
730.199	26048.95
730.541	25937.76
730.882	25911.1
731.224	25924.66
731.565	25900.48
731.906	26008.04
732.248	26033.36
732.589	25906.35
732.93	25944.77
733.271	25995.84
733.612	25999.68
733.953	26125.1
734.294	26060.7
734.635	26017.99
734.976	26274.48
735.317	26250.52
735.658	26180.47
735.999	26101.38
736.339	26123.97
736.68	26272.9
737.021	26279.22
737.361	26325.55
737.702	26498.88
738.042	26363.97
738.383	26609.16
738.723	26544.08
739.063	26563.74
739.404	26681.7
739.744	26633.34
740.084	26671.08
740.424	26728.03
740.764	26821.13
741.104	26914.01
741.444	27001.47
741.784	27023.39
742.124	27205.53
742.464	27160.78
742.804	27288.92
743.143	27408.91
743.483	27480.55
743.823	27428.12
744.162	27643.48
744.502	27753.76
744.841	27740.43
745.181	28012.06
745.52	27941.78
745.86	28237.82
746.199	28290.92
746.538	28388.55
746.877	28693.4
747.216	28754.41
747.556	28828.08
747.895	29036.89
748.234	29012.49
748.573	29160.73
748.911	29329.09
749.25	29480.27
749.589	29499.48
749.928	29827.83
750.267	29981.05
750.605	30103.76
750.944	30375.16
751.283	30468.49
751.621	30681.82
751.96	30856.51
752.298	31031.64
752.636	31118.19
752.975	31378.75
753.313	31421.46
753.651	31826.2
753.989	31724.28
754.327	32072.97
754.666	32033.88
755.004	32445.62
755.342	32576.01
755.679	32782.56
756.017	32894.64
756.355	33181.42
756.693	33209.21
757.031	33591.35
757.368	33596.32
757.706	33887.61
758.044	33904.79
758.381	34086.02
758.719	34332.12
759.056	34472
759.394	34601.72
759.731	34667.25
760.068	34900.24
760.405	35133
760.743	35054.81
761.08	35480.11
761.417	35444.86
761.754	35716.04
762.091	35777.51
762.428	35836.49
762.765	35825.19
763.102	36039.65
763.438	36207.78
763.775	36145.41
764.112	36374.78
764.449	36558.95
764.785	36532.97
765.122	36596.24
765.458	36484.83
765.795	36763.69
766.131	36833.3
766.467	36863.8
766.804	36856.57
767.14	36851.83
767.476	36873.07
767.812	37006.85
768.148	37186.73
768.485	37177.92
768.821	37092.5
769.157	37188.32
769.492	37156.23
769.828	37258.6
770.164	37133.4
770.5	37162.1
770.836	37365.26
771.171	37280.29
771.507	37249.56
771.842	37111.48
772.178	37100.41
772.513	37234.87
772.849	37109.22
773.184	37076.91
773.519	37061.99
773.855	37022.22
774.19	37010.02
774.525	36861.54
774.86	37010.92
775.195	36939.96
775.53	36813.18
775.865	36667.88
776.2	36411.16
776.535	36382.24
776.87	36409.58
777.205	36231.73
777.539	36353.31
777.874	36374.33
778.209	36161.45
778.543	36182.24
778.878	36041.45
779.212	36075.35
779.547	35718.52
779.881	35999.42
780.215	35716.26
780.55	35672.42
780.884	35584.52
781.218	35460.68
781.552	35578.41
781.886	35302.94
782.22	35053.23
782.554	35123.29
782.888	34824.54
783.222	34887.81
783.556	34725.1
783.889	34670.64
784.223	34446.02
784.557	34584.99
784.89	34610.3
785.224	34362.18
785.557	34093.03
785.891	34217.77
786.224	34133.26
786.558	34134.16
786.891	33878.12
787.224	33779.14
787.557	33739.59
787.891	33752.02
788.224	33459.15
788.557	33408.3
788.89	33378.25
789.223	33324.01
789.556	33165.6
789.888	33109.78
790.221	32995.66
790.554	32897.81
790.887	32847.19
791.219	32635.89
791.552	32660.3
791.884	32505.05
792.217	32517.03
792.549	32455.11
792.882	32160.43
793.214	32097.6
793.546	32039.3
793.879	31966.31
794.211	31828.68
794.543	31890.15
794.875	31754.79
795.207	31721.34
795.539	31598.86
795.871	31658.07
796.203	31558.63
796.535	31198.87
796.867	31279.77
797.198	31163.16
797.53	31064.41
797.862	30808.14
798.193	31000
798.525	30699.45
798.856	30905.32
799.188	30346.91
799.519	30379
799.85	30240.25
800.182	30395.95
800.513	30442.73
800.844	29946.02
801.175	30142.4
801.506	30079.8
801.837	29855.18
802.168	29889.07
802.499	29935.85
802.83	29696.31
803.161	29668.97
803.491	29655.86
803.822	29603.43
804.153	29405.47
804.483	29297.9
804.814	29158.02
805.145	29326.6
805.475	29165.93
805.805	29143.1
806.136	29133.84
806.466	28947.63
806.796	29114.86
807.126	28814.52
807.457	28694.75
807.787	28887.07
808.117	28730.23
808.447	28590.58
808.777	28714.41
809.107	28445.04
809.436	28437.59
809.766	28364.37
810.096	28484.14
810.426	28288.66
810.755	28317.81
811.085	28153.75
811.414	28249.34
811.744	28033.75
812.073	28056.13
812.403	27888
812.732	27753.99
813.061	27945.17
813.39	27562.13
813.719	27662.24
814.049	27751.95
814.378	27644.84
814.707	27421.57
815.036	27586.76
815.365	27257.5
815.693	27208.69
816.022	27232.87
816.351	27251.85
816.68	26930.73
817.008	27059.99
817.337	26853.45
817.665	26990.39
817.994	26985.65
818.322	27038.98
818.651	26842.37
818.979	26847.12
819.307	26866.78
819.636	26682.6
819.964	26604.19
820.292	26651.87
820.62	26645.32
820.948	26822.49
821.276	26823.62
821.604	26575.71
821.932	26761.7
822.259	26613
822.587	26672.43
822.915	26584.3
823.243	26638.08
823.57	26500.91
823.898	26734.35
824.225	26505.43
824.553	26446.68
824.88	26672.89
825.207	26729.16
825.535	26598.99
825.862	26630.63
826.189	26596.73
826.516	26835.14
826.843	26772.54
827.17	26872.88
827.497	26761.25
827.824	26822.71
828.151	26887.57
828.478	26630.4
828.805	26827.01
829.131	26791.98
829.458	26782.26
829.785	26567.13
830.111	26709.27
830.438	26801.47
830.764	26787.46
831.09	26841.92
831.417	26666.78
831.743	26842.83
832.069	26695.94
832.395	26736.61
832.722	26684.64
833.048	26595.37
833.374	26734.35
833.7	26663.17
834.026	26746.56
834.351	26701.36
834.677	26718.31
835.003	26677.41
835.329	26694.81
835.654	26683.06
835.98	26528.94
836.306	26638.76
836.631	26476.28
836.956	26674.69
837.282	26727.12
837.607	26480.57
837.932	26491.42
838.258	26504.08
838.583	26329.84
838.908	26418.66
839.233	26377.75
839.558	26204.88
839.883	26173.46
840.208	26119
840.533	26225.44
840.858	26148.83
841.182	26205.33
841.507	26074.03
841.832	26020.7
842.156	26006.24
842.481	25916.07
842.805	25728.28
843.13	25753.81
843.454	25744.1
843.778	25672.01
844.103	25624.55
844.427	25634.04
844.751	25582.97
845.075	25552.24
845.399	25374.16
845.723	25202.42
846.047	25292.58
846.371	25046.04
846.695	25018.47
847.019	25075.41
847.343	24899.15
847.666	24751.81
847.99	24749.1
848.313	24589.33
848.637	24540.06
848.96	24489.21
849.284	24405.15
849.607	24209.45
849.931	24106.63
850.254	24040.87
850.577	23718.16
850.9	23801.32
851.223	23739.63
851.546	23728.56
851.869	23547.54
852.192	23741.89
852.515	23477.94
852.838	23273.65
853.161	23336.7
853.483	23059.87
853.806	23165.63
854.129	23150.04
854.451	23002.02
854.774	22857.85
855.096	22849.71
855.419	22763.61
855.741	22628.02
856.063	22554.12
856.385	22490.62
856.708	22492.43
857.03	22397.07
857.352	22407.24
857.674	22202.95
857.996	22226.22
858.318	22068.04
858.64	22077.75
858.961	22034.59
859.283	22000.47
859.605	21766.12
859.926	21804.31
860.248	21768.38
860.57	21762.28
860.891	21679.12
861.212	21620.36
861.534	21559.8
861.855	21468.96
862.176	21527.94
862.498	21427.15
862.819	21507.15
863.14	21446.36
863.461	21287.27
863.782	21278.23
864.103	21309.19
864.424	21252.69
864.745	21264.89
865.065	21158.91
865.386	21001.85
865.707	21059.47
866.027	20991.68
866.348	20893.83
866.668	20972.47
866.989	20905.13
867.309	20722.53
867.63	20621.29
867.95	20800.05
868.27	20665.13
868.59	20845.24
868.91	20626.49
869.23	20574.74
869.55	20534.52
869.87	20567.06
870.19	20504.23
870.51	20558.02
870.83	20497
871.15	20368.65
871.469	20317.12
871.789	20345.59
872.109	20324.35
872.428	20273.05
872.748	20348.31
873.067	20287.97
873.386	20254.52
873.706	20257.91
874.025	20093.4
874.344	20016.34
874.663	20068.77
874.982	19961.88
875.301	20027.64
875.62	19961.88
875.939	19919.17
876.258	19949.9
876.577	19802.33
876.896	19826.29
877.214	19810.24
877.533	19870.81
877.852	19705.84
878.17	19817.93
878.489	19683.69
878.807	19675.56
879.125	19594.65
879.444	19697.02
879.762	19595.11
880.08	19625.61
880.398	19523.24
880.716	19505.62
881.034	19535.67
881.352	19380.42
881.67	19326.86
881.988	19253.42
882.306	19339.29
882.624	19274.44
882.941	19198.05
883.259	19177.04
883.577	19027.89
883.894	19026.31
884.212	19047.32
884.529	19023.14
884.846	18919.19
885.164	18824.51
885.481	18862.02
885.798	18770.27
886.115	18758.52
886.432	18810.27
886.75	18738.18
887.067	18690.5
887.383	18535.47
887.7	18558.75
888.017	18368.02
888.334	18406.44
888.651	18341.58
888.967	18333.9
889.284	18333.22
889.6	18244.63
889.917	18253.9
890.233	18219.32
890.55	18120.57
890.866	18067.46
891.182	18006.45
891.498	17984.08
891.815	17733.46
892.131	17794.93
892.447	17818.2
892.763	17736.4
893.079	17735.27
893.395	17622.05
893.71	17623.63
894.026	17519
894.342	17436.07
894.657	17296.41
894.973	17370.76
895.289	17346.35
895.604	17282.17
895.92	17153.36
896.235	17121.5
896.55	17189.52
896.865	17047.38
897.181	17036.53
897.496	16863.2
897.811	16881.73
898.126	16740.04
898.441	16748.63
898.756	16748.63
899.071	16669.53
899.386	16700.72
899.7	16509.31
900.015	16459.37
900.33	16335.98
900.644	16222.31
900.959	16183.9
901.273	16159.49
901.588	16092.83
901.902	16097.35
902.216	15916.78
902.531	15928.99
902.845	15840.18
903.159	15762.21
903.473	15770.12
903.787	15674.53
904.101	15638.6
904.415	15631.82
904.729	15635.21
905.042	15438.83
905.356	15419.17
905.67	15383.47
905.984	15358.83
906.297	15214.66
906.611	15169.69
906.924	15071.38
907.237	15072.29
907.551	15049.24
907.864	15002.91
908.177	14871.84
908.491	14922.91
908.804	14822.58
909.117	14692.18
909.43	14664.84
909.743	14566.99
910.056	14570.15
910.368	14519.76
910.681	14450.16
910.994	14392.31
911.307	14383.94
911.619	14155.25
911.932	14283.61
912.244	14044.29
912.557	14076.16
912.869	13964.97
913.181	13969.72
913.494	13938.31
913.806	13833.45
914.118	13763.85
914.43	13729.27
914.742	13676.39
915.054	13579.22
915.366	13549.39
915.678	13470.97
915.99	13449.51
916.302	13386.46
916.613	13349.17
916.925	13445.21
917.236	13269.85
917.548	13128.16
917.859	13199.57
918.171	13117.76
918.482	12966.81
918.794	12975.39
919.105	12965.9
919.416	12836.87
919.727	12876.64
920.038	12715.29
920.349	12688.17
920.66	12637.1
920.971	12610.21
921.282	12587.61
921.593	12566.82
921.903	12414.96
922.214	12416.09
922.525	12269.42
922.835	12233.04
923.146	12188.97
923.456	12133.38
923.767	12125.7
924.077	12042.31
924.387	12005.25
924.697	11859.94
925.008	11854.97
925.318	11882.31
925.628	11893.16
925.938	11864.69
926.248	11677.35
926.558	11590.57
926.867	11650.23
927.177	11538.82
927.487	11433.06
927.796	11371.82
928.106	11433.74
928.416	11404.81
928.725	11362.55
929.034	11269.22
929.344	11301.54
929.653	11225.38
929.962	11112.39
930.271	11039.4
930.581	10982.23
930.89	11018.38
931.199	10917.59
931.508	10854.09
931.817	10833.08
932.125	10836.92
932.434	10802.34
932.743	10672.63
933.051	10617.94
933.36	10620.65
933.669	10507.66
933.977	10499.53
934.286	10498.62
934.594	10482.13
934.902	10368.46
935.21	10331.4
935.519	10304.28
935.827	10269.7
936.135	10263.15
936.443	10122.13
936.751	10097.95
937.059	10054.57
937.367	10005.75
937.674	10004.85
937.982	9905.64
938.29	9935.02
938.597	9847.57
938.905	9787.68
939.213	9728.47
939.52	9767.12
939.827	9766.89
940.135	9678.53
940.442	9638.31
940.749	9568.7
941.056	9559.21
941.363	9403.51
941.67	9407.8
941.977	9428.59
942.284	9275.6
942.591	9278.32
942.898	9295.26
943.205	9258.65
943.511	9203.06
943.818	9154.93
944.125	9099.34
944.431	9091.88
944.738	9084.42
945.044	9045.55
945.35	8941.83
945.657	8922.84
945.963	8911.09
946.269	8799.46
946.575	8830.19
946.881	8762.17
947.187	8696.86
947.493	8699.35
947.799	8691.44
948.105	8671.78
948.41	8541.84
948.716	8482.63
949.022	8469.07
949.327	8417.77
949.633	8350.2
949.938	8396.53
950.244	8317.89
950.549	8238.34
950.854	8261.84
951.16	8191.56
951.465	8163.09
951.77	8157.21
952.075	8112.92
952.38	7979.82
952.685	8056.2
952.99	8008.52
953.294	8014.85
953.599	7933.27
953.904	7832.25
954.209	7904.34
954.513	7841.52
954.818	7775.53
955.122	7757.45
955.426	7761.29
955.731	7733.05
956.035	7596.55
956.339	7624.35
956.643	7592.03
956.948	7465.26
957.252	7470.45
957.556	7411.02
957.86	7399.95
958.163	7386.39
958.467	7321.3
958.771	7315.66
959.075	7305.94
959.378	7253.96
959.682	7243.79
959.985	7217.35
960.289	7102.33
960.592	7091.93
960.896	7126.96
961.199	7038.6
961.502	7063.23
961.805	7025.95
962.108	6941.65
962.411	6987.08
962.714	6885.84
963.017	6878.15
963.32	6925.61
963.623	6851.26
963.926	6764.94
964.228	6795.22
964.531	6753.18
964.833	6686.97
965.136	6646.52
965.438	6667.76
965.741	6558.16
966.043	6541.89
966.345	6559.52
966.648	6556.35
966.95	6559.74
967.252	6400.42
967.554	6507.09
967.856	6454.21
968.158	6345.96
968.46	6353.65
968.761	6271.39
969.063	6335.12
969.365	6275.23
969.666	6230.71
969.968	6171.73
970.269	6167.44
970.571	6204.05
970.872	6097.38
971.174	6097.61
971.475	5987.55
971.776	6025.75
972.077	6008.12
972.378	5967.44
972.679	5950.49
972.98	5909.82
973.281	5899.65
973.582	5828.01
973.883	5847.67
974.183	5837.28
974.484	5744.4
974.785	5769.26
975.085	5768.8
975.386	5778.75
975.686	5711.63
975.986	5626.43
976.287	5637.06
976.587	5579.88
976.887	5578.53
977.187	5579.66
977.487	5527.91
977.787	5529.26
978.087	5481.58
978.387	5454.24
978.687	5430.51
978.987	5418.98
979.286	5392.77
979.586	5394.58
979.885	5326.55
980.185	5282.71
980.484	5270.29
980.784	5237.97
981.083	5246.56
981.382	5202.04
981.682	5239.1
981.981	5183.73
982.28	5204.3
982.579	5064.41
982.878	5115.26
983.177	5070.97
983.475	5054.92
983.774	5007.47
984.073	5010.18
984.372	4942.38
984.67	4961.37
984.969	4900.35
985.267	4916.4
985.566	4870.3
985.864	4825.78
986.162	4820.58
986.461	4762.28
986.759	4761.37
987.057	4777.42
987.355	4717.31
987.653	4752.11
987.951	4706.91
988.249	4656.52
988.547	4597.99
988.844	4604.31
989.142	4644.31
989.44	4564.32
989.737	4496.75
990.035	4517.54
990.332	4579.68
990.63	4470.76
990.927	4475.05
991.224	4445.22
991.521	4447.03
991.819	4373.13
992.116	4403.87
992.413	4361.61
992.71	4327.26
993.006	4287.94
993.303	4312.12
993.6	4245.68
993.897	4261.05
994.193	4234.83
994.49	4169.98
994.787	4181.05
995.083	4189.41
995.379	4124.33
995.676	4119.81
995.972	4100.6
996.268	4061.05
996.565	4044.55
996.861	4000.04
997.157	3985.35
997.453	3989.19
997.749	3986.25
998.044	3930.21
998.34	3986.25
998.636	3863.77
998.932	3876.65
999.227	3871.9
999.523	3840.27
999.818	3805.92
1000.114	3801.4
1000.409	3796.43
1000.704	3735.64
1001	3705.58
1001.295	3748.74
1001.59	3682.98
1001.885	3694.06
1002.18	3636.88
1002.475	3634.62
1002.77	3609.54
1003.065	3591.23
1003.359	3622.42
1003.654	3537
1003.949	3528.41
1004.243	3505.36
1004.538	3454.97
1004.832	3453.38
1005.127	3428.75
1005.421	3436.21
1005.715	3381.3
1006.009	3352.82
1006.304	3354.86
1006.598	3319.38
1006.892	3373.16
1007.186	3284.8
1007.48	3281.41
1007.773	3271.69
1008.067	3239.15
1008.361	3184.46
1008.655	3195.31
1008.948	3167.97
1009.242	3167.97
1009.535	3117.8
1009.829	3156.22
1010.122	3138.36
1010.415	3064.92
1010.708	3092.04
1011.001	3074.18
1011.295	3013.4
1011.588	2995.09
1011.881	2973.4
1012.173	3002.77
1012.466	2951.02
1012.759	2971.81
1013.052	2891.82
1013.344	2912.16
1013.637	2855.66
1013.93	2889.56
1014.222	2817.47
1014.514	2834.42
1014.807	2805.72
1015.099	2774.76
1015.391	2787.64
1015.683	2738.83
1015.976	2696.79
1016.268	2734.98
1016.56	2684.14
1016.851	2681.2
1017.143	2684.36
1017.435	2632.39
1017.727	2619.73
1018.018	2570.7
1018.31	2617.02
1018.602	2557.14
1018.893	2531.83
1019.185	2539.96
1019.476	2515.56
1019.767	2509.45
1020.058	2469.68
1020.35	2442.11
1020.641	2456.8
1020.932	2430.36
1021.223	2383.58
1021.514	2390.81
1021.804	2331.15
1022.095	2391.04
1022.386	2331.15
1022.677	2256.13
1022.967	2287.54
1023.258	2278.73
1023.548	2288.89
1023.839	2231.72
1024.129	2223.81
1024.419	2219.97
1024.709	2196.69
1025	2212.74
1025.29	2186.3
1025.58	2173.42
1025.87	2129.35
1026.16	2106.98
1026.449	2124.15
1026.739	2067.21
1027.029	2075.34
1027.319	2073.31
1027.608	2078.05
1027.898	2064.27
1028.187	2031.95
1028.477	2016.59
1028.766	2011.84
1029.055	1978.39
1029.344	1984.72
1029.634	1954.44
1029.923	1931.16
1030.212	1935.23
1030.501	1910.83
1030.79	1895.01
1031.078	1897.27
1031.367	1873.31
1031.656	1872.86
1031.945	1845.29
1032.233	1861.56
1032.522	1815.01
1032.81	1807.1
1033.099	1789.25
1033.387	1765.52
1033.675	1753.09
1033.963	1754.22
1034.251	1722.36
1034.54	1721.45
1034.828	1694.11
1035.116	1695.92
1035.403	1699.31
1035.691	1649.14
1035.979	1654.79
1036.267	1659.53
1036.554	1658.18
1036.842	1598.97
1037.129	1620.89
1037.417	1583.83
1037.704	1594.68
1037.992	1591.51
1038.279	1559.87
1038.566	1540.44
1038.853	1540.44
1039.14	1540.44
