Data from 15-6437_FLMS001491_010.txt Node
Date: Thu Apr 19 15:40:36 BST 2018
User: hsy
Spectrometer: FLMS00149
Trigger mode: 0
Integration Time (sec): 1.000000E-2
Scans to average: 10
Electric dark correction enabled: true
Nonlinearity correction enabled: false
Boxcar width: 0
XAxis mode: Wavelengths
Number of Pixels in Spectrum: 2048
>>>>>Begin Spectral Data<<<<<
341.393	-1.95
341.776	-1.95
342.16	-1.95
342.543	-53.7
342.927	-65.9
343.31	-54.6
343.693	-60.48
344.077	-74.26
344.46	-68.84
344.843	-43.3
345.226	-45.79
345.61	-33.36
345.993	-21.61
346.376	-11.21
346.759	4.38
347.142	38.28
347.525	40.54
347.908	67.65
348.291	83.47
348.674	93.64
349.057	85.51
349.44	132.51
349.823	132.28
350.206	163.02
350.588	228.1
350.971	263.81
351.354	278.5
351.737	273.07
352.119	283.92
352.502	285.05
352.884	320.3
353.267	327.31
353.65	327.76
354.032	350.13
354.414	365.72
354.797	340.64
355.179	374.99
355.562	351.49
355.944	391.26
356.326	379.74
356.709	363.01
357.091	379.96
357.473	374.99
357.855	365.95
358.238	376.35
358.62	351.04
359.002	391.71
359.384	382.9
359.766	383.58
360.148	392.62
360.53	390.81
360.912	406.63
361.294	378.15
361.676	394.2
362.057	389
362.439	397.81
362.821	398.27
363.203	352.39
363.584	386.06
363.966	365.95
364.348	365.27
364.729	371.83
365.111	381.77
365.493	377.93
365.874	384.93
366.256	374.09
366.637	368.44
367.019	364.82
367.4	374.76
367.781	391.26
368.163	366.18
368.544	370.24
368.925	371.37
369.306	371.15
369.688	353.07
370.069	360.98
370.45	389.23
370.831	400.3
371.212	362.11
371.593	373.86
371.974	382.45
372.355	372.73
372.736	385.39
373.117	373.63
373.498	407.31
373.879	392.84
374.26	366.18
374.641	370.7
375.021	359.85
375.402	394.42
375.783	407.98
376.163	412.96
376.544	411.37
376.925	392.84
377.305	395.1
377.686	422.67
378.066	407.31
378.447	413.63
378.827	421.77
379.208	408.89
379.588	428.77
379.968	412.28
380.349	435.1
380.729	422.45
381.109	426.97
381.489	416.57
381.87	418.38
382.25	420.64
382.63	446.85
383.01	429.9
383.39	460.19
383.77	456.8
384.15	459.51
384.53	451.37
384.91	451.82
385.29	445.04
385.67	473.52
386.049	461.09
386.429	461.54
386.809	426.74
387.189	464.71
387.568	463.12
387.948	468.55
388.328	463.35
388.707	474.65
389.087	479.17
389.466	489.34
389.846	466.06
390.225	467.87
390.605	495.44
390.984	474.65
391.363	508.77
391.743	497.02
392.122	480.98
392.501	497.47
392.881	496.57
393.26	534.31
393.639	527.98
394.018	499.05
394.397	542.22
394.776	505.61
395.155	517.81
395.534	536.12
395.913	546.29
396.292	533.18
396.671	547.41
397.05	531.37
397.429	533.18
397.808	541.77
398.186	554.65
398.565	567.75
398.944	583.8
399.323	566.85
399.701	562.56
400.08	569.34
400.458	581.76
400.837	579.96
401.215	589.9
401.594	578.6
401.972	565.27
402.351	599.62
402.729	615.44
403.107	624.02
403.486	610.46
403.864	608.66
404.242	639.62
404.62	637.81
404.999	624.25
405.377	633.74
405.755	647.75
406.133	636.23
406.511	660.63
406.889	670.58
407.267	654.98
407.645	681.2
408.023	690.01
408.401	697.47
408.779	702.89
409.156	704.47
409.534	716.22
409.912	711.93
410.29	740.63
410.667	728.43
411.045	736.11
411.422	746.73
411.8	753.51
412.178	766.17
412.555	784.02
412.933	787.18
413.31	797.13
413.687	814.98
414.065	794.19
414.442	808.43
414.819	823.34
415.197	839.16
415.574	810.23
415.951	841.42
416.328	820.4
416.705	828.99
417.082	863.34
417.46	880.97
417.837	859.95
418.214	871.02
418.591	871.93
418.967	894.98
419.344	892.04
419.721	870.8
420.098	913.73
420.475	887.97
420.852	949.44
421.228	959.38
421.605	941.3
421.982	982.43
422.358	967.97
422.735	937.01
423.111	969.32
423.488	985.6
423.864	996.22
424.241	992.15
424.617	1005.93
424.994	993.28
425.37	1014.07
425.746	1007.97
426.123	1044.35
426.499	1016.56
426.875	1054.07
427.251	1052.94
427.627	1073.73
428.003	1087.29
428.379	1137.46
428.756	1110.56
429.132	1126.83
429.507	1133.61
429.883	1177.45
430.259	1165.25
430.635	1186.49
431.011	1196.21
431.387	1193.73
431.763	1248.41
432.138	1227.17
432.514	1235.98
432.89	1231.69
433.265	1280.73
433.641	1296.55
434.016	1302.42
434.392	1314.85
434.767	1346.72
435.143	1322.08
435.518	1369.54
435.894	1377.9
436.269	1390.56
436.644	1393.49
437.02	1424
437.395	1404.57
437.77	1430.78
438.145	1451.8
438.52	1470.78
438.895	1486.6
439.271	1489.09
439.646	1502.42
440.021	1546.26
440.395	1525.69
440.77	1497.67
441.145	1530.44
441.52	1565.02
441.895	1547.61
442.27	1541.06
442.645	1563.21
443.019	1586.03
443.394	1616.54
443.769	1636.65
444.143	1616.31
444.518	1635.52
444.892	1645.69
445.267	1651.57
445.641	1666.48
446.016	1671.23
446.39	1680.27
446.764	1664.45
447.139	1673.49
447.513	1687.5
447.887	1714.39
448.262	1742.41
448.636	1733.37
449.01	1753.48
449.384	1772.69
449.758	1780.83
450.132	1806.36
450.506	1838.45
450.88	1859.47
451.254	1842.3
451.628	1867.15
452.002	1870.54
452.376	1899.24
452.75	1919.13
453.123	1911.45
453.497	1967.49
453.871	1989.86
454.244	2019.69
454.618	2049.07
454.992	2068.96
455.365	2083.19
455.739	2103.53
456.112	2125.45
456.486	2155.73
456.859	2158.9
457.232	2200.48
457.606	2254.04
457.979	2257.65
458.352	2267.6
458.725	2333.81
459.099	2349.85
459.472	2354.6
459.845	2414.71
460.218	2445.9
460.591	2441.15
460.964	2474.14
461.337	2538.1
461.71	2597.53
462.083	2606.34
462.456	2582.84
462.829	2579.23
463.201	2665.78
463.574	2664.65
463.947	2722.5
464.32	2747.58
464.692	2783.51
465.065	2766.34
465.438	2836.62
465.81	2900.12
466.183	2877.98
466.555	2948.03
466.928	3010.85
467.3	2961.81
467.672	3024.86
468.045	3121.36
468.417	3106.67
468.789	3151.41
469.161	3132.88
469.534	3214.92
469.906	3214.46
470.278	3285.2
470.65	3307.57
471.022	3427.57
471.394	3442.48
471.766	3417.4
472.138	3487.9
472.51	3554.79
472.882	3642.02
473.253	3665.53
473.625	3716.6
473.997	3808.8
474.369	3830.04
474.74	3866.42
475.112	3972.41
475.484	3986.65
475.855	4065.06
476.227	4110.94
476.598	4243.36
476.97	4274.77
477.341	4313.42
477.713	4420.99
478.084	4492.85
478.455	4615.56
478.827	4650.36
479.198	4743.24
479.569	4834.31
479.94	4992.04
480.311	5016.68
480.682	5140.51
481.053	5266.39
481.424	5321.53
481.795	5381.64
482.166	5516.32
482.537	5586.38
482.908	5714.51
483.279	5783.44
483.65	5931
484.021	6102.3
484.391	6153.82
484.762	6303.2
485.133	6306.36
485.503	6440.14
485.874	6612.79
486.244	6728.27
486.615	6902.28
486.985	7006.68
487.356	7163.74
487.726	7243.74
488.097	7493.67
488.467	7498.64
488.837	7713.1
489.207	7892.31
489.578	8101.79
489.948	8216.59
490.318	8371.39
490.688	8529.13
491.058	8648.67
491.428	8849.12
491.798	8979.06
492.168	9253.63
492.538	9431.48
492.908	9615.43
493.278	9833.72
493.648	9896.55
494.017	10118.69
494.387	10294.73
494.757	10419.02
495.126	10690.2
495.496	10870.99
495.866	11030.98
496.235	11275.04
496.605	11458.77
496.974	11660.57
497.344	11987.11
497.713	12068.69
498.082	12389.82
498.452	12549.36
498.821	12785.51
499.19	12938.5
499.559	13112.51
499.928	13449.45
500.298	13623
500.667	13840.4
501.036	13988.42
501.405	14330.33
501.774	14506.37
502.143	14744.33
502.512	14989.52
502.88	15295.05
503.249	15410.08
503.618	15723.06
503.987	15986.56
504.356	16180.45
504.724	16447.34
505.093	16594
505.462	16907.44
505.83	17171.38
506.199	17508.1
506.567	17793.06
506.936	17996.45
507.304	18209.78
507.672	18482.31
508.041	18726.37
508.409	18967.95
508.777	19202.52
509.145	19544.2
509.514	19594.6
509.882	20006.56
510.25	20139.44
510.618	20332.88
510.986	20619.2
511.354	20786.43
511.722	21123.6
512.09	21397.04
512.458	21466.86
512.826	21692.4
513.193	21980.98
513.561	22204.02
513.929	22310.46
514.297	22566.05
514.664	22869.31
515.032	23046.48
515.4	23254.39
515.767	23573.7
516.135	23696.18
516.502	23708.16
516.869	24161.48
517.237	24319.22
517.604	24184.08
517.972	24603.73
518.339	24626.33
518.706	24932.54
519.073	25083.49
519.44	25188.35
519.808	25515.57
520.175	25475.12
520.542	25822.91
520.909	25955.79
521.276	26051.38
521.643	26430.58
522.009	26520.29
522.376	26685.71
522.743	26832.83
523.11	27269.65
523.477	27417.22
523.843	27572.92
524.21	27860.82
524.577	28024.21
524.943	28140.59
525.31	28238.66
525.676	28650.63
526.043	28786.9
526.409	28942.37
526.776	29174.46
527.142	29247
527.508	29392.08
527.874	29608.8
528.241	29735.12
528.607	29789.13
528.973	30122.23
529.339	30041.78
529.705	30326.29
530.071	30409.68
530.437	30639.51
530.803	30732.84
531.169	30721.54
531.535	30869.1
531.901	30922.89
532.267	31167.63
532.632	31252.6
532.998	31280.62
533.364	31437
533.73	31443.78
534.095	31724.9
534.461	31570.33
534.826	31730.78
535.192	31813.94
535.557	31878.12
535.923	31972.13
536.288	32054.84
536.653	32105.68
537.019	32180.48
537.384	32016.64
537.749	32187.49
538.114	32230.65
538.479	32211.89
538.845	32277.43
539.21	32232.91
539.575	32240.59
539.94	32122.4
540.305	32365.79
540.67	32315.39
541.034	32194.72
541.399	32280.37
541.764	32267.26
542.129	32311.1
542.494	32406.46
542.858	32430.42
543.223	32301.16
543.587	32426.8
543.952	32364.88
544.316	32389.29
544.681	32310.87
545.045	32507.7
545.41	32481.72
545.774	32472.45
546.138	32387.48
546.503	32478.33
546.867	32321.95
547.231	32454.82
547.595	32480.36
547.959	32522.17
548.324	32486.91
548.688	32493.47
549.052	32496.41
549.416	32475.62
549.779	32395.84
550.143	32355.17
550.507	32540.7
550.871	32484.65
551.235	32407.82
551.599	32691.2
551.962	32590.87
552.326	32634.25
552.689	32584.31
553.053	32277.65
553.417	32389.06
553.78	32799.9
554.143	32608.04
554.507	32805.78
554.87	32715.16
555.234	32857.53
555.597	32600.13
555.96	32721.94
556.323	32740.01
556.686	32786.12
557.05	32912.21
557.413	32960.57
557.776	32844.87
558.139	33017.75
558.502	33030.18
558.865	32875.83
559.228	33117.18
559.59	33138.65
559.953	33137.74
560.316	33381.81
560.679	33203.51
561.041	33332.99
561.404	33392.43
561.767	33539.99
562.129	33378.64
562.492	33728.46
562.854	33721.01
563.217	33730.72
563.579	33806.65
563.941	33828.8
564.304	34074.67
564.666	34150.83
565.028	34030.38
565.39	34123.03
565.753	34355.79
566.115	34317.6
566.477	34402.34
566.839	34465.39
567.201	34751.26
567.563	34611.6
567.925	34701.77
568.287	34834.2
568.648	34782.22
569.01	34981.31
569.372	35076
569.734	35064.25
570.095	35219.95
570.457	35417.23
570.819	35420.85
571.18	35192.83
571.542	35447.74
571.903	35457.46
572.265	35440.51
572.626	35734.06
572.987	35665.14
573.349	35793.95
573.71	35858.8
574.071	35889.99
574.432	36109.87
574.794	36189.64
575.155	36159.36
575.516	36113.94
575.877	36191.22
576.238	36251.11
576.599	36238.45
576.96	36174.27
577.32	36432.12
577.681	36373.82
578.042	36560.93
578.403	36329.98
578.763	36347.6
579.124	36479.58
579.485	36624.88
579.845	36540.14
580.206	36328.62
580.566	36435.06
580.927	36393.93
581.287	36519.35
581.648	36406.81
582.008	36447.26
582.368	36331.33
582.728	36461.95
583.089	36355.74
583.449	36335.85
583.809	36396.64
584.169	36474.15
584.529	36240.71
584.889	36507.37
585.249	36245.23
585.609	36038.69
585.969	36243.88
586.329	35995.07
586.688	36202.52
587.048	36077.33
587.408	36151.22
587.768	36103.99
588.127	36003.21
588.487	36123.88
588.846	36130.43
589.206	35832.36
589.565	35901.29
589.925	36007.27
590.284	35975.64
590.643	35878.01
591.003	35881.85
591.362	35975.18
591.721	35894.06
592.08	35921.85
592.44	35911.68
592.799	35790.78
593.158	35908.07
593.517	35700.39
593.876	35745.59
594.235	35657.23
594.593	35629.2
594.952	35655.42
595.311	35586.72
595.67	35521.86
596.029	35761.86
596.387	35722.76
596.746	35911.68
597.104	35595.53
597.463	35646.83
597.822	35833.49
598.18	35616.32
598.538	35559.15
598.897	35751.24
599.255	35499.72
599.613	35841.18
599.972	35592.14
600.33	35701.07
600.688	35703.78
601.046	35637.79
601.404	35819.93
601.762	35727.96
602.12	35769.09
602.478	35815.41
602.836	35777
603.194	35563.44
603.552	35558.25
603.91	35605.25
604.268	35803.44
604.625	35710.11
604.983	36024.9
605.341	35656.1
605.698	35903.32
606.056	35934.96
606.413	35865.36
606.771	35981.96
607.128	36122.52
607.485	35985.58
607.843	35940.38
608.2	36056.76
608.557	36250.88
608.914	36160.94
609.272	36222.41
609.629	36350.09
609.986	36483.87
610.343	36340.37
610.7	36447.71
611.057	36375.17
611.414	36341.28
611.771	36550.99
612.127	36675.73
612.484	36588.5
612.841	36778.55
613.198	36720.48
613.554	36595.51
613.911	36997.08
614.267	36847.03
614.624	36851.55
614.98	36914.82
615.337	37129.05
615.693	37048.6
616.05	37034.82
616.406	37130.41
616.762	37123.18
617.118	37107.58
617.475	37113.46
617.831	37307.35
618.187	37382.15
618.543	37300.8
618.899	37492.21
619.255	37380.34
619.611	37542.37
619.967	37660.11
620.323	37671.86
620.678	37533.79
621.034	37551.64
621.39	37465.09
621.746	37597.51
622.101	37872.54
622.457	37594.8
622.812	37774.91
623.168	37690.85
623.523	37800.22
623.879	37871.41
624.234	37650.62
624.589	37759.54
624.945	37906.88
625.3	37823.05
625.655	37834.34
626.01	37865.98
626.365	37830.73
626.72	37806.1
627.075	37702.6
627.43	37804.51
627.785	37828.92
628.14	37831.86
628.495	37678.64
628.85	37747.34
629.205	37751.63
629.559	37774.91
629.914	37711.18
630.269	37860.33
630.623	37494.92
630.978	37491.98
631.332	37687
631.687	37682.48
632.041	37594.12
632.396	37523.62
632.75	37536.5
633.104	37548.7
633.459	37239.56
633.813	37431.19
634.167	37409.72
634.521	37394.13
634.875	37394.58
635.229	37207.69
635.583	37081.37
635.937	37199.56
636.291	37199.33
636.645	37246.34
636.999	36873.92
637.352	37054.93
637.706	36839.34
638.06	36958.44
638.413	36888.38
638.767	36861.04
639.121	36790.3
639.474	36475.06
639.828	36648.61
640.181	36607.26
640.534	36699.68
640.888	36487.94
641.241	36364.1
641.594	36506.24
641.947	36445
642.301	36331.78
642.654	36486.36
643.007	36278
643.36	36391.9
643.713	36312.58
644.066	36487.03
644.419	36187.61
644.771	35926.15
645.124	35486.38
645.477	35513.5
645.83	35360.96
646.182	35562.77
646.535	35332.94
646.888	35523.67
647.24	35384.24
647.593	35732.48
647.945	35431.47
648.298	35374.07
648.65	35215.66
649.002	34917.13
649.355	34996.23
649.707	34835.78
650.059	34893.4
650.411	35415.2
650.763	35520.28
651.115	36129.76
651.467	35823.55
651.819	35880.95
652.171	35795.75
652.523	35707.62
652.875	35739.71
653.227	35692.03
653.578	35920.27
653.93	35816.09
654.282	35704.23
654.633	35527.29
654.985	35832.36
655.337	35772.25
655.688	35738.35
656.039	35805.47
656.391	35456.1
656.742	35687.73
657.094	35806.6
657.445	35616.55
657.796	35795.53
658.147	35604.12
658.498	35701.97
658.849	35942.87
659.2	35739.48
659.551	35615.42
659.902	35983.77
660.253	35715.08
660.604	36038.69
660.955	35886.82
661.306	35963.66
661.656	35893.38
662.007	35812.93
662.358	35973.15
662.708	36032.13
663.059	36008.86
663.409	35775.42
663.76	36040.95
664.11	36163.43
664.461	36126.59
664.811	36048.18
665.161	36106.71
665.511	35949.65
665.862	36071
666.212	36173.6
666.562	36179.92
666.912	36130.43
667.262	35970.44
667.612	36084.79
667.962	36152.35
668.312	36058.12
668.662	36194.16
669.011	36191.22
669.361	36097.89
669.711	36126.82
670.06	36134.28
670.41	35948.07
670.76	35978.57
671.109	36147.16
671.459	36107.38
671.808	36006.37
672.157	36075.07
672.507	35892.47
672.856	35818.13
673.205	35808.63
673.554	35959.14
673.904	35840.95
674.253	36111.9
674.602	35832.14
674.951	35446.61
675.3	35090.46
675.649	35795.08
675.998	35741.52
676.346	35733.38
676.695	35772.25
677.044	35549.88
677.393	35668.75
677.741	35741.97
678.09	35550.56
678.438	35510.11
678.787	35540.62
679.135	35674.85
679.484	35221.98
679.832	35531.58
680.181	35347.63
680.529	35294.75
680.877	35119.84
681.225	35153.28
681.573	35438.93
681.922	35017.02
682.27	35075.77
682.618	35023.57
682.966	34949.67
683.314	34873.74
683.661	34803.92
684.009	34707.65
684.357	34623.58
684.705	34599.85
685.053	34486.41
685.4	34471.49
685.748	34304.49
686.095	34264.95
686.443	34194.21
686.79	34205.29
687.138	34189.24
687.485	34088.23
687.832	33957.61
688.18	33948.12
688.527	33852.3
688.874	33761
689.221	33537.28
689.568	33536.15
689.915	33361.24
690.262	33391.75
690.609	33257.06
690.956	33075.83
691.303	33196.95
691.65	32955.38
691.997	32885.77
692.344	32606.46
692.69	32500.7
693.037	32530.53
693.383	32292.79
693.73	32399.23
694.077	32169.41
694.423	32168.05
694.769	32060.94
695.116	31882.41
695.462	31662.08
695.808	31713.38
696.155	31768.74
696.501	31402.2
696.847	31493.49
697.193	31204.46
697.539	31175.54
697.885	30943.45
698.231	30895.32
698.577	30793.63
698.923	30648.77
699.269	30419.85
699.614	30449.68
699.96	30259.4
700.306	30181.89
700.651	30005.17
700.997	29920.2
701.342	29806.53
701.688	29631.85
702.033	29701.45
702.379	29507.78
702.724	29361.57
703.069	29460.78
703.415	29159.54
703.76	29074.8
704.105	28977.85
704.45	28938.76
704.795	28872.32
705.14	28610.63
705.485	28591.88
705.83	28416.51
706.175	28565.21
706.52	28323.41
706.865	28294.48
707.209	28117.31
707.554	28080.02
707.899	28043.87
708.243	27861.27
708.588	27802.52
708.932	27736.53
709.277	27853.36
709.621	27546.48
709.966	27393.71
710.31	27433.49
710.654	27261.51
710.998	27243.89
711.342	27428.29
711.687	27137.22
712.031	27014.29
712.375	26946.72
712.719	26968.64
713.063	26925.7
713.407	27083.89
713.75	26806.84
714.094	26873.5
714.438	26722.55
714.782	26767.74
715.125	26537.92
715.469	26717.35
715.812	26419.96
716.156	26559.39
716.499	26360.52
716.843	26457.47
717.186	26295.66
717.53	26437.58
717.873	26510.12
718.216	26441.2
718.559	26201.2
718.902	26133.86
719.246	26182.9
719.589	26008.89
719.932	25931.83
720.275	26001.21
720.617	26106.06
720.96	25954.43
721.303	26083.01
721.646	26005.05
721.989	25858.16
722.331	26014.09
722.674	25972.51
723.016	25906.52
723.359	25925.5
723.701	25977.48
724.044	25903.36
724.386	25769.8
724.729	25840.99
725.071	25886.64
725.413	25844.15
725.755	25871.49
726.097	25810.93
726.439	25737.04
726.782	25806.64
727.124	25837.82
727.465	25784.27
727.807	25699.75
728.149	25768.45
728.491	25850.25
728.833	25818.61
729.175	25719.86
729.516	25761.22
729.858	25788.56
730.199	25837.15
730.541	25876.92
730.882	25783.81
731.224	25909.01
731.565	25816.81
731.906	25809.8
732.248	25934.77
732.589	25708.79
732.93	25686.87
733.271	25815.68
733.612	25875.79
733.953	25981.32
734.294	25848.22
734.635	25888.44
734.976	26026.29
735.317	25966.18
735.658	26052.96
735.999	25981.32
736.339	26022
736.68	26198.04
737.021	26016.58
737.361	26083.24
737.702	26348.54
738.042	26164.82
738.383	26211.6
738.723	26420.18
739.063	26361.43
739.404	26446.62
739.744	26426.51
740.084	26432.84
740.424	26568.43
740.764	26683.9
741.104	26866.05
741.444	26761.19
741.784	26787.18
742.124	26921.41
742.464	26961.41
742.804	26878.02
743.143	26997.34
743.483	27287.73
743.823	27241.63
744.162	27257.67
744.502	27399.59
744.841	27468.97
745.181	27731.78
745.52	27835.74
745.86	27805.46
746.199	27921.84
746.538	28046.35
746.877	28399.34
747.216	28408.38
747.556	28421.48
747.895	28698.31
748.234	28732.21
748.573	28897.63
748.911	29127.23
749.25	29174.23
749.589	29318.86
749.928	29559.08
750.267	29741.22
750.605	29811.28
750.944	29988.45
751.283	30115.23
751.621	30409.23
751.96	30352.96
752.298	30607.19
752.636	30925.37
752.975	30978.71
753.313	31070.23
753.651	31525.36
753.989	31494.4
754.327	31659.37
754.666	31735.52
755.004	32123.08
755.342	32241.27
755.679	32479.91
756.017	32614.59
756.355	32910.86
756.693	33062.72
757.031	33277.4
757.368	33298.87
757.706	33619.31
758.044	33623.38
758.381	33911.96
758.719	34046.42
759.056	34344.49
759.394	34404.38
759.731	34467.2
760.068	34647.76
760.405	34827.87
760.743	34880.3
761.08	35244.13
761.417	35241.19
761.754	35367.97
762.091	35575.19
762.428	35720.73
762.765	35834.4
763.102	36055.63
763.438	35978.12
763.775	35995.3
764.112	36248.4
764.449	36404.33
764.785	36587.37
765.122	36463.98
765.458	36510.99
765.795	36691.78
766.131	36781.04
766.467	36750.53
766.804	36824.65
767.14	36893.58
767.476	36884.09
767.812	36977.19
768.148	37246.56
768.485	37080.47
768.821	36986.91
769.157	37027.36
769.492	37037.08
769.828	37135.83
770.164	37039.11
770.5	36917.53
770.836	37183.97
771.171	37187.81
771.507	37121.59
771.842	36939.23
772.178	37124.53
772.513	36995.72
772.849	36954.14
773.184	37001.6
773.519	37033.46
773.855	36869.62
774.19	36961.82
774.525	36783.75
774.86	36951.66
775.195	36803.41
775.53	36738.55
775.865	36541.27
776.2	36545.34
776.535	36344.89
776.87	36357.09
777.205	36263.76
777.539	36393.25
777.874	36387.15
778.209	36100.6
778.543	36208.85
778.878	36011.57
779.212	36005.69
779.547	35888.41
779.881	35918.91
780.215	35683.21
780.55	35792.14
780.884	35588.53
781.218	35533.61
781.552	35723.89
781.886	35450.23
782.22	35286.16
782.554	35059.73
782.888	34891.82
783.222	34925.72
783.556	34786.06
783.889	34827.19
784.223	34407.09
784.557	34466.98
784.89	34485.05
785.224	34377.71
785.557	34320.99
785.891	34297.04
786.224	34172.29
786.558	34203.93
786.891	33916.93
787.224	33841
787.557	33669.03
787.891	33657.96
788.224	33410.28
788.557	33464.97
788.89	33477.17
789.223	33455.48
789.556	33129.84
789.888	33203.05
790.221	33019.56
790.554	32870.41
790.887	32902.04
791.219	32709.73
791.552	32637.19
791.884	32541.15
792.217	32443.98
792.549	32293.47
792.882	32041.73
793.214	32133.48
793.546	32201.95
793.879	31913.82
794.211	31708.18
794.543	31891.68
794.875	31718.35
795.207	31733.04
795.539	31587.05
795.871	31749.08
796.203	31537.33
796.535	31227.29
796.867	31369.88
797.198	31213.05
797.53	31100.06
797.862	30966.5
798.193	30974.64
798.525	30804.47
798.856	30986.84
799.188	30486.74
799.519	30583.69
799.85	30378.72
800.182	30459.85
800.513	30462.11
800.844	30184.83
801.175	30234.32
801.506	30194.09
801.837	30021.22
802.168	30028.45
802.499	30043.14
802.83	29873.2
803.161	29692.86
803.491	29764.27
803.822	29790.94
804.153	29478.18
804.483	29526.31
804.814	29294.46
805.145	29398.86
805.475	29312.99
805.805	29253.55
806.136	29271.63
806.466	29231.18
806.796	29076.61
807.126	28944.18
807.457	28924.75
807.787	28975.59
808.117	28792.1
808.447	28834.13
808.777	28761.81
809.107	28500.13
809.436	28438.43
809.766	28491.99
810.096	28462.84
810.426	28188.04
810.755	28318.44
811.085	28315.72
811.414	28216.29
811.744	28074.15
812.073	28125.22
812.403	27915.96
812.732	27830.77
813.061	28013.13
813.39	27783.54
813.719	27648.62
814.049	27842.29
814.378	27682.75
814.707	27609.75
815.036	27660.15
815.365	27409.31
815.693	27356.88
816.022	27320.04
816.351	27276.2
816.68	27113.27
817.008	27329.99
817.337	27048.64
817.665	27044.35
817.994	27049.32
818.322	27148.98
818.651	26979.49
818.979	26920.73
819.307	26842.99
819.636	26954.63
819.964	26753.05
820.292	26886.61
820.62	26826.05
820.948	26835.99
821.276	26783.56
821.604	26866.72
821.932	26981.07
822.259	26826.5
822.587	26768.19
822.915	26704.24
823.243	26851.13
823.57	26747.18
823.898	26884.8
824.225	26717.57
824.553	26766.16
824.88	26804.58
825.207	26938.59
825.535	26677.8
825.862	26773.84
826.189	26692.49
826.516	26967.51
826.843	26942.2
827.17	26878.93
827.497	26993.05
827.824	26977.23
828.151	26968.64
828.478	26793.5
828.805	26980.17
829.131	26968.42
829.458	26879.38
829.785	26710.79
830.111	26844.8
830.438	26967.29
830.764	26896.33
831.09	26941.98
831.417	26777.01
831.743	27046.61
832.069	26927.96
832.395	26833.28
832.722	26971.8
833.048	26764.13
833.374	26965.03
833.7	26781.3
834.026	26899.94
834.351	26831.24
834.677	26910.34
835.003	26819.94
835.329	26731.81
835.654	26815.88
835.98	26659.04
836.306	26758.48
836.631	26680.97
836.956	26834.63
837.282	26704.69
837.607	26574.53
837.932	26588.99
838.258	26598.26
838.583	26465.38
838.908	26439.39
839.233	26496.56
839.558	26371.14
839.883	26331.82
840.208	26194.88
840.533	26252.28
840.858	26222.45
841.182	26184.03
841.507	26230.81
841.832	25917.82
842.156	26052.73
842.481	25974.09
842.805	26045.5
843.13	25806.41
843.454	25968.22
843.778	25663.36
844.103	25897.03
844.427	25701.1
844.751	25776.36
845.075	25695
845.399	25551.28
845.723	25362.36
846.047	25546.53
846.371	25257.27
846.695	25120.1
847.019	25274
847.343	24972.31
847.666	24855.02
847.99	24729.83
848.313	24698.64
848.637	24599.44
848.96	24601.02
849.284	24472.89
849.607	24295.49
849.931	24315.15
850.254	24163.52
850.577	24050.07
850.9	23950.87
851.223	23851.44
851.546	23811.44
851.869	23488.28
852.192	23736.86
852.515	23550.88
852.838	23484.66
853.161	23390.43
853.483	23166.26
853.806	23294.84
854.129	23111.79
854.451	23163.54
854.774	23034.73
855.096	22881.29
855.419	22764.46
855.741	22773.05
856.063	22561.75
856.385	22621.18
856.708	22491.02
857.03	22506.84
857.352	22496.89
857.674	22403.11
857.996	22432.49
858.318	22088.77
858.64	22180.29
858.961	22124.47
859.283	22073.85
859.605	21955.89
859.926	21894.65
860.248	21988.89
860.57	21815.1
860.891	21759.06
861.212	21797.25
861.534	21655.56
861.855	21623.7
862.176	21605.84
862.498	21534.89
862.819	21537.15
863.14	21391.16
863.461	21342.8
863.782	21429.13
864.103	21385.51
864.424	21257.38
864.745	21374.21
865.065	21222.8
865.386	21136.7
865.707	21078.4
866.027	21019.87
866.348	21066.2
866.668	20978.74
866.989	20957.05
867.309	20831.63
867.63	20891.96
867.95	20875.02
868.27	20817.62
868.59	20851.97
868.91	20788.01
869.23	20748.69
869.55	20687.9
869.87	20684.06
870.19	20554.57
870.51	20528.36
870.83	20531.97
871.15	20471.18
871.469	20468.25
871.789	20576.04
872.109	20457.4
872.428	20359.78
872.748	20444.07
873.067	20383.73
873.386	20373.33
873.706	20297.18
874.025	20166.79
874.344	20205.66
874.663	20193
874.982	20215.37
875.301	20061.48
875.62	19976.73
875.939	19963.18
876.258	19927.02
876.577	19950.29
876.896	20076.39
877.214	19842.5
877.533	19891.09
877.852	19900.35
878.17	19839.34
878.489	19822.84
878.807	19742.62
879.125	19756.63
879.444	19645.22
879.762	19595.05
880.08	19679.12
880.398	19446.35
880.716	19578.78
881.034	19525
881.352	19482.96
881.67	19421.27
881.988	19297.88
882.306	19163.42
882.624	19324.1
882.941	19202.29
883.259	19197.09
883.577	19179.47
883.894	19164.55
884.212	18995.74
884.529	19077.55
884.846	18948.51
885.164	18873.26
885.481	18854.28
885.798	18840.72
886.115	18744
886.432	18877.33
886.75	18796.65
887.067	18807.5
887.383	18679.82
887.7	18585.36
888.017	18478.24
888.334	18541.07
888.651	18455.87
888.967	18467.17
889.284	18386.49
889.6	18362.99
889.917	18265.14
890.233	18311.24
890.55	18209.78
890.866	18243.45
891.182	18054.53
891.498	18069.44
891.815	17920.97
892.131	17813.85
892.447	17896.56
892.763	17790.58
893.079	17789.9
893.395	17709.9
893.71	17643.24
894.026	17589.9
894.342	17600.98
894.657	17421.77
894.973	17449.34
895.289	17435.56
895.604	17378.84
895.92	17314.21
896.235	17296.35
896.55	17223.81
896.865	17080.31
897.181	17051.16
897.496	16993.54
897.811	16984.04
898.126	16909.02
898.441	16802.58
898.756	16739.31
899.071	16722.58
899.386	16729.81
899.7	16547.22
900.015	16462.02
900.33	16467
900.644	16431.29
900.959	16433.78
901.273	16314.68
901.588	16187.68
901.902	16221.13
902.216	16112.66
902.531	16069.27
902.845	15933.68
903.159	15887.12
903.473	15845.54
903.787	15732.33
904.101	15715.6
904.415	15791.53
904.729	15629.05
905.042	15553.35
905.356	15504.99
905.67	15416.85
905.984	15377.99
906.297	15449.17
906.611	15216.41
906.924	15258.21
907.237	15152.45
907.551	15152.91
907.864	14999.24
908.177	15116.52
908.491	14964.21
908.804	14826.14
909.117	14760.37
909.43	14693.48
909.743	14690.77
910.056	14676.31
910.368	14562.41
910.681	14413.04
910.994	14489.87
911.307	14375.07
911.619	14259.82
911.932	14378.01
912.244	14210.33
912.557	14201.07
912.869	14111.8
913.181	14039.26
913.494	14009.43
913.806	13868.19
914.118	13804.69
914.43	13789.78
914.742	13749.78
915.054	13584.59
915.366	13660.06
915.678	13589.33
915.99	13473.63
916.302	13390.47
916.613	13426.4
916.925	13386.85
917.236	13331.71
917.548	13181.89
917.859	13191.38
918.171	13123.13
918.482	12996.81
918.794	13039.06
919.105	12973.08
919.416	12853.53
919.727	12867.09
920.038	12799.52
920.349	12783.03
920.66	12618.06
920.971	12646.98
921.282	12575.57
921.593	12449.02
921.903	12484.73
922.214	12463.94
922.525	12365.86
922.835	12290.16
923.146	12224.17
923.456	12188.46
923.767	12141.23
924.077	12078.86
924.387	12144.4
924.697	11985.53
925.008	11998.64
925.318	11957.96
925.628	11859.21
925.938	11826.21
926.248	11687.01
926.558	11649.72
926.867	11684.75
927.177	11604.75
927.487	11512.1
927.796	11531.76
928.106	11479.1
928.416	11503.51
928.725	11431.65
929.034	11436.62
929.344	11307.81
929.653	11235.72
929.962	11159.34
930.271	11091.54
930.581	11104.2
930.89	11057.2
931.199	10909.85
931.508	10972.23
931.817	10888.16
932.125	10937.42
932.434	10795.96
932.743	10646.36
933.051	10697.43
933.36	10704.66
933.669	10645.68
933.977	10558.9
934.286	10473.26
934.594	10497.66
934.902	10455.86
935.21	10414.73
935.519	10331.34
935.827	10306.71
936.135	10277.33
936.443	10230.1
936.751	10162.76
937.059	10090.44
937.367	10045.92
937.674	10052.25
937.982	10023.32
938.29	9922.99
938.597	9880.5
938.905	9863.78
939.213	9787.85
939.52	9723.67
939.827	9710.11
940.135	9681.64
940.442	9624.46
940.749	9582.43
941.056	9669.44
941.363	9509.67
941.67	9516.22
941.977	9380.86
942.284	9356.22
942.591	9327.75
942.898	9301.99
943.205	9276.68
943.511	9246.17
943.818	9120.52
944.125	9111.48
944.431	9040.07
944.738	9041.88
945.044	9037.59
945.35	8950.81
945.657	8892.96
945.963	8934.09
946.269	8872.17
946.575	8816.12
946.881	8811.15
947.187	8751.72
947.493	8714.21
947.799	8656.13
948.105	8635.79
948.41	8521.22
948.716	8525.28
949.022	8556.47
949.327	8478.51
949.633	8344.05
949.938	8429.24
950.244	8363.48
950.549	8266.31
950.854	8259.53
951.16	8277.38
951.465	8196.48
951.77	8200.32
952.075	8124.84
952.38	8079.65
952.685	8092.53
952.99	8030.16
953.294	7977.73
953.599	7966.43
953.904	7888.92
954.209	7895.7
954.513	7851.18
954.818	7801.69
955.122	7801.91
955.426	7796.72
955.731	7662.48
956.035	7647.57
956.339	7588.13
956.643	7576.16
956.948	7515.14
957.252	7495.03
957.556	7497.06
957.86	7456.39
958.163	7392.21
958.467	7380.23
958.771	7366.9
959.075	7333.9
959.378	7276.5
959.682	7243.96
959.985	7215.04
960.289	7200.35
960.592	7093.01
960.896	7110.63
961.199	7143.4
961.502	7151.54
961.805	7095.72
962.108	6981.37
962.411	6914.71
962.714	6931.2
963.017	6896.85
963.32	6931.88
963.623	6853.24
963.926	6845.55
964.228	6772.34
964.531	6793.13
964.833	6770.75
965.136	6686.69
965.438	6725.78
965.741	6608.72
966.043	6587.26
966.345	6558.1
966.648	6601.95
966.95	6523.98
967.252	6518.78
967.554	6481.27
967.856	6446.47
968.158	6395.62
968.46	6390.88
968.761	6354.49
969.063	6312.69
969.365	6288.28
969.666	6263.42
969.968	6223.65
970.269	6192.24
970.571	6111.79
970.872	6154.95
971.174	6135.97
971.475	6097.78
971.776	6063.88
972.077	5996.76
972.378	6021.85
972.679	5993.15
972.98	5989.98
973.281	5903.66
973.582	5886.48
973.883	5848.97
974.183	5906.82
974.484	5780.95
974.785	5756.09
975.085	5744.57
975.386	5773.27
975.686	5711.8
975.986	5678.58
976.287	5686.04
976.587	5650.56
976.887	5580.73
977.187	5623.67
977.487	5546.15
977.787	5569.88
978.087	5483.78
978.387	5476.78
978.687	5494.63
978.987	5387.97
979.286	5380.06
979.586	5378.93
979.885	5310.91
980.185	5270.45
980.484	5256.9
980.784	5265.48
981.083	5246.73
981.382	5227.29
981.682	5180.97
981.981	5210.8
982.28	5107.75
982.579	5188.2
982.878	5096.9
983.177	5073.17
983.475	5075.88
983.774	5030.91
984.073	5017.81
984.372	4947.3
984.67	4947.98
984.969	4961.54
985.267	4913.63
985.566	4879.05
985.864	4878.15
986.162	4818.94
986.461	4863.01
986.759	4776.68
987.057	4788.21
987.355	4705.72
987.653	4709.34
987.951	4722.9
988.249	4673.86
988.547	4656.01
988.844	4660.53
989.142	4631.83
989.44	4546.41
989.737	4510.47
990.035	4534.43
990.332	4507.99
990.63	4461.21
990.927	4456.69
991.224	4423.7
991.521	4430.02
991.819	4455.33
992.116	4375.34
992.413	4347.32
992.71	4351.83
993.006	4305.28
993.303	4323.36
993.6	4265.74
993.897	4261.22
994.193	4250.82
994.49	4251.5
994.787	4233.42
995.083	4171.27
995.379	4183.48
995.676	4141.9
995.972	4133.08
996.268	4072.29
996.565	4056.7
996.861	4039.3
997.157	4053.76
997.453	4014.44
997.749	3979.87
998.044	3937.61
998.34	3930.83
998.636	3923.15
998.932	3905.97
999.227	3834.56
999.523	3828.23
999.818	3824.62
1000.114	3831.62
1000.409	3773.32
1000.704	3748.01
1001	3788.69
1001.295	3727.67
1001.59	3706.65
1001.885	3707.33
1002.18	3715.02
1002.475	3659.42
1002.77	3611.29
1003.065	3620.1
1003.359	3581.23
1003.654	3514.12
1003.949	3544.62
1004.243	3495.36
1004.538	3529.94
1004.832	3477.96
1005.127	3461.91
1005.421	3428.7
1005.715	3403.84
1006.009	3425.53
1006.304	3381.24
1006.598	3359.32
1006.892	3310.51
1007.186	3324.97
1007.48	3342.82
1007.773	3270.51
1008.067	3240.9
1008.361	3247.46
1008.655	3201.36
1008.948	3178.53
1009.242	3154.58
1009.535	3147.57
1009.829	3107.35
1010.122	3126.78
1010.415	3109.16
1010.708	3094.69
1011.001	3082.49
1011.295	3022.6
1011.588	3035.03
1011.881	2988.48
1012.173	2975.83
1012.466	2961.59
1012.759	2944.19
1013.052	2934.47
1013.344	2929.05
1013.637	2936.28
1013.93	2902.83
1014.222	2850.41
1014.514	2835.26
1014.807	2827.13
1015.099	2823.06
1015.391	2779.67
1015.683	2757.75
1015.976	2735.38
1016.268	2718.88
1016.56	2688.15
1016.851	2639.11
1017.143	2667.13
1017.435	2679.34
1017.727	2642.95
1018.018	2617.87
1018.31	2625.55
1018.602	2614.03
1018.893	2570.19
1019.185	2563.63
1019.476	2528.61
1019.767	2524.76
1020.058	2512.34
1020.35	2483.64
1020.641	2456.07
1020.932	2435.05
1021.223	2467.14
1021.514	2398.89
1021.804	2379.23
1022.095	2400.7
1022.386	2351.66
1022.677	2345.11
1022.967	2358.89
1023.258	2268.5
1023.548	2295.84
1023.839	2264.21
1024.129	2259.69
1024.419	2257.65
1024.709	2215.62
1025	2218.33
1025.29	2220.82
1025.58	2165
1025.87	2131.55
1026.16	2156.64
1026.449	2135.4
1026.739	2128.62
1027.029	2091.33
1027.319	2080.93
1027.608	2043.19
1027.898	2046.36
1028.187	2066.25
1028.477	2046.58
1028.766	1992.12
1029.055	1992.12
1029.344	2014.27
1029.634	1989.64
1029.923	1954.84
1030.212	1956.87
1030.501	1927.94
1030.79	1876.87
1031.078	1876.87
1031.367	1887.72
1031.656	1880.49
1031.945	1868.51
1032.233	1844.56
1032.522	1811.11
1032.81	1807.72
1033.099	1788.74
1033.387	1798.68
1033.675	1750.32
1033.963	1764.11
1034.251	1786.03
1034.54	1724.56
1034.828	1709.19
1035.116	1712.58
1035.403	1691.79
1035.691	1656.31
1035.979	1675.75
1036.267	1670.32
1036.554	1664.67
1036.842	1651.34
1037.129	1618.8
1037.417	1634.84
1037.704	1599.14
1037.992	1586.94
1038.279	1580.83
1038.566	1598.46
1038.853	1598.46
1039.14	1598.46
