Data from 15-6437_FLMS001491_004.txt Node
Date: Thu Apr 19 15:40:07 BST 2018
User: hsy
Spectrometer: FLMS00149
Trigger mode: 0
Integration Time (sec): 1.000000E-2
Scans to average: 10
Electric dark correction enabled: true
Nonlinearity correction enabled: false
Boxcar width: 0
XAxis mode: Wavelengths
Number of Pixels in Spectrum: 2048
>>>>>Begin Spectral Data<<<<<
341.393	-19.1
341.776	-19.1
342.16	-19.1
342.543	-56.83
342.927	-71.75
343.31	-62.48
343.693	-75.82
344.077	-66.33
344.46	-60.22
344.843	-52.09
345.226	-25.65
345.61	-25.42
345.993	-39.43
346.376	11.64
346.759	-6.21
347.142	10.06
347.525	51.41
347.908	47.8
348.291	77.63
348.674	102.48
349.057	112.65
349.44	135.48
349.823	155.59
350.206	168.92
350.588	241.01
350.971	230.16
351.354	265.64
351.737	256.83
352.119	272.42
352.502	287.79
352.884	280.56
353.267	318.75
353.65	306.32
354.032	320.33
354.414	337.05
354.797	347.67
355.179	344.51
355.562	356.26
355.944	368.69
356.326	374.34
356.709	375.7
357.091	375.92
357.473	396.94
357.855	367.33
358.238	367.56
358.62	381.12
359.002	375.7
359.384	385.41
359.766	372.31
360.148	361.91
360.53	371.18
360.912	362.82
361.294	390.16
361.676	394.23
362.057	367.79
362.439	379.09
362.821	387
363.203	375.7
363.584	352.65
363.966	377.5
364.348	357.62
364.729	371.4
365.111	371.4
365.493	354.68
365.874	370.05
366.256	373.89
366.637	353.1
367.019	366.88
367.4	351.74
367.781	378.41
368.163	360.78
368.544	370.72
368.925	371.18
369.306	365.98
369.688	349.03
370.069	375.02
370.45	367.33
370.831	368.46
371.212	361.01
371.593	366.21
371.974	374.34
372.355	355.58
372.736	382.25
373.117	397.84
373.498	384.74
373.879	384.74
374.26	370.05
374.641	365.3
375.021	377.96
375.402	366.43
375.783	387.22
376.163	395.81
376.544	389.71
376.925	389.03
377.305	391.29
377.686	397.39
378.066	394.45
378.447	424.06
378.827	409.82
379.208	426.54
379.588	406.2
379.968	415.47
380.349	430.16
380.729	427.9
381.109	416.37
381.489	408.01
381.87	414.11
382.25	431.74
382.63	411.4
383.01	439.65
383.39	436.03
383.77	435.13
384.15	432.19
384.53	434.45
384.91	445.75
385.29	436.94
385.67	440.55
386.049	426.99
386.429	458.18
386.809	447.11
387.189	459.31
387.568	463.6
387.948	457.95
388.328	472.42
388.707	453.21
389.087	467.67
389.466	441.91
389.846	495.69
390.225	486.43
390.605	500.66
390.984	481.91
391.363	492.76
391.743	489.14
392.122	471.06
392.501	507.22
392.881	514.9
393.26	512.19
393.639	528.91
394.018	542.02
394.397	508.57
394.776	530.04
395.155	507.67
395.534	539.31
395.913	537.73
396.292	513.32
396.671	530.49
397.05	549.93
397.429	537.05
397.808	540.21
398.186	556.26
398.565	571.85
398.944	565.75
399.323	564.62
399.701	577.05
400.08	578.63
400.458	568.46
400.837	586.99
401.215	587.89
401.594	615.46
401.972	580.21
402.351	586.09
402.729	571.17
403.107	623.37
403.486	621.34
403.864	622.24
404.242	616.37
404.62	621.57
404.999	626.54
405.377	634.9
405.755	635.58
406.133	632.41
406.511	638.97
406.889	664.28
407.267	689.81
407.645	675.8
408.023	705.18
408.401	664.05
408.779	678.97
409.156	692.75
409.534	702.02
409.912	715.8
410.29	721.22
410.667	743.37
411.045	747.89
411.422	735.91
411.8	754.67
412.178	751.05
412.555	765.29
412.933	777.95
413.31	771.17
413.687	781.79
414.065	815.68
414.442	802.13
414.819	810.71
415.197	825.85
415.574	840.09
415.951	856.14
416.328	842.12
416.705	841.9
417.082	847.77
417.46	845.74
417.837	879.86
418.214	887.77
418.591	864.5
418.967	897.26
419.344	893.42
419.721	908.11
420.098	911.5
420.475	902.91
420.852	923.25
421.228	919.41
421.605	929.81
421.982	959.18
422.358	952.86
422.735	952.4
423.111	971.61
423.488	988.56
423.864	977.49
424.241	1005.28
424.617	986.08
424.994	1007.77
425.37	1044.15
425.746	1017.71
426.123	1034.89
426.499	1036.47
426.875	1079.41
427.251	1083.02
427.627	1073.08
428.003	1114.66
428.379	1136.35
428.756	1097.71
429.132	1142.68
429.507	1158.5
429.883	1161.21
430.259	1185.17
430.635	1182.23
431.011	1180.42
431.387	1197.82
431.763	1226.97
432.138	1227.65
432.514	1247.54
432.89	1247.09
433.265	1255.45
433.641	1295.67
434.016	1297.93
434.392	1309.68
434.767	1335.45
435.143	1304.03
435.518	1378.16
435.894	1362.56
436.269	1399.17
436.644	1402.34
437.02	1397.14
437.395	1419.06
437.77	1441.66
438.145	1447.76
438.52	1461.54
438.895	1488.44
439.271	1480.75
439.646	1491.83
440.021	1517.59
440.395	1510.13
440.77	1502.67
441.145	1534.99
441.52	1557.13
441.895	1537.7
442.27	1568.43
442.645	1576.79
443.019	1582.67
443.394	1579.73
443.769	1619.05
444.143	1602.56
444.518	1642.1
444.892	1647.98
445.267	1630.35
445.641	1661.76
446.016	1649.56
446.39	1642.33
446.764	1669.9
447.139	1704.02
447.513	1701.54
447.887	1731.37
448.262	1686.4
448.636	1729.11
449.01	1753.97
449.384	1793.06
449.758	1791.03
450.132	1831.93
450.506	1843
450.88	1827.41
451.254	1848.65
451.628	1853.4
452.002	1913.28
452.376	1922.55
452.75	1941.98
453.123	1931.14
453.497	1967.52
453.871	1976.56
454.244	2030.34
454.618	2053.84
454.992	2097.46
455.365	2084.13
455.739	2111.92
456.112	2126.84
456.486	2150.34
456.859	2168.42
457.232	2233.05
457.606	2259.71
457.979	2254.74
458.352	2287.06
458.725	2341.29
459.099	2360.28
459.472	2391.24
459.845	2464
460.218	2432.37
460.591	2470.56
460.964	2478.47
461.337	2537
461.71	2553.72
462.083	2600.72
462.456	2608.86
462.829	2619.48
463.201	2674.39
463.574	2695.86
463.947	2718.23
464.32	2754.62
464.692	2792.36
465.065	2832.81
465.438	2855.86
465.81	2891.56
466.183	2920.04
466.555	2983.54
466.928	3003.42
467.3	2977.21
467.672	3052.69
468.045	3121.39
468.417	3170.65
468.789	3134.49
469.161	3178.11
469.534	3247.94
469.906	3307.82
470.278	3352.79
470.65	3367.03
471.022	3422.4
471.394	3453.81
471.766	3501.94
472.138	3543.97
472.51	3595.95
472.882	3711.2
473.253	3726.12
473.625	3776.51
473.997	3816.51
474.369	3882.72
474.74	3921.82
475.112	3992.78
475.484	4002.27
475.855	4121.81
476.227	4174.24
476.598	4312.09
476.97	4328.81
477.341	4380.11
477.713	4441.35
478.084	4567.68
478.455	4706.43
478.827	4722.25
479.198	4908.46
479.569	4838.86
479.94	5006.08
480.311	5098.06
480.682	5247.88
481.053	5352.97
481.424	5407.65
481.795	5495.56
482.166	5595.67
482.537	5673.64
482.908	5797.02
483.279	5916.12
483.65	6048.77
484.021	6153.62
484.391	6267.07
484.762	6320.4
485.133	6472.49
485.503	6579.38
485.874	6733.72
486.244	6844.23
486.615	7018.46
486.985	7148.85
487.356	7243.09
487.726	7339.36
488.097	7581.16
488.467	7641.04
488.837	7935.95
489.207	7967.81
489.578	8210.74
489.948	8380.23
490.318	8530.74
490.688	8597.85
491.058	8879.65
491.428	9017.05
491.798	9150.38
492.168	9344.27
492.538	9555.12
492.908	9697.71
493.278	9909.91
493.648	10105.84
494.017	10290.46
494.387	10440.52
494.757	10653.84
495.126	10793.5
495.496	10922.31
495.866	11270.1
496.235	11384.67
496.605	11641.84
496.974	11720.71
497.344	12026.92
497.713	12207.25
498.082	12425.32
498.452	12717.07
498.821	12935.37
499.19	13041.35
499.559	13329.25
499.928	13598.85
500.298	13782.12
500.667	14061.66
501.036	14152.28
501.405	14511.82
501.774	14649.22
502.143	14916.33
502.512	15153.84
502.88	15411.23
503.249	15505.92
503.618	15901.84
503.987	16116.75
504.356	16375.95
504.724	16571.65
505.093	16835.6
505.462	17001.93
505.83	17407.79
506.199	17547
506.567	17911.73
506.936	18040.99
507.304	18434.66
507.672	18645.5
508.041	18866.28
508.409	19179.95
508.777	19308.08
509.145	19636.66
509.514	19729.76
509.882	20143.09
510.25	20301.05
510.618	20646.8
510.986	20746.01
511.354	21047.7
511.722	21260.34
512.09	21538.76
512.458	21656.72
512.826	22099.19
513.193	22094.45
513.561	22431.84
513.929	22615.79
514.297	22901.43
514.664	23133.74
515.032	23240.86
515.4	23644.01
515.767	23735.53
516.135	23952.7
516.502	23822.54
516.869	24245.13
517.237	24453.26
517.604	24527.83
517.972	24900.25
518.339	24945.67
518.706	25342.5
519.073	25188.38
519.44	25546.79
519.808	25762.6
520.175	25918.3
520.542	26251.63
520.909	26382.92
521.276	26619.98
521.643	26853.42
522.009	26967.31
522.376	27084.15
522.743	27342.9
523.11	27787.63
523.477	27790.34
523.843	27821.75
524.21	28194.85
524.577	28539.25
524.943	28697.21
525.31	28589.64
525.676	28952.12
526.043	29306.46
526.409	29176.75
526.776	29613.35
527.142	29588.04
527.508	29859.44
527.874	30035.93
528.241	30126.55
528.607	30336.04
528.973	30575.13
529.339	30514.11
529.705	30788.46
530.071	30835.69
530.437	31036.81
530.803	31200.42
531.169	31363.13
531.535	31320.42
531.901	31478.61
532.267	31548.44
532.632	31822.78
532.998	31758.15
533.364	31942.78
533.73	31997.92
534.095	32161.3
534.461	32164.01
534.826	32304.57
535.192	32305.93
535.557	32508.18
535.923	32417.57
536.288	32484.23
536.653	32651.01
537.019	32620.05
537.384	32742.75
537.749	32710.89
538.114	32671.8
538.479	32666.82
538.845	32785.24
539.21	32658.46
539.575	32729.65
539.94	32815.52
540.305	32879.02
540.67	32804.67
541.034	32921.73
541.399	32914.05
541.764	32956.53
542.129	32914.28
542.494	32918.57
542.858	32894.62
543.223	32749.31
543.587	32960.15
543.952	32970.32
544.316	33052.35
544.681	32903.88
545.045	32989.3
545.41	33059.36
545.774	33005.8
546.138	32966.48
546.503	32948.17
546.867	33008.06
547.231	33150.88
547.595	33174.61
547.959	33024.56
548.324	33148.85
548.688	33067.94
549.052	33065.68
549.416	32969.64
549.779	32915.63
550.143	33026.59
550.507	33219.35
550.871	33262.29
551.235	32978.45
551.599	33271.78
551.962	33266.13
552.326	33199.24
552.689	33341.61
553.053	33061.62
553.417	33221.39
553.78	33443.75
554.143	33373.7
554.507	33411.89
554.87	33497.31
555.234	33608.95
555.597	33258.22
555.96	33527.37
556.323	33464.09
556.686	33548.38
557.05	33653.69
557.413	33582.51
557.776	33541.6
558.139	33684.65
558.502	33766
558.865	33682.62
559.228	33958.99
559.59	33885.1
559.953	33894.36
560.316	34230.63
560.679	34038.09
561.041	34252.32
561.404	34291.87
561.767	34508.81
562.129	34280.34
562.492	34614.34
562.854	34546.1
563.217	34399.66
563.579	34609.15
563.941	34726.88
564.304	34842.59
564.666	34976.14
565.028	35012.53
565.39	34951.28
565.753	35160.54
566.115	35263.37
566.477	35254.55
566.839	35443.93
567.201	35580.87
567.563	35420.65
567.925	35650.7
568.287	35706.97
568.648	35738.38
569.01	35870.58
569.372	36105.83
569.734	36020.41
570.095	36158.94
570.457	36332.27
570.819	36215.21
571.18	36254.75
571.542	36480.06
571.903	36323
572.265	36534.07
572.626	36617.68
572.987	36633.5
573.349	36781.52
573.71	36802.99
574.071	36989.2
574.432	37009.99
574.794	37232.81
575.155	37053.15
575.516	36995.75
575.877	37157.1
576.238	37080.04
576.599	37321.39
576.96	37289.08
577.32	37295.86
577.681	37278.91
578.042	37470.09
578.403	37395.06
578.763	37397.32
579.124	37329.98
579.485	37491.78
579.845	37635.73
580.206	37423.99
580.566	37614.49
580.927	37439.35
581.287	37603.64
581.648	37292.47
582.008	37525.23
582.368	37424.21
582.728	37420.37
583.089	37388.51
583.449	37325.23
583.809	37262.86
584.169	37435.51
584.529	37282.75
584.889	37557.32
585.249	37253.37
585.609	37223.77
585.969	37421.05
586.329	37054.05
586.688	37327.27
587.048	37120.27
587.408	37099.48
587.768	37046.37
588.127	37094.05
588.487	37063.55
588.846	37260.6
589.206	36846.6
589.565	36916.2
589.925	37131.57
590.284	36903.32
590.643	36815.64
591.003	36995.3
591.362	37011.34
591.721	36918.01
592.08	36895.64
592.44	36960.27
592.799	36875.08
593.158	36902.87
593.517	36889.99
593.876	36940.61
594.235	36690.9
594.593	36814.29
594.952	36734.51
595.311	36706.49
595.67	36837.11
596.029	36854.06
596.387	36767.51
596.746	36902.87
597.104	36651.8
597.463	36609.09
597.822	36901.74
598.18	36663.1
598.538	36684.8
598.897	36956.88
599.255	36573.39
599.613	36950.1
599.972	36648.19
600.33	36814.29
600.688	36522.32
601.046	36659.26
601.404	36848.41
601.762	36785.81
602.12	36936.77
602.478	36723.22
602.836	36808.41
603.194	36649.54
603.552	36760.28
603.91	36693.84
604.268	36819.26
604.625	36751.69
604.983	36925.7
605.341	36731.8
605.698	36813.16
606.056	37162.3
606.413	36749.43
606.771	37110.32
607.128	36910.78
607.485	36831.91
607.843	36938.58
608.2	37020.38
608.557	37320.71
608.914	37086.14
609.272	37254.27
609.629	37357.55
609.986	37467.83
610.343	37275.29
610.7	37635.51
611.057	37475.29
611.414	37436.19
611.771	37677.77
612.127	37622.17
612.484	37690.65
612.841	37926.12
613.198	37596.41
613.554	37630.08
613.911	37783.07
614.267	37797.76
614.624	37869.85
614.98	37932.67
615.337	38160.01
615.693	38175.61
616.05	38211.09
616.406	38242.27
616.762	38320.46
617.118	38094.48
617.475	38150.97
617.831	38254.47
618.187	38213.35
618.543	38536.27
618.899	38647.68
619.255	38468.93
619.611	38561.36
619.967	38816.04
620.323	38764.52
620.678	38541.92
621.034	38536.73
621.39	38595.48
621.746	38522.94
622.101	38951.41
622.457	38714.12
622.812	38862.14
623.168	38814.46
623.523	38988.01
623.879	39058.75
624.234	38821.01
624.589	38970.39
624.945	38899.66
625.3	39102.14
625.655	39085.41
626.01	38962.03
626.365	39007.9
626.72	38988.69
627.075	38841.58
627.43	38992.53
627.785	38894.91
628.14	39049.26
628.495	38884.29
628.85	39093.1
629.205	38869.83
629.559	38929.94
629.914	38808.13
630.269	38875.47
630.623	38620.57
630.978	38643.84
631.332	38873.44
631.687	38862.59
632.041	38688.36
632.396	38646.1
632.75	38515.03
633.104	38475.71
633.459	38439.33
633.813	38349.16
634.167	38372.89
634.521	38212.22
634.875	38248.6
635.229	38258.77
635.583	38051.09
635.937	38200.24
636.291	38143.74
636.645	38136.51
636.999	38002.05
637.352	38082.05
637.706	37789.85
638.06	37981.94
638.413	37895.61
638.767	37715.28
639.121	37820.59
639.474	37662.4
639.828	37633.93
640.181	37709.18
640.534	37925.67
640.888	37544.89
641.241	37351
641.594	37510.31
641.947	37579.69
642.301	37349.19
642.654	37443.2
643.007	37290.43
643.36	37459.47
643.713	37353.03
644.066	37448.62
644.419	37174.5
644.771	36925.7
645.124	36479.15
645.477	36520.06
645.83	36415.43
646.182	36295.66
646.535	36350.57
646.888	36474.41
647.24	36257.92
647.593	36475.31
647.945	36463.79
648.298	36324.58
648.65	36134.98
649.002	35984.25
649.355	35803.24
649.707	35740.42
650.059	35675.79
650.411	36277.13
650.763	36506.95
651.115	37091.34
651.467	36898.13
651.819	36905.13
652.171	36762.99
652.523	36673.5
652.875	36848.18
653.227	36769.09
653.578	36984.68
653.93	36992.81
654.282	36722.09
654.633	36701.07
654.985	36707.4
655.337	36727.96
655.688	36756.66
656.039	36817.68
656.391	36498.36
656.742	36738.36
657.094	36737.23
657.445	36675.08
657.796	36725.02
658.147	36823.1
658.498	36758.24
658.849	36917.79
659.2	36858.58
659.551	36536.33
659.902	36921.63
660.253	36729.32
660.604	36991.46
660.955	36725.02
661.306	36958.24
661.656	36862.19
662.007	36943.55
662.358	36912.14
662.708	36936.09
663.059	37048.86
663.409	36755.08
663.76	37000.04
664.11	37114.39
664.461	37213.15
664.811	37206.59
665.161	37071.91
665.511	37058.57
665.862	37125.24
666.212	37084.56
666.562	37214.5
666.912	37214.95
667.262	37019.93
667.612	37190.1
667.962	37042.53
668.312	37021.29
668.662	37212.02
669.011	37142.19
669.361	37018.57
669.711	37143.09
670.06	37056.09
670.41	37164.79
670.76	37019.03
671.109	37250.21
671.459	37126.37
671.808	37001.4
672.157	37085.24
672.507	36841.4
672.856	36836.88
673.205	36843.21
673.554	36876.66
673.904	36788.98
674.253	37106.26
674.602	36934.28
674.951	36348.76
675.3	36130.91
675.649	36815.42
675.998	36736.55
676.346	36655.87
676.695	36795.53
677.044	36526.84
677.393	36597.57
677.741	36886.37
678.09	36512.15
678.438	36365.71
678.787	36475.99
679.135	36547.63
679.484	36309.44
679.832	36427.4
680.181	36304.24
680.529	36346.05
680.877	36158.71
681.225	36077.13
681.573	36229.89
681.922	36021.09
682.27	35918.26
682.618	35927.98
682.966	35834.88
683.314	35834.88
683.661	35791.04
684.009	35469.46
684.357	35677.14
684.705	35563.25
685.053	35387.88
685.4	35375.68
685.748	35224.95
686.095	35288.9
686.443	35046.2
686.79	34993.09
687.138	35006.65
687.485	35109.7
687.832	34853.43
688.18	34951.74
688.527	34628.81
688.874	34622.93
689.221	34549.04
689.568	34374.8
689.915	34170.97
690.262	34430.17
690.609	34133.68
690.956	34015.94
691.303	33980.46
691.65	33763.29
691.997	33720.13
692.344	33528.95
692.69	33431.55
693.037	33382.96
693.383	33168.05
693.73	33150.65
694.077	32953.14
694.423	32949.53
694.769	32881.51
695.116	32776.65
695.462	32550.44
695.808	32457.56
696.155	32518.35
696.501	32118.36
696.847	32135.99
697.193	32026.16
697.539	32041.08
697.885	31733.74
698.231	31686.51
698.577	31692.61
698.923	31585.05
699.269	31353.86
699.614	31269.8
699.96	31147.99
700.306	31064.38
700.651	30971.73
700.997	30799.76
701.342	30605.41
701.688	30636.82
702.033	30387.11
702.379	30389.82
702.724	30233.89
703.069	30236.38
703.415	29933.56
703.76	29916.16
704.105	29908.25
704.45	29687.47
704.795	29489.28
705.14	29397.08
705.485	29522.73
705.83	29273.47
706.175	29327.93
706.52	29097.88
706.865	29046.35
707.209	28950.76
707.554	28981.27
707.899	28995.51
708.243	28819.69
708.588	28696.31
708.932	28594.16
709.277	28579.47
709.621	28353.04
709.966	28284.34
710.31	28343.32
710.654	28168.41
710.998	28122.31
711.342	28230.56
711.687	27913.28
712.031	27951.02
712.375	27802.77
712.719	27815.65
713.063	27666.28
713.407	27876.89
713.75	27708.54
714.094	27724.81
714.438	27613.85
714.782	27654.98
715.125	27466.74
715.469	27690.68
715.812	27436.91
716.156	27383.8
716.499	27426.06
716.843	27372.5
717.186	27264.93
717.53	27466.96
717.873	27312.84
718.216	27198.04
718.559	27251.83
718.902	26970.7
719.246	26990.59
719.589	26965.96
719.932	26995.11
720.275	26967.31
720.617	26907.65
720.96	26765.74
721.303	26875.56
721.646	26919.18
721.989	26786.98
722.331	26808.45
722.674	26890.48
723.016	26920.31
723.359	26719.86
723.701	26668.79
724.044	26639.86
724.386	26597.38
724.729	26725.06
725.071	26719.41
725.413	26684.84
725.755	26575.46
726.097	26630.15
726.439	26575.91
726.782	26491.85
727.124	26785.4
727.465	26679.41
727.807	26542.24
728.149	26667.66
728.491	26549.02
728.833	26590.83
729.175	26558.96
729.516	26592.63
729.858	26648
730.199	26762.35
730.541	26717.83
730.882	26561
731.224	26714.89
731.565	26648
731.906	26626.98
732.248	26699.07
732.589	26621.56
732.93	26645.29
733.271	26755.79
733.612	26692.29
733.953	26754.89
734.294	26757.15
734.635	26679.19
734.976	26955.11
735.317	26706.3
735.658	26732.97
735.999	26802.57
736.339	26687.77
736.68	26933.19
737.021	26887.54
737.361	26885.28
737.702	27139.51
738.042	27117.82
738.383	27021.78
738.723	27309.45
739.063	27183.58
739.404	27363.69
739.744	27341.54
740.084	27249.57
740.424	27417.25
740.764	27428.09
741.104	27684.81
741.444	27602.55
741.784	27624.92
742.124	27719.84
742.464	27873.5
742.804	27920.73
743.143	27751.93
743.483	28041.41
743.823	28047.06
744.162	28161.41
744.502	28346.71
744.841	28386.49
745.181	28459.03
745.52	28511
745.86	28696.53
746.199	28897.66
746.538	28912.8
746.877	29090.87
747.216	29272.34
747.556	29192.34
747.895	29404.54
748.234	29599.33
748.573	29585.1
748.911	29781.25
749.25	29961.36
749.589	29989.38
749.928	30283.61
750.267	30408.35
750.605	30534.68
750.944	30773.99
751.283	30755.46
751.621	31035
751.96	31131.5
752.298	31376.24
752.636	31502.11
752.975	31561.32
753.313	31672.73
753.651	32029.55
753.989	32197.01
754.327	32414.63
754.666	32371.01
755.004	32705.24
755.342	32935.97
755.679	33054.61
756.017	33211.22
756.355	33360.14
756.693	33576.41
757.031	33900.69
757.368	33963.97
757.706	34060.91
758.044	34352.2
758.381	34378.19
758.719	34544.97
759.056	34742.02
759.394	34996.48
759.731	34975.01
760.068	35194.67
760.405	35380.65
760.743	35271.28
761.08	35628.78
761.417	35709.46
761.754	35694.54
762.091	36111.71
762.428	36076
762.765	36095.44
763.102	36461.08
763.438	36429.44
763.775	36562.32
764.112	36697.45
764.449	36808.18
764.785	36944.9
765.122	36944.9
765.458	36849.54
765.795	37012.93
766.131	37239.59
766.467	37217.21
766.804	37202.07
767.14	37140.38
767.476	37317.55
767.812	37303.31
768.148	37461.27
768.485	37522.74
768.821	37421.95
769.157	37425.12
769.492	37548.96
769.828	37515.74
770.164	37403.2
770.5	37414.5
770.836	37546.47
771.171	37470.99
771.507	37501.27
771.842	37347.15
772.178	37462.18
772.513	37493.82
772.849	37408.85
773.184	37486.58
773.519	37447.04
773.855	37277.32
774.19	37277.78
774.525	37236.2
774.86	37368.4
775.195	37295.63
775.53	37080.04
775.865	37029.87
776.2	36949.65
776.535	36821.07
776.87	36815.19
777.205	36707.4
777.539	36666.27
777.874	36679.37
778.209	36402.09
778.543	36486.61
778.878	36287.29
779.212	36193.74
779.547	36274.87
779.881	36230.57
780.215	36026.28
780.55	36151.7
780.884	35789.45
781.218	35707.42
781.552	35895.89
781.886	35650.25
782.22	35497.03
782.554	35515.56
782.888	35242.12
783.222	35130.26
783.556	35026.08
783.889	35086.87
784.223	34901.12
784.557	34851.85
784.89	34890.95
785.224	34604.85
785.557	34596.72
785.891	34543.84
786.224	34415.93
786.558	34342.03
786.891	34165.54
787.224	33940.46
787.557	33856.85
787.891	33979.78
788.224	33761.26
788.557	33747.47
788.89	33698.89
789.223	33699.79
789.556	33394.94
789.888	33426.13
790.221	33222.52
790.554	33111.56
790.887	33084.67
791.219	32937.55
791.552	32901.17
791.884	32688.07
792.217	32844.9
792.549	32662.31
792.882	32429.54
793.214	32382.31
793.546	32437.9
793.879	32230.23
794.211	32073.62
794.543	32269.77
794.875	32015.54
795.207	31889.22
795.539	31937.35
795.871	31985.49
796.203	31763.8
796.535	31549.79
796.867	31571.94
797.198	31315
797.53	31355.45
797.862	31066.19
798.193	31264.38
798.525	31078.62
798.856	31252.62
799.188	30657.39
799.519	30719.53
799.85	30650.61
800.182	30654.9
800.513	30820.09
800.844	30320.22
801.175	30547.78
801.506	30430.27
801.837	30200.22
802.168	30299.66
802.499	30252.2
802.83	29955.03
803.161	29860.57
803.491	29850.18
803.822	30081.13
804.153	29734.25
804.483	29662.38
804.814	29448.6
805.145	29584.19
805.475	29427.81
805.805	29376.06
806.136	29412.22
806.466	29175.62
806.796	29265.78
807.126	29074.83
807.457	29118.44
807.787	29065.56
808.117	29004.77
808.447	29010.65
808.777	28900.14
809.107	28668.74
809.436	28769.3
809.766	28750.77
810.096	28684.1
810.426	28512.36
810.755	28503.32
811.085	28316.88
811.414	28473.49
811.744	28109.2
812.073	28247.51
812.403	28311.91
812.732	27971.13
813.061	28225.81
813.39	27937.01
813.719	27994.18
814.049	28093.16
814.378	27943.79
814.707	27764.81
815.036	27905.14
815.365	27610.46
815.693	27532.95
816.022	27498.82
816.351	27388.77
816.68	27269.23
817.008	27483.23
817.337	27129.57
817.665	27122.56
817.994	27136.57
818.322	27275.33
818.651	27077.59
818.979	26944.72
819.307	27073.3
819.636	26800.31
819.964	26830.59
820.292	26935.22
820.62	27010.48
820.948	27035.56
821.276	27091.38
821.604	26908.11
821.932	27029.01
822.259	26934.32
822.587	26892.06
822.915	26913.08
823.243	26975.9
823.57	26903.81
823.898	27005.05
824.225	26864.04
824.553	26839.63
824.88	26995.11
825.207	26960.08
825.535	26746.98
825.862	26971.61
826.189	26839.18
826.516	27145.84
826.843	26992.85
827.17	27149.23
827.497	27132.51
827.824	27025.17
828.151	27130.25
828.478	27027.65
828.805	27299.73
829.131	27192.17
829.458	27168.21
829.785	26901.55
830.111	27142
830.438	27195.56
830.764	27047.31
831.09	27118.95
831.417	27023.13
831.743	27232.17
832.069	27018.84
832.395	26953.08
832.722	27055.9
833.048	26959.18
833.374	27068.33
833.7	26990.59
834.026	27088.44
834.351	27011.61
834.677	27063.81
835.003	27004.15
835.329	27040.98
835.654	27017.93
835.98	26818.84
836.306	26945.62
836.631	26763.03
836.956	26958.27
837.282	26918.95
837.607	26729.81
837.932	26762.35
838.258	26701.56
838.583	26622.24
838.908	26546.99
839.233	26583.82
839.558	26509.92
839.883	26475.58
840.208	26306.99
840.533	26459.3
840.858	26432.41
841.182	26437.61
841.507	26392.64
841.832	26302.47
842.156	26233.1
842.481	26163.72
842.805	26147.22
843.13	26087.34
843.454	25989.71
843.778	25936.38
844.103	25952.42
844.427	25853.22
844.751	25904.06
845.075	25758.08
845.399	25773.22
845.723	25590.63
846.047	25598.08
846.371	25426.79
846.695	25356.73
847.019	25215.95
847.343	25204.42
847.666	25068.61
847.99	25036.29
848.313	24953.36
848.637	24933.24
848.96	24779.12
849.284	24856.86
849.607	24481.28
849.931	24556.3
850.254	24425.69
850.577	24130.78
850.9	24063.21
851.223	24052.81
851.546	24000.16
851.869	23786.61
852.192	23977.56
852.515	23627.29
852.838	23628.42
853.161	23719.94
853.483	23370.8
853.806	23460.74
854.129	23309.33
854.451	23252.61
854.774	23152.95
855.096	23075.66
855.419	23001.09
855.741	22889.91
856.063	22787.99
856.385	22804.03
856.708	22695.34
857.03	22631.61
857.352	22585.96
857.674	22498.5
857.996	22301.22
858.318	22272.3
858.64	22337.38
858.961	22242.92
859.283	22159.98
859.605	22064.39
859.926	21985.75
860.248	22117.27
860.57	21951.63
860.891	21875.92
861.212	21824.62
861.534	21741.01
861.855	21736.26
862.176	21713.21
862.498	21731.52
862.819	21669.83
863.14	21531.3
863.461	21468.25
863.782	21407.46
864.103	21486.78
864.424	21468.93
864.745	21473.9
865.065	21334.02
865.386	21205.21
865.707	21278.65
866.027	21265.32
866.348	21140.8
866.668	21080.91
866.989	21151.87
867.309	21025.55
867.63	20963.63
867.95	21051.08
868.27	20830.3
868.59	20933.57
868.91	20769.06
869.23	20808.15
869.55	20830.07
869.87	20855.38
870.19	20770.64
870.51	20721.83
870.83	20701.49
871.15	20569.06
871.469	20560.93
871.789	20690.87
872.109	20427.37
872.428	20428.5
872.748	20519.57
873.067	20356.41
873.386	20396.41
873.706	20428.05
874.025	20394.38
874.344	20355.96
874.663	20377.43
874.982	20257.89
875.301	20219.92
875.62	20082.75
875.939	20023.32
876.258	20153.93
876.577	20021.51
876.896	20033.26
877.214	20074.39
877.533	19939.48
877.852	19998.68
878.17	19950.1
878.489	19969.08
878.807	19899.25
879.125	19887.95
879.444	19876.43
879.762	19838.46
880.08	19875.97
880.398	19792.36
880.716	19710.33
881.034	19649.09
881.352	19590.11
881.67	19570.45
881.988	19519.83
882.306	19436.66
882.624	19417.68
882.941	19429.88
883.259	19424.01
883.577	19310.34
883.894	19235.09
884.212	19192.6
884.529	19204.13
884.846	19112.38
885.164	19038.03
885.481	18975.43
885.798	19023.57
886.115	18930.24
886.432	19005.94
886.75	18852.5
887.067	18856.11
887.383	18774.08
887.7	18813.18
888.017	18591.94
888.334	18614.31
888.651	18573.64
888.967	18577.48
889.284	18405.5
889.6	18445.05
889.917	18415.67
890.233	18252.97
890.55	18310.59
890.866	18343.36
891.182	18196.47
891.498	18179.75
891.815	18063.37
892.131	17935.23
892.447	17984.05
892.763	17912.41
893.079	17944.95
893.395	17836.48
893.71	17784.5
894.026	17771.62
894.342	17705.64
894.657	17651.4
894.973	17605.53
895.289	17519.65
895.604	17484.63
895.92	17357.62
896.235	17420.45
896.55	17314.91
896.865	17227.46
897.181	17151.3
897.496	17227.23
897.811	17081.92
898.126	17030.4
898.441	16901.36
898.756	16955.6
899.071	16808.94
899.386	16882.61
899.7	16681.48
900.015	16613.46
900.33	16445.78
900.644	16512.45
900.959	16457.99
901.273	16447.14
901.588	16247.37
901.902	16213.47
902.216	16064.78
902.531	16218.22
902.845	16038.56
903.159	16018.22
903.473	15904.33
903.787	15824.56
904.101	15759.7
904.415	15829.53
904.729	15746.37
905.042	15593.38
905.356	15608.97
905.67	15535.52
905.984	15585.01
906.297	15478.58
906.611	15320.84
906.924	15367.84
907.237	15288.3
907.551	15240.62
907.864	15233.38
908.177	15165.14
908.491	15225.02
908.804	15006.05
909.117	14872.72
909.43	14807.41
909.743	14718.14
910.056	14807.63
910.368	14666.39
910.681	14654.19
910.994	14568.09
911.307	14455.33
911.619	14335.33
911.932	14414.88
912.244	14254.88
912.557	14270.02
912.869	14158.84
913.181	14105.05
913.494	14095.34
913.806	13981.67
914.118	13926.75
914.43	13913.87
914.742	13866.42
915.054	13773.31
915.366	13748
915.678	13665.52
915.99	13628
916.302	13520.89
916.613	13525.41
916.925	13455.35
917.236	13491.06
917.548	13309.14
917.859	13364.96
918.171	13223.49
918.482	13141.01
918.794	13013.78
919.105	12998.19
919.416	12952.99
919.727	12934.91
920.038	12918.64
920.349	12900.56
920.66	12762.04
920.971	12737.41
921.282	12695.82
921.593	12567.69
921.903	12549.39
922.214	12434.36
922.525	12426
922.835	12357.3
923.146	12289.51
923.456	12247.7
923.767	12218.77
924.077	12238.66
924.387	12181.94
924.697	12023.98
925.008	12034.37
925.318	11932.68
925.628	11908.73
925.938	11886.81
926.248	11792.12
926.558	11697.88
926.867	11664.21
927.177	11648.39
927.487	11574.5
927.796	11521.39
928.106	11494.27
928.416	11487.49
928.725	11407.04
929.034	11360.72
929.344	11384.67
929.653	11266.03
929.962	11214.28
930.271	11148.75
930.581	11113.49
930.89	11091.8
931.199	10971.58
931.508	11078.01
931.817	10989.43
932.125	10944.91
932.434	10813.16
932.743	10746.95
933.051	10734.97
933.36	10704.92
933.669	10658.82
933.977	10701.53
934.286	10590.34
934.594	10540.63
934.902	10493.62
935.21	10392.16
935.519	10386.96
935.827	10384.92
936.135	10237.13
936.443	10183.57
936.751	10141.99
937.059	10183.12
937.367	10099.73
937.674	10111.26
937.982	10056.57
938.29	9991.71
938.597	9925.73
938.905	9919.17
939.213	9918.72
939.52	9785.62
939.827	9786.07
940.135	9756.69
940.442	9657.49
940.749	9697.71
941.056	9665.85
941.363	9537.94
941.67	9574.32
941.977	9529.35
942.284	9382.69
942.591	9362.13
942.898	9378.62
943.205	9347.89
943.511	9234.22
943.818	9278.51
944.125	9183.15
944.431	9102.02
944.738	9183.37
945.044	9048.69
945.35	9040.33
945.657	8961.91
945.963	8964.4
946.269	8899.54
946.575	8870.84
946.881	8826.55
947.187	8836.49
947.493	8723.5
947.799	8734.12
948.105	8672.88
948.41	8630.62
948.716	8608.93
949.022	8591.53
949.327	8575.25
949.633	8407.12
949.938	8461.59
950.244	8443.96
950.549	8377.29
950.854	8298.2
951.16	8282.83
951.465	8263.85
951.77	8257.52
952.075	8169.39
952.38	8144.31
952.685	8170.29
952.99	8062.73
953.294	8067.25
953.599	8012.33
953.904	8029.73
954.209	7926.46
954.513	7900.02
954.818	7893.01
955.122	7821.38
955.426	7824.31
955.731	7777.31
956.035	7731.44
956.339	7638.78
956.643	7677.2
956.948	7588.16
957.252	7557.65
957.556	7579.12
957.86	7541.16
958.163	7515.17
958.467	7461.39
958.771	7422.97
959.075	7349.52
959.378	7346.13
959.682	7302.29
959.985	7312.01
960.289	7244.67
960.592	7186.14
960.896	7176.42
961.199	7227.95
961.502	7095.52
961.805	7067.5
962.108	7012.81
962.411	7025.24
962.714	6989.99
963.017	6955.86
963.32	6940.04
963.623	6891.01
963.926	6842.42
964.228	6796.54
964.531	6864.34
964.833	6818.24
965.136	6742.08
965.438	6680.16
965.741	6626.83
966.043	6659.15
966.345	6587.28
966.648	6635.19
966.95	6561.3
967.252	6453.05
967.554	6568.3
967.856	6471.13
968.158	6387.74
968.46	6401.98
968.761	6400.17
969.063	6338.03
969.365	6363.79
969.666	6322.43
969.968	6226.39
970.269	6173.28
970.571	6178.71
970.872	6162.21
971.174	6151.59
971.475	6156.79
971.776	6113.85
972.077	6033.4
972.378	6051.48
972.679	5965.15
972.98	5980.52
973.281	5903.69
973.582	5922.67
973.883	5905.27
974.183	5878.6
974.484	5809.68
974.785	5790.7
975.085	5768.32
975.386	5812.62
975.686	5705.95
975.986	5670.02
976.287	5734.43
976.587	5648.1
976.887	5593.19
977.187	5631.38
977.487	5616.01
977.787	5542.34
978.087	5535.33
978.387	5493.53
978.687	5463.47
978.987	5469.12
979.286	5392.74
979.586	5448.78
979.885	5380.08
980.185	5378.28
980.484	5322.01
980.784	5286.3
981.083	5267.55
981.382	5293.08
981.682	5257.6
981.981	5209.47
982.28	5161.56
982.579	5162.01
982.878	5110.71
983.177	5102.13
983.475	5068.23
983.774	5004.05
984.073	5016.25
984.372	4962.69
984.67	4953.2
984.969	4953.43
985.267	4951.85
985.566	4912.98
985.864	4871.17
986.162	4891.28
986.461	4818.74
986.759	4800.21
987.057	4776.94
987.355	4769.25
987.653	4737.84
987.951	4703.04
988.249	4695.58
988.547	4671.18
988.844	4693.1
989.142	4699.65
989.44	4616.49
989.737	4580.78
990.035	4585.76
990.332	4554.34
990.63	4494.68
990.927	4529.26
991.224	4546.89
991.521	4486.55
991.819	4460.33
992.116	4411.07
992.413	4359.09
992.71	4341.02
993.006	4371.52
993.303	4341.02
993.6	4293.56
993.897	4275.71
994.193	4280
994.49	4243.17
994.787	4189.16
995.083	4169.49
995.379	4152.55
995.676	4170.17
995.972	4133.56
996.268	4070.51
996.565	4097.86
996.861	4032.55
997.157	4043.85
997.453	4038.65
997.749	3993.68
998.044	3956.39
998.34	3946.22
998.636	3962.04
998.932	3916.17
999.227	3861.48
999.523	3848.15
999.818	3804.98
1000.114	3816.74
1000.409	3814.93
1000.704	3797.3
1001	3779.45
1001.295	3764.08
1001.59	3707.59
1001.885	3723.4
1002.18	3677.98
1002.475	3626.68
1002.77	3621.26
1003.065	3608.83
1003.359	3560.7
1003.654	3574.03
1003.949	3572.22
1004.243	3522.05
1004.538	3501.04
1004.832	3481.6
1005.127	3502.17
1005.421	3445.67
1005.715	3416.52
1006.009	3426.24
1006.304	3408.61
1006.598	3382.4
1006.892	3366.8
1007.186	3308.27
1007.48	3324.77
1007.773	3303.53
1008.067	3294.49
1008.361	3252.68
1008.655	3235.28
1008.948	3214.72
1009.242	3200.71
1009.535	3160.48
1009.829	3197.09
1010.122	3114.61
1010.415	3087.72
1010.708	3089.3
1011.001	3051.33
1011.295	3032.8
1011.588	3054.72
1011.881	3020.6
1012.173	3006.36
1012.466	2925.01
1012.759	2995.51
1013.052	2936.08
1013.344	2907.16
1013.637	2922.3
1013.93	2911.22
1014.222	2859.02
1014.514	2853.37
1014.807	2809.08
1015.099	2814.73
1015.391	2813.15
1015.683	2788.51
1015.976	2728.18
1016.268	2720.27
1016.56	2711.91
1016.851	2689.08
1017.143	2688.4
1017.435	2656.09
1017.727	2648.18
1018.018	2605.69
1018.31	2612.25
1018.602	2608.86
1018.893	2554.85
1019.185	2560.95
1019.476	2567.73
1019.767	2518.01
1020.058	2483.89
1020.35	2474.85
1020.641	2457.45
1020.932	2441.18
1021.223	2421.07
1021.514	2413.38
1021.804	2414.29
1022.095	2377.45
1022.386	2332.71
1022.677	2332.26
1022.967	2345.81
1023.258	2286.15
1023.548	2321.41
1023.839	2290.22
1024.129	2262.2
1024.419	2248.42
1024.709	2217.23
1025	2197.34
1025.29	2188.08
1025.58	2191.24
1025.87	2130.9
1026.16	2146.95
1026.449	2134.75
1026.739	2150.11
1027.029	2089.32
1027.319	2089.1
1027.608	2048.19
1027.898	2045.71
1028.187	2037.57
1028.477	2040.29
1028.766	1990.57
1029.055	2029.44
1029.344	2003.45
1029.634	1995.31
1029.923	1924.36
1030.212	1913.06
1030.501	1919.38
1030.79	1880.29
1031.078	1905.6
1031.367	1862.66
1031.656	1864.92
1031.945	1840.52
1032.233	1849.33
1032.522	1831.25
1032.81	1820.4
1033.099	1788.09
1033.387	1779.5
1033.675	1793.29
1033.963	1762.78
1034.251	1738.37
1034.54	1721.42
1034.828	1725.27
1035.116	1701.09
1035.403	1715.55
1035.691	1710.35
1035.979	1660.63
1036.267	1651.14
1036.554	1645.95
1036.842	1633.29
1037.129	1617.7
1037.417	1618.15
1037.704	1612.73
1037.992	1594.42
1038.279	1556.91
1038.566	1543.58
1038.853	1543.58
1039.14	1543.58
