Data from 152_FLMS001491_002.txt Node
Date: Thu Apr 19 16:17:35 BST 2018
User: hsy
Spectrometer: FLMS00149
Trigger mode: 0
Integration Time (sec): 1.000000E-2
Scans to average: 10
Electric dark correction enabled: true
Nonlinearity correction enabled: false
Boxcar width: 0
XAxis mode: Wavelengths
Number of Pixels in Spectrum: 2048
>>>>>Begin Spectral Data<<<<<
341.393	-4.96
341.776	-4.96
342.16	-4.96
342.543	-60.32
342.927	-48.8
343.31	-75.92
343.693	-82.92
344.077	-80.89
344.46	-73.2
344.843	-70.04
345.226	-45.18
345.61	-22.13
345.993	-2.02
346.376	-2.47
346.759	20.8
347.142	44.98
347.525	54.48
347.908	52.44
348.291	70.97
348.674	100.35
349.057	110.75
349.44	139.67
349.823	143.29
350.206	159.11
350.588	237.3
350.971	236.17
351.354	272.55
351.737	292.89
352.119	288.82
352.502	297.86
352.884	329.05
353.267	346.45
353.65	329.05
354.032	350.74
354.414	341.47
354.797	374.47
355.179	338.99
355.562	359.78
355.944	358.42
356.326	381.02
356.709	372.66
357.091	378.99
357.473	393.68
357.855	385.54
358.238	368.82
358.62	398.2
359.002	385.99
359.384	380.34
359.766	367.01
360.148	385.09
360.53	401.59
360.912	400.46
361.294	413.56
361.676	396.61
362.057	417.18
362.439	396.39
362.821	396.39
363.203	380.34
363.584	400
363.966	394.35
364.348	388.48
364.729	390.51
365.111	358.65
365.493	374.02
365.874	362.94
366.256	397.07
366.637	372.21
367.019	368.37
367.4	360.23
367.781	373.56
368.163	342.15
368.544	350.74
368.925	348.03
369.306	383.28
369.688	374.24
370.069	370.63
370.45	376.95
370.831	376.05
371.212	378.08
371.593	379.89
371.974	381.92
372.355	383.96
372.736	370.17
373.117	379.21
373.498	381.92
373.879	398.65
374.26	392.32
374.641	360.68
375.021	382.83
375.402	382.38
375.783	393.9
376.163	397.29
376.544	403.62
376.925	409.95
377.305	414.69
377.686	401.81
378.066	400.46
378.447	391.87
378.827	404.52
379.208	394.13
379.588	425.99
379.968	408.36
380.349	418.53
380.729	402.72
381.109	404.75
381.489	440.23
381.87	395.71
382.25	413.56
382.63	442.04
383.01	444.75
383.39	441.13
383.77	428.93
384.15	444.97
384.53	442.04
384.91	443.84
385.29	439.55
385.67	448.59
386.049	460.57
386.429	440.23
386.809	469.83
387.189	464.18
387.568	439.32
387.948	471.64
388.328	487.01
388.707	472.77
389.087	483.84
389.466	469.15
389.846	461.02
390.225	501.47
390.605	494.69
390.984	505.31
391.363	494.24
391.743	506.22
392.122	508.48
392.501	509.15
392.881	505.31
393.26	518.42
393.639	484.07
394.018	507.35
394.397	521.13
394.776	504.63
395.155	528.81
395.534	532.43
395.913	517.06
396.292	522.94
396.671	527.23
397.05	562.71
397.429	559.1
397.808	525.42
398.186	525.65
398.565	555.93
398.944	548.93
399.323	540.11
399.701	550.06
400.08	589.15
400.458	561.36
400.837	575.37
401.215	600.68
401.594	559.55
401.972	593.22
402.351	586.44
402.729	593.44
403.107	589.15
403.486	595.48
403.864	597.06
404.242	594.57
404.62	604.29
404.999	600.9
405.377	602.48
405.755	625.08
406.133	643.16
406.511	626.89
406.889	657.17
407.267	635.03
407.645	668.02
408.023	663.05
408.401	663.95
408.779	649.04
409.156	670.28
409.534	669.6
409.912	679.32
410.29	705.76
410.667	687.23
411.045	714.57
411.422	716.38
411.8	716.83
412.178	725.87
412.555	755.7
412.933	754.57
413.31	758.64
413.687	766.77
414.065	790.05
414.442	745.98
414.819	757.06
415.197	781.91
415.574	791.41
415.951	774.23
416.328	813.55
416.705	790.5
417.082	822.59
417.46	808.13
417.837	831.86
418.214	839.77
418.591	820.11
418.967	835.7
419.344	837.96
419.721	848.13
420.098	834.57
420.475	862.82
420.852	866.88
421.228	887
421.605	875.7
421.982	896.94
422.358	902.82
422.735	908.01
423.111	896.94
423.488	921.57
423.864	898.75
424.241	914.79
424.617	927
424.994	937.84
425.37	908.01
425.746	958.63
426.123	948.46
426.499	980.33
426.875	982.81
427.251	998.18
427.627	1030.95
428.003	992.98
428.379	996.82
428.756	1000.21
429.132	1024.39
429.507	1059.42
429.883	1046.54
430.259	1071.4
430.635	1091.06
431.011	1103.94
431.387	1101.91
431.763	1136.48
432.138	1145.52
432.514	1140.1
432.89	1135.35
433.265	1178.51
433.641	1196.82
434.016	1192.75
434.392	1207.89
434.767	1241.11
435.143	1221
435.518	1247.44
435.894	1235.69
436.269	1244.5
436.644	1286.76
437.02	1277.27
437.395	1277.95
437.77	1308.68
438.145	1295.12
438.52	1304.39
438.895	1317.49
439.271	1320.66
439.646	1364.27
440.021	1369.24
440.395	1367.21
440.77	1356.14
441.145	1390.94
441.52	1411.05
441.895	1406.3
442.27	1428.23
442.645	1437.26
443.019	1420.09
443.394	1423.93
443.769	1423.48
444.143	1444.04
444.518	1432.74
444.892	1443.59
445.267	1472.97
445.641	1474.33
446.016	1468.68
446.39	1503.93
446.764	1503.93
447.139	1495.34
447.513	1494.44
447.887	1524.27
448.262	1518.84
448.636	1560.2
449.01	1554.32
449.384	1569.69
449.758	1559.3
450.132	1602.23
450.506	1569.92
450.88	1620.76
451.254	1628.22
451.628	1626.86
452.002	1672.51
452.376	1656.02
452.75	1703.25
453.123	1682.91
453.497	1744.15
453.871	1734.66
454.244	1771.94
454.618	1794.54
454.992	1800.42
455.365	1819.18
455.739	1844.94
456.112	1885.61
456.486	1869.8
456.859	1879.06
457.232	1949.57
457.606	1963.58
457.979	1919.51
458.352	2006.74
458.725	2013.75
459.099	2029.79
459.472	2070.24
459.845	2096.68
460.218	2108.21
460.591	2129.45
460.964	2140.07
461.337	2163.12
461.71	2192.95
462.083	2214.42
462.456	2239.96
462.829	2247.41
463.201	2303
463.574	2270.01
463.947	2320.18
464.32	2367.18
464.692	2359.73
465.065	2394.3
465.438	2395.21
465.81	2443.57
466.183	2445.83
466.555	2493.73
466.928	2534.64
467.3	2516.11
467.672	2556.11
468.045	2614.86
468.417	2645.14
468.789	2658.02
469.161	2657.12
469.534	2679.94
469.906	2739.15
470.278	2778.02
470.65	2770.56
471.022	2835.87
471.394	2880.39
471.766	2975.08
472.138	2958.13
472.51	3011.01
472.882	3051.91
473.253	3110.89
473.625	3128.52
473.997	3182.08
474.369	3214.39
474.74	3198.12
475.112	3288.29
475.484	3352.02
475.855	3386.59
476.227	3427.95
476.598	3505.68
476.97	3550.43
477.341	3618.68
477.713	3654.16
478.084	3687.37
478.455	3747.94
478.827	3801.27
479.198	3935.73
479.569	3926.92
479.94	4043.98
480.311	4093.69
480.682	4202.84
481.053	4250.75
481.424	4362.84
481.795	4383.63
482.166	4511.08
482.537	4514.7
482.908	4632.66
483.279	4624.53
483.65	4813.67
484.021	4872.65
484.391	4930.05
484.762	5027.23
485.133	5054.12
485.503	5118.52
485.874	5273.77
486.244	5306.09
486.615	5486.42
486.985	5535.46
487.356	5583.37
487.726	5688.45
488.097	5835.79
488.467	5845.51
488.837	6014.55
489.207	6077.37
489.578	6191.72
489.948	6283.69
490.318	6374.08
490.688	6425.16
491.058	6572.95
491.428	6726.62
491.798	6784.24
492.168	6980.62
492.538	6982.88
492.908	7104.23
493.278	7269.2
493.648	7254.51
494.017	7413.83
494.387	7493.38
494.757	7565.92
495.126	7692.47
495.496	7771.79
495.866	7913.93
496.235	8018.11
496.605	8074.83
496.974	8202.06
497.344	8314.6
497.713	8403.86
498.082	8511.2
498.452	8635.04
498.821	8661.26
499.19	8717.07
499.559	8836.84
499.928	8992.09
500.298	9018.99
500.667	9209.26
501.036	9192.54
501.405	9387.11
501.774	9432.53
502.143	9557.73
502.512	9590.72
502.88	9785.52
503.249	9763.6
503.618	9878.62
503.987	9974.89
504.356	10082.69
504.724	10181.67
505.093	10234.55
505.462	10296.69
505.83	10518.61
506.199	10531.26
506.567	10692.16
506.936	10692.39
507.304	10857.81
507.672	10963.12
508.041	10958.37
508.409	11148.65
508.777	11197.46
509.145	11259.15
509.514	11453.05
509.882	11428.87
510.25	11535.53
510.618	11738.24
510.986	11717.22
511.354	11797.44
511.722	11958.12
512.09	12032.24
512.458	12056.65
512.826	12173.93
513.193	12273.82
513.561	12277.88
513.929	12438.78
514.297	12542.28
514.664	12649.63
515.032	12728.49
515.4	12801.26
515.767	12828.83
516.135	13026.79
516.502	12920.58
516.869	13114.02
517.237	13300.23
517.604	13248.71
517.972	13498.87
518.339	13548.81
518.706	13598.75
519.073	13665.19
519.44	13744.96
519.808	13943.38
520.175	14004.62
520.542	14215.46
520.909	14248.91
521.276	14397.15
521.643	14464.94
522.009	14554.66
522.376	14678.05
522.743	14776.35
523.11	14920.75
523.477	15001.2
523.843	15117.13
524.21	15311.25
524.577	15423.79
524.943	15576.55
525.31	15532.26
525.676	15906.94
526.043	15952.82
526.409	15948.97
526.776	16257.44
527.142	16290.21
527.508	16425.8
527.874	16581.5
528.241	16686.58
528.607	16708.73
528.973	16917.54
529.339	16968.83
529.705	17147.13
530.071	17362.04
530.437	17414.92
530.803	17544.86
531.169	17533.11
531.535	17717.51
531.901	17741.02
532.267	17820.56
532.632	17996.38
532.998	18043.16
533.364	18188.46
533.73	18166.32
534.095	18453.09
534.461	18445.18
534.826	18588.23
535.192	18727.88
535.557	18860.99
535.923	18898.95
536.288	18951.83
536.653	18955.9
537.019	19081.32
537.384	19100.3
537.749	19190.47
538.114	19242.67
538.479	19307.08
538.845	19429.11
539.21	19413.97
539.575	19543.68
539.94	19598.59
540.305	19771.25
540.67	19802.43
541.034	19885.37
541.399	19889.66
541.764	19968.75
542.129	20073.61
542.494	20125.59
542.858	20202.65
543.223	20155.42
543.587	20399.03
543.952	20368.97
544.316	20545.69
544.681	20458.23
545.045	20610.32
545.41	20606.25
545.774	20685.12
546.138	20733.93
546.503	20816.87
546.867	20898.45
547.231	20910.2
547.595	20983.64
547.959	21095.5
548.324	21102.51
548.688	21196.52
549.052	21344.31
549.416	21320.13
549.779	21327.36
550.143	21427.93
550.507	21600.35
550.871	21656.62
551.235	21639.67
551.599	21829.95
551.962	21831.3
552.326	21810.29
552.689	21940.68
553.053	21961.92
553.417	22007.57
553.78	22229.49
554.143	22231.07
554.507	22187
554.87	22302.25
555.234	22574.34
555.597	22436.94
555.96	22647.1
556.323	22707.89
556.686	22761.45
557.05	22819.53
557.413	22970.03
557.776	23003.48
558.139	23164.6
558.502	23185.85
558.865	23263.81
559.228	23497.93
559.59	23484.59
559.953	23511.94
560.316	23707.19
560.679	23725.49
561.041	23934.3
561.404	24066.05
561.767	24312.14
562.129	24123
562.492	24399.37
562.854	24424.23
563.217	24428.52
563.579	24638.91
563.941	24723.43
564.304	24848.85
564.666	25078.22
565.028	25003.88
565.39	25104.89
565.753	25354.15
566.115	25376.75
566.477	25641.6
566.839	25762.5
567.201	25890.18
567.563	25924.76
567.925	26064.41
568.287	26137.63
568.648	26229.38
569.01	26477.74
569.372	26697.17
569.734	26642.48
570.095	26834.79
570.457	27024.61
570.819	27152.29
571.18	27230.03
571.542	27335.79
571.903	27434.77
572.265	27677.93
572.626	27850.58
572.987	27922.67
573.349	28174.87
573.71	28233.62
574.071	28448.08
574.432	28634.52
574.794	28834.74
575.155	28911.8
575.516	28893.04
575.877	29101.17
576.238	29207.61
576.599	29465
576.96	29530.76
577.32	29679.23
577.681	29764.66
578.042	30014.14
578.403	30149.96
578.763	30198.09
579.124	30309.5
579.485	30725.31
579.845	30881.01
580.206	30866.55
580.566	31051.85
580.927	31247.78
581.287	31435.8
581.648	31579.97
582.008	31999.85
582.368	32116.68
582.728	32377.92
583.089	32590.8
583.449	32721.87
583.809	32984.23
584.169	33247.28
584.529	33538.79
584.889	33996.18
585.249	34029.18
585.609	34087.25
585.969	34780.34
586.329	34811.98
586.688	35134.91
587.048	35438.4
587.408	35661.9
587.768	35981.44
588.127	36334.2
588.487	36790.69
588.846	37261.63
589.206	37443.32
589.565	37655.3
589.925	38276.52
590.284	38461.6
590.643	38868.82
591.003	39485.76
591.362	40088
591.721	40200.31
592.08	40499.97
592.44	41225.37
592.799	41467.85
593.158	42034.16
593.517	42309.64
593.876	42644.32
594.235	43159.11
594.593	43616.95
594.952	44072.08
595.311	44258.51
595.67	44726.07
596.029	45271.59
596.387	45585.48
596.746	46235.41
597.104	46342.75
597.463	46669.07
597.822	47275.83
598.18	47466.34
598.538	47842.82
598.897	48525.52
599.255	48582.47
599.613	49325.27
599.972	49335.21
600.33	49870.57
600.688	50050.45
601.046	50339.26
601.404	50809.98
601.762	51071.21
602.12	51471.66
602.478	51746.68
602.836	52044.75
603.194	51998.42
603.552	52396.83
603.91	52602.92
604.268	52885.86
604.625	53091.27
604.983	53483.81
605.341	53458.72
605.698	53867.52
606.056	54357.45
606.413	54266.16
606.771	54691.91
607.128	54853.94
607.485	54992.47
607.843	55206.47
608.2	55437.2
608.557	55749.73
608.914	55691.43
609.272	56033.57
609.629	56289.83
609.986	56457.96
610.343	56565.98
610.7	56906.54
611.057	56963.26
611.414	57038.29
611.771	57327.32
612.127	57473.53
612.484	57588.33
612.841	57855.22
613.198	57795.78
613.554	57907.87
613.911	58200.07
614.267	58297.01
614.624	58418.82
614.98	58549.66
615.337	58769.54
615.693	58841.18
616.05	58939.26
616.406	59080.27
616.762	59133.37
617.118	59208.63
617.475	59230.55
617.831	59502.18
618.187	59543.31
618.543	59679.57
618.899	59809.51
619.255	59877.76
619.611	59884.54
619.967	60058.1
620.323	60143.52
620.678	60049.96
621.034	60168.83
621.39	60171.09
621.746	60287.24
622.101	60628.93
622.457	60408.6
622.812	60614.69
623.168	60706.89
623.523	60718.19
623.879	60814.69
624.234	60756.61
624.589	60902.14
624.945	60903.27
625.3	60976.72
625.655	61013.1
626.01	61048.13
626.365	61093.77
626.72	61098.52
627.075	61056.04
627.43	61146.2
627.785	61166.77
628.14	61209.7
628.495	61257.16
628.85	61239.99
629.205	61259.42
629.559	61327.22
629.914	61233.66
630.269	61310.72
630.623	61229.36
630.978	61232.98
631.332	61386.87
631.687	61402.47
632.041	61351.62
632.396	61333.99
632.75	61329.47
633.104	61407.21
633.459	61284.96
633.813	61345.52
634.167	61331.73
634.521	61317.27
634.875	61314.79
635.229	61238.18
635.583	61183.04
635.937	61198.86
636.291	61224.84
636.645	61203.83
636.999	61114.34
637.352	61231.4
637.706	61112.53
638.06	61174.68
638.413	61087.45
638.767	61082.48
639.121	61168.8
639.474	61036.15
639.828	61017.84
640.181	60984.17
640.534	61123.6
640.888	60992.31
641.241	60873.67
641.594	60887.68
641.947	60972.87
642.301	60855.14
642.654	60872.09
643.007	60810.17
643.36	60906.89
643.713	60821.69
644.066	60934.68
644.419	60811.52
644.771	60491.53
645.124	60310.97
645.477	60252.89
645.83	60116.17
646.182	60150.97
646.535	60082.28
646.888	60128.15
647.24	60104.87
647.593	60283.63
647.945	60101.71
648.298	60071.88
648.65	59923.18
649.002	59857.65
649.355	59824.88
649.707	59774.71
650.059	59805.45
650.411	60037.53
650.763	60139
651.115	60486.79
651.467	60420.8
651.819	60391.42
652.171	60322.04
652.523	60231.88
652.875	60293.57
653.227	60222.16
653.578	60348.03
653.93	60278.2
654.282	60181.71
654.633	60100.81
654.985	60196.85
655.337	60205.21
655.688	60132.9
656.039	60225.32
656.391	59973.8
656.742	60054.93
657.094	60007.7
657.445	60054.71
657.796	60092.22
658.147	60019.9
658.498	59989.85
658.849	60071.43
659.2	59964.09
659.551	59881.6
659.902	60061.94
660.253	59865.56
660.604	60023.97
660.955	59819.46
661.306	59966.35
661.656	59892.22
662.007	59907.37
662.358	59894.03
662.708	59868.72
663.059	59796.86
663.409	59717.31
663.76	59801.38
664.11	59801.38
664.461	59850.87
664.811	59912.79
665.161	59871.43
665.511	59734.26
665.862	59764.32
666.212	59835.95
666.562	59800.02
666.912	59736.97
667.262	59718.9
667.612	59772.45
667.962	59782.4
668.312	59726.81
668.662	59801.61
669.011	59754.38
669.361	59717.09
669.711	59713.47
670.06	59648.16
670.41	59621.05
670.76	59605
671.109	59728.16
671.459	59660.37
671.808	59674.83
672.157	59711.21
672.507	59568.84
672.856	59544.21
673.205	59598.9
673.554	59594.15
673.904	59515.06
674.253	59798.44
674.602	59556.19
674.951	59283.43
675.3	59149.19
675.649	59556.64
675.998	59549.41
676.346	59543.53
676.695	59604.77
677.044	59420.15
677.393	59438.9
677.741	59467.83
678.09	59428.73
678.438	59415.85
678.787	59472.35
679.135	59498.11
679.484	59314.84
679.832	59385.35
680.181	59325.69
680.529	59329.08
680.877	59272.35
681.225	59243.2
681.573	59396.64
681.922	59242.98
682.27	59249.53
682.618	59233.03
682.966	59193.26
683.314	59161.85
683.661	59138.12
684.009	59044.11
684.357	59005.69
684.705	59004.11
685.053	58995.3
685.4	58934.06
685.748	58886.15
686.095	58940.84
686.443	58736.1
686.79	58820.39
687.138	58849.77
687.485	58828.52
687.832	58728.19
688.18	58723.22
688.527	58714.85
688.874	58607.51
689.221	58645.93
689.568	58595.08
689.915	58500.62
690.262	58520.06
690.609	58509.66
690.956	58366.39
691.303	58428.31
691.65	58228.09
691.997	58305.15
692.344	58130.69
692.69	58143.12
693.037	58110.35
693.383	57896.8
693.73	58019.51
694.077	57847.53
694.423	57854.09
694.769	57817.02
695.116	57780.87
695.462	57680.31
695.808	57576.35
696.155	57693.19
696.501	57469.69
696.847	57615.22
697.193	57321.9
697.539	57466.75
697.885	57191.05
698.231	57199.41
698.577	57127.1
698.923	57138.85
699.269	57016.37
699.614	56891.85
699.96	56834
700.306	56908.8
700.651	56811.18
700.997	56638.3
701.342	56646.89
701.688	56583.61
702.033	56493.67
702.379	56489.83
702.724	56310.17
703.069	56448.47
703.415	56101.82
703.76	56141.36
704.105	56117.86
704.45	56074.02
704.795	55918.32
705.14	55833.35
705.485	55898.43
705.83	55681.71
706.175	55766.01
706.52	55684.2
706.865	55564.65
707.209	55472.68
707.554	55395.39
707.899	55494.6
708.243	55318.56
708.588	55259.13
708.932	55204.21
709.277	55135.97
709.621	55008.29
709.966	54864.33
710.31	54869.53
710.654	54795.86
710.998	54831.79
711.342	54801.96
711.687	54678.58
712.031	54616.66
712.375	54505.93
712.719	54493.72
713.063	54383.44
713.407	54540.27
713.75	54404.01
714.094	54305.48
714.438	54235.88
714.782	54193.39
715.125	53989.55
715.469	54229.1
715.812	53876.11
716.156	53883.12
716.499	53909.78
716.843	53893.74
717.186	53712.05
717.53	53915.43
717.873	53721.31
718.216	53738.26
718.559	53526.74
718.902	53305.05
719.246	53419.4
719.589	53352.28
719.932	53149.8
720.275	53287.65
720.617	53340.08
720.96	53147.09
721.303	53243.13
721.646	53274.77
721.989	53022.57
722.331	53101.89
722.674	52903.93
723.016	52930.6
723.359	52828.91
723.701	52941.22
724.044	52722.47
724.386	52683.83
724.729	52703.49
725.071	52616.71
725.413	52652.42
725.755	52558.18
726.097	52447
726.439	52411.74
726.782	52298.98
727.124	52488.58
727.465	52315.7
727.807	52305.31
728.149	52225.53
728.491	52167.23
728.833	52195.48
729.175	52140.34
729.516	52054.92
729.858	52027.35
730.199	52110.96
730.541	52017.86
730.882	51865.32
731.224	51965.43
731.565	51821.25
731.906	51837.75
732.248	51855.37
732.589	51570.64
732.93	51614.7
733.271	51530.18
733.612	51564.08
733.953	51672.55
734.294	51554.59
734.635	51406.57
734.976	51490.41
735.317	51371.77
735.658	51362.73
735.999	51286.58
736.339	51268.72
736.68	51326.35
737.021	51202.06
737.361	51093.81
737.702	51181.49
738.042	51102.4
738.383	51005.45
738.723	51077.54
739.063	50928.84
739.404	51058.56
739.744	51103.08
740.084	50869.86
740.424	50856.3
740.764	50748.28
741.104	50964.32
741.444	50681.62
741.784	50532.92
742.124	50684.11
742.464	50544.67
742.804	50470.33
743.143	50531.11
743.483	50530.21
743.823	50226.94
744.162	50266.49
744.502	50386.03
744.841	50145.14
745.181	50344.23
745.52	50243.44
745.86	50315.75
746.199	50236.43
746.538	50157.79
746.877	50112.82
747.216	50018.81
747.556	49797.35
747.895	49976.78
748.234	49840.06
748.573	49636.68
748.911	49739.05
749.25	49496.79
749.589	49513.29
749.928	49597.81
750.267	49643.23
750.605	49449.34
750.944	49365.5
751.283	49320.53
751.621	49447.08
751.96	49121.89
752.298	49107.88
752.636	49170.7
752.975	49016.8
753.313	48896.58
753.651	49050.7
753.989	48772.29
754.327	48773.42
754.666	48498.4
755.004	48664.72
755.342	48453.88
755.679	48451.4
756.017	48299.54
756.355	48419.53
756.693	48188.8
757.031	48230.16
757.368	48018.86
757.706	48053.44
758.044	47887.34
758.381	47904.74
758.719	47666.11
759.056	47801.24
759.394	47569.38
759.731	47411.42
760.068	47260.01
760.405	47295.72
760.743	46948.61
761.08	47081.49
761.417	46851.66
761.754	46682.4
762.091	46757.65
762.428	46543.42
762.765	46341.85
763.102	46404.22
763.438	46296.2
763.775	46044.91
764.112	46068.41
764.449	45989.99
764.785	45961.07
765.122	45664.12
765.458	45527.18
765.795	45378.03
766.131	45345.71
766.467	45081.54
766.804	45048.32
767.14	44682.91
767.476	44759.29
767.812	44731.27
768.148	44616.69
768.485	44442.69
768.821	44104.39
769.157	43992.08
769.492	43989.59
769.828	43967.67
770.164	43597.74
770.5	43485.88
770.836	43600.68
771.171	43347.57
771.507	43080.92
771.842	42825.33
772.178	42924.31
772.513	42664.43
772.849	42506.92
773.184	42505.56
773.519	42447.49
773.855	42139.02
774.19	42034.84
774.525	41932.7
774.86	41862.87
775.195	41751.01
775.53	41431.47
775.865	41334.29
776.2	41203.9
776.535	40796.68
776.87	40767.98
777.205	40623.35
777.539	40537.48
777.874	40530.7
778.209	40190.6
778.543	40232.85
778.878	39935.69
779.212	40062.92
779.547	39660.21
779.881	39672.87
780.215	39254.35
780.55	39331.64
780.884	38974.81
781.218	38956.73
781.552	39036.95
781.886	38604.65
782.22	38436.52
782.554	38278.78
782.888	38151.78
783.222	38050.31
783.556	37900.71
783.889	37763.77
784.223	37480.16
784.557	37601.51
784.89	37562.19
785.224	37279.03
785.557	37070.45
785.891	36910.68
786.224	36920.4
786.558	36910.46
786.891	36679.73
787.224	36422.33
787.557	36296.01
787.891	36256.69
788.224	35934.66
788.557	35937.37
788.89	35945.28
789.223	35851.27
789.556	35498.74
789.888	35606.99
790.221	35349.14
790.554	35213.33
790.887	35223.27
791.219	35028.02
791.552	34813.34
791.884	34723.17
792.217	34683.4
792.549	34453.35
792.882	34328.6
793.214	34217.65
793.546	34208.61
793.879	34058.33
794.211	33880.71
794.543	34000.48
794.875	33781.05
795.207	33730.2
795.539	33607.27
795.871	33649.07
796.203	33487.04
796.535	33211.57
796.867	33105.81
797.198	32858.13
797.53	32879.6
797.862	32652.04
798.193	32665.37
798.525	32524.58
798.856	32723.67
799.188	32201.88
799.519	32088.44
799.85	32113.75
800.182	32083.69
800.513	32026.52
800.844	31625.62
801.175	31844.6
801.506	31868.33
801.837	31553.31
802.168	31498.62
802.499	31561.22
802.83	31087.56
803.161	31163.49
803.491	31175.24
803.822	31113.09
804.153	30957.39
804.483	30739.32
804.814	30457.74
805.145	30561.02
805.475	30617.74
805.805	30470.4
806.136	30575.71
806.466	30346.56
806.796	30195.38
807.126	29992.67
807.457	30088.04
807.787	30005.55
808.117	29819.8
808.447	29804.88
808.777	29866.8
809.107	29561.27
809.436	29471.1
809.766	29573.25
810.096	29472.46
810.426	29245.57
810.755	29393.59
811.085	29236.08
811.414	29188.4
811.744	29135.29
812.073	28925.36
812.403	28895.53
812.732	28841.74
813.061	28959.25
813.39	28630.9
813.719	28625.7
814.049	28771.01
814.378	28657.79
814.707	28468.42
815.036	28574.18
815.365	28245.83
815.693	28121.53
816.022	28227.52
816.351	28034.98
816.68	27856.68
817.008	27999.05
817.337	27723.35
817.665	27802.22
817.994	27684.94
818.322	27738.04
818.651	27627.54
818.979	27572.85
819.307	27550.25
819.636	27520.19
819.964	27374.44
820.292	27462.79
820.62	27379.86
820.948	27456.92
821.276	27473.42
821.604	27407.88
821.932	27473.19
822.259	27380.31
822.587	27218.51
822.915	27174.21
823.243	27300.99
823.57	27132.18
823.898	27372.4
824.225	27209.02
824.553	27286.3
824.88	27158.4
825.207	27287.43
825.535	27242.91
825.862	27332.4
826.189	27142.8
826.516	27462.57
826.843	27427.77
827.17	27340.31
827.497	27321.56
827.824	27175.12
828.151	27375.79
828.478	27253.31
828.805	27460.54
829.131	27387.32
829.458	27399.07
829.785	27110.26
830.111	27233.42
830.438	27376.7
830.764	27333.08
831.09	27385.28
831.417	27065.74
831.743	27396.36
832.069	27280.88
832.395	27226.64
832.722	27283.36
833.048	27175.8
833.374	27328.11
833.7	27098.96
834.026	27212.86
834.351	27116.14
834.677	27301.44
835.003	27089.92
835.329	27045.4
835.654	27068.23
835.98	26986.2
836.306	27034.11
836.631	27030.49
836.956	27014.45
837.282	26990.26
837.607	26826.2
837.932	26839.08
838.258	26764.96
838.583	26782.59
838.908	26655.13
839.233	26653.32
839.558	26581.91
839.883	26577.39
840.208	26420.34
840.533	26536.04
840.858	26392.54
841.182	26429.6
841.507	26400.22
841.832	26392.99
842.156	26247.01
842.481	26228.25
842.805	26170.17
843.13	26021.7
843.454	26157.97
843.778	25953.46
844.103	26008.6
844.427	25966.79
844.751	25865.1
845.075	25820.35
845.399	25816.51
845.723	25586.01
846.047	25654.93
846.371	25422.17
846.695	25310.08
847.019	25199.8
847.343	25118.68
847.666	25046.81
847.99	24929.98
848.313	24789.19
848.637	24825.8
848.96	24752.81
849.284	24698.12
849.607	24467.39
849.931	24517.34
850.254	24339.49
850.577	24052.49
850.9	24000.06
851.223	23979.95
851.546	23888.65
851.869	23697.24
852.192	23993.73
852.515	23641.2
852.838	23502.9
853.161	23490.02
853.483	23356.01
853.806	23312.62
854.129	23210.25
854.451	23185.17
854.774	22992.63
855.096	22862.24
855.419	22802.58
855.741	22842.35
856.063	22743.37
856.385	22637.39
856.708	22480.33
857.03	22530.04
857.352	22495.02
857.674	22472.19
857.996	22283.5
858.318	22201.24
858.64	22235.59
858.961	22001.24
859.283	22110.85
859.605	21960.34
859.926	21969.61
860.248	21937.74
860.57	21877.4
860.891	21833.56
861.212	21664.98
861.534	21705.66
861.855	21533.01
862.176	21595.38
862.498	21592.89
862.819	21601.03
863.14	21449.39
863.461	21353.35
863.782	21393.35
864.103	21321.49
864.424	21323.3
864.745	21293.47
865.065	21162.62
865.386	21116.75
865.707	21072.23
866.027	21114.26
866.348	21033.59
866.668	20948.16
866.989	21022.29
867.309	20844.21
867.63	20842.18
867.95	20902.97
868.27	20753.59
868.59	20786.81
868.91	20701.39
869.23	20658.91
869.55	20550.66
869.87	20735.97
870.19	20459.14
870.51	20478.57
870.83	20537.1
871.15	20481.74
871.469	20510.89
871.789	20562.64
872.109	20342.76
872.428	20349.76
872.748	20371.68
873.067	20243.1
873.386	20317.22
873.706	20321.97
874.025	20084.23
874.344	20125.13
874.663	20142.54
874.982	20144.12
875.301	20053.05
875.62	20005.14
875.939	20025.25
876.258	19983.9
876.577	19875.42
876.896	19964.91
877.214	19934.41
877.533	19904.8
877.852	19830.91
878.17	19712.04
878.489	19909.32
878.807	19677.91
879.125	19708.65
879.444	19567.18
879.762	19571.7
880.08	19565.83
880.398	19532.16
880.716	19578.26
881.034	19458.26
881.352	19430.46
881.67	19378.49
881.988	19449.22
882.306	19381.88
882.624	19235.21
882.941	19186.85
883.259	19177.36
883.577	19224.37
883.894	19164.93
884.212	19089
884.529	19063.92
884.846	19003.58
885.164	18874.55
885.481	18903.47
885.798	18842.23
886.115	18684.49
886.432	18644.5
886.75	18700.99
887.067	18647.21
887.383	18591.84
887.7	18612.63
888.017	18390.04
888.334	18475.46
888.651	18436.14
888.967	18337.16
889.284	18303.04
889.6	18228.24
889.917	18174.68
890.233	18224.85
890.55	18107.56
890.866	17995.25
891.182	18018.75
891.498	17993.21
891.815	17894.23
892.131	17757.51
892.447	17792.99
892.763	17800.68
893.079	17574.47
893.395	17613.56
893.71	17461.93
894.026	17570.4
894.342	17451.53
894.657	17416.28
894.973	17465.77
895.289	17404.08
895.604	17379.67
895.92	17143.07
896.235	17108.94
896.55	17179.22
896.865	17037.53
897.181	17000.7
897.496	16926.12
897.811	16837.54
898.126	16723.64
898.441	16767.93
898.756	16797.09
899.071	16525.68
899.386	16566.36
899.7	16527.04
900.015	16370.21
900.33	16301.05
900.644	16229.42
900.959	16271.22
901.273	16171.57
901.588	16137.44
901.902	16014.28
902.216	15980.16
902.531	15993.27
902.845	15969.31
903.159	15793.05
903.473	15842.08
903.787	15667.17
904.101	15690.68
904.415	15694.06
904.729	15608.87
905.042	15489.32
905.356	15507.85
905.67	15437.57
905.984	15356.9
906.297	15325.26
906.611	15234.19
906.924	15243.91
907.237	15136.34
907.551	15118.49
907.864	14976.8
908.177	15032.16
908.491	14911.94
908.804	14798.5
909.117	14735.67
909.43	14649.57
909.743	14619.97
910.056	14637.37
910.368	14504.72
910.681	14440.09
910.994	14410.71
911.307	14356.02
911.619	14234.22
911.932	14252.07
912.244	14118.96
912.557	14160.55
912.869	14071.96
913.181	13994.67
913.494	14040.32
913.806	13859.99
914.118	13851.85
914.43	13803.49
914.742	13720.33
915.054	13623.38
915.366	13571.18
915.678	13519.88
915.99	13482.15
916.302	13387.01
916.613	13340.68
916.925	13330.51
917.236	13347.23
917.548	13110.18
917.859	13138.88
918.171	13089.39
918.482	12960.8
918.794	13045.09
919.105	12917.41
919.416	12832.67
919.727	12766.91
920.038	12749.06
920.349	12623.86
920.66	12701.6
920.971	12592.68
921.282	12587.25
921.593	12489.18
921.903	12417.09
922.214	12410.08
922.525	12375.06
922.835	12294.15
923.146	12175.74
923.456	12159.47
923.767	12093.03
924.077	12110.43
924.387	12011
924.697	11973.48
925.008	11947.5
925.318	11916.76
925.628	11861.62
925.938	11835.41
926.248	11624.34
926.558	11547.96
926.867	11594.51
927.177	11532.82
927.487	11495.98
927.796	11408.98
928.106	11421.18
928.416	11350.22
928.725	11277.23
929.034	11248.98
929.344	11216.67
929.653	11203.79
929.962	11055.77
930.271	11121.53
930.581	11046.5
930.89	10921.99
931.199	10843.34
931.508	10881.76
931.817	10804.48
932.125	10769.22
932.434	10827.98
932.743	10599.06
933.051	10571.94
933.36	10549.34
933.669	10572.39
933.977	10525.16
934.286	10477.93
934.594	10422.11
934.902	10356.35
935.21	10282
935.519	10255.34
935.827	10279.07
936.135	10223.7
936.443	10076.36
936.751	10065.06
937.059	10103.48
937.367	9988
937.674	10032.74
937.982	9921.34
938.29	9898.28
938.597	9895.35
938.905	9730.83
939.213	9752.07
939.52	9686.77
939.827	9728.8
940.135	9591.85
940.442	9547.33
940.749	9530.39
941.056	9479.99
941.363	9455.36
941.67	9426.43
941.977	9359.54
942.284	9321.35
942.591	9282.03
942.898	9249.49
943.205	9205.2
943.511	9167
943.818	9131.07
944.125	9047.23
944.431	9014.24
944.738	9005.88
945.044	8936.95
945.35	8932.21
945.657	8816.28
945.963	8804.53
946.269	8769.28
946.575	8753.91
946.881	8756.62
947.187	8711.42
947.493	8647.92
947.799	8628.71
948.105	8580.81
948.41	8511.88
948.716	8506.68
949.022	8391.43
949.327	8435.27
949.633	8344.43
949.938	8363.64
950.244	8321.83
950.549	8192.34
950.854	8180.82
951.16	8239.35
951.465	8149.4
951.77	8102.4
952.075	8109.41
952.38	8054.72
952.685	8035.06
952.99	7930.43
953.294	7963.19
953.599	7953.25
953.904	7866.02
954.209	7777.66
954.513	7840.71
954.818	7746.7
955.122	7737.21
955.426	7703.31
955.731	7653.15
956.035	7617.21
956.339	7591.68
956.643	7544
956.948	7462.42
957.252	7464
957.556	7439.14
957.86	7416.99
958.163	7359.37
958.467	7331.12
958.771	7342.42
959.075	7280.5
959.378	7215.64
959.682	7216.1
959.985	7131.35
960.289	7071.92
960.592	7080.28
960.896	7106.95
961.199	7064.24
961.502	7005.48
961.805	6970.9
962.108	6953.96
962.411	6948.98
962.714	6823.11
963.017	6864.92
963.32	6888.19
963.623	6775.2
963.926	6767.97
964.228	6708.99
964.531	6744.02
964.833	6652.72
965.136	6607.3
965.438	6659.27
965.741	6545.6
966.043	6538.37
966.345	6479.62
966.648	6513.29
966.95	6477.58
967.252	6439.84
967.554	6380.86
967.856	6362.78
968.158	6298.83
968.46	6278.72
968.761	6248.89
969.063	6248.89
969.365	6228.55
969.666	6151.26
969.968	6200.3
970.269	6152.62
970.571	6141.55
970.872	6097.25
971.174	6046.41
971.475	6027.88
971.776	6017.03
972.077	5955.79
972.378	5983.13
972.679	5916.02
972.98	5905.17
973.281	5827.88
973.582	5847.77
973.883	5835.34
974.183	5817.71
974.484	5766.19
974.785	5711.95
975.085	5683.03
975.386	5696.59
975.686	5630.37
975.986	5631.96
976.287	5652.29
976.587	5531.39
976.887	5563.26
977.187	5568
977.487	5508.12
977.787	5530.26
978.087	5443.71
978.387	5453.2
978.687	5422.02
978.987	5356.26
979.286	5356.48
979.586	5376.14
979.885	5315.35
980.185	5271.74
980.484	5229.48
980.784	5217.73
981.083	5189.71
981.382	5204.85
981.682	5210.27
981.981	5154.23
982.28	5092.99
982.579	5057.96
982.878	5048.47
983.177	4999.66
983.475	5020.9
983.774	4991.75
984.073	4923.95
984.372	4925.99
984.67	4935.48
984.969	4901.35
985.267	4906.33
985.566	4843.95
985.864	4813.9
986.162	4809.15
986.461	4826.33
986.759	4766.22
987.057	4732.77
987.355	4633.11
987.653	4678.54
987.951	4669.04
988.249	4650.97
988.547	4622.49
988.844	4616.62
989.142	4606.9
989.44	4549.95
989.737	4509.05
990.035	4480.8
990.332	4528.93
990.63	4457.98
990.927	4448.26
991.224	4376.17
991.521	4429.28
991.819	4406.9
992.116	4339.11
992.413	4343.18
992.71	4299.11
993.006	4279.22
993.303	4273.57
993.6	4272.44
993.897	4295.27
994.193	4243.52
994.49	4196.97
994.787	4155.61
995.083	4116.97
995.379	4118.78
995.676	4116.29
995.972	4084.65
996.268	4040.13
996.565	4030.64
996.861	3962.62
997.157	3982.28
997.453	3911.78
997.749	3964.66
998.044	3945.9
998.34	3915.62
998.636	3902.28
998.932	3906.13
999.227	3894.38
999.523	3848.73
999.818	3798.33
1000.114	3790.2
1000.409	3768.28
1000.704	3730.31
1001	3720.14
1001.295	3666.36
1001.59	3723.31
1001.885	3677.66
1002.18	3623.42
1002.475	3618.22
1002.77	3580.03
1003.065	3604.67
1003.359	3531.22
1003.654	3569.19
1003.949	3556.08
1004.243	3515.18
1004.538	3476.76
1004.832	3492.58
1005.127	3461.62
1005.421	3396.99
1005.715	3374.39
1006.009	3329.42
1006.304	3359.25
1006.598	3329.42
1006.892	3355.86
1007.186	3258.46
1007.48	3240.15
1007.773	3285.58
1008.067	3194.73
1008.361	3241.06
1008.655	3178.24
1008.948	3162.64
1009.242	3193.6
1009.535	3132.81
1009.829	3145.47
1010.122	3118.12
1010.415	3095.3
1010.708	3065.92
1011.001	3014.85
1011.295	2995.42
1011.588	3047.39
1011.881	2958.81
1012.173	2973.27
1012.466	2957.45
1012.759	2927.62
1013.052	2919.94
1013.344	2881.97
1013.637	2851.01
1013.93	2837.23
1014.222	2853.95
1014.514	2825.25
1014.807	2813.95
1015.099	2804.23
1015.391	2777.79
1015.683	2761.07
1015.976	2788.87
1016.268	2730.79
1016.56	2720.85
1016.851	2675.65
1017.143	2672.94
1017.435	2620.74
1017.727	2614.63
1018.018	2625.93
1018.31	2580.74
1018.602	2561.3
1018.893	2514.75
1019.185	2536.44
1019.476	2506.61
1019.767	2499.38
1020.058	2495.54
1020.35	2492.6
1020.641	2446.05
1020.932	2421.19
1021.223	2400.63
1021.514	2411.7
1021.804	2366.05
1022.095	2364.25
1022.386	2317.24
1022.677	2314.98
1022.967	2276.11
1023.258	2298.94
1023.548	2248.09
1023.839	2300.74
1024.129	2257.58
1024.419	2244.93
1024.709	2225.27
1025	2212.84
1025.29	2162.22
1025.58	2174.42
1025.87	2150.01
1026.16	2129.22
1026.449	2119.05
1026.739	2124.7
1027.029	2107.08
1027.319	2081.54
1027.608	2086.96
1027.898	2037.47
1028.187	2038.38
1028.477	2043.12
1028.766	1992.28
1029.055	1994.09
1029.344	1962.9
1029.634	1975.78
1029.923	1941.21
1030.212	1933.3
1030.501	1918.38
1030.79	1884.71
1031.078	1893.3
1031.367	1868.44
1031.656	1865.28
1031.945	1822.57
1032.233	1842.23
1032.522	1826.41
1032.81	1821.66
1033.099	1785.28
1033.387	1783.47
1033.675	1759.52
1033.963	1747.99
1034.251	1742.34
1034.54	1720.87
1034.828	1692.62
1035.116	1705.73
1035.403	1704.38
1035.691	1658.05
1035.979	1644.94
1036.267	1644.26
1036.554	1663.93
1036.842	1650.14
1037.129	1609.46
1037.417	1586.19
1037.704	1585.28
1037.992	1595.9
1038.279	1578.5
1038.566	1552.06
1038.853	1552.06
1039.14	1552.06
