Data from 152_FLMS001491_004.txt Node
Date: Thu Apr 19 16:17:40 BST 2018
User: hsy
Spectrometer: FLMS00149
Trigger mode: 0
Integration Time (sec): 1.000000E-2
Scans to average: 10
Electric dark correction enabled: true
Nonlinearity correction enabled: false
Boxcar width: 0
XAxis mode: Wavelengths
Number of Pixels in Spectrum: 2048
>>>>>Begin Spectral Data<<<<<
341.393	-20.42
341.776	-20.42
342.16	-20.42
342.543	-55.68
342.927	-53.64
343.31	-64.72
343.693	-72.85
344.077	-66.07
344.46	-74.21
344.843	-53.64
345.226	-29.69
345.61	-41.44
345.993	-21.55
346.376	-6.86
346.759	-11.61
347.142	65
347.525	56.18
347.908	53.25
348.291	89.18
348.674	78.33
349.057	100.7
349.44	139.57
349.823	151.1
350.206	184.32
350.588	252.34
350.971	257.99
351.354	268.38
351.737	276.29
352.119	299.12
352.502	295.27
352.884	317.2
353.267	336.86
353.65	329.62
354.032	353.58
354.414	353.8
354.797	372.11
355.179	387.7
355.562	382.05
355.944	371.2
356.326	370.75
356.709	379.79
357.091	392.22
357.473	380.47
357.855	423.63
358.238	379.11
358.62	396.74
359.002	394.26
359.384	386.57
359.766	395.39
360.148	377.76
360.53	405.33
360.912	395.16
361.294	402.39
361.676	389.28
362.057	375.5
362.439	409.17
362.821	379.79
363.203	381.83
363.584	378.89
363.966	374.82
364.348	375.95
364.729	379.34
365.111	380.47
365.493	387.93
365.874	378.44
366.256	385.89
366.637	384.09
367.019	378.66
367.4	391.32
367.781	403.29
368.163	368.72
368.544	401.03
368.925	383.86
369.306	383.86
369.688	401.94
370.069	384.31
370.45	365.78
370.831	388.61
371.212	382.28
371.593	365.56
371.974	396.29
372.355	386.35
372.736	394.03
373.117	391.77
373.498	396.51
373.879	399.23
374.26	389.51
374.641	373.24
375.021	386.57
375.402	420.02
375.783	410.3
376.163	391.54
376.544	411.2
376.925	399.23
377.305	410.75
377.686	416.85
378.066	400.36
378.447	419.79
378.827	387.25
379.208	414.59
379.588	427.25
379.968	426.34
380.349	414.37
380.729	422.5
381.109	436.51
381.489	435.16
381.87	423.18
382.25	428.15
382.63	449.62
383.01	423.63
383.39	431.99
383.77	433.58
384.15	439.23
384.53	450.52
384.91	461.6
385.29	435.84
385.67	447.59
386.049	456.63
386.429	446.23
386.809	468.15
387.189	467.02
387.568	462.5
387.948	494.59
388.328	484.2
388.707	466.12
389.087	462.5
389.466	472.9
389.846	493.91
390.225	488.26
390.605	480.58
390.984	513.8
391.363	477.64
391.743	496.85
392.122	506.79
392.501	517.64
392.881	509.28
393.26	513.8
393.639	509.51
394.018	497.76
394.397	532.78
394.776	533.69
395.155	520.35
395.534	513.35
395.913	552.22
396.292	535.72
396.671	552.22
397.05	542.73
397.429	564.42
397.808	534.14
398.186	543.86
398.565	530.52
398.944	571.2
399.323	545.44
399.701	564.19
400.08	569.84
400.458	578.21
400.837	561.03
401.215	559.67
401.594	580.92
401.972	602.84
402.351	584.98
402.729	592.89
403.107	594.02
403.486	586.57
403.864	612.33
404.242	605.55
404.62	591.54
404.999	616.4
405.377	626.79
405.755	622.5
406.133	653.01
406.511	616.17
406.889	646.68
407.267	655.27
407.645	665.43
408.023	675.83
408.401	665.66
408.779	663.63
409.156	669.28
409.534	691.65
409.912	674.7
410.29	710.63
410.667	708.6
411.045	695.72
411.422	728.71
411.8	732.78
412.178	737.97
412.555	722.83
412.933	747.47
413.31	777.75
413.687	749.27
414.065	783.4
414.442	772.78
414.819	801.93
415.197	769.84
415.574	809.39
415.951	807.13
416.328	806.9
416.705	801.25
417.082	821.59
417.46	829.05
417.837	811.42
418.214	848.03
418.591	867.01
418.967	842.6
419.344	848.93
419.721	863.17
420.098	842.15
420.475	877.86
420.852	874.47
421.228	865.66
421.605	876.28
421.982	900.91
422.358	899.1
422.735	907.01
423.111	907.69
423.488	925.99
423.864	898.42
424.241	929.38
424.617	966.22
424.994	940
425.37	932.77
425.746	977.52
426.123	990.4
426.499	966.9
426.875	981.58
427.251	1010.96
427.627	986.56
428.003	1029.72
428.379	1036.27
428.756	1035.82
429.132	1064.29
429.507	1077.4
429.883	1073.11
430.259	1090.73
430.635	1116.27
431.011	1112.2
431.387	1096.84
431.763	1135.48
432.138	1127.57
432.514	1144.29
432.89	1148.81
433.265	1193.1
433.641	1196.95
434.016	1192.2
434.392	1235.36
434.767	1226.32
435.143	1211.18
435.518	1239.43
435.894	1262.03
436.269	1266.1
436.644	1262.25
437.02	1269.03
437.395	1295.02
437.77	1304.29
438.145	1323.95
438.52	1327.11
438.895	1362.59
439.271	1338.86
439.646	1381.35
440.021	1386.32
440.395	1358.98
440.77	1340.9
441.145	1411.18
441.52	1437.17
441.895	1377.28
442.27	1434.91
442.645	1422.02
443.019	1421.35
443.394	1443.04
443.769	1461.57
444.143	1450.72
444.518	1444.17
444.892	1457.73
445.267	1467.67
445.641	1490.95
446.016	1503.15
446.39	1480.33
446.764	1520.33
447.139	1517.16
447.513	1523.04
447.887	1523.04
448.262	1550.38
448.636	1555.35
449.01	1561.68
449.384	1590.38
449.758	1571.4
450.132	1605.52
450.506	1619.99
450.88	1652.53
451.254	1647.56
451.628	1646.43
452.002	1678.29
452.376	1685.75
452.75	1687.33
453.123	1722.58
453.497	1727.1
453.871	1756.48
454.244	1748.34
454.618	1824.95
454.992	1814.56
455.365	1819.98
455.739	1850.49
456.112	1879.19
456.486	1884.39
456.859	1923.25
457.232	1941.79
457.606	1973.42
457.979	1974.33
458.352	2009.81
458.725	2005.06
459.099	2012.29
459.472	2090.71
459.845	2097.26
460.218	2101.1
460.591	2137.49
460.964	2153.76
461.337	2147.2
461.71	2232.4
462.083	2258.84
462.456	2268.33
462.829	2251.83
463.201	2292.51
463.574	2306.97
463.947	2335.9
464.32	2342.9
464.692	2380.64
465.065	2404.82
465.438	2441.66
465.81	2457.7
466.183	2448.21
466.555	2560.07
466.928	2533.18
467.3	2580.64
467.672	2534.09
468.045	2639.39
468.417	2673.52
468.789	2673.52
469.161	2669.22
469.534	2706.74
469.906	2776.79
470.278	2783.8
470.65	2821.08
471.022	2882.55
471.394	2914.41
471.766	2926.17
472.138	2997.35
472.51	3039.61
472.882	3048.87
473.253	3098.36
473.625	3158.48
473.997	3184.69
474.369	3179.94
474.74	3245.93
475.112	3280.28
475.484	3331.35
475.855	3381.3
476.227	3455.64
476.598	3503.33
476.97	3508.75
477.341	3629.65
477.713	3684.11
478.084	3684.11
478.455	3796.2
478.827	3808.63
479.198	3963.2
479.569	3963.65
479.94	4051.56
480.311	4116.87
480.682	4202.29
481.053	4252.23
481.424	4367.94
481.795	4416.07
482.166	4445.67
482.537	4550.08
482.908	4582.17
483.279	4695.16
483.65	4821.03
484.021	4860.58
484.391	4901.48
484.762	4993.46
485.133	5088.6
485.503	5108.48
485.874	5274.8
486.244	5263.51
486.615	5459.43
486.985	5508.24
487.356	5616.26
487.726	5637.96
488.097	5834.11
488.467	5878.18
488.837	6053.54
489.207	6078.4
489.578	6203.37
489.948	6330.14
490.318	6388.9
490.688	6423.7
491.058	6589.8
491.428	6680.42
491.798	6744.37
492.168	6942.11
492.538	6963.12
492.908	7108.2
493.278	7142.55
493.648	7234.53
494.017	7343.22
494.387	7561.75
494.757	7591.35
495.126	7696.21
495.496	7795.19
495.866	7874.96
496.235	7950.89
496.605	8088.06
496.974	8140.04
497.344	8252.13
497.713	8418.9
498.082	8491.44
498.452	8578.67
498.821	8629.07
499.19	8767.82
499.559	8868.38
499.928	8939.12
500.298	9017.31
500.667	9157.41
501.036	9140.92
501.405	9321.48
501.774	9397.86
502.143	9563.05
502.512	9608.48
502.88	9643.28
503.249	9808.92
503.618	9749.94
503.987	9931.63
504.356	10021.57
504.724	10137.05
505.093	10249.82
505.462	10251.62
505.83	10344.5
506.199	10441.9
506.567	10633.53
506.936	10664.49
507.304	10799.41
507.672	10878.73
508.041	10916.24
508.409	11059.96
508.777	11130.24
509.145	11242.78
509.514	11314.42
509.882	11350.13
510.25	11508.77
510.618	11600.97
510.986	11660.17
511.354	11704.47
511.722	11824.24
512.09	11947.17
512.458	12028.3
512.826	12095.19
513.193	12219.71
513.561	12293.83
513.929	12393.71
514.297	12486.37
514.664	12623.76
515.032	12655.85
515.4	12736.3
515.767	12806.58
516.135	12909.86
516.502	12957.09
516.869	13073.24
517.237	13190.75
517.604	13156.18
517.972	13360.69
518.339	13386.46
518.706	13563.4
519.073	13609.5
519.44	13669.16
519.808	13905.54
520.175	13877.06
520.542	14072.09
520.909	14097.4
521.276	14130.17
521.643	14419.2
522.009	14406.99
522.376	14615.58
522.743	14639.98
523.11	14809.47
523.477	14893.99
523.843	14928.11
524.21	15253.3
524.577	15329.91
524.943	15423.24
525.31	15423.92
525.676	15616
526.043	15792.95
526.409	15920.85
526.776	16033.39
527.142	16145.71
527.508	16265.02
527.874	16367.39
528.241	16521.97
528.607	16648.29
528.973	16779.36
529.339	16793.15
529.705	17043.99
530.071	17031.78
530.437	17174.6
530.803	17363.75
531.169	17442.39
531.535	17521.26
531.901	17600.13
532.267	17766.68
532.632	17823.4
532.998	17971.19
533.364	18041.25
533.73	18081.25
534.095	18249.38
534.461	18335.48
534.826	18418.64
535.192	18466.1
535.557	18698.86
535.923	18702.7
536.288	18686.2
536.653	18951.73
537.019	18901.34
537.384	18911.96
537.749	19072.63
538.114	19087.1
538.479	19106.76
538.845	19232.18
539.21	19296.36
539.575	19296.58
539.94	19450.7
540.305	19543.58
540.67	19655.67
541.034	19655.44
541.399	19672.84
541.764	19667.42
542.129	19866.29
542.494	19956
542.858	20013.63
543.223	19974.31
543.587	20182.44
543.952	20155.54
544.316	20238.03
544.681	20259.95
545.045	20340.4
545.41	20515.31
545.774	20455.65
546.138	20530.9
546.503	20671.46
546.867	20555.76
547.231	20718.01
547.595	20783.55
547.959	20861.97
548.324	20905.58
548.688	20945.58
549.052	20971.57
549.416	20920.04
549.779	21023.54
550.143	21150.77
550.507	21280.03
550.871	21432.12
551.235	21344.44
551.599	21507.15
551.962	21699.23
552.326	21610.42
552.689	21663.3
553.053	21589.4
553.417	21821.49
553.78	21860.58
554.143	22006.79
554.507	22051.54
554.87	22067.81
555.234	22272.78
555.597	22218.09
555.96	22305.09
556.323	22380.8
556.686	22462.83
557.05	22652.65
557.413	22684.06
557.776	22699.21
558.139	22927.45
558.502	22933.32
558.865	23022.13
559.228	23173.32
559.59	23099.19
559.953	23247.21
560.316	23556.58
560.679	23519.07
561.041	23563.14
561.404	23780.53
561.767	23862.56
562.129	23899.17
562.492	24083.8
562.854	24005.39
563.217	24229.56
563.579	24246.28
563.941	24352.72
564.304	24405.6
564.666	24723.11
565.028	24700.28
565.39	24854.85
565.753	25023.89
566.115	25009.88
566.477	25219.37
566.839	25308.85
567.201	25582.52
567.563	25531.9
567.925	25725.34
568.287	25698.67
568.648	25823.87
569.01	26095.5
569.372	26225.44
569.734	26255.04
570.095	26537.3
570.457	26646.45
570.819	26716.5
571.18	26643.73
571.542	26948.13
571.903	27031.75
572.265	27131.63
572.626	27462.24
572.987	27478.06
573.349	27672.86
573.71	27756.25
574.071	28008.67
574.432	28119.18
574.794	28244.82
575.155	28442.11
575.516	28435.1
575.877	28662.89
576.238	28711.02
576.599	28942.43
576.96	29216.77
577.32	29235.08
577.681	29411.57
578.042	29584.9
578.403	29642.75
578.763	29630.77
579.124	29791
579.485	30221.27
579.845	30433.24
580.206	30476.63
580.566	30482.96
580.927	30793.46
581.287	30989.16
581.648	31027.57
582.008	31301.69
582.368	31564.51
582.728	31749.14
583.089	31972.86
583.449	32213.31
583.809	32428.89
584.169	32709.56
584.529	32848.09
584.889	33369.66
585.249	33445.14
585.609	33553.84
585.969	33897.1
586.329	34070.88
586.688	34440.14
587.048	34784.54
587.408	34979.33
587.768	35445.08
588.127	35817.73
588.487	36043.71
588.846	36642.57
589.206	36717.59
589.565	37063.8
589.925	37619.04
590.284	37959.6
590.643	38278.46
591.003	38754.6
591.362	39258.32
591.721	39532.89
592.08	40069.37
592.44	40499.42
592.799	40797.26
593.158	41343.23
593.517	41641.98
593.876	42152.03
594.235	42487.16
594.593	42934.83
594.952	43428.15
595.311	43726.68
595.67	44180.67
596.029	44699.76
596.387	45262.45
596.746	45642.78
597.104	45780.41
597.463	46236.44
597.822	46827.38
598.18	47134.95
598.538	47439.8
598.897	48125.88
599.255	48083.4
599.613	48948.01
599.972	48880.89
600.33	49286.3
600.688	49710.92
601.046	49993.85
601.404	50585.25
601.762	50720.62
602.12	51208.96
602.478	51393.59
602.836	51652.57
603.194	51721.27
603.552	52200.35
603.91	52267.24
604.268	52768.25
604.625	52872.65
604.983	53287.55
605.341	53325.97
605.698	53775.68
606.056	54101.54
606.413	54160.53
606.771	54497.01
607.128	54617.01
607.485	54738.36
607.843	54891.81
608.2	55187.84
608.557	55447.95
608.914	55535.86
609.272	55814.94
609.629	56108.72
609.986	56263.52
610.343	56313.69
610.7	56590.52
611.057	56679.78
611.414	56840.91
611.771	57074.57
612.127	57150.28
612.484	57352.31
612.841	57595.01
613.198	57532.41
613.554	57680.21
613.911	57984.83
614.267	58064.6
614.624	58169.23
614.98	58354.77
615.337	58595.21
615.693	58564.48
616.05	58714.76
616.406	58883.34
616.762	58937.57
617.118	59019.61
617.475	59122.88
617.831	59319.94
618.187	59353.61
618.543	59501.18
618.899	59686.93
619.255	59692.13
619.611	59690.1
619.967	59913.37
620.323	60015.29
620.678	59940.71
621.034	60011.67
621.39	60026.59
621.746	60117.88
622.101	60430.64
622.457	60269.52
622.812	60478.55
623.168	60501.83
623.523	60536.4
623.879	60696.85
624.234	60531.88
624.589	60604.2
624.945	60682.39
625.3	60829.05
625.655	60848.94
626.01	60864.76
626.365	60895.49
626.72	60910.4
627.075	60923.96
627.43	60917.64
627.785	61020.23
628.14	61026.11
628.495	61123.51
628.85	61134.35
629.205	61087.57
629.559	61234.01
629.914	61145.88
630.269	61157.4
630.623	61064.07
630.978	61114.92
631.332	61269.04
631.687	61223.16
632.041	61193.56
632.396	61230.85
632.75	61196.5
633.104	61234.69
633.459	61107.69
633.813	61178.19
634.167	61107.01
634.521	61154.47
634.875	61134.58
635.229	61184.75
635.583	61033.34
635.937	61103.39
636.291	61028.59
636.645	61072.89
636.999	61013.45
637.352	61063.39
637.706	60961.25
638.06	61008.71
638.413	60946.11
638.767	60894.36
639.121	61031.98
639.474	60862.5
639.828	60818.66
640.181	60856.85
640.534	60942.49
640.888	60812.33
641.241	60697.3
641.594	60751.99
641.947	60853.68
642.301	60745.66
642.654	60733.46
643.007	60720.13
643.36	60796.96
643.713	60680.35
644.066	60827.02
644.419	60604.65
644.771	60445.78
645.124	60068.84
645.477	60150.2
645.83	60027.04
646.182	60064.1
646.535	59982.07
646.888	60048.73
647.24	59956.3
647.593	60060.93
647.945	59954.27
648.298	59843.31
648.65	59781.39
649.002	59641.28
649.355	59618.91
649.707	59534.85
650.059	59650.32
650.411	59918.34
650.763	60007.6
651.115	60375.5
651.467	60245.34
651.819	60175.28
652.171	60168.95
652.523	60060.26
652.875	60106.13
653.227	60037.43
653.578	60244.43
653.93	60118.79
654.282	60002.86
654.633	59963.99
654.985	60017.55
655.337	60038.79
655.688	59994.27
656.039	60061.16
656.391	59774.39
656.742	59916.76
657.094	59927.15
657.445	59933.48
657.796	59909.75
658.147	59815.07
658.498	59884.44
658.849	59923.54
659.2	59830.88
659.551	59670.66
659.902	59834.27
660.253	59756.31
660.604	59797.21
660.955	59667.95
661.306	59785.69
661.656	59740.72
662.007	59773.03
662.358	59654.62
662.708	59727.16
663.059	59663.21
663.409	59544.56
663.76	59727.84
664.11	59753.37
664.461	59665.01
664.811	59706.59
665.161	59713.15
665.511	59599.03
665.862	59629.08
666.212	59685.35
666.562	59711.11
666.912	59622.75
667.262	59544.11
667.612	59599.48
667.962	59642.19
668.312	59549.54
668.662	59683.32
669.011	59601.51
669.361	59559.93
669.711	59511.34
670.06	59514.73
670.41	59484
670.76	59456.43
671.109	59548.86
671.459	59444.91
671.808	59468.86
672.157	59512.7
672.507	59380.5
672.856	59358.35
673.205	59363.33
673.554	59486.03
673.904	59331.01
674.253	59573.94
674.602	59418.47
674.951	59011.47
675.3	58961.98
675.649	59408.97
675.998	59375.08
676.346	59399.71
676.695	59433.83
677.044	59219.6
677.393	59329.2
677.741	59369.2
678.09	59295.08
678.438	59192.26
678.787	59255.08
679.135	59291.24
679.484	59144.35
679.832	59233.61
680.181	59125.82
680.529	59175.53
680.877	59116.33
681.225	59072.94
681.573	59279.03
681.922	59039.72
682.27	59019.15
682.618	59098.47
682.966	58948.87
683.314	59008.53
683.661	58963.11
684.009	58917.01
684.357	58914.07
684.705	58818.71
685.053	58848.99
685.4	58797.47
685.748	58771.25
686.095	58764.92
686.443	58573.97
686.79	58638.15
687.138	58685.38
687.485	58662.1
687.832	58609.9
688.18	58588.66
688.527	58446.97
688.874	58463.46
689.221	58449.9
689.568	58306.86
689.915	58292.62
690.262	58329.45
690.609	58213.53
690.956	58183.02
691.303	58239.97
691.65	58063.25
691.997	58092.85
692.344	57967.88
692.69	57919.97
693.037	57931.05
693.383	57735.8
693.73	57804.05
694.077	57710.26
694.423	57788
694.769	57649.02
695.116	57600.21
695.462	57496.03
695.808	57446.54
696.155	57456.03
696.501	57224.17
696.847	57389.14
697.193	57157.28
697.539	57149.6
697.885	57050.84
698.231	56947.34
698.577	57037.29
698.923	56935.37
699.269	56751.64
699.614	56765.65
699.96	56671.87
700.306	56778.54
700.651	56546.23
700.997	56439.79
701.342	56406.79
701.688	56438.88
702.033	56294.71
702.379	56309.85
702.724	56197.53
703.069	56145.33
703.415	55900.82
703.76	55966.35
704.105	55965.68
704.45	55859.24
704.795	55735.4
705.14	55713.7
705.485	55648.85
705.83	55461.73
706.175	55570.66
706.52	55455.41
706.865	55307.84
707.209	55286.15
707.554	55132.48
707.899	55224.45
708.243	55054.06
708.588	55067.17
708.932	54862.88
709.277	54912.6
709.621	54748.76
709.966	54641.42
710.31	54728.87
710.654	54532.49
710.998	54628.99
711.342	54623.79
711.687	54378.82
712.031	54349.67
712.375	54237.59
712.719	54192.61
713.063	54173.63
713.407	54298.37
713.75	54137.47
714.094	54126.4
714.438	54000.98
714.782	53944.94
715.125	53762.8
715.469	53911.49
715.812	53691.38
716.156	53567.09
716.499	53544.72
716.843	53693.42
717.186	53521.45
717.53	53580.88
717.873	53592.86
718.216	53493.42
718.559	53298.63
718.902	53202.36
719.246	53242.81
719.589	53117.61
719.932	53059.99
720.275	53049.82
720.617	53065.41
720.96	52892.76
721.303	52937.28
721.646	52886.89
721.989	52728.92
722.331	52835.59
722.674	52680.79
723.016	52648.02
723.359	52563.96
723.701	52658.42
724.044	52571.41
724.386	52297.07
724.729	52476.73
725.071	52418.42
725.413	52390.63
725.755	52323.51
726.097	52278.09
726.439	52142.27
726.782	51978.44
727.124	52172.78
727.465	52127.36
727.807	51951.09
728.149	51933.69
728.491	51913.58
728.833	51907.25
729.175	51900.02
729.516	51805.78
729.858	51791.1
730.199	51820.47
730.541	51743.19
730.882	51652.34
731.224	51664.77
731.565	51494.83
731.906	51556.75
732.248	51498.22
732.589	51424.78
732.93	51249.64
733.271	51406.47
733.612	51308.62
733.953	51388.17
734.294	51240.83
734.635	51124.9
734.976	51260.94
735.317	51089.87
735.658	50966.26
735.999	50907.05
736.339	50925.13
736.68	51009.87
737.021	50924.9
737.361	50744.8
737.702	51057.56
738.042	50768.52
738.383	50852.36
738.723	50806.49
739.063	50559.72
739.404	50688.98
739.744	50650.56
740.084	50593.39
740.424	50604.91
740.764	50508.87
741.104	50549.55
741.444	50284.47
741.784	50310.68
742.124	50392.04
742.464	50243.34
742.804	50324.92
743.143	50033.85
743.483	50222.78
743.823	49958.15
744.162	49896.68
744.502	50011.48
744.841	49834.54
745.181	50035.89
745.52	49802.45
745.86	49883.35
746.199	49829.34
746.538	49748.21
746.877	49835.22
747.216	49648.33
747.556	49507.54
747.895	49599.52
748.234	49509.8
748.573	49345.51
748.911	49398.84
749.25	49367.43
749.589	49148.23
749.928	49290.82
750.267	49252.18
750.605	49084.5
750.944	49011.28
751.283	49040.66
751.621	48990.49
751.96	48854.9
752.298	48741.46
752.636	48814
752.975	48671.86
753.313	48568.13
753.651	48680.67
753.989	48499.88
754.327	48477.96
754.666	48169.72
755.004	48266.44
755.342	48151.19
755.679	48173.34
756.017	47932.89
756.355	48099.89
756.693	47944.87
757.031	47882.72
757.368	47668.27
757.706	47597.31
758.044	47468.5
758.381	47536.07
758.719	47382.62
759.056	47457.65
759.394	47229.86
759.731	46903.99
760.068	47038
760.405	46870.55
760.743	46652.93
761.08	46768.4
761.417	46384.46
761.754	46512.82
762.091	46341.07
762.428	46083.45
762.765	46045.26
763.102	45971.59
763.438	45892.04
763.775	45661.77
764.112	45626.96
764.449	45603.24
764.785	45379.06
765.122	45199.18
765.458	45083.7
765.795	45010.03
766.131	44876.48
766.467	44834.89
766.804	44476.71
767.14	44429.48
767.476	44268.81
767.812	44199.43
768.148	44295.93
768.485	43973.67
768.821	43782.94
769.157	43709.05
769.492	43704.75
769.828	43537.3
770.164	43274.48
770.5	43036.3
770.836	43133.02
771.171	42973.02
771.507	42702.3
771.842	42361.29
772.178	42495.75
772.513	42333.04
772.849	42182.99
773.184	42120.62
773.519	41926.5
773.855	41724.24
774.19	41645.83
774.525	41575.77
774.86	41438.15
775.195	41221.66
775.53	41118.61
775.865	40872.51
776.2	40800.42
776.535	40416.71
776.87	40501.9
777.205	40344.84
777.539	40165.41
777.874	40063.95
778.209	39762.71
778.543	39897.17
778.878	39498.99
779.212	39567.91
779.547	39245.44
779.881	39292.44
780.215	38933.81
780.55	39007.7
780.884	38641.39
781.218	38637.09
781.552	38579.47
781.886	38374.05
782.22	38088.41
782.554	38008.18
782.888	37724.8
783.222	37647.96
783.556	37539.72
783.889	37464.24
784.223	37285.71
784.557	37167.3
784.89	37249.11
785.224	36992.39
785.557	36799.85
785.891	36684.83
786.224	36702.68
786.558	36680.98
786.891	36353.31
787.224	36072.19
787.557	36019.76
787.891	35940.21
788.224	35606.89
788.557	35659.32
788.89	35644.85
789.223	35462.71
789.556	35300.68
789.888	35288.48
790.221	35008.94
790.554	34860.24
790.887	34858.89
791.219	34628.84
791.552	34659.57
791.884	34439.24
792.217	34260.71
792.549	34329.41
792.882	33994.95
793.214	33896.2
793.546	33964.67
793.879	33591.8
794.211	33381.86
794.543	33615.75
794.875	33498.24
795.207	33414.63
795.539	33213.73
795.871	33296.89
796.203	33062.32
796.535	32889.45
796.867	32886.96
797.198	32733.74
797.53	32674.76
797.862	32320.2
798.193	32439.06
798.525	32225.51
798.856	32313.19
799.188	31906.19
799.519	31804.5
799.85	31649.03
800.182	31704.39
800.513	31705.52
800.844	31247.46
801.175	31545.3
801.506	31568.8
801.837	31202.26
802.168	31204.07
802.499	31234.57
802.83	30981.02
803.161	30794.36
803.491	30900.57
803.822	31018.08
804.153	30564.99
804.483	30454.26
804.814	30153.25
805.145	30274.83
805.475	30330.87
805.805	30265.79
806.136	30246.13
806.466	29977.88
806.796	30033.25
807.126	29776.53
807.457	29666.71
807.787	29740.15
808.117	29628.74
808.447	29475.75
808.777	29517.11
809.107	29393.04
809.436	29226.72
809.766	29238.69
810.096	29218.36
810.426	28989.66
810.755	29096.55
811.085	28963.67
811.414	28936.78
811.744	28689.56
812.073	28754.19
812.403	28612.04
812.732	28527.53
813.061	28703.79
813.39	28430.13
813.719	28315.1
814.049	28549.45
814.378	28388.77
814.707	28085.28
815.036	28144.03
815.365	27984.72
815.693	27785.63
816.022	27865.62
816.351	27674.44
816.68	27629.47
817.008	27679.64
817.337	27442.13
817.665	27495.46
817.994	27359.42
818.322	27559.19
818.651	27432.41
818.979	27329.14
819.307	27312.87
819.636	27280.78
819.964	27099.09
820.292	27142.03
820.62	27057.51
820.948	27133.21
821.276	27278.52
821.604	27140.22
821.932	27178.18
822.259	27062.71
822.587	27092.99
822.915	27096.6
823.243	27102.93
823.57	26984.74
823.898	27095.02
824.225	26998.3
824.553	26857.06
824.88	27004.18
825.207	27137.51
825.535	26894.58
825.862	27189.48
826.189	26906.78
826.516	26999.43
826.843	26932.31
827.17	27049.6
827.497	27023.39
827.824	27045.98
828.151	27058.86
828.478	26916.27
828.805	27124.17
829.131	27049.83
829.458	27009.6
829.785	26781.81
830.111	26859.55
830.438	27058.64
830.764	27031.75
831.09	27030.84
831.417	26789.49
831.743	27022.26
832.069	27029.71
832.395	26890.06
832.722	26978.64
833.048	26810.51
833.374	26929.15
833.7	26858.42
834.026	26864.75
834.351	26812.77
834.677	26839.44
835.003	26783.17
835.329	26830.17
835.654	26715.6
835.98	26605.77
836.306	26655.03
836.631	26629.5
836.956	26712.21
837.282	26674.92
837.607	26575.71
837.932	26471.99
838.258	26414.59
838.583	26449.16
838.908	26269.06
839.233	26362.84
839.558	26284.65
839.883	26260.69
840.208	26039.46
840.533	26111.55
840.858	26096.86
841.182	26106.35
841.507	26043.75
841.832	25859.12
842.156	26003.53
842.481	25926.24
842.805	25789.07
843.13	25639.69
843.454	25781.16
843.778	25627.94
844.103	25629.75
844.427	25547.27
844.751	25529.19
845.075	25524.44
845.399	25537.77
845.723	25285.13
846.047	25385.01
846.371	25072.93
846.695	25004.91
847.019	24859.6
847.343	24788.19
847.666	24811.47
847.99	24586.16
848.313	24557.01
848.637	24557.91
848.96	24468.42
849.284	24448.76
849.607	24156.57
849.931	24249.67
850.254	24049
850.577	23824.37
850.9	23646.98
851.223	23658.05
851.546	23665.51
851.869	23465.74
852.192	23616.47
852.515	23280.21
852.838	23280.21
853.161	23196.82
853.483	23052.64
853.806	23022.13
854.129	22959.99
854.451	22912.31
854.774	22749.6
855.096	22671.86
855.419	22625.99
855.741	22627.12
856.063	22478.65
856.385	22372.43
856.708	22274.13
857.03	22307.58
857.352	22237.75
857.674	22119.11
857.996	22107.58
858.318	21916.18
858.64	22027.58
858.961	21840.24
859.283	21857.87
859.605	21659.23
859.926	21649.74
860.248	21631.66
860.57	21516.86
860.891	21669.4
861.212	21405.91
861.534	21436.87
861.855	21321.39
862.176	21280.94
862.498	21318.45
862.819	21273.48
863.14	21094.73
863.461	21167.72
863.782	21024
864.103	21171.11
864.424	21032.13
864.745	21029.87
865.065	20925.69
865.386	20827.16
865.707	20847.95
866.027	20871.91
866.348	20787.62
866.668	20831.01
866.989	20703.33
867.309	20613.84
867.63	20610.9
867.95	20711.46
868.27	20483.22
868.59	20480.73
868.91	20544.46
869.23	20427.63
869.55	20400.73
869.87	20440.51
870.19	20298.14
870.51	20362.54
870.83	20195.09
871.15	20196.9
871.469	20234.41
871.789	20171.14
872.109	20196.9
872.428	20115.77
872.748	20148.76
873.067	20067.18
873.386	20136.11
873.706	20069.22
874.025	20060.4
874.344	19939.05
874.663	19937.47
874.982	19843.91
875.301	19851.6
875.62	19791.03
875.939	19789
876.258	19818.15
876.577	19689.34
876.896	19741.32
877.214	19710.81
877.533	19590.59
877.852	19629.23
878.17	19597.14
878.489	19603.69
878.807	19566.41
879.125	19499.52
879.444	19376.35
879.762	19398.5
880.08	19391.95
880.398	19303.36
880.716	19414.55
881.034	19331.38
881.352	19337.71
881.67	19249.8
881.988	19285.74
882.306	19183.37
882.624	19127.1
882.941	18979.98
883.259	18981.11
883.577	18895.69
883.894	18889.14
884.212	18887.33
884.529	18922.58
884.846	18827.44
885.164	18718.75
885.481	18687.79
885.798	18740.21
886.115	18520.11
886.432	18579.31
886.75	18519.88
887.067	18467.68
887.383	18307
887.7	18396.95
888.017	18262.49
888.334	18173.45
888.651	18272.2
888.967	18219.1
889.284	18080.12
889.6	18072.89
889.917	17942.72
890.233	17963.51
890.55	17903.17
890.866	17952.89
891.182	17929.16
891.498	17799
891.815	17766.91
892.131	17646.91
892.447	17597.87
892.763	17435.39
893.079	17468.61
893.395	17414.6
893.71	17487.59
894.026	17361.72
894.342	17352
894.657	17260.93
894.973	17199.01
895.289	17145.45
895.604	17085.57
895.92	16952.24
896.235	16938.45
896.55	16891.22
896.865	16829.53
897.181	16731.23
897.496	16744.56
897.811	16664.56
898.126	16684.67
898.441	16587.28
898.756	16561.06
899.071	16420.95
899.386	16517.45
899.7	16317
900.015	16217.57
900.33	16142.99
900.644	16058.02
900.959	16072.04
901.273	16104.12
901.588	15938.71
901.902	15882.89
902.216	15907.29
902.531	15744.13
902.845	15738.71
903.159	15660.07
903.473	15578.71
903.787	15603.35
904.101	15451.49
904.415	15502.56
904.729	15333.3
905.042	15335.11
905.356	15298.5
905.67	15259.63
905.984	15220.98
906.297	15169.46
906.611	15011.95
906.924	15072.06
907.237	15034.77
907.551	14857.38
907.864	14863.71
908.177	14836.14
908.491	14789.13
908.804	14624.84
909.117	14624.84
909.43	14466.65
909.743	14357.05
910.056	14445.64
910.368	14397.73
910.681	14348.24
910.994	14221.24
911.307	14208.58
911.619	14077.96
911.932	14098.3
912.244	14005.65
912.557	13958.42
912.869	13875.48
913.181	13803.62
913.494	13851.3
913.806	13767.46
914.118	13695.37
914.43	13630.29
914.742	13541.25
915.054	13489.05
915.366	13484.31
915.678	13461.48
915.99	13450.64
916.302	13233.24
916.613	13186.69
916.925	13164.09
917.236	13106.24
917.548	12999.57
917.859	13019.46
918.171	12895.17
918.482	12805.91
918.794	12725
919.105	12781.95
919.416	12625.35
919.727	12707.83
920.038	12729.52
920.349	12544.67
920.66	12477.33
920.971	12496.08
921.282	12378.8
921.593	12380.38
921.903	12271.46
922.214	12230.55
922.525	12205.92
922.835	12128.86
923.146	12028.75
923.456	12037.11
923.767	11974.29
924.077	11940.84
924.387	11887.96
924.697	11810.23
925.008	11697.23
925.318	11774.75
925.628	11711.92
925.938	11630.57
926.248	11565.03
926.558	11487.97
926.867	11535.43
927.177	11452.95
927.487	11417.47
927.796	11263.57
928.106	11259.73
928.416	11258.6
928.725	11239.39
929.034	11152.62
929.344	11116.91
929.653	11111.71
929.962	10907.88
930.271	10962.56
930.581	10887.76
930.89	10855.45
931.199	10777.48
931.508	10772.06
931.817	10737.26
932.125	10656.13
932.434	10662.46
932.743	10558.06
933.051	10520.32
933.36	10483.93
933.669	10420.66
933.977	10370.26
934.286	10404.61
934.594	10250.27
934.902	10219.99
935.21	10153.55
935.519	10154.9
935.827	10162.36
936.135	10057.28
936.443	10033.32
936.751	9989.03
937.059	9924.85
937.367	9905.87
937.674	9863.16
937.982	9876.04
938.29	9780.45
938.597	9709.26
938.905	9564.64
939.213	9603.96
939.52	9630.62
939.827	9591.3
940.135	9528.25
940.442	9442.38
940.749	9427.92
941.056	9418.65
941.363	9305.89
941.67	9279.45
941.977	9287.58
942.284	9206
942.591	9193.12
942.898	9199.67
943.205	9150.41
943.511	9063.86
943.818	9027.47
944.125	8916.29
944.431	8916.52
944.738	8903.64
945.044	8809.85
945.35	8796.29
945.657	8768.95
945.963	8704.55
946.269	8665.9
946.575	8637.88
946.881	8573.02
947.187	8645.34
947.493	8513.82
947.799	8528.28
948.105	8466.59
948.41	8426.59
948.716	8435.4
949.022	8346.81
949.327	8365.8
949.633	8210.09
949.938	8212.58
950.244	8227.04
950.549	8123.54
950.854	8156.08
951.16	8170.55
951.465	8043.09
951.77	8004.45
952.075	8006.94
952.38	7945.47
952.685	7919.71
952.99	7896.43
953.294	7884
953.599	7812.14
953.904	7767.17
954.209	7743.67
954.513	7677
954.818	7675.42
955.122	7665.25
955.426	7613.95
955.731	7580.73
956.035	7500.51
956.339	7499.15
956.643	7487.18
956.948	7414.86
957.252	7373.51
957.556	7341.19
957.86	7310.91
958.163	7304.13
958.467	7239.27
958.771	7223.68
959.075	7183.46
959.378	7177.35
959.682	7139.39
959.985	7080.41
960.289	6988.21
960.592	6966.51
960.896	7011.03
961.199	7002.67
961.502	6924.03
961.805	6926.96
962.108	6828.89
962.411	6895.78
962.714	6839.28
963.017	6797.02
963.32	6834.54
963.623	6755.22
963.926	6689
964.228	6654.2
964.531	6644.71
964.833	6646.75
965.136	6600.19
965.438	6599.52
965.741	6534.88
966.043	6492.4
966.345	6458.73
966.648	6465.73
966.95	6386.87
967.252	6342.12
967.554	6306.42
967.856	6286.76
968.158	6250.15
968.46	6223.03
968.761	6251.73
969.063	6185.29
969.365	6148
969.666	6165.85
969.968	6080.43
970.269	6095.12
970.571	6048.57
970.872	6067.1
971.174	5990.94
971.475	5985.07
971.776	5934.9
972.077	5904.84
972.378	5898.74
972.679	5877.05
972.98	5866.2
973.281	5828.91
973.582	5827.78
973.883	5780.55
974.183	5714.79
974.484	5697.62
974.785	5631.18
975.085	5655.59
975.386	5613.55
975.686	5617.17
975.986	5566.77
976.287	5505.31
976.587	5549.6
976.887	5490.84
977.187	5469.38
977.487	5446.33
977.787	5378.98
978.087	5382.6
978.387	5380.79
978.687	5351.86
978.987	5317.74
979.286	5310.51
979.586	5268.25
979.885	5258.76
980.185	5235.03
980.484	5201.81
980.784	5175.15
981.083	5193
981.382	5148.48
981.682	5098.99
981.981	5105.32
982.28	5092.21
982.579	4984.87
982.878	4995.26
983.177	4970.41
983.475	4982.84
983.774	4922.5
984.073	4913.46
984.372	4877.75
984.67	4893.8
984.969	4877.53
985.267	4852.22
985.566	4818.09
985.864	4755.72
986.162	4784.87
986.461	4779.68
986.759	4731.99
987.057	4697.19
987.355	4651.54
987.653	4647.93
987.951	4614.48
988.249	4594.82
988.547	4581.49
988.844	4556.86
989.142	4495.39
989.44	4523.41
989.737	4511.21
990.035	4446.13
990.332	4439.57
990.63	4416.07
990.927	4418.1
991.224	4413.13
991.521	4350.31
991.819	4356.64
992.116	4303.76
992.413	4332.23
992.71	4230.76
993.006	4247.94
993.303	4223.76
993.6	4240.71
993.897	4193.48
994.193	4197.32
994.49	4122.74
994.787	4149.64
995.083	4087.49
995.379	4097.21
995.676	4065.8
995.972	4033.48
996.268	3992.58
996.565	3994.39
996.861	3966.59
997.157	3970.21
997.453	3954.61
997.749	3896.99
998.044	3902.86
998.34	3911.22
998.636	3831.23
998.932	3848.85
999.227	3786.26
999.523	3752.81
999.818	3785.13
1000.114	3710.1
1000.409	3717.11
1000.704	3696.32
1001	3687.5
1001.295	3655.86
1001.59	3675.75
1001.885	3656.09
1002.18	3608.18
1002.475	3571.12
1002.77	3572.48
1003.065	3537.45
1003.359	3507.62
1003.654	3529.54
1003.949	3500.39
1004.243	3452.93
1004.538	3422.65
1004.832	3408.19
1005.127	3411.58
1005.421	3377.68
1005.715	3378.58
1006.009	3332.03
1006.304	3358.02
1006.598	3298.13
1006.892	3285.25
1007.186	3254.29
1007.48	3235.54
1007.773	3205.03
1008.067	3189.66
1008.361	3204.58
1008.655	3172.49
1008.948	3140.85
1009.242	3148.31
1009.535	3142.21
1009.829	3078.03
1010.122	3081.42
1010.415	2996.9
1010.708	2999.61
1011.001	3031.93
1011.295	3002.32
1011.588	2976.79
1011.881	2918.93
1012.173	2923.91
1012.466	2923.68
1012.759	2907.64
1013.052	2883.91
1013.344	2876
1013.637	2855.66
1013.93	2856.56
1014.222	2793.29
1014.514	2797.13
1014.807	2783.34
1015.099	2763.23
1015.391	2760.52
1015.683	2711.93
1015.976	2688.66
1016.268	2677.81
1016.56	2698.15
1016.851	2600.75
1017.143	2592.62
1017.435	2610.69
1017.727	2610.02
1018.018	2581.32
1018.31	2562.56
1018.602	2530.7
1018.893	2525.27
1019.185	2495.67
1019.476	2509.45
1019.767	2451.15
1020.058	2460.42
1020.35	2464.26
1020.641	2402.11
1020.932	2389.23
1021.223	2399.85
1021.514	2371.15
1021.804	2371.83
1022.095	2337.93
1022.386	2346.07
1022.677	2297.71
1022.967	2301.1
1023.258	2280.76
1023.548	2267.65
1023.839	2249.12
1024.129	2223.81
1024.419	2212.29
1024.709	2170.03
1025	2183.59
1025.29	2150.37
1025.58	2149.46
1025.87	2102.01
1026.16	2117.83
1026.449	2109.69
1026.739	2087.09
1027.029	2071.5
1027.319	2056.58
1027.608	2033.99
1027.898	2015.91
1028.187	2000.99
1028.477	2008.9
1028.766	1952.63
1029.055	1938.85
1029.344	1943.59
1029.634	1946.3
1029.923	1931.39
1030.212	1912.63
1030.501	1919.41
1030.79	1860.88
1031.078	1867.44
1031.367	1884.61
1031.656	1841.22
1031.945	1849.13
1032.233	1810.26
1032.522	1808.68
1032.81	1776.59
1033.099	1766.65
1033.387	1762.35
1033.675	1735.69
1033.963	1721.68
1034.251	1738.17
1034.54	1685.29
1034.828	1680.55
1035.116	1667.22
1035.403	1662.47
1035.691	1651.17
1035.979	1635.13
1036.267	1644.84
1036.554	1618.18
1036.842	1627.67
1037.129	1607.1
1037.417	1559.2
1037.704	1602.13
1037.992	1558.07
1038.279	1539.54
1038.566	1558.07
1038.853	1558.07
1039.14	1558.07
