Data from 152_FLMS001491_010.txt Node
Date: Thu Apr 19 16:17:55 BST 2018
User: hsy
Spectrometer: FLMS00149
Trigger mode: 0
Integration Time (sec): 1.000000E-2
Scans to average: 10
Electric dark correction enabled: true
Nonlinearity correction enabled: false
Boxcar width: 0
XAxis mode: Wavelengths
Number of Pixels in Spectrum: 2048
>>>>>Begin Spectral Data<<<<<
341.393	-27.94
341.776	-27.94
342.16	-27.94
342.543	-47.82
342.927	-53.25
343.31	-82.4
343.693	-63.42
344.077	-72.23
344.46	-66.13
344.843	-50.08
345.226	-41.04
345.61	-34.49
345.993	-23.42
346.376	-3.3
346.759	1.44
347.142	26.07
347.525	55.9
347.908	83.25
348.291	80.08
348.674	88.9
349.057	100.87
349.44	134.77
349.823	132.51
350.206	180.42
350.588	218.38
350.971	252.96
351.354	242.34
351.737	273.07
352.119	309.23
352.502	285.5
352.884	324.82
353.267	317.36
353.65	339.28
354.032	340.64
354.414	358.27
354.797	369.34
355.179	397.36
355.562	371.6
355.944	365.95
356.326	395.78
356.709	383.8
357.091	378.61
357.473	391.71
357.855	389.91
358.238	389.23
358.62	397.14
359.002	398.49
359.384	396.01
359.766	383.13
360.148	388.55
360.53	390.58
360.912	414.99
361.294	408.21
361.676	391.26
362.057	385.84
362.439	382.22
362.821	377.93
363.203	386.06
363.584	372.5
363.966	399.17
364.348	384.71
364.729	368.44
365.111	352.39
365.493	376.35
365.874	390.81
366.256	391.03
366.637	394.65
367.019	370.47
367.4	383.58
367.781	381.77
368.163	377.25
368.544	401.2
368.925	377.25
369.306	382
369.688	392.84
370.069	398.72
370.45	383.8
370.831	358.49
371.212	387.87
371.593	364.37
371.974	388.32
372.355	384.93
372.736	393.07
373.117	384.93
373.498	356.69
373.879	396.46
374.26	386.52
374.641	387.87
375.021	395.1
375.402	416.12
375.783	413.18
376.163	428.1
376.544	410.7
376.925	401.2
377.305	401.66
377.686	392.84
378.066	388.78
378.447	415.44
378.827	419.28
379.208	412.05
379.588	412.05
379.968	417.47
380.349	422.9
380.729	438.04
381.109	415.89
381.489	433.97
381.87	418.6
382.25	428.55
382.63	433.52
383.01	468.55
383.39	438.72
383.77	450.24
384.15	444.14
384.53	446.4
384.91	448.21
385.29	430.81
385.67	466.06
386.049	461.99
386.429	474.65
386.809	475.1
387.189	490.47
387.568	476
387.948	479.62
388.328	469.9
388.707	474.42
389.087	465.61
389.466	504.48
389.846	488.21
390.225	488.43
390.605	495.21
390.984	471.71
391.363	494.99
391.743	513.07
392.122	520.07
392.501	520.52
392.881	498.38
393.26	507.19
393.639	522.1
394.018	517.59
394.397	505.83
394.776	522.33
395.155	550.8
395.534	538.6
395.913	544.03
396.292	533.63
396.671	541.09
397.05	550.13
397.429	537.25
397.808	575.44
398.186	567.3
398.565	549.67
398.944	562.78
399.323	567.75
399.701	575.44
400.08	588.09
400.458	577.47
400.837	561.88
401.215	578.6
401.594	573.63
401.972	588.54
402.351	574.98
402.729	594.19
403.107	590.8
403.486	606.17
403.864	622.44
404.242	630.35
404.62	587.87
404.999	611.59
405.377	607.98
405.755	623.57
406.133	645.72
406.511	635.32
406.889	642.78
407.267	662.89
407.645	653.4
408.023	678.26
408.401	670.58
408.779	687.07
409.156	687.3
409.534	680.52
409.912	694.3
410.29	709.9
410.667	714.87
411.045	731.82
411.422	739.27
411.8	727.98
412.178	750.8
412.555	756.22
412.933	730.46
413.31	762.32
413.687	774.75
414.065	769.1
414.442	772.49
414.819	771.14
415.197	811.36
415.574	808.43
415.951	792.61
416.328	806.39
416.705	825.15
417.082	806.39
417.46	817.01
417.837	817.46
418.214	820.63
418.591	835.09
418.967	823.34
419.344	849.55
419.721	883.45
420.098	859.05
420.475	882.1
420.852	893.62
421.228	889.55
421.605	905.82
421.982	874.86
422.358	901.76
422.735	923.9
423.111	908.76
423.488	925.26
423.864	942.88
424.241	906.28
424.617	960.29
424.994	962.55
425.37	960.06
425.746	951.92
426.123	943.11
426.499	980.4
426.875	1003.22
427.251	984.69
427.627	1004.58
428.003	1040.74
428.379	1029.44
428.756	1038.02
429.132	1030.11
429.507	1052.71
429.883	1060.85
430.259	1101.98
430.635	1095.42
431.011	1127.51
431.387	1124.8
431.763	1131.58
432.138	1133.84
432.514	1169.32
432.89	1187.85
433.265	1184.23
433.641	1209.32
434.016	1195.08
434.392	1230.11
434.767	1235.53
435.143	1230.33
435.518	1250.45
435.894	1283.21
436.269	1282.99
436.644	1296.55
437.02	1277.11
437.395	1304.91
437.77	1326.6
438.145	1350.56
438.52	1353.04
438.895	1361.4
439.271	1325.7
439.646	1379.03
440.021	1367.05
440.395	1414.96
440.77	1363.66
441.145	1400.27
441.52	1421.97
441.895	1430.1
442.27	1440.72
442.645	1435.98
443.019	1433.95
443.394	1450.22
443.769	1459.71
444.143	1481.18
444.518	1478.46
444.892	1497.67
445.267	1468.07
445.641	1497.9
446.016	1515.07
446.39	1522.3
446.764	1529.99
447.139	1524.34
447.513	1535.19
447.887	1529.99
448.262	1577.9
448.636	1558.91
449.01	1590.78
449.384	1604.11
449.758	1608.18
450.132	1616.54
450.506	1617.67
450.88	1621.96
451.254	1656.99
451.628	1666.26
452.002	1717.55
452.376	1716.65
452.75	1743.77
453.123	1724.11
453.497	1780.6
453.871	1739.02
454.244	1807.49
454.618	1825.8
454.992	1814.05
455.365	1826.48
455.739	1878.91
456.112	1894.05
456.486	1884.78
456.859	1903.31
457.232	1970.65
457.606	1972.69
457.979	1979.02
458.352	2008.39
458.725	2045.45
459.099	2050.65
459.472	2069.18
459.845	2139.69
460.218	2124.77
460.591	2180.14
460.964	2171.78
461.337	2191.21
461.71	2248.16
462.083	2273.02
462.456	2254.49
462.829	2294.49
463.201	2302.17
463.574	2306.69
463.947	2327.71
464.32	2375.39
464.692	2412.45
465.065	2418.33
465.438	2436.63
465.81	2484.54
466.183	2484.09
466.555	2547.36
466.928	2563.41
467.3	2576.29
467.672	2578.1
468.045	2651.31
468.417	2647.02
468.789	2675.72
469.161	2730.63
469.534	2778.99
469.906	2792.78
470.278	2852.67
470.65	2833.23
471.022	2907.58
471.394	2916.17
471.766	2931.99
472.138	2961.36
472.51	3044.75
472.882	3075.03
473.253	3088.82
473.625	3185.54
473.997	3225.31
474.369	3259.66
474.74	3308.7
475.112	3320.22
475.484	3347.57
475.855	3444.74
476.227	3482.93
476.598	3541.23
476.97	3585.3
477.341	3634.79
477.713	3672.53
478.084	3773.32
478.455	3814.9
478.827	3904.39
479.198	3997.04
479.569	4004.95
479.94	4077.27
480.311	4115.91
480.682	4244.04
481.053	4315
481.424	4416.47
481.795	4383.25
482.166	4477.26
482.537	4530.36
482.908	4649.45
483.279	4721.09
483.65	4856
484.021	4929.9
484.391	4959.28
484.762	5040.4
485.133	5060.06
485.503	5182.1
485.874	5316.1
486.244	5366.05
486.615	5479.26
486.985	5561.29
487.356	5647.62
487.726	5800.61
488.097	5902.75
488.467	5924.22
488.837	6051.23
489.207	6207.61
489.578	6245.12
489.948	6380.71
490.318	6450.31
490.688	6570.08
491.058	6685.33
491.428	6700.93
491.798	6823.86
492.168	6999.22
492.538	7049.62
492.908	7191.53
493.278	7277.86
493.648	7347.46
494.017	7445.54
494.387	7539.1
494.757	7653.67
495.126	7709.71
495.496	7822.03
495.866	7968.01
496.235	8058.18
496.605	8225.63
496.974	8230.83
497.344	8327.1
497.713	8480.09
498.082	8577.71
498.452	8640.54
498.821	8659.97
499.19	8845.28
499.559	8883.47
499.928	9001.43
500.298	9079.62
500.667	9195.78
501.036	9280.29
501.405	9405.94
501.774	9393.51
502.143	9536.33
502.512	9651.13
502.88	9777.45
503.249	9865.14
503.618	9939.48
503.987	9996.21
504.356	10064.68
504.724	10212.02
505.093	10305.35
505.462	10358
505.83	10431.67
506.199	10566.59
506.567	10711.22
506.936	10843.42
507.304	10873.25
507.672	10923.19
508.041	11061.94
508.409	11129.74
508.777	11225.33
509.145	11347.36
509.514	11392.55
509.882	11482.27
510.25	11531.08
510.618	11606.11
510.986	11628.71
511.354	11858.3
511.722	11967.45
512.09	12094
512.458	12054.01
512.826	12216.94
513.193	12200.67
513.561	12382.81
513.929	12456.48
514.297	12586.19
514.664	12647.44
515.032	12723.59
515.4	12848.56
515.767	12896.24
516.135	12948.44
516.502	12974.21
516.869	13180.76
517.237	13323.12
517.604	13242.22
517.972	13466.4
518.339	13554.08
518.706	13549.11
519.073	13633.85
519.44	13677.69
519.808	13968.08
520.175	13919.72
520.542	14101.18
520.909	14200.62
521.276	14212.82
521.643	14443.09
522.009	14576.2
522.376	14722.64
522.743	14741.84
523.11	14908.39
523.477	14988.62
523.843	15030.65
524.21	15340.25
524.577	15422.73
524.943	15588.38
525.31	15663.18
525.676	15854.81
526.043	15940.23
526.409	16028.36
526.776	16220.45
527.142	16346.77
527.508	16429.48
527.874	16510.16
528.241	16682.13
528.607	16746.09
528.973	16942.46
529.339	17003.03
529.705	17167.09
530.071	17209.35
530.437	17337.71
530.803	17477.82
531.169	17652.73
531.535	17663.35
531.901	17685.27
532.267	17695.44
532.632	18010.91
532.998	18012.49
533.364	18150.12
533.73	18221.3
534.095	18333.16
534.461	18462.2
534.826	18601.4
535.192	18618.8
535.557	18766.6
535.923	18831.45
536.288	18847.27
536.653	19011.56
537.019	19010.66
537.384	19074.16
537.749	19203.65
538.114	19209.98
538.479	19328.39
538.845	19360.03
539.21	19377.88
539.575	19505.56
539.94	19651.77
540.305	19740.58
540.67	19786.91
541.034	19901.26
541.399	19913.01
541.764	19937.64
542.129	20108.03
542.494	19996.85
542.858	20186.9
543.223	20176.96
543.587	20227.8
543.952	20338.31
544.316	20404.97
544.681	20429.6
545.045	20602.48
545.41	20665.08
545.774	20658.75
546.138	20620.33
546.503	20728.58
546.867	20745.98
547.231	20992.08
547.595	20988.69
547.959	21044.05
548.324	20961.34
548.688	21098.29
549.052	21212.41
549.416	21120.43
549.779	21166.08
550.143	21246.98
550.507	21413.76
550.871	21513.64
551.235	21515.9
551.599	21718.16
551.962	21694.66
552.326	21814.2
552.689	21910.47
553.053	21812.84
553.417	21830.92
553.78	22229.33
554.143	22207.86
554.507	22115.21
554.87	22312.49
555.234	22477.23
555.597	22409.44
555.96	22477.69
556.323	22565.14
556.686	22634.97
557.05	22751.12
557.413	22857.11
557.776	22939.37
558.139	23064.34
558.502	23027.95
558.865	23086.26
559.228	23252.13
559.59	23299.36
559.953	23348.62
560.316	23665.68
560.679	23574.61
561.041	23766.24
561.404	23955.84
561.767	24167.58
562.129	24048.94
562.492	24222.05
562.854	24282.16
563.217	24235.15
563.579	24410.97
563.941	24633.56
564.304	24707.68
564.666	24895.02
565.028	24961.01
565.39	24901.8
565.753	25169.14
566.115	25291.4
566.477	25445.07
566.839	25566.19
567.201	25765.73
567.563	25758.05
567.925	26001.66
568.287	25909.23
568.648	26029
569.01	26263.12
569.372	26497.24
569.734	26409.56
570.095	26586.96
570.457	26894.97
570.819	26992.37
571.18	26886.38
571.542	27412.47
571.903	27334.51
572.265	27426.71
572.626	27631.67
572.987	27727.27
573.349	27892.23
573.71	28026.47
574.071	28208.83
574.432	28392.33
574.794	28638.88
575.155	28627.58
575.516	28635.72
575.877	28858.08
576.238	28982.37
576.599	29165.87
576.96	29144.63
577.32	29388.01
577.681	29533.55
578.042	29776.48
578.403	29823.71
578.763	29938.73
579.124	30178.73
579.485	30412.62
579.845	30602.44
580.206	30703.46
580.566	30779.61
580.927	30909.33
581.287	31102.77
581.648	31236.78
582.008	31622.3
582.368	31751.57
582.728	31965.57
583.089	32180.93
583.449	32416.41
583.809	32592.9
584.169	32902.95
584.529	32974.36
584.889	33617.51
585.249	33495.25
585.609	33729.82
585.969	34283.7
586.329	34285.06
586.688	34746.29
587.048	34904.25
587.408	35356.22
587.768	35613.61
588.127	35893.6
588.487	36224.89
588.846	36863.97
589.206	36996.17
589.565	37291.76
589.925	37860.33
590.284	38145.52
590.643	38499.41
591.003	39006.74
591.362	39575.77
591.721	39773.73
592.08	40162.64
592.44	40718.11
592.799	40971.89
593.158	41381.6
593.517	41859.78
593.876	42344.06
594.235	42730.71
594.593	43102.91
594.952	43556.68
595.311	43910.12
595.67	44477.79
596.029	44881.84
596.387	45275.5
596.746	45860.12
597.104	46033.68
597.463	46415.59
597.822	46939.42
598.18	47277.71
598.538	47522.23
598.897	48232.04
599.255	48207.18
599.613	49041.06
599.972	49135.97
600.33	49499.35
600.688	49727.82
601.046	50266.11
601.404	50705.42
601.762	50867.22
602.12	51241.45
602.478	51446.87
602.836	51780.64
603.194	51768.67
603.552	52172.5
603.91	52472.6
604.268	52840.05
604.625	52876.43
604.983	53388.96
605.341	53388.06
605.698	53738.56
606.056	54150.07
606.413	54078.21
606.771	54531.31
607.128	54691.08
607.485	54742.15
607.843	54943.95
608.2	55202.02
608.557	55530.38
608.914	55582.35
609.272	55893.76
609.629	56140.3
609.986	56343.69
610.343	56427.53
610.7	56684.92
611.057	56758.37
611.414	56899.38
611.771	57162.2
612.127	57315.64
612.484	57379.37
612.841	57594.95
613.198	57668.17
613.554	57804.21
613.911	58049.86
614.267	58173.24
614.624	58203.07
614.98	58390.64
615.337	58611.2
615.693	58633.8
616.05	58732.55
616.406	58932.55
616.762	59010.06
617.118	59079.21
617.475	59173.22
617.831	59363.5
618.187	59427.45
618.543	59430.61
618.899	59711.06
619.255	59676.48
619.611	59742.92
619.967	59912.41
620.323	60090.93
620.678	60010.71
621.034	60039.86
621.39	60164.15
621.746	60164.83
622.101	60486.18
622.457	60278.73
622.812	60486.86
623.168	60546.06
623.523	60589
623.879	60654.31
624.234	60595.33
624.589	60729.34
624.945	60802.78
625.3	60842.78
625.655	60870.57
626.01	60906.51
626.365	61001.87
626.72	60884.13
627.075	60903.57
627.43	61050
627.785	61029.89
628.14	60998.48
628.495	61096.78
628.85	61157.57
629.205	61118.7
629.559	61220.4
629.914	61145.14
630.269	61160.06
630.623	61104.01
630.978	61071.02
631.332	61217.91
631.687	61249.55
632.041	61214.52
632.396	61230.11
632.75	61205.26
633.104	61268.98
633.459	61082.77
633.813	61137.01
634.167	61132.71
634.521	61164.8
634.875	61142.43
635.229	61155.54
635.583	61010.01
635.937	61045.03
636.291	61105.82
636.645	61060.17
636.999	60927.97
637.352	61067.41
637.706	60949.44
638.06	61035.32
638.413	60929.56
638.767	60898.14
639.121	60958.26
639.474	60906.28
639.828	60831.48
640.181	60866.51
640.534	60988.09
640.888	60811.59
641.241	60693.4
641.594	60772.5
641.947	60899.27
642.301	60805.27
642.654	60814.98
643.007	60692.27
643.36	60798.03
643.713	60797.13
644.066	60799.62
644.419	60631.94
644.771	60405.95
645.124	60198.05
645.477	60189.01
645.83	60050.94
646.182	60065.17
646.535	60006.19
646.888	60052.74
647.24	59937.49
647.593	60097.94
647.945	59984.72
648.298	59879.87
648.65	59812.07
649.002	59765.07
649.355	59681.91
649.707	59629.93
650.059	59659.08
650.411	59997.83
650.763	60061.56
651.115	60411.83
651.467	60317.59
651.819	60232.17
652.171	60164.38
652.523	60073.08
652.875	60137.03
653.227	60022.24
653.578	60236.69
653.93	60095
654.282	59996.7
654.633	59990.15
654.985	60051.39
655.337	60041.67
655.688	60024.27
656.039	60076.25
656.391	59910.37
656.742	59884.39
657.094	59893.88
657.445	59974.78
657.796	59933.42
658.147	59866.76
658.498	59880.32
658.849	59967.77
659.2	59865.18
659.551	59818.62
659.902	59957.38
660.253	59772.75
660.604	59907.21
660.955	59744.05
661.306	59872.18
661.656	59779.08
662.007	59742.69
662.358	59725.07
662.708	59741.34
663.059	59710.15
663.409	59608.46
663.76	59708.12
664.11	59741.79
664.461	59787.89
664.811	59686.65
665.161	59758.06
665.511	59630.16
665.862	59694.56
666.212	59640.32
666.562	59704.96
666.912	59612.98
667.262	59556.94
667.612	59585.18
667.962	59619.31
668.312	59554.45
668.662	59696.82
669.011	59623.6
669.361	59574.11
669.711	59605.52
670.06	59524.4
670.41	59526.2
670.76	59451.4
671.109	59598.74
671.459	59539.76
671.808	59492.98
672.157	59568.46
672.507	59433.55
672.856	59446.88
673.205	59492.53
673.554	59532.98
673.904	59391.97
674.253	59547.45
674.602	59450.27
674.951	59170.05
675.3	58991.3
675.649	59409.37
675.998	59416.83
676.346	59429.26
676.695	59430.84
677.044	59238.75
677.393	59319.88
677.741	59410.05
678.09	59309.94
678.438	59263.84
678.787	59259.09
679.135	59276.04
679.484	59171.64
679.832	59328.02
680.181	59101.13
680.529	59251.63
680.877	59122.37
681.225	59091.19
681.573	59269.03
681.922	59106.33
682.27	59004.41
682.618	59020.23
682.966	58963.05
683.314	58985.65
683.661	58983.17
684.009	58910.85
684.357	58836.05
684.705	58743.17
685.053	58895.94
685.4	58770.74
685.748	58709.5
686.095	58706.11
686.443	58569.17
686.79	58618.43
687.138	58631.99
687.485	58531.88
687.832	58544.76
688.18	58575.49
688.527	58454.82
688.874	58445.78
689.221	58447.36
689.568	58334.37
689.915	58296.63
690.262	58318.55
690.609	58298.44
690.956	58195.16
691.303	58142.51
691.65	58060.03
691.997	58059.35
692.344	57883.99
692.69	57901.61
693.037	57913.59
693.383	57659.59
693.73	57808.51
694.077	57634.05
694.423	57673.14
694.769	57631.79
695.116	57587.27
695.462	57447.39
695.808	57389.99
696.155	57529.42
696.501	57320.39
696.847	57431.34
697.193	57185.93
697.539	57229.54
697.885	57033.39
698.231	56976.67
698.577	56939.6
698.923	56892.6
699.269	56713.17
699.614	56679.72
699.96	56622.55
700.306	56726.73
700.651	56602.44
700.997	56490.8
701.342	56432.73
701.688	56395.89
702.033	56216.23
702.379	56276.8
702.724	56058.72
703.069	56197.48
703.415	55933.3
703.76	55845.17
704.105	55995.22
704.45	55789.35
704.795	55825.74
705.14	55677.04
705.485	55681.78
705.83	55544.61
706.175	55655.12
706.52	55363.15
706.865	55372.87
707.209	55455.12
707.554	55340.1
707.899	55280.67
708.243	55165.87
708.588	55123.16
708.932	54978.53
709.277	54971.07
709.621	54890.39
709.966	54748.25
710.31	54756.39
710.654	54700.57
710.998	54679.1
711.342	54630.06
711.687	54472.78
712.031	54431.65
712.375	54354.59
712.719	54302.61
713.063	54238.88
713.407	54306.23
713.75	54109.4
714.094	54101.49
714.438	53950.98
714.782	53995.95
715.125	53853.36
715.469	53942.4
715.812	53702.85
716.156	53713.7
716.499	53708.05
716.843	53646.81
717.186	53499.47
717.53	53672.8
717.873	53573.59
718.216	53518
718.559	53403.65
718.902	53131.34
719.246	53225.58
719.589	53116.88
719.932	53046.37
720.275	53061.29
720.617	52989.43
720.96	52969.77
721.303	52924.79
721.646	53032.59
721.989	52711.24
722.331	52835.53
722.674	52744.69
723.016	52657.91
723.359	52632.83
723.701	52648.42
724.044	52570.91
724.386	52363.23
724.729	52508.76
725.071	52461.3
725.413	52432.83
725.755	52315.77
726.097	52206.62
726.439	52171.37
726.782	52208.66
727.124	52266.28
727.465	52082.56
727.807	51954.42
728.149	52074.42
728.491	51968.89
728.833	51980.41
729.175	51892.96
729.516	51772.06
729.858	51746.07
730.199	51796.01
730.541	51736.35
730.882	51666.52
731.224	51651.83
731.565	51554.44
731.906	51576.13
732.248	51491.39
732.589	51403.03
732.93	51292.52
733.271	51307.89
733.612	51333.42
733.953	51450.03
734.294	51207.1
734.635	51066.09
734.976	51182.02
735.317	51052.3
735.658	51055.92
735.999	51048.69
736.339	50928.01
736.68	51019.76
737.021	50909.48
737.361	50801.01
737.702	50941.12
738.042	50808.92
738.383	50774.57
738.723	50823.38
739.063	50621.13
739.404	50790.39
739.744	50594.23
740.084	50579.77
740.424	50556.5
740.764	50528.7
741.104	50682.82
741.444	50453
741.784	50294.13
742.124	50386.1
742.464	50314.92
742.804	50306.56
743.143	50195.83
743.483	50171.19
743.823	50047.36
744.162	50085.77
744.502	50068.15
744.841	49955.61
745.181	49980.01
745.52	49872.67
745.86	49869.51
746.199	49827.93
746.538	49916.06
746.877	49810.53
747.216	49771.66
747.556	49535.05
747.895	49693.24
748.234	49476.07
748.573	49444.43
748.911	49293.93
749.25	49379.8
749.589	49160.83
749.928	49323.99
750.267	49288.28
750.605	49101.39
750.944	49104.56
751.283	48974.16
751.621	49072.24
751.96	48885.81
752.298	48822.98
752.636	48811.23
752.975	48739.14
753.313	48490.56
753.651	48642.42
753.989	48478.58
754.327	48424.57
754.666	48187.74
755.004	48362.43
755.342	48256.44
755.679	48174.86
756.017	48052.61
756.355	48047.18
756.693	47830.92
757.031	48042.66
757.368	47621.43
757.706	47719.06
758.044	47482.68
758.381	47541.89
758.719	47396.13
759.056	47409.91
759.394	47184.15
759.731	46990.49
760.068	46871.62
760.405	46988.23
760.743	46656.03
761.08	46672.76
761.417	46487.45
761.754	46455.59
762.091	46302.82
762.428	46179.89
762.765	45994.58
763.102	46023.73
763.438	45900.35
763.775	45659.68
764.112	45600.47
764.449	45635.27
764.785	45464.88
765.122	45277.99
765.458	45119.58
765.795	44958.22
766.131	45063.31
766.467	44930.2
766.804	44645.24
767.14	44573.38
767.476	44374.74
767.812	44349.2
768.148	44464.23
768.485	44226.49
768.821	43748.76
769.157	43700.18
769.492	43639.16
769.828	43562.78
770.164	43318.95
770.5	43084.6
770.836	43126.63
771.171	43021.55
771.507	42843.25
771.842	42532.3
772.178	42529.36
772.513	42542.24
772.849	42310.61
773.184	42260.89
773.519	41977.51
773.855	41752.43
774.19	41676.28
774.525	41589.27
774.86	41542.27
775.195	41238.55
775.53	41132.11
775.865	40895.51
776.2	40789.52
776.535	40540.49
776.87	40517.44
777.205	40196.54
777.539	40200.16
777.874	40171.91
778.209	39653.05
778.543	39625.94
778.878	39579.38
779.212	39502.1
779.547	39277.02
779.881	39210.58
780.215	38934.2
780.55	39063.69
780.884	38695.11
781.218	38592.29
781.552	38582.12
781.886	38310.72
782.22	38027.79
782.554	38007.22
782.888	37761.8
783.222	37773.78
783.556	37497.4
783.889	37426.22
784.223	37173.8
784.557	37152.33
784.89	37191.2
785.224	36873.24
785.557	36664.43
785.891	36560.48
786.224	36465.79
786.558	36525
786.891	36153.94
787.224	36077.1
787.557	35852.7
787.891	36006.14
788.224	35678.24
788.557	35777.68
788.89	35661.97
789.223	35464.91
789.556	35217.92
789.888	35156.45
790.221	35028.77
790.554	34873.52
790.887	34803.01
791.219	34646.86
791.552	34610.25
791.884	34542
792.217	34413.87
792.549	34191.95
792.882	33845.97
793.214	33835.13
793.546	34055.69
793.879	33773.21
794.211	33365.54
794.543	33622.93
794.875	33333.45
795.207	33424.52
795.539	33235.37
795.871	33216.16
796.203	33139.1
796.535	32824.31
796.867	32795.61
797.198	32597.65
797.53	32563.97
797.862	32291.89
798.193	32469.06
798.525	32222.74
798.856	32305.68
799.188	31752.02
799.519	31832.92
799.85	31605.58
800.182	31600.38
800.513	31798.57
800.844	31358.81
801.175	31555.19
801.506	31405.59
801.837	31244.01
802.168	31121.3
802.499	31154.52
802.83	30917.24
803.161	30831.82
803.491	30736
803.822	30843.12
804.153	30586.4
804.483	30359.74
804.814	30276.12
805.145	30240.19
805.475	30263.7
805.805	30304.15
806.136	30151.61
806.466	29942.8
806.796	29839.3
807.126	29773.99
807.457	29744.84
807.787	29648.8
808.117	29580.1
808.447	29559.31
808.777	29561.34
809.107	29200.45
809.436	29173.33
809.766	29225.53
810.096	29226.21
810.426	29131.97
810.755	29035.93
811.085	28934.69
811.414	28923.39
811.744	28724.75
812.073	28861.25
812.403	28620.58
812.732	28474.36
813.061	28693.79
813.39	28418.09
813.719	28348.49
814.049	28506.91
814.378	28360.92
814.707	28137.42
815.036	28109.63
815.365	27951.21
815.693	27848.84
816.022	27942.85
816.351	27796.19
816.68	27647.49
817.008	27639.36
817.337	27481.62
817.665	27523.88
817.994	27467.84
818.322	27436.43
818.651	27279.37
818.979	27296.09
819.307	27386.03
819.636	27210.44
819.964	27120.5
820.292	27292.47
820.62	27071.69
820.948	27131.12
821.276	27252.25
821.604	27195.3
821.932	27106.49
822.259	27007.06
822.587	27071.01
822.915	27082.31
823.243	27101.97
823.57	26892.71
823.898	27057.9
824.225	27038.92
824.553	26970.45
824.88	26960.28
825.207	27094.97
825.535	26922.09
825.862	27094.74
826.189	26967.29
826.516	27200.27
826.843	27044.8
827.17	27171.35
827.497	27186.94
827.824	27115.98
828.151	27185.36
828.478	26974.97
828.805	27135.19
829.131	27141.52
829.458	27155.98
829.785	26856.55
830.111	26952.14
830.438	27084.34
830.764	26960.73
831.09	27064.91
831.417	26910.11
831.743	27219.93
832.069	26914.41
832.395	26927.51
832.722	26956.89
833.048	26882.09
833.374	27007.74
833.7	26752.38
834.026	26821.98
834.351	26821.98
834.677	26939.49
835.003	26900.17
835.329	26875.08
835.654	26847.97
835.98	26765.03
836.306	26687.52
836.631	26622.21
836.956	26764.13
837.282	26572.72
837.607	26639.38
837.932	26464.93
838.258	26603.68
838.583	26472.16
838.908	26459.5
839.233	26497.24
839.558	26292.27
839.883	26247.3
840.208	26134.09
840.533	26157.14
840.858	26151.71
841.182	26092.28
841.507	26154.65
841.832	26055.22
842.156	26022.68
842.481	25950.59
842.805	25851.61
843.13	25806.19
843.454	25808.9
843.778	25728.67
844.103	25729.8
844.427	25620.43
844.751	25550.83
845.075	25587.43
845.399	25458.85
845.723	25268.8
846.047	25325.75
846.371	25108.58
846.695	25019.77
847.019	24963.04
847.343	24733.45
847.666	24773.9
847.99	24604.18
848.313	24408.93
848.637	24406.67
848.96	24325.77
849.284	24323.29
849.607	24097.53
849.931	24165.78
850.254	24018.66
850.577	23878.33
850.9	23639.92
851.223	23731.66
851.546	23615.51
851.869	23459.35
852.192	23588.39
852.515	23263.2
852.838	23189.31
853.161	23229.08
853.483	22995.86
853.806	23022.53
854.129	22993.38
854.451	22911.8
854.774	22749.09
855.096	22741.86
855.419	22651.47
855.741	22594.29
856.063	22575.08
856.385	22474.07
856.708	22383.45
857.03	22269.56
857.352	22282.66
857.674	22255.09
857.996	22164.93
858.318	21968.09
858.64	22004.48
858.961	21925.84
859.283	21795.44
859.605	21744.15
859.926	21844.48
860.248	21696.01
860.57	21631.15
860.891	21671.15
861.212	21470.71
861.534	21325.4
861.855	21382.35
862.176	21328.34
862.498	21445.17
862.819	21451.27
863.14	21329.47
863.461	21368.56
863.782	21189.58
864.103	21131.96
864.424	21062.58
864.745	21089.02
865.065	20982.13
865.386	20830.95
865.707	20937.84
866.027	20952.08
866.348	20840.44
866.668	20838.18
866.989	20767.22
867.309	20602.25
867.63	20621.24
867.95	20705.53
868.27	20606.1
868.59	20631.86
868.91	20579.66
869.23	20505.08
869.55	20355.03
869.87	20459.66
870.19	20266.22
870.51	20328.59
870.83	20364.52
871.15	20251.98
871.469	20209.04
871.789	20334.47
872.109	20259.44
872.428	20155.04
872.748	20174.02
873.067	20063.29
873.386	20125.43
873.706	20009.5
874.025	19992.55
874.344	19895.38
874.663	19937.87
874.982	19859.45
875.301	19928.6
875.62	19825.55
875.939	19714.82
876.258	19836.85
876.577	19723.41
876.896	19658.32
877.214	19665.56
877.533	19623.98
877.852	19616.74
878.17	19557.54
878.489	19631.66
878.807	19420.14
879.125	19399.35
879.444	19423.3
879.762	19438.9
880.08	19444.77
880.398	19157.55
880.716	19247.26
881.034	19154.84
881.352	19192.57
881.67	19115.51
881.988	19118.68
882.306	19096.08
882.624	19116.42
882.941	19015.86
883.259	18916.42
883.577	18901.96
883.894	18674.62
884.212	18769.99
884.529	18786.71
884.846	18646.6
885.164	18672.81
885.481	18670.1
885.798	18618.13
886.115	18389.43
886.432	18491.12
886.75	18451.58
887.067	18445.25
887.383	18330.68
887.7	18367.74
888.017	18240.06
888.334	18241.86
888.651	18313.73
888.967	18192.37
889.284	18045.71
889.6	17984.02
889.917	17863.12
890.233	18023.57
890.55	17926.85
890.866	17793.29
891.182	17805.94
891.498	17887.3
891.815	17754.42
892.131	17577.25
892.447	17644.14
892.763	17534.76
893.079	17441.66
893.395	17371.15
893.71	17384.03
894.026	17319.86
894.342	17330.48
894.657	17235.34
894.973	17133.42
895.289	17235.34
895.604	17076.7
895.92	16986.76
896.235	16930.04
896.55	16857.04
896.865	16861.56
897.181	16761.9
897.496	16785.63
897.811	16731.4
898.126	16681.68
898.441	16532.98
898.756	16502.93
899.071	16384.96
899.386	16442.36
899.7	16313.1
900.015	16188.81
900.33	16100.68
900.644	16116.27
900.959	16110.85
901.273	15961.47
901.588	15961.92
901.902	15913.34
902.216	15843.74
902.531	15898.65
902.845	15768.26
903.159	15688.26
903.473	15663.18
903.787	15518.09
904.101	15468.38
904.415	15474.25
904.729	15399.23
905.042	15412.56
905.356	15212.57
905.67	15373.69
905.984	15282.39
906.297	15152.68
906.611	15123.08
906.924	15038.11
907.237	14988.84
907.551	14902.74
907.864	14876.08
908.177	14809.86
908.491	14749.98
908.804	14655.29
909.117	14615.29
909.43	14447.39
909.743	14462.3
910.056	14488.97
910.368	14353.38
910.681	14365.81
910.994	14294.85
911.307	14156.32
911.619	14015.31
911.932	14100.96
912.244	13949.32
912.557	13978.47
912.869	13951.58
913.181	13829.78
913.494	13878.59
913.806	13740.29
914.118	13640.86
914.43	13616
914.742	13632.27
915.054	13463.01
915.366	13475.21
915.678	13366.96
915.99	13371.03
916.302	13230.02
916.613	13215.78
916.925	13158.16
917.236	13193.18
917.548	13043.36
917.859	13059.63
918.171	12945.06
918.482	12816.02
918.794	12829.8
919.105	12773.31
919.416	12613.54
919.727	12703.48
920.038	12619.87
920.349	12562.69
920.66	12553.43
920.971	12516.14
921.282	12410.38
921.593	12324.05
921.903	12301.68
922.214	12197.73
922.525	12104.85
922.835	12124.06
923.146	12033.67
923.456	12002.93
923.767	11952.09
924.077	11949.15
924.387	11895.37
924.697	11851.75
925.008	11788.02
925.318	11779.44
925.628	11698.76
925.938	11644.3
926.248	11623.96
926.558	11475.49
926.867	11536.5
927.177	11405.89
927.487	11367.7
927.796	11284.76
928.106	11196.4
928.416	11178.55
928.725	11164.08
929.034	11127.48
929.344	11055.39
929.653	11080.25
929.962	10975.84
930.271	10974.26
930.581	10912.34
930.89	10823.08
931.199	10783.3
931.508	10781.5
931.817	10788.5
932.125	10682.29
932.434	10638.45
932.743	10574.5
933.051	10513.48
933.36	10500.37
933.669	10436.87
933.977	10367.72
934.286	10319.81
934.594	10245.92
934.902	10209.53
935.21	10206.82
935.519	10100.84
935.827	10099.71
936.135	10007.51
936.443	10001.18
936.751	9943.33
937.059	9915.76
937.367	9880.5
937.674	9877.11
937.982	9847.06
938.29	9810
938.597	9742.65
938.905	9639.15
939.213	9606.61
939.52	9551.02
939.827	9589.89
940.135	9512.15
940.442	9410.91
940.749	9410.46
941.056	9390.12
941.363	9308.31
941.67	9332.95
941.977	9239.84
942.284	9220.86
942.591	9218.6
942.898	9106.06
943.205	9111.26
943.511	9063.58
943.818	9068.09
944.125	8983.58
944.431	8974.76
944.738	8911.71
945.044	8867.87
945.35	8849.12
945.657	8788.33
945.963	8767.09
946.269	8669.46
946.575	8712.4
946.881	8624.26
947.187	8631.04
947.493	8527.54
947.799	8554.21
948.105	8465.17
948.41	8427.43
948.716	8435.57
949.022	8339.3
949.327	8270.38
949.633	8231.51
949.938	8249.81
950.244	8202.58
950.549	8133.88
950.854	8135.92
951.16	8100.66
951.465	8097.27
951.77	7960.78
952.075	7881.69
952.38	7910.61
952.685	7903.83
952.99	7799.65
953.294	7868.13
953.599	7779.99
953.904	7741.58
954.209	7675.59
954.513	7671.97
954.818	7635.82
955.122	7654.57
955.426	7634.23
955.731	7534.8
956.035	7476.05
956.339	7485.99
956.643	7444.18
956.948	7385.88
957.252	7419.32
957.556	7368.7
957.86	7358.99
958.163	7338.42
958.467	7189.05
958.771	7226.11
959.075	7191.99
959.378	7136.39
959.682	7189.95
959.985	7117.41
960.289	7087.58
960.592	7039
960.896	7015.72
961.199	6975.95
961.502	6918.09
961.805	6871.77
962.108	6843.29
962.411	6842.39
962.714	6787.48
963.017	6816.85
963.32	6793.13
963.623	6747.48
963.926	6738.44
964.228	6673.58
964.531	6646.69
964.833	6587.26
965.136	6506.58
965.438	6567.37
965.741	6505.9
966.043	6470.42
966.345	6470.65
966.648	6447.6
966.95	6440.82
967.252	6389.3
967.554	6367.6
967.856	6329.18
968.158	6249.86
968.46	6233.14
968.761	6240.37
969.063	6256.64
969.365	6143.2
969.666	6134.61
969.968	6106.36
970.269	6050.1
970.571	6048.29
970.872	6005.35
971.174	5978.01
971.475	6022.98
971.776	5933.94
972.077	5901.4
972.378	5888.97
972.679	5868.18
972.98	5884
973.281	5801.74
973.582	5782.98
973.883	5746.6
974.183	5730.78
974.484	5709.54
974.785	5706.6
975.085	5640.61
975.386	5675.42
975.686	5605.59
975.986	5581.63
976.287	5594.29
976.587	5501.86
976.887	5437
977.187	5478.13
977.487	5450.34
977.787	5436.33
978.087	5339.83
978.387	5356.1
978.687	5325.59
978.987	5330.57
979.286	5316.1
979.586	5262.32
979.885	5268.42
980.185	5165.15
980.484	5183
980.784	5189.78
981.083	5162.43
981.382	5149.78
981.682	5091.93
981.981	5086.96
982.28	5016
982.579	5028.65
982.878	5053.96
983.177	5043.57
983.475	4971.03
983.774	4920.41
984.073	4895.55
984.372	4868.21
984.67	4884.25
984.969	4841.09
985.267	4853.52
985.566	4763.8
985.864	4792.73
986.162	4750.02
986.461	4729.9
986.759	4702.56
987.057	4684.71
987.355	4669.57
987.653	4629.79
987.951	4651.71
988.249	4627.76
988.547	4588.66
988.844	4571.04
989.142	4560.64
989.44	4516.35
989.737	4471.15
990.035	4404.94
990.332	4447.88
990.63	4448.78
990.927	4406.3
991.224	4361.33
991.521	4387.31
991.819	4352.51
992.116	4343.47
992.413	4298.5
992.71	4261.89
993.006	4281.33
993.303	4216.02
993.6	4194.78
993.897	4162.24
994.193	4175.57
994.49	4143.03
994.787	4111.16
995.083	4102.8
995.379	4076.36
995.676	4021.22
995.972	4062.12
996.268	4037.27
996.565	3961.56
996.861	3980.09
997.157	3979.19
997.453	3936.93
997.749	3908.68
998.044	3908.46
998.34	3874.11
998.636	3860.32
998.932	3818.74
999.227	3806.54
999.523	3815.13
999.818	3814.67
1000.114	3737.39
1000.409	3750.95
1000.704	3694.9
1001	3691.74
1001.295	3656.71
1001.59	3652.19
1001.885	3621.23
1002.18	3589.82
1002.475	3548.69
1002.77	3545.75
1003.065	3539.65
1003.359	3524.51
1003.654	3538.07
1003.949	3474.34
1004.243	3482.25
1004.538	3443.16
1004.832	3418.98
1005.127	3455.59
1005.421	3385.31
1005.715	3382.14
1006.009	3390.05
1006.304	3308.25
1006.598	3306.89
1006.892	3285.2
1007.186	3242.71
1007.48	3250.39
1007.773	3182.83
1008.067	3192.32
1008.361	3179.89
1008.655	3204.29
1008.948	3144.18
1009.242	3125.65
1009.535	3084.98
1009.829	3073.45
1010.122	3056.95
1010.415	3024.64
1010.708	3044.98
1011.001	2987.8
1011.295	2981.25
1011.588	2970.63
1011.881	2957.52
1012.173	2944.19
1012.466	2943.06
1012.759	2883.62
1013.052	2891.76
1013.344	2854.02
1013.637	2868.03
1013.93	2843.63
1014.222	2835.26
1014.514	2784.64
1014.807	2771.31
1015.099	2771.99
1015.391	2726.79
1015.683	2769.5
1015.976	2694.48
1016.268	2654.48
1016.56	2648.83
1016.851	2664.42
1017.143	2651.99
1017.435	2620.81
1017.727	2616.29
1018.018	2590.75
1018.31	2597.76
1018.602	2569.28
1018.893	2523.18
1019.185	2488.15
1019.476	2454.48
1019.767	2471.21
1020.058	2447.03
1020.35	2413.13
1020.641	2403.19
1020.932	2423.07
1021.223	2388.04
1021.514	2369.06
1021.804	2350.98
1022.095	2322.51
1022.386	2348.05
1022.677	2299.91
1022.967	2280.93
1023.258	2253.13
1023.548	2258.1
1023.839	2243.87
1024.129	2219.24
1024.419	2196.64
1024.709	2202.74
1025	2186.02
1025.29	2188.95
1025.58	2146.92
1025.87	2130.42
1026.16	2117.32
1026.449	2101.95
1026.739	2081.39
1027.029	2050.2
1027.319	2083.87
1027.608	2038.45
1027.898	2036.64
1028.187	2028.96
1028.477	1974.95
1028.766	1976.53
1029.055	1948.73
1029.344	1971.78
1029.634	1937.89
1029.923	1919.58
1030.212	1884.1
1030.501	1913.48
1030.79	1888.62
1031.078	1862.41
1031.367	1838.68
1031.656	1889.98
1031.945	1818.79
1032.233	1812.69
1032.522	1782.18
1032.81	1769.08
1033.099	1745.58
1033.387	1764.11
1033.675	1740.83
1033.963	1747.16
1034.251	1725.92
1034.54	1721.62
1034.828	1687.72
1035.116	1714.16
1035.403	1677.78
1035.691	1662.19
1035.979	1654.28
1036.267	1669.65
1036.554	1649.08
1036.842	1595.3
1037.129	1594.62
1037.417	1591.68
1037.704	1586.03
1037.992	1567.28
1038.279	1551.23
1038.566	1558.46
1038.853	1558.46
1039.14	1558.46
