Data from 152_FLMS001491_005.txt Node
Date: Thu Apr 19 16:17:43 BST 2018
User: hsy
Spectrometer: FLMS00149
Trigger mode: 0
Integration Time (sec): 1.000000E-2
Scans to average: 10
Electric dark correction enabled: true
Nonlinearity correction enabled: false
Boxcar width: 0
XAxis mode: Wavelengths
Number of Pixels in Spectrum: 2048
>>>>>Begin Spectral Data<<<<<
341.393	-20.61
341.776	-20.61
342.16	-20.61
342.543	-41.17
342.927	-64.22
343.31	-62.64
343.693	-68.06
344.077	-77.78
344.46	-29.19
344.843	-60.61
345.226	-44.79
345.61	-10.66
345.993	-23.77
346.376	-17.67
346.759	12.39
347.142	19.17
347.525	39.96
347.908	57.81
348.291	56.45
348.674	101.65
349.057	107.75
349.44	126.28
349.823	141.87
350.206	163.12
350.588	236.11
350.971	227.07
351.354	281.98
351.737	303
352.119	297.12
352.502	309.1
352.884	324.47
353.267	322.44
353.65	337.12
354.032	341.64
354.414	354.98
354.797	371.93
355.179	367.86
355.562	363.34
355.944	392.04
356.326	387.07
356.709	393.85
357.091	385.71
357.473	382.55
357.855	387.97
358.238	404.01
358.62	398.37
359.002	389.55
359.384	387.52
359.766	398.14
360.148	403.11
360.53	401.75
360.912	394.52
361.294	382.09
361.676	383.68
362.057	380.06
362.439	366.05
362.821	374.19
363.203	387.74
363.584	380.06
363.966	394.75
364.348	358.59
364.729	383.9
365.111	398.82
365.493	380.96
365.874	388.65
366.256	376.9
366.637	386.61
367.019	369.67
367.4	360.85
367.781	385.26
368.163	402.43
368.544	372.38
368.925	389.78
369.306	368.76
369.688	378.93
370.069	368.76
370.45	382.32
370.831	366.28
371.212	372.38
371.593	391.81
371.974	388.65
372.355	378.03
372.736	399.72
373.117	393.85
373.498	400.85
373.879	368.99
374.26	384.35
374.641	396.56
375.021	397.46
375.402	411.25
375.783	410.57
376.163	419.83
376.544	430.45
376.925	392.94
377.305	419.38
377.686	425.03
378.066	416.44
378.447	409.66
378.827	451.92
379.208	395.88
379.588	424.35
379.968	399.04
380.349	430.45
380.729	425.94
381.109	443.11
381.489	423.22
381.87	433.17
382.25	426.16
382.63	440.62
383.01	427.29
383.39	443.79
383.77	444.47
384.15	443.79
384.53	447.63
384.91	451.7
385.29	455.54
385.67	464.13
386.049	479.95
386.429	478.14
386.809	447.63
387.189	483.33
387.568	477.01
387.948	483.33
388.328	479.49
388.707	486.05
389.087	468.42
389.466	497.8
389.846	465.03
390.225	491.24
390.605	517.23
390.984	502.32
391.363	517.01
391.743	526.95
392.122	532.15
392.501	517.68
392.881	524.01
393.26	531.47
393.639	545.48
394.018	525.37
394.397	528.53
394.776	524.69
395.155	534.86
395.534	545.25
395.913	553.84
396.292	544.58
396.671	544.8
397.05	560.39
397.429	557.68
397.808	563.78
398.186	554.29
398.565	580.51
398.944	558.59
399.323	581.41
399.701	575.31
400.08	580.51
400.458	588.42
400.837	589.55
401.215	573.28
401.594	618.02
401.972	597.68
402.351	579.38
402.729	628.42
403.107	607.4
403.486	609.21
403.864	609.66
404.242	629.32
404.62	625.25
404.999	642.65
405.377	632.03
405.755	640.39
406.133	655.76
406.511	643.33
406.889	643.33
407.267	680.39
407.645	660.28
408.023	681.75
408.401	687.17
408.779	688.53
409.156	698.02
409.534	704.12
409.912	691.69
410.29	709.54
410.667	739.6
411.045	708.64
411.422	743.21
411.8	752.03
412.178	735.98
412.555	750.45
412.933	761.29
413.31	789.54
413.687	819.82
414.065	806.04
414.442	797.22
414.819	819.82
415.197	804.23
415.574	831.35
415.951	812.82
416.328	841.97
416.705	824.34
417.082	834.51
417.46	846.94
417.837	848.07
418.214	856.43
418.591	862.99
418.967	890.1
419.344	891.91
419.721	886.04
420.098	878.8
420.475	913.15
420.852	904.79
421.228	944.34
421.605	925.36
421.982	927.62
422.358	913.83
422.735	950.89
423.111	930.55
423.488	954.06
423.864	959.25
424.241	961.06
424.617	988.63
424.994	977.79
425.37	993.83
425.746	985.24
426.123	1026.6
426.499	1014.85
426.875	1002.64
427.251	1044.9
427.627	1051
428.003	1070.21
428.379	1088.74
428.756	1114.96
429.132	1074.96
429.507	1081.51
429.883	1109.53
430.259	1131
430.635	1116.54
431.011	1141.85
431.387	1162.64
431.763	1178.68
432.138	1170.77
432.514	1199.25
432.89	1204.22
433.265	1250.09
433.641	1228.63
434.016	1276.53
434.392	1244.67
434.767	1276.99
435.143	1291.9
435.518	1305.01
435.894	1325.57
436.269	1333.48
436.644	1316.08
437.02	1349.75
437.395	1354.72
437.77	1363.99
438.145	1387.49
438.52	1392.46
438.895	1418.9
439.271	1384.55
439.646	1434.95
440.021	1461.84
440.395	1472.46
440.77	1433.14
441.145	1453.25
441.52	1459.13
441.895	1462.97
442.27	1487.83
442.645	1491.44
443.019	1501.84
443.394	1478.34
443.769	1502.07
444.143	1535.06
444.518	1546.58
444.892	1529.18
445.267	1547.71
445.641	1556.98
446.016	1571.89
446.39	1575.74
446.764	1574.83
447.139	1594.72
447.513	1601.5
447.887	1608.95
448.262	1616.19
448.636	1625.45
449.01	1657.32
449.384	1656.41
449.758	1651.21
450.132	1696.18
450.506	1667.94
450.88	1728.05
451.254	1724.66
451.628	1752.68
452.002	1748.84
452.376	1766.01
452.75	1807.82
453.123	1777.99
453.497	1821.38
453.871	1828.16
454.244	1862.73
454.618	1890.08
454.992	1912.9
455.365	1902.96
455.739	1965.1
456.112	1974.82
456.486	2016.85
456.859	2025.67
457.232	2053.69
457.606	2057.76
457.979	2089.39
458.352	2112.9
458.725	2159.67
459.099	2122.39
459.472	2179.79
459.845	2225.66
460.218	2220.01
460.591	2235.61
460.964	2283.74
461.337	2331.87
461.71	2321.03
462.083	2389.5
462.456	2387.47
462.829	2385.88
463.201	2449.38
463.574	2478.54
463.947	2484.41
464.32	2508.37
464.692	2510.63
465.065	2549.04
465.438	2576.84
465.81	2586.78
466.183	2608.7
466.555	2676.05
466.928	2704.29
467.3	2672.43
467.672	2747.91
468.045	2803.05
468.417	2771.41
468.789	2813.22
469.161	2849.37
469.534	2888.24
469.906	2942.25
470.278	2992.42
470.65	3009.14
471.022	3055.92
471.394	3068.13
471.766	3102.47
472.138	3137.95
472.51	3229.93
472.882	3239.19
473.253	3283.94
473.625	3364.16
473.997	3389.02
474.369	3422.69
474.74	3462.69
475.112	3503.59
475.484	3563.25
475.855	3626.53
476.227	3659.75
476.598	3803.7
476.97	3775.9
477.341	3845.51
477.713	3925.05
478.084	3942.23
478.455	4043.92
478.827	4096.35
479.198	4206.17
479.569	4228.77
479.94	4334.53
480.311	4391.93
480.682	4499.73
481.053	4545.15
481.424	4608.2
481.795	4647.97
482.166	4763
482.537	4841.41
482.908	4952.6
483.279	4978.58
483.65	5107.62
484.021	5198.69
484.391	5292.7
484.762	5329.08
485.133	5359.14
485.503	5475.97
485.874	5562.07
486.244	5633.71
486.615	5817.66
486.985	5855.17
487.356	6010.65
487.726	6036.41
488.097	6159.8
488.467	6262.39
488.837	6381.03
489.207	6458.54
489.578	6591.2
489.948	6657.86
490.318	6800.68
490.688	6824.18
491.058	6991.86
491.428	7119.32
491.798	7199.32
492.168	7356.37
492.538	7426.66
492.908	7529.25
493.278	7678.4
493.648	7736.48
494.017	7837.27
494.387	7922.24
494.757	8032.74
495.126	8117.48
495.496	8257.82
495.866	8359.06
496.235	8434.54
496.605	8549.79
496.974	8686.96
497.344	8830.91
497.713	8963.56
498.082	8943.68
498.452	9140.96
498.821	9187.29
499.19	9220.96
499.559	9399.48
499.928	9504.79
500.298	9554.73
500.667	9652.13
501.036	9743.43
501.405	9816.87
501.774	9908.17
502.143	10095.74
502.512	10173.02
502.88	10275.62
503.249	10336.86
503.618	10438.33
503.987	10487.37
504.356	10624.54
504.724	10749.05
505.093	10817.53
505.462	10909.95
505.83	10930.97
506.199	11109.72
506.567	11202.83
506.936	11284.63
507.304	11422.26
507.672	11502.48
508.041	11617.51
508.409	11642.36
508.777	11776.37
509.145	11964.39
509.514	11977.04
509.882	12086.65
510.25	12140.88
510.618	12292.06
510.986	12264.95
511.354	12422
511.722	12604.37
512.09	12693.18
512.458	12685.95
512.826	12884.82
513.193	12878.94
513.561	12935.44
513.929	13051.14
514.297	13235.54
514.664	13274.18
515.032	13328.65
515.4	13533.84
515.767	13528.19
516.135	13612.93
516.502	13610.45
516.869	13851.8
517.237	13983.09
517.604	13843.89
517.972	14179.7
518.339	14175.63
518.706	14207.04
519.073	14320.26
519.44	14457.88
519.808	14636.41
520.175	14580.59
520.542	14894.48
520.909	14901.49
521.276	14978.09
521.643	15178.77
522.009	15260.12
522.376	15409.27
522.743	15476.84
523.11	15675.93
523.477	15753.67
523.843	15853.1
524.21	15994.57
524.577	16082.47
524.943	16298.74
525.31	16342.13
525.676	16600.88
526.043	16676.81
526.409	16778.73
526.776	17021.2
527.142	17067.08
527.508	17192.05
527.874	17376.22
528.241	17431.82
528.607	17509.1
528.973	17711.36
529.339	17788.64
529.705	17938.47
530.071	18149.76
530.437	18250.33
530.803	18389.76
531.169	18440.6
531.535	18600.6
531.901	18613.48
532.267	18796.3
532.632	18900.93
532.998	18931.44
533.364	19053.02
533.73	19151.54
534.095	19323.07
534.461	19314.7
534.826	19599.44
535.192	19524.64
535.557	19841.92
535.923	19782.26
536.288	19815.48
536.653	19992.88
537.019	19980.68
537.384	20020.45
537.749	20080.79
538.114	20226.77
538.479	20293.89
538.845	20293.89
539.21	20340.44
539.575	20516.48
539.94	20561.22
540.305	20792.63
540.67	20704.27
541.034	20859.3
541.399	20945.4
541.764	20958.73
542.129	20956.02
542.494	21047.09
542.858	21102.23
543.223	21119.4
543.587	21344.71
543.952	21186.97
544.316	21437.81
544.681	21420.86
545.045	21477.36
545.41	21526.4
545.774	21599.16
546.138	21713.06
546.503	21650.91
546.867	21785.37
547.231	21985.59
547.595	21900.17
547.959	21915.54
548.324	21956.22
548.688	21981.53
549.052	22081.41
549.416	22177.91
549.779	22329.31
550.143	22403.44
550.507	22509.2
550.871	22494.51
551.235	22502.64
551.599	22743.54
551.962	22714.16
552.326	22941.95
552.689	22875.97
553.053	22777.44
553.417	23003.19
553.78	23130.87
554.143	23063.98
554.507	23185.56
554.87	23414.03
555.234	23529.28
555.597	23383.98
555.96	23467.82
556.323	23677.98
556.686	23753.01
557.05	23910.29
557.413	23957.97
557.776	24026.67
558.139	24235.48
558.502	24247.91
558.865	24330.39
559.228	24455.13
559.59	24423.04
559.953	24469.82
560.316	24784.84
560.679	24867.55
561.041	24970.15
561.404	24964.95
561.767	25286.52
562.129	25172.63
562.492	25457.59
562.854	25429.57
563.217	25425.05
563.579	25545.5
563.941	25778.71
564.304	25891.25
564.666	26023.91
565.028	26064.81
565.39	26222.77
565.753	26449.66
566.115	26507.96
566.477	26658.47
566.839	26802.42
567.201	27014.84
567.563	26979.81
567.925	27185.46
568.287	27283.99
568.648	27369.86
569.01	27535.05
569.372	27802.39
569.734	27787.25
570.095	28030.86
570.457	28048.49
570.819	28238.09
571.18	28376.39
571.542	28511.98
571.903	28551.3
572.265	28784.51
572.626	29042.58
572.987	29073.09
573.349	29316.93
573.71	29390.82
574.071	29555.11
574.432	29706.75
574.794	30044.14
575.155	30031.03
575.516	30034.42
575.877	30186.06
576.238	30370.91
576.599	30556.44
576.96	30636.21
577.32	30913.5
577.681	30964.34
578.042	31214.05
578.403	31289.3
578.763	31340.83
579.124	31490.43
579.485	31895.39
579.845	32004.99
580.206	32025.33
580.566	32202.05
580.927	32473
581.287	32638.2
581.648	32634.81
582.008	33049.26
582.368	33236.82
582.728	33472.3
583.089	33585.97
583.449	33795.68
583.809	34069.12
584.169	34312.28
584.529	34427.98
584.889	34977.57
585.249	35034.29
585.609	35201.52
585.969	35633.6
586.329	35904.78
586.688	36172.11
587.048	36396.06
587.408	36724.87
587.768	37201.47
588.127	37561.68
588.487	37724.84
588.846	38273.08
589.206	38282.34
589.565	38688.88
589.925	39353.95
590.284	39563.44
590.643	40053.14
591.003	40416.3
591.362	41006.11
591.721	41336.05
592.08	41645.87
592.44	42214.44
592.799	42604.94
593.158	42889.45
593.517	43228.88
593.876	43861.18
594.235	44187.72
594.593	44532.35
594.952	44994.93
595.311	45316.05
595.67	45728.7
596.029	46285.29
596.387	46704.49
596.746	47312.16
597.104	47340.41
597.463	47805.25
597.822	48294.96
598.18	48345.13
598.538	48746.92
598.897	49361.15
599.255	49480.69
599.613	50184.63
599.972	50239.31
600.33	50612.19
600.688	50747.32
601.046	51197.93
601.404	51607.87
601.762	51870.01
602.12	52138.47
602.478	52455.53
602.836	52751.34
603.194	52792.92
603.552	53129.41
603.91	53324.66
604.268	53658.66
604.625	53831.08
604.983	54143.39
605.341	54191.75
605.698	54589.48
606.056	54929.13
606.413	54903.6
606.771	55270.37
607.128	55450.93
607.485	55546.97
607.843	55680.3
608.2	56058.37
608.557	56235.32
608.914	56283.22
609.272	56567.51
609.629	56867.61
609.986	56994.62
610.343	57061.28
610.7	57401.84
611.057	57455.62
611.414	57618.33
611.771	57783.07
612.127	57980.58
612.484	58062.84
612.841	58247.24
613.198	58260.35
613.554	58368.59
613.911	58649.94
614.267	58746.44
614.624	58858.3
614.98	59029.59
615.337	59236.59
615.693	59262.13
616.05	59408.11
616.406	59578.05
616.762	59533.76
617.118	59658.73
617.475	59770.59
617.831	59939.62
618.187	60060.53
618.543	60097.81
618.899	60246.96
619.255	60281.99
619.611	60344.81
619.967	60515.2
620.323	60638.14
620.678	60624.35
621.034	60611.7
621.39	60772.82
621.746	60737.8
622.101	61091.91
622.457	60872.71
622.812	61050.1
623.168	61071.57
623.523	61137.11
623.879	61267.27
624.234	61213.49
624.589	61309.53
624.945	61292.58
625.3	61363.32
625.655	61416.65
626.01	61461.39
626.365	61456.42
626.72	61523.31
627.075	61472.69
627.43	61580.94
627.785	61642.4
628.14	61606.47
628.495	61608.96
628.85	61719.24
629.205	61655.29
629.559	61741.61
629.914	61660.94
630.269	61687.83
630.623	61681.05
630.978	61605.57
631.332	61785.45
631.687	61766.24
632.041	61738.9
632.396	61741.84
632.75	61720.37
633.104	61752.23
633.459	61604.67
633.813	61668.62
634.167	61624.55
634.521	61620.03
634.875	61697.32
635.229	61653.7
635.583	61597.66
635.937	61575.74
636.291	61616.42
636.645	61606.93
636.999	61544.55
637.352	61586.81
637.706	61441.51
638.06	61613.25
638.413	61469.98
638.767	61458
639.121	61535.97
639.474	61445.8
639.828	61421.62
640.181	61416.87
640.534	61447.16
640.888	61334.62
641.241	61286.26
641.594	61352.24
641.947	61436.76
642.301	61335.75
642.654	61312.02
643.007	61184.11
643.36	61332.81
643.713	61291.45
644.066	61359.47
644.419	61148.41
644.771	60915.87
645.124	60731.24
645.477	60735.08
645.83	60610.79
646.182	60602.43
646.535	60545.94
646.888	60621.19
647.24	60540.51
647.593	60609.21
647.945	60523.34
648.298	60449.89
648.65	60378.71
649.002	60256.9
649.355	60294.42
649.707	60194.53
650.059	60215.1
650.411	60555.2
650.763	60605.82
651.115	60914.29
651.467	60793.61
651.819	60842.2
652.171	60726.5
652.523	60697.12
652.875	60697.57
653.227	60636.33
653.578	60790.68
653.93	60690.79
654.282	60584.81
654.633	60578.7
654.985	60581.42
655.337	60553.39
655.688	60512.04
656.039	60620.51
656.391	60339.61
656.742	60480.85
657.094	60443.57
657.445	60490.34
657.796	60506.16
658.147	60387.07
658.498	60390.69
658.849	60441.76
659.2	60347.52
659.551	60333.29
659.902	60456.45
660.253	60287.41
660.604	60405.6
660.955	60245.38
661.306	60395.21
661.656	60249.22
662.007	60284.93
662.358	60267.75
662.708	60251.93
663.059	60232.72
663.409	60112.05
663.76	60281.54
664.11	60184.14
664.461	60284.47
664.811	60190.24
665.161	60243.12
665.511	60181.88
665.862	60194.08
666.212	60296
666.562	60239.96
666.912	60191.6
667.262	60108.66
667.612	60161.77
667.962	60185.04
668.312	60091.48
668.662	60223.46
669.011	60125.16
669.361	60091.48
669.711	60178.94
670.06	60088.32
670.41	60039.51
670.76	60041.54
671.109	60154.99
671.459	60071.37
671.808	60034.76
672.157	60082.67
672.507	59960.87
672.856	60010.36
673.205	60029.57
673.554	60081.77
673.904	59980.3
674.253	60183.46
674.602	59947.99
674.951	59739.18
675.3	59559.97
675.649	59980.98
675.998	59962.67
676.346	59963.8
676.695	59974.2
677.044	59793.19
677.393	59873.86
677.741	59915.9
678.09	59880.87
678.438	59849.68
678.787	59904.15
679.135	59885.16
679.484	59729.01
679.832	59847.42
680.181	59763.58
680.529	59840.64
680.877	59658.28
681.225	59642.01
681.573	59903.69
681.922	59684.04
682.27	59606.53
682.618	59643.36
682.966	59563.36
683.314	59632.29
683.661	59628.45
684.009	59459.41
684.357	59462.8
684.705	59381.9
685.053	59458.28
685.4	59289.25
685.748	59280.66
686.095	59336.93
686.443	59184.39
686.79	59185.07
687.138	59237.27
687.485	59209.02
687.832	59116.14
688.18	59182.58
688.527	59047.67
688.874	59046.54
689.221	58984.85
689.568	58873.89
689.915	58904.4
690.262	58935.81
690.609	58835.47
690.956	58755.93
691.303	58800.22
691.65	58680
691.997	58689.49
692.344	58511.64
692.69	58420.34
693.037	58537.63
693.383	58282.72
693.73	58371.98
694.077	58201.82
694.423	58218.31
694.769	58196.17
695.116	58116.62
695.462	58030.3
695.808	57989.85
696.155	58043.18
696.501	57856.06
696.847	57886.57
697.193	57773.58
697.539	57788.95
697.885	57531.33
698.231	57583.98
698.577	57543.53
698.923	57544.66
699.269	57307.83
699.614	57270.32
699.96	57270.09
700.306	57214.95
700.651	57121.17
700.997	57055.86
701.342	57001.4
701.688	56986.48
702.033	56858.8
702.379	56849.99
702.724	56701.07
703.069	56763.21
703.415	56546.95
703.76	56498.13
704.105	56453.84
704.45	56372.49
704.795	56317.8
705.14	56248.65
705.485	56304.92
705.83	56058.37
706.175	56225.82
706.52	56019.05
706.865	55946.51
707.209	55848.66
707.554	55887.98
707.899	55818.38
708.243	55740.86
708.588	55630.59
708.932	55524.15
709.277	55528.89
709.621	55439.4
709.966	55277.15
710.31	55353.3
710.654	55136.36
710.998	55213.65
711.342	55130.26
711.687	55005.74
712.031	55030.83
712.375	54869.93
712.719	54861.34
713.063	54832.19
713.407	54945.86
713.75	54774.79
714.094	54735.47
714.438	54595.81
714.782	54621.12
715.125	54445.53
715.469	54627.9
715.812	54308.36
716.156	54302.48
716.499	54313.11
716.843	54299.55
717.186	54115.14
717.53	54299.77
717.873	54211.64
718.216	54083.73
718.559	53994.7
718.902	53852.33
719.246	53825.89
719.589	53827.02
719.932	53722.39
720.275	53648.49
720.617	53699.56
720.96	53616.17
721.303	53630.41
721.646	53563.75
721.989	53380.02
722.331	53543.41
722.674	53418.44
723.016	53394.71
723.359	53315.62
723.701	53303.64
724.044	53157.2
724.386	53046.47
724.729	53148.16
725.071	53082.63
725.413	52994.5
725.755	52980.49
726.097	52998.79
726.439	52893.48
726.782	52756.76
727.124	52993.82
727.465	52795.63
727.807	52667.73
728.149	52717.67
728.491	52607.84
728.833	52680.61
729.175	52568.29
729.516	52475.64
729.858	52409.65
730.199	52465.7
730.541	52461.63
730.882	52431.57
731.224	52436.09
731.565	52253.72
731.906	52318.36
732.248	52401.29
732.589	52103.9
732.93	52140.96
733.271	52063.22
733.612	52052.6
733.953	52089.21
734.294	51866.62
734.635	51813.28
734.976	51982.09
735.317	51847.63
735.658	51793.4
735.999	51763.79
736.339	51736.68
736.68	51730.35
737.021	51728.54
737.361	51475.89
737.702	51750.46
738.042	51580.07
738.383	51520.64
738.723	51557.25
739.063	51352.28
739.404	51469.56
739.744	51503.24
740.084	51325.39
740.424	51271.6
740.764	51199.97
741.104	51335.78
741.444	51127.43
741.784	51096.92
742.124	51273.41
742.464	51014.66
742.804	50924.72
743.143	50845.63
743.483	50860.54
743.823	50827.77
744.162	50651.96
744.502	50780.54
744.841	50674.78
745.181	50929.01
745.52	50550.72
745.86	50645.41
746.199	50470.72
746.538	50500.78
746.877	50525.63
747.216	50401.12
747.556	50258.75
747.895	50376.49
748.234	50269.37
748.573	50132.42
748.911	50066.44
749.25	50125.19
749.589	50007.68
749.928	49971.3
750.267	50056.49
750.605	49842.94
750.944	49965.2
751.283	49789.16
751.621	49745.32
751.96	49688.59
752.298	49694.24
752.636	49600.46
752.975	49512.1
753.313	49472.56
753.651	49570.18
753.989	49351.2
754.327	49380.35
754.666	49028.27
755.004	49151.89
755.342	49106.92
755.679	49046.58
756.017	48761.39
756.355	48897.2
756.693	48712.8
757.031	48833.93
757.368	48554.39
757.706	48518.46
758.044	48436.42
758.381	48410.66
758.719	48261.51
759.056	48213.38
759.394	48059.71
759.731	47817.01
760.068	47782.43
760.405	47825.37
760.743	47609.33
761.08	47537.69
761.417	47329.79
761.754	47331.59
762.091	47271.48
762.428	47096.12
762.765	47003.02
763.102	47028.1
763.438	46824.49
763.775	46471.5
764.112	46532.75
764.449	46495.23
764.785	46299.53
765.122	46205.75
765.458	46021.12
765.795	45936.38
766.131	45861.58
766.467	45753.56
766.804	45622.49
767.14	45388.82
767.476	45330.97
767.812	45085.1
768.148	45286.68
768.485	45083.74
768.821	44745.67
769.157	44795.84
769.492	44533.48
769.828	44534.83
770.164	44137.1
770.5	43998.57
770.836	44069.31
771.171	43817.56
771.507	43705.93
771.842	43403.79
772.178	43283.11
772.513	43293.06
772.849	43051.93
773.184	42902.11
773.519	42856.46
773.855	42672.73
774.19	42550.93
774.525	42380.31
774.86	42213.99
775.195	42269.58
775.53	41984.84
775.865	41685.19
776.2	41537.4
776.535	41323.16
776.87	41272.32
777.205	41054.47
777.539	40898.09
777.874	41021.03
778.209	40645.67
778.543	40634.37
778.878	40431.66
779.212	40325.9
779.547	40117.09
779.881	40048.85
780.215	39767.73
780.55	39792.81
780.884	39465.59
781.218	39505.36
781.552	39448.41
781.886	39194.63
782.22	38908.77
782.554	38767.07
782.888	38463.58
783.222	38421.55
783.556	38378.16
783.889	38252.51
784.223	38041.22
784.557	37938.17
784.89	38024.95
785.224	37840.77
785.557	37558.07
785.891	37530.5
786.224	37437.62
786.558	37492.08
786.891	37152.2
787.224	37015.03
787.557	36723.06
787.891	36730.07
788.224	36468.38
788.557	36532.56
788.89	36376.4
789.223	36228.84
789.556	35998.56
789.888	36158.33
790.221	35806.7
790.554	35642.86
790.887	35705.46
791.219	35490.55
791.552	35338.46
791.884	35110.67
792.217	35169.88
792.549	35000.39
792.882	34719.5
793.214	34720.4
793.546	34707.29
793.879	34410.35
794.211	34236.8
794.543	34356.12
794.875	34138.04
795.207	34005.39
795.539	33940.99
795.871	34085.62
796.203	33790.03
796.535	33535.8
796.867	33643.14
797.198	33286.54
797.53	33253.77
797.862	33084.29
798.193	33045.42
798.525	32962.03
798.856	33053.33
799.188	32603.39
799.519	32580.57
799.85	32425.77
800.182	32416.51
800.513	32397.52
800.844	32048.15
801.175	32246.34
801.506	32109.85
801.837	31961.15
802.168	31861.04
802.499	31852.68
802.83	31639.58
803.161	31565.23
803.491	31410.88
803.822	31536.98
804.153	31177.89
804.483	31031.91
804.814	30913.04
805.145	31098.12
805.475	30950.78
805.805	30935.42
806.136	30836.43
806.466	30766.61
806.796	30634.63
807.126	30369.55
807.457	30444.13
807.787	30453.85
808.117	30233.51
808.447	30121.43
808.777	30118.26
809.107	29983.12
809.436	29938.83
809.766	29806.18
810.096	29796.91
810.426	29625.62
810.755	29748.1
811.085	29473.53
811.414	29584.72
811.744	29320.99
812.073	29360.77
812.403	29329.58
812.732	29021.79
813.061	29360.32
813.39	28909.48
813.719	28961.68
814.049	29158.29
814.378	28987.22
814.707	28675.14
815.036	28793.78
815.365	28792.42
815.693	28311.08
816.022	28406.22
816.351	28273.11
816.68	28217.52
817.008	28281.02
817.337	28043.97
817.665	28095.49
817.994	27951.09
818.322	28034.7
818.651	27928.94
818.979	27775.5
819.307	27925.78
819.636	27742.28
819.964	27704.09
820.292	27789.06
820.62	27620.25
820.948	27752
821.276	27757.87
821.604	27724.88
821.932	27785.44
822.259	27724.65
822.587	27651.21
822.915	27650.08
823.243	27668.61
823.57	27488.05
823.898	27672.45
824.225	27585.67
824.553	27583.87
824.88	27569.4
825.207	27730.75
825.535	27483.3
825.862	27671.32
826.189	27521.27
826.516	27664.77
826.843	27773.69
827.17	27658.89
827.497	27709.74
827.824	27663.41
828.151	27706.8
828.478	27472.23
828.805	27684.43
829.131	27530.08
829.458	27697.53
829.785	27366.02
830.111	27474.72
830.438	27730.75
830.764	27598.33
831.09	27650.53
831.417	27476.07
831.743	27697.76
832.069	27588.38
832.395	27451.44
832.722	27507.26
833.048	27614.82
833.374	27606.24
833.7	27502.74
834.026	27458.9
834.351	27405.56
834.677	27438.56
835.003	27479.91
835.329	27328.5
835.654	27333.25
835.98	27070.66
836.306	27387.71
836.631	27215.29
836.956	27350.42
837.282	27306.58
837.607	27235.17
837.932	27122.41
838.258	27192.91
838.583	27086.48
838.908	26968.74
839.233	27058.46
839.558	26860.95
839.883	26840.61
840.208	26752.47
840.533	26842.42
840.858	26707.05
841.182	26770.78
841.507	26801.51
841.832	26519.49
842.156	26601.97
842.481	26547.28
842.805	26443.56
843.13	26349.32
843.454	26452.6
843.778	26382.09
844.103	26314.75
844.427	26083.57
844.751	26245.6
845.075	26098.03
845.399	25985.49
845.723	25971.7
846.047	25853.29
846.371	25792.5
846.695	25716.34
847.019	25433.64
847.343	25391.83
847.666	25261.67
847.99	25182.35
848.313	25086.98
848.637	25021.9
848.96	24981.45
849.284	24910.72
849.607	24657.61
849.931	24665.07
850.254	24617.16
850.577	24412.65
850.9	24191.86
851.223	24345.76
851.546	24167.68
851.869	23974.47
852.192	24189.83
852.515	23863.28
852.838	23792.33
853.161	23750.52
853.483	23552.33
853.806	23568.15
854.129	23510.53
854.451	23520.02
854.774	23344.88
855.096	23265.79
855.419	23136.3
855.741	23048.62
856.063	22984.89
856.385	22898.79
856.708	22788.96
857.03	22838.68
857.352	22787.83
857.674	22652.92
857.996	22634.39
858.318	22546.03
858.64	22580.61
858.961	22469.42
859.283	22249.77
859.605	22195.76
859.926	22220.84
860.248	22140.39
860.57	22096.1
860.891	22129.55
861.212	21923.9
861.534	21898.36
861.855	21730.46
862.176	21771.81
862.498	21795.09
862.819	21840.97
863.14	21649.33
863.461	21521.43
863.782	21624.47
864.103	21550.8
864.424	21502.44
864.745	21527.53
865.065	21435.78
865.386	21320.98
865.707	21365.27
866.027	21370.7
866.348	21361.43
866.668	21262.9
866.989	21230.13
867.309	21114.43
867.63	21180.64
867.95	21219.29
868.27	21079.18
868.59	21094.32
868.91	21031.27
869.23	20960.99
869.55	20767.55
869.87	20946.53
870.19	20831.05
870.51	20787.43
870.83	20759.64
871.15	20612.75
871.469	20652.07
871.789	20724.16
872.109	20782.01
872.428	20678.06
872.748	20643.48
873.067	20592.41
873.386	20652.3
873.706	20545.18
874.025	20521.9
874.344	20365.3
874.663	20381.79
874.982	20289.59
875.301	20351.06
875.62	20224.06
875.939	20180.67
876.258	20239.2
876.577	20065.42
876.896	20187.68
877.214	19993.78
877.533	20078.98
877.852	19988.81
878.17	20082.59
878.489	20074.68
878.807	20024.06
879.125	19955.37
879.444	19817.52
879.762	19828.36
880.08	19848.7
880.398	19728.25
880.716	19738.42
881.034	19657.75
881.352	19661.36
881.67	19656.16
881.988	19645.99
882.306	19517.86
882.624	19511.76
882.941	19392.44
883.259	19342.95
883.577	19359
883.894	19363.29
884.212	19272.67
884.529	19279.45
884.846	19211.66
885.164	19139.12
885.481	19051.43
885.798	19053.92
886.115	18853.47
886.432	18854.15
886.75	18885.34
887.067	18964.88
887.383	18797.43
887.7	18792.23
888.017	18623.42
888.334	18681.05
888.651	18643.54
888.967	18540.49
889.284	18543.42
889.6	18400.6
889.917	18306.37
890.233	18366.93
890.55	18291.91
890.866	18265.47
891.182	18310.21
891.498	18202.87
891.815	18058.92
892.131	18078.8
892.447	17901.63
892.763	17880.17
893.079	17890.56
893.395	17829.32
893.71	17777.57
894.026	17660.74
894.342	17645.82
894.657	17566.95
894.973	17589.78
895.289	17611.02
895.604	17530.34
895.92	17415.77
896.235	17329.45
896.55	17310.01
896.865	17164.7
897.181	17183.01
897.496	17130.58
897.811	17109.79
898.126	17045.16
898.441	16922
898.756	16935.11
899.071	16826.63
899.386	16770.82
899.7	16650.59
900.015	16595
900.33	16435.68
900.644	16474.55
900.959	16503.7
901.273	16378.28
901.588	16387.78
901.902	16200.66
902.216	16195.69
902.531	16094.45
902.845	16139.65
903.159	15991.85
903.473	15934.68
903.787	15974
904.101	15796.6
904.415	15888.35
904.729	15758.41
905.042	15623.95
905.356	15608.81
905.67	15585.31
905.984	15637.29
906.297	15588.93
906.611	15381.47
906.924	15405.88
907.237	15271.19
907.551	15268.93
907.864	15212.66
908.177	15086.57
908.491	15051.77
908.804	14945.78
909.117	14950.07
909.43	14780.59
909.743	14748.5
910.056	14774.71
910.368	14694.49
910.681	14626.69
910.994	14569.07
911.307	14457.2
911.619	14406.81
911.932	14410.43
912.244	14273.25
912.557	14317.32
912.869	14208.62
913.181	14147.83
913.494	14120.72
913.806	13998.23
914.118	13992.81
914.43	13954.84
914.742	13812.25
915.054	13732.25
915.366	13804.57
915.678	13758.01
915.99	13623.1
916.302	13563.89
916.613	13504.91
916.925	13525.03
917.236	13477.8
917.548	13402.77
917.859	13430.11
918.171	13186.05
918.482	13180.4
918.794	13171.14
919.105	13153.96
919.416	12934.31
919.727	13007.75
920.038	12883.46
920.349	12884.14
920.66	12775.44
920.971	12753.52
921.282	12758.04
921.593	12607.31
921.903	12577.93
922.214	12577.93
922.525	12520.76
922.835	12415.22
923.146	12387.2
923.456	12343.59
923.767	12202.12
924.077	12238.05
924.387	12172.29
924.697	12099.98
925.008	12071.73
925.318	11921.9
925.628	11982.92
925.938	11933.2
926.248	11778.86
926.558	11662.25
926.867	11765.75
927.177	11712.64
927.487	11594.23
927.796	11539.32
928.106	11622.25
928.416	11456.38
928.725	11489.15
929.034	11413.67
929.344	11476.04
929.653	11286.89
929.962	11226.78
930.271	11206.89
930.581	11152.88
930.89	11073.11
931.199	11040.12
931.508	10939.78
931.817	10966
932.125	10920.35
932.434	10823.18
932.743	10760.13
933.051	10793.12
933.36	10705.44
933.669	10622.28
933.977	10572.11
934.286	10614.59
934.594	10490.08
934.902	10443.52
935.21	10455.73
935.519	10312.91
935.827	10317.65
936.135	10245.79
936.443	10206.02
936.751	10191.55
937.059	10159.46
937.367	10117.43
937.674	10037.66
937.982	10037.21
938.29	9971.9
938.597	10005.12
938.905	9805.35
939.213	9791.79
939.52	9767.16
939.827	9864.33
940.135	9783.88
940.442	9660.72
940.749	9633.15
941.056	9669.76
941.363	9522.19
941.67	9448.07
941.977	9425.02
942.284	9379.6
942.591	9377.11
942.898	9370.78
943.205	9331.46
943.511	9295.53
943.818	9234.07
944.125	9117.46
944.431	9129.89
944.738	9088.76
945.044	9059.15
945.35	8974.64
945.657	8920.85
945.963	8885.83
946.269	8884.92
946.575	8841.99
946.881	8843.34
947.187	8695.55
947.493	8777.81
947.799	8721.31
948.105	8614.19
948.41	8582.1
948.716	8605.16
949.022	8541.43
949.327	8558.38
949.633	8422.79
949.938	8432.96
950.244	8449.23
950.549	8319.96
950.854	8260.31
951.16	8297.37
951.465	8267.08
951.77	8198.16
952.075	8201.1
952.38	8161.32
952.685	8073.19
952.99	8044.27
953.294	8004.04
953.599	8017.37
953.904	7976.7
954.209	7914.78
954.513	7901.22
954.818	7856.02
955.122	7828.45
955.426	7804.95
955.731	7727.21
956.035	7781.67
956.339	7670.94
956.643	7573.09
956.948	7586.88
957.252	7544.39
957.556	7577.16
957.86	7489.93
958.163	7443.38
958.467	7448.12
958.771	7342.14
959.075	7310.05
959.378	7288.13
959.682	7329.48
959.985	7272.08
960.289	7157.06
960.592	7156.61
960.896	7164.29
961.199	7113.44
961.502	7038.87
961.805	7047
962.108	6996.38
962.411	6996.38
962.714	6968.14
963.017	6944.18
963.32	6929.94
963.623	6885.65
963.926	6774.92
964.228	6853.56
964.531	6771.53
964.833	6768.82
965.136	6745.77
965.438	6687.69
965.741	6640.69
966.043	6646.11
966.345	6603.17
966.648	6538.99
966.95	6546.23
967.252	6481.37
967.554	6474.59
967.856	6387.36
968.158	6400.92
968.46	6391.43
968.761	6337.42
969.063	6276.85
969.365	6237.76
969.666	6322.73
969.968	6279.11
970.269	6223.3
970.571	6155.05
970.872	6225.78
971.174	6117.99
971.475	6101.72
971.776	6094.49
972.077	6055.17
972.378	6070.53
972.679	5992.79
972.98	5978.56
973.281	5909.86
973.582	5894.04
973.883	5864.89
974.183	5853.14
974.484	5825.57
974.785	5817.66
975.085	5730.88
975.386	5778.11
975.686	5717.1
975.986	5662.63
976.287	5703.99
976.587	5669.41
976.887	5617.89
977.187	5560.49
977.487	5553.71
977.787	5523.88
978.087	5533.82
978.387	5496.54
978.687	5473.71
978.987	5414.05
979.286	5390.55
979.586	5385.8
979.885	5366.37
980.185	5331.57
980.484	5313.49
980.784	5285.47
981.083	5244.34
981.382	5265.58
981.682	5208.63
981.981	5176.32
982.28	5170.67
982.579	5133.83
982.878	5125.25
983.177	5102.87
983.475	5089.99
983.774	5048.64
984.073	5031.69
984.372	4981.52
984.67	4949.88
984.969	4965.48
985.267	4951.24
985.566	4878.93
985.864	4862.43
986.162	4841.64
986.461	4802.77
986.759	4844.8
987.057	4771.81
987.355	4759.61
987.653	4758.25
987.951	4726.61
988.249	4671.02
988.547	4651.36
988.844	4646.16
989.142	4629.21
989.44	4611.36
989.737	4612.27
990.035	4590.12
990.332	4532.95
990.63	4532.95
990.927	4511.48
991.224	4486.85
991.521	4446.62
991.819	4408.43
992.116	4400.75
992.413	4362.33
992.71	4326.4
993.006	4315.55
993.303	4312.61
993.6	4324.59
993.897	4248.21
994.193	4244.59
994.49	4192.39
994.787	4181.54
995.083	4197.59
995.379	4127.31
995.676	4124.82
995.972	4126.18
996.268	4077.59
996.565	4048.44
996.861	4029.91
997.157	4017.25
997.453	3973.19
997.749	4020.19
998.044	3949.68
998.34	3926.63
998.636	3926.41
998.932	3905.17
999.227	3850.03
999.523	3863.13
999.818	3834.43
1000.114	3828.11
1000.409	3794.66
1000.704	3759.18
1001	3755.11
1001.295	3695.45
1001.59	3693.42
1001.885	3707.88
1002.18	3636.25
1002.475	3650.48
1002.77	3611.16
1003.065	3652.29
1003.359	3556.93
1003.654	3530.94
1003.949	3582.01
1004.243	3491.62
1004.538	3494.33
1004.832	3483.26
1005.127	3502.46
1005.421	3481.67
1005.715	3445.97
1006.009	3402.81
1006.304	3383.6
1006.598	3332.98
1006.892	3375.01
1007.186	3295.92
1007.48	3286.88
1007.773	3305.86
1008.067	3276.48
1008.361	3227.22
1008.655	3191.74
1008.948	3203.04
1009.242	3185.41
1009.535	3167.11
1009.829	3141.57
1010.122	3138.63
1010.415	3079.42
1010.708	3108.35
1011.001	3083.27
1011.295	3055.47
1011.588	3027.67
1011.881	2981.12
1012.173	3032.42
1012.466	3001.69
1012.759	2960.78
1013.052	2935.47
1013.344	2932.54
1013.637	2889.37
1013.93	2871.75
1014.222	2867.23
1014.514	2849.15
1014.807	2834.69
1015.099	2795.59
1015.391	2778.42
1015.683	2769.83
1015.976	2774.8
1016.268	2741.58
1016.56	2722.82
1016.851	2682.82
1017.143	2688.02
1017.435	2646.89
1017.727	2643.05
1018.018	2628.36
1018.31	2591.53
1018.602	2602.38
1018.893	2552.88
1019.185	2575.71
1019.476	2524.86
1019.767	2516.95
1020.058	2475.37
1020.35	2476.28
1020.641	2452.55
1020.932	2461.81
1021.223	2441.48
1021.514	2420.91
1021.804	2413.68
1022.095	2356.28
1022.386	2384.53
1022.677	2358.99
1022.967	2319.44
1023.258	2306.56
1023.548	2260.46
1023.839	2247.58
1024.129	2279.22
1024.419	2232.22
1024.709	2229.28
1025	2205.1
1025.29	2189.73
1025.58	2171.65
1025.87	2147.02
1026.16	2156.06
1026.449	2118.77
1026.739	2125.78
1027.029	2115.83
1027.319	2095.27
1027.608	2070.86
1027.898	2076.29
1028.187	2050.3
1028.477	2056.17
1028.766	2031.32
1029.055	1957.87
1029.344	2014.59
1029.634	1969.4
1029.923	1952.45
1030.212	1946.57
1030.501	1936.86
1030.79	1905.67
1031.078	1885.33
1031.367	1897.76
1031.656	1883.75
1031.945	1835.62
1032.233	1836.97
1032.522	1826.58
1032.81	1817.31
1033.099	1782.96
1033.387	1761.27
1033.675	1770.76
1033.963	1794.03
1034.251	1782.28
1034.54	1732.57
1034.828	1719.01
1035.116	1728.95
1035.403	1713.58
1035.691	1693.02
1035.979	1690.76
1036.267	1665.45
1036.554	1638.11
1036.842	1612.57
1037.129	1623.64
1037.417	1595.62
1037.704	1601.95
1037.992	1581.61
1038.279	1594.94
1038.566	1565.34
1038.853	1565.34
1039.14	1565.34
