Data from 152_FLMS001491_003.txt Node
Date: Thu Apr 19 16:17:38 BST 2018
User: hsy
Spectrometer: FLMS00149
Trigger mode: 0
Integration Time (sec): 1.000000E-2
Scans to average: 10
Electric dark correction enabled: true
Nonlinearity correction enabled: false
Boxcar width: 0
XAxis mode: Wavelengths
Number of Pixels in Spectrum: 2048
>>>>>Begin Spectral Data<<<<<
341.393	10.34
341.776	10.34
342.16	10.34
342.543	-50
342.927	-65.37
343.31	-81.41
343.693	-71.24
344.077	-68.08
344.46	-66.27
344.843	-71.24
345.226	-36.21
345.61	-27.63
345.993	-45.71
346.376	10.79
346.759	24.35
347.142	39.94
347.525	42.65
347.908	74.52
348.291	80.62
348.674	82.43
349.057	112.48
349.44	122.65
349.823	151.8
350.206	172.37
350.588	241.75
350.971	241.29
351.354	234.51
351.737	262.31
352.119	291.24
352.502	300.73
352.884	327.62
353.267	311.57
353.65	322.19
354.032	358.8
354.414	329.43
354.797	341.4
355.179	370.78
355.562	366.04
355.944	376.88
356.326	377.11
356.709	382.98
357.091	378.46
357.473	396.54
357.855	387.96
358.238	369.65
358.62	418.01
359.002	378.69
359.384	387.96
359.766	384.11
360.148	397.67
360.53	400.38
360.912	364.23
361.294	379.14
361.676	392.02
362.057	360.16
362.439	384.34
362.821	394.96
363.203	389.09
363.584	363.78
363.966	405.58
364.348	372.36
364.729	390.67
365.111	389.09
365.493	364.23
365.874	368.07
366.256	382.53
366.637	381.4
367.019	390.44
367.4	362.87
367.781	383.66
368.163	384.34
368.544	368.07
368.925	363.32
369.306	398.35
369.688	388.41
370.069	374.62
370.45	369.88
370.831	395.87
371.212	374.62
371.593	384.34
371.974	386.83
372.355	377.33
372.736	392.02
373.117	354.74
373.498	374.17
373.879	385.7
374.26	360.84
374.641	365.58
375.021	398.8
375.402	401.74
375.783	393.61
376.163	416.88
376.544	422.98
376.925	393.15
377.305	399.26
377.686	405.13
378.066	416.88
378.447	404.68
378.827	420.05
379.208	398.13
379.588	423.66
379.968	422.76
380.349	425.02
380.729	425.92
381.109	424.11
381.489	428.18
381.87	430.44
382.25	417.79
382.63	434.73
383.01	443.55
383.39	434.51
383.77	419.82
384.15	433.6
384.53	425.92
384.91	455.3
385.29	438.12
385.67	466.15
386.049	442.87
386.429	447.84
386.809	440.84
387.189	455.75
387.568	474.96
387.948	464.34
388.328	467.05
388.707	469.54
389.087	491.46
389.466	482.42
389.846	474.73
390.225	498.24
390.605	495.98
390.984	465.47
391.363	481.06
391.743	502.76
392.122	519.93
392.501	502.3
392.881	517.22
393.26	518.35
393.639	545.24
394.018	522.19
394.397	525.13
394.776	538.69
395.155	540.72
395.534	545.47
395.913	514.96
396.292	539.36
396.671	513.15
397.05	533.49
397.429	555.18
397.808	536.65
398.186	532.81
398.565	558.8
398.944	558.35
399.323	569.42
399.701	559.25
400.08	588.18
400.458	590.21
400.837	566.93
401.215	566.93
401.594	587.95
401.972	591.34
402.351	586.37
402.729	587.72
403.107	581.62
403.486	593.15
403.864	597.22
404.242	612.36
404.62	617.55
404.999	587.95
405.377	624.33
405.755	626.59
406.133	641.96
406.511	638.57
406.889	646.03
407.267	689.42
407.645	678.12
408.023	669.08
408.401	657.33
408.779	687.16
409.156	666.37
409.534	680.83
409.912	691.68
410.29	688.96
410.667	694.39
411.045	726.25
411.422	719.47
411.8	731.9
412.178	717.89
412.555	732.35
412.933	749.53
413.31	766.03
413.687	775.97
414.065	786.59
414.442	772.35
414.819	796.31
415.197	814.16
415.574	797.44
415.951	804.44
416.328	819.58
416.705	822.29
417.082	844.89
417.46	834.5
417.837	828.17
418.214	869.75
418.591	839.47
418.967	839.02
419.344	860.03
419.721	861.39
420.098	859.81
420.475	889.41
420.852	875.85
421.228	904.55
421.605	871.33
421.982	902.07
422.358	935.29
422.735	911.33
423.111	887.38
423.488	942.52
423.864	944.1
424.241	929.41
424.617	941.61
424.994	970.54
425.37	959.47
425.746	963.76
426.123	1003.08
426.499	994.04
426.875	1014.38
427.251	997.21
427.627	1028.17
428.003	1027.26
428.379	1041.05
428.756	1066.81
429.132	1080.37
429.507	1081.72
429.883	1107.49
430.259	1083.98
430.635	1102.97
431.011	1097.32
431.387	1129.41
431.763	1137.31
432.138	1160.59
432.514	1176.64
432.89	1161.27
433.265	1209.4
433.641	1192.68
434.016	1239.91
434.392	1245.79
434.767	1257.76
435.143	1262.96
435.518	1269.74
435.894	1278.1
436.269	1293.47
436.644	1346.57
437.02	1302.51
437.395	1292.11
437.77	1344.31
438.145	1389.51
438.52	1355.16
438.895	1368.72
439.271	1367.14
439.646	1383.86
440.021	1395.39
440.395	1420.7
440.77	1401.49
441.145	1427.93
441.52	1442.84
441.895	1419.12
442.27	1450.53
442.645	1475.16
443.019	1472.22
443.394	1464.54
443.769	1490.75
444.143	1487.14
444.518	1524.88
444.892	1522.39
445.267	1505.21
445.641	1512.45
446.016	1568.49
446.39	1564.2
446.764	1571.88
447.139	1551.32
447.513	1602.16
447.887	1584.08
448.262	1606.91
448.636	1577.3
449.01	1585.66
449.384	1619.11
449.758	1685.1
450.132	1650.3
450.506	1655.72
450.88	1674.48
451.254	1687.58
451.628	1684.19
452.002	1703.4
452.376	1735.72
452.75	1744.08
453.123	1749.73
453.497	1809.84
453.871	1812.78
454.244	1823.4
454.618	1859.33
454.992	1873.79
455.365	1861.36
455.739	1904.3
456.112	1949.5
456.486	1958.99
456.859	1944.98
457.232	2003.05
457.606	1998.76
457.979	2034.69
458.352	2069.72
458.725	2100.45
459.099	2133.67
459.472	2124.63
459.845	2155.14
460.218	2194.01
460.591	2197.85
460.964	2212.77
461.337	2204.63
461.71	2297.06
462.083	2326.89
462.456	2319.66
462.829	2329.37
463.201	2350.39
463.574	2387
463.947	2375.93
464.32	2445.98
464.692	2462.48
465.065	2478.75
465.438	2481.23
465.81	2559.2
466.183	2538.18
466.555	2588.35
466.928	2625.64
467.3	2636.48
467.672	2674.68
468.045	2695.69
468.417	2729.36
468.789	2709.7
469.161	2760.1
469.534	2808.46
469.906	2844.61
470.278	2893.43
470.65	2916.93
471.022	2969.36
471.394	2970.94
471.766	3037.38
472.138	3056.36
472.51	3153.76
472.882	3178.84
473.253	3129.35
473.625	3259.74
473.997	3302.23
474.369	3276.24
474.74	3349.23
475.112	3415.67
475.484	3430.81
475.855	3517.37
476.227	3561.66
476.598	3664.48
476.97	3703.8
477.341	3718.26
477.713	3806.62
478.084	3842.1
478.455	3975.21
478.827	3952.16
479.198	4097.24
479.569	4111.93
479.94	4184.69
480.311	4229.89
480.682	4328.42
481.053	4403.22
481.424	4508.3
481.795	4538.58
482.166	4610.67
482.537	4660.39
482.908	4777.9
483.279	4885.92
483.65	4941.51
484.021	5041.39
484.391	5124.55
484.762	5215.85
485.133	5235.96
485.503	5303.31
485.874	5467.82
486.244	5488.39
486.615	5641.38
486.985	5724.76
487.356	5817.19
487.726	5846.57
488.097	6047.24
488.467	6084.76
488.837	6204.3
489.207	6260.57
489.578	6440.68
489.948	6464.63
490.318	6639.09
490.688	6694.91
491.058	6802.48
491.428	6921.57
491.798	6939.65
492.168	7152.52
492.538	7160.66
492.908	7324.27
493.278	7476.81
493.648	7467.77
494.017	7685.17
494.387	7729.91
494.757	7788.44
495.126	7948.66
495.496	7954.99
495.866	8155.89
496.235	8221.65
496.605	8317.24
496.974	8437.69
497.344	8537.35
497.713	8613.95
498.082	8697.79
498.452	8856.66
498.821	8949.31
499.19	9031.12
499.559	9105.92
499.928	9164.45
500.298	9329.42
500.667	9472.91
501.036	9455.29
501.405	9644.89
501.774	9649.86
502.143	9821.15
502.512	9912.68
502.88	9998.32
503.249	10043.3
503.618	10196.51
503.987	10208.71
504.356	10309.05
504.724	10463.4
505.093	10462.49
505.462	10628.36
505.83	10668.14
506.199	10760.79
506.567	10951.97
506.936	11001.46
507.304	11118.3
507.672	11223.15
508.041	11256.82
508.409	11438.06
508.777	11517.15
509.145	11551.73
509.514	11664.5
509.882	11783.14
510.25	11878.05
510.618	11948.56
510.986	11999.4
511.354	12131.6
511.722	12296.8
512.09	12430.8
512.458	12352.84
512.826	12508.54
513.193	12601.65
513.561	12647.75
513.929	12787.18
514.297	12876.67
514.664	12988.3
515.032	12985.82
515.4	13207.96
515.767	13215.19
516.135	13345.36
516.502	13281.4
516.869	13564.33
517.237	13585.12
517.604	13506.71
517.972	13727.94
518.339	13843.42
518.706	13902.85
519.073	13932.23
519.44	14073.47
519.808	14257.2
520.175	14284.31
520.542	14438.43
520.909	14541.93
521.276	14617.64
521.643	14855.6
522.009	14903.96
522.376	15046.78
522.743	15108.25
523.11	15313.44
523.477	15395.02
523.843	15426.2
524.21	15640.66
524.577	15832.3
524.943	15929.47
525.31	16041.1
525.676	16202
526.043	16258.27
526.409	16339.85
526.776	16602.44
527.142	16579.62
527.508	16865.26
527.874	16900.06
528.241	17046.05
528.607	17192.71
528.973	17339.37
529.339	17222.09
529.705	17516.55
530.071	17745.69
530.437	17716.09
530.803	17940.49
531.169	18129.86
531.535	18154.04
531.901	18290.99
532.267	18288.05
532.632	18432.91
532.998	18506.12
533.364	18645.55
533.73	18735.95
534.095	18977.98
534.461	18852.56
534.826	19047.35
535.192	19048.71
535.557	19310.62
535.923	19283.96
536.288	19346.1
536.653	19467
537.019	19447.34
537.384	19581.8
537.749	19697.05
538.114	19748.35
538.479	19784.96
538.845	19920.1
539.21	19796.26
539.575	20036.7
539.94	20095.23
540.305	20198.96
540.67	20256.81
541.034	20281.22
541.399	20402.8
541.764	20437.37
542.129	20560.98
542.494	20551.95
542.858	20607.54
543.223	20719.4
543.587	20808.44
543.952	20806.63
544.316	20962.78
544.681	20874.65
545.045	20983.8
545.41	21137.01
545.774	21147.64
546.138	21145.38
546.503	21345.82
546.867	21238.71
547.231	21417.91
547.595	21445.03
547.959	21566.83
548.324	21496.55
548.688	21614.06
549.052	21746.72
549.416	21659.71
549.779	21788.75
550.143	21852.25
550.507	22068.74
550.871	22076.65
551.235	21970.44
551.599	22151.23
551.962	22367.72
552.326	22459.47
552.689	22290.88
553.053	22179.47
553.417	22470.77
553.78	22754.83
554.143	22682.28
554.507	22871.43
554.87	22913.69
555.234	22976.74
555.597	22855.84
555.96	23112.78
556.323	23275.04
556.686	23151.2
557.05	23388.03
557.413	23449.5
557.776	23452.89
558.139	23521.13
558.502	23694.46
558.865	23775.36
559.228	24078.86
559.59	23993.89
559.953	24016.26
560.316	24310.49
560.679	24304.62
561.041	24439.98
561.404	24559.98
561.767	24783.47
562.129	24770.82
562.492	24921.32
562.854	25020.3
563.217	25046.06
563.579	25149.56
563.941	25370.12
564.304	25332.84
564.666	25630.91
565.028	25673.62
565.39	25716.1
565.753	25918.36
566.115	25890.34
566.477	26154.96
566.839	26138.47
567.201	26507.95
567.563	26492.35
567.925	26720.37
568.287	26778.9
568.648	26866.13
569.01	27023.87
569.372	27338.21
569.734	27436.51
570.095	27490.52
570.457	27724.41
570.819	27765.77
571.18	27909.94
571.542	28172.99
571.903	28238.52
572.265	28358.97
572.626	28529.14
572.987	28580.89
573.349	28734.78
573.71	28904.72
574.071	29108.33
574.432	29333.64
574.794	29590.35
575.155	29530.92
575.516	29560.3
575.877	29840.06
576.238	30015.88
576.599	30100.17
576.96	30255.42
577.32	30428.07
577.681	30485.24
578.042	30830.77
578.403	31006.13
578.763	31035.96
579.124	31123.87
579.485	31468.04
579.845	31715.04
580.206	31695.83
580.566	31901.25
580.927	31933.12
581.287	32365.19
581.648	32346.89
582.008	32636.6
582.368	32778.52
582.728	33083.59
583.089	33162.69
583.449	33473.87
583.809	33715.67
584.169	34063.91
584.529	34062.32
584.889	34674.06
585.249	34613.95
585.609	34773.04
585.969	35231.33
586.329	35553.13
586.688	35795.16
587.048	36072.67
587.408	36271.31
587.768	36667.91
588.127	36962.59
588.487	37139.76
588.846	37856.58
589.206	37874.88
589.565	38213.4
589.925	38966.15
590.284	39155.52
590.643	39402.98
591.003	39837.77
591.362	40373.57
591.721	40635.26
592.08	41104.17
592.44	41726.98
592.799	41957.71
593.158	42292.39
593.517	42691.25
593.876	43287.17
594.235	43375.3
594.593	43794.05
594.952	44401.94
595.311	44742.04
595.67	45203.05
596.029	45727.78
596.387	46119.86
596.746	46635.33
597.104	46704.25
597.463	47143.11
597.822	47716.43
598.18	47785.35
598.538	48134.95
598.897	48722.28
599.255	48780.81
599.613	49651.52
599.972	49739.88
600.33	50108.91
600.688	50343.7
601.046	50729.68
601.404	51265.04
601.762	51382.1
602.12	51740.73
602.478	51924.68
602.836	52192.92
603.194	52279.02
603.552	52612.35
603.91	52806.69
604.268	53121.26
604.625	53361.48
604.983	53664.97
605.341	53645.76
605.698	54103.15
606.056	54420.43
606.413	54506.98
606.771	54831.04
607.128	54978.84
607.485	54973.41
607.843	55242.33
608.2	55565.49
608.557	55750.34
608.914	55855.88
609.272	56113.04
609.629	56407.95
609.986	56513.94
610.343	56618.12
610.7	56960.03
611.057	56985.79
611.414	57120.25
611.771	57382.62
612.127	57517.98
612.484	57657.18
612.841	57873.45
613.198	57856.95
613.554	57966.1
613.911	58225.31
614.267	58329.26
614.624	58381.69
614.98	58611.28
615.337	58764.73
615.693	58820.32
616.05	58908.45
616.406	59075.68
616.762	59120.65
617.118	59200.19
617.475	59280.42
617.831	59486.51
618.187	59521.99
618.543	59590.69
618.899	59821.87
619.255	59855.32
619.611	59865.71
619.967	60050.79
620.323	60215.54
620.678	60090.34
621.034	60154.07
621.39	60219.38
621.746	60254.18
622.101	60587.95
622.457	60409.2
622.812	60609.65
623.168	60684
623.523	60641.51
623.879	60802.41
624.234	60662.98
624.589	60833.6
624.945	60886.03
625.3	60900.26
625.655	60956.08
626.01	60945.01
626.365	61031.56
626.72	60997.44
627.075	60982.29
627.43	61101.61
627.785	61128.73
628.14	61147.94
628.495	61166.92
628.85	61176.19
629.205	61133.25
629.559	61281.04
629.914	61211.67
630.269	61214.38
630.623	61156.3
630.978	61116.53
631.332	61293.93
631.687	61320.37
632.041	61234.04
632.396	61250.08
632.75	61258.22
633.104	61245.56
633.459	61194.94
633.813	61180.71
634.167	61182.52
634.521	61220.03
634.875	61244.89
635.229	61200.82
635.583	61080.37
635.937	61073.14
636.291	61152.23
636.645	61121.73
636.999	60992.69
637.352	61116.08
637.706	60956.98
638.06	61050.54
638.413	61001.96
638.767	60975.52
639.121	61013.71
639.474	60933.71
639.828	60893.94
640.181	60867.72
640.534	60952.47
640.888	60879.7
641.241	60744.79
641.594	60807.84
641.947	60842.19
642.301	60770.32
642.654	60769.65
643.007	60727.39
643.36	60742.98
643.713	60707.73
644.066	60864.78
644.419	60589.99
644.771	60355.64
645.124	60096.67
645.477	60155.65
645.83	60074.07
646.182	60025.48
646.535	59969.21
646.888	60094.18
647.24	59959.27
647.593	60102.77
647.945	59963.79
648.298	59903
648.65	59868.2
649.002	59706.62
649.355	59691.26
649.707	59661.43
650.059	59640.86
650.411	59950.01
650.763	60027.97
651.115	60444.91
651.467	60256.21
651.819	60339.83
652.171	60205.82
652.523	60200.62
652.875	60211.24
653.227	60097.12
653.578	60229.09
653.93	60217.12
654.282	60096.89
654.633	60091.92
654.985	60066.61
655.337	60045.82
655.688	60032.72
656.039	60071.58
656.391	59882.44
656.742	59989.1
657.094	59984.35
657.445	59987.52
657.796	59934.19
658.147	59916.11
658.498	59915.43
658.849	59980.97
659.2	59921.08
659.551	59791.59
659.902	59957.01
660.253	59789.78
660.604	59905.71
660.955	59790.01
661.306	59895.54
661.656	59769.45
662.007	59773.74
662.358	59810.35
662.708	59742.33
663.059	59627.53
663.409	59592.73
663.76	59760.41
664.11	59759.28
664.461	59680.18
664.811	59732.38
665.161	59732.16
665.511	59638.6
665.862	59715.66
666.212	59719.5
666.562	59690.13
666.912	59713.4
667.262	59633.86
667.612	59657.81
667.962	59704.59
668.312	59667.08
668.662	59774.19
669.011	59614.42
669.361	59630.47
669.711	59654.19
670.06	59619.62
670.41	59590.47
670.76	59549.11
671.109	59736.68
671.459	59569.68
671.808	59580.3
672.157	59620.07
672.507	59430.92
672.856	59456.69
673.205	59535.33
673.554	59557.47
673.904	59496.91
674.253	59693.52
674.602	59506.85
674.951	59210.59
675.3	59010.82
675.649	59513.41
675.998	59527.42
676.346	59484.03
676.695	59495.33
677.044	59321.1
677.393	59334.88
677.741	59440.64
678.09	59342.11
678.438	59323.58
678.787	59361.32
679.135	59339.63
679.484	59177.82
679.832	59268.22
680.181	59166.98
680.529	59237.71
680.877	59196.13
681.225	59154.32
681.573	59315.67
681.922	59180.08
682.27	59116.36
682.618	59120.2
682.966	59047.88
683.314	59101.67
683.661	59086.07
684.009	59000.2
684.357	58975.34
684.705	58882.46
685.053	58980.77
685.4	58850.6
685.748	58715.24
686.095	58807.66
686.443	58678.17
686.79	58687.67
687.138	58728.79
687.485	58691.96
687.832	58571.28
688.18	58634.33
688.527	58575.13
688.874	58540.1
689.221	58557.05
689.568	58367.67
689.915	58344.85
690.262	58397.5
690.609	58318.86
690.956	58262.82
691.303	58239.32
691.65	58182.82
691.997	58104.18
692.344	57969.94
692.69	57943.96
693.037	58042.03
693.383	57779.44
693.73	57888.82
694.077	57723.17
694.423	57720.69
694.769	57702.83
695.116	57650.41
695.462	57563.18
695.808	57453.57
696.155	57508.49
696.501	57255.61
696.847	57392.56
697.193	57224.43
697.539	57275.05
697.885	56986.24
698.231	57003.42
698.577	57049.74
698.923	57045.9
699.269	56795.51
699.614	56766.13
699.96	56705.57
700.306	56665.12
700.651	56554.39
700.997	56501.06
701.342	56433.94
701.688	56420.15
702.033	56268.52
702.379	56308.07
702.724	56203.89
703.069	56180.61
703.415	55921.64
703.76	55921.41
704.105	55942.43
704.45	55829.21
704.795	55824.46
705.14	55669.67
705.485	55658.82
705.83	55558.48
706.175	55644.13
706.52	55554.87
706.865	55401.2
707.209	55255.44
707.554	55317.59
707.899	55240.98
708.243	55104.94
708.588	55069.23
708.932	54898.39
709.277	55001.21
709.621	54826.07
709.966	54642.57
710.31	54746.07
710.654	54529.13
710.998	54612.97
711.342	54631.5
711.687	54481.45
712.031	54360.1
712.375	54240.78
712.719	54270.15
713.063	54214.79
713.407	54306.31
713.75	54061.8
714.094	54085.98
714.438	53996.49
714.782	54012.31
715.125	53802.6
715.469	53939.77
715.812	53685.09
716.156	53614.35
716.499	53674.24
716.843	53741.36
717.186	53473.57
717.53	53695.03
717.873	53659.55
718.216	53547.69
718.559	53389.27
718.902	53108.15
719.246	53294.36
719.589	53213.46
719.932	53033.13
720.275	53076.51
720.617	53092.78
720.96	52943.86
721.303	53028.83
721.646	52969.62
721.989	52735.28
722.331	52830.19
722.674	52719.69
723.016	52663.87
723.359	52513.14
723.701	52678.78
724.044	52486.25
724.386	52332.58
724.729	52487.6
725.071	52380.26
725.413	52416.87
725.755	52277.21
726.097	52259.81
726.439	52110.44
726.782	51995.41
727.124	52215.29
727.465	52163.77
727.807	51919.26
728.149	52030.89
728.491	51887.84
728.833	51952.02
729.175	51889.65
729.516	51735.08
729.858	51674.07
730.199	51872.25
730.541	51684.23
730.882	51597.23
731.224	51677.68
731.565	51517.91
731.906	51456.67
732.248	51658.92
732.589	51356.33
732.93	51334.64
733.271	51358.14
733.612	51289.89
733.953	51447.86
734.294	51162.44
734.635	51107.75
734.976	51303.23
735.317	51105.94
735.658	51042.44
735.999	51007.42
736.339	50925.16
736.68	50895.78
737.021	51024.36
737.361	50853.52
737.702	51025.04
738.042	50833.41
738.383	50801.55
738.723	50760.19
739.063	50723.81
739.404	50877.48
739.744	50668.89
740.084	50583.92
740.424	50633.87
740.764	50503.93
741.104	50564.26
741.444	50417.6
741.784	50218.51
742.124	50416.47
742.464	50359.52
742.804	50260.99
743.143	50164.5
743.483	50197.95
743.823	50028.23
744.162	49981
744.502	50093.09
744.841	49796.6
745.181	50029.14
745.52	49839.99
745.86	49838.86
746.199	49849.25
746.538	49756.83
746.877	49897.61
747.216	49743.49
747.556	49590.5
747.895	49603.39
748.234	49531.52
748.573	49401.13
748.911	49348.7
749.25	49359.1
749.589	49245.43
749.928	49338.31
750.267	49202.94
750.605	49168.37
750.944	49173.79
751.283	49048.37
751.621	49094.47
751.96	48939
752.298	48806.8
752.636	48811.32
752.975	48698.55
753.313	48585.33
753.651	48732
753.989	48456.3
754.327	48408.39
754.666	48084.78
755.004	48281.39
755.342	48219.47
755.679	48203.2
756.017	47994.84
756.355	48026.7
756.693	47853.15
757.031	48176.76
757.368	47696.54
757.706	47680.5
758.044	47532.7
758.381	47569.54
758.719	47383.78
759.056	47402.09
759.394	47224.92
759.731	46903.12
760.068	46982.21
760.405	46935.88
760.743	46643.01
761.08	46720.52
761.417	46529.12
761.754	46505.84
762.091	46372.28
762.428	46139.07
762.765	45981.33
763.102	46064.95
763.438	45971.84
763.775	45693.66
764.112	45615.92
764.449	45666.99
764.785	45511.97
765.122	45358.98
765.458	45108.59
765.795	45122.15
766.131	44876.05
766.467	44878.99
766.804	44594.93
767.14	44473.35
767.476	44473.58
767.812	44204.43
768.148	44297.08
768.485	44094.83
768.821	43831.33
769.157	43705.91
769.492	43571.23
769.828	43620.72
770.164	43176.21
770.5	43174.18
770.836	43196.32
771.171	42946.61
771.507	42837.24
771.842	42632.49
772.178	42481.76
772.513	42394.76
772.849	42215.78
773.184	42204.48
773.519	42024.15
773.855	41891.05
774.19	41849.24
774.525	41600.88
774.86	41528.12
775.195	41390.72
775.53	41157.96
775.865	40893.11
776.2	40819.66
776.535	40553.23
776.87	40549.84
777.205	40272.56
777.539	40263.97
777.874	40163.86
778.209	39937.2
778.543	39870.31
778.878	39673.48
779.212	39567.72
779.547	39241.85
779.881	39332.02
780.215	38960.05
780.55	38961.63
780.884	38703.33
781.218	38619.04
781.552	38646.38
781.886	38313.96
782.22	38170.92
782.554	37972.73
782.888	37646.19
783.222	37619.97
783.556	37616.58
783.889	37420.2
784.223	37200.77
784.557	37135.24
784.89	37193.77
785.224	37005.3
785.557	36726.89
785.891	36569.15
786.224	36763.04
786.558	36639.88
786.891	36365.09
787.224	36142.72
787.557	36029.28
787.891	35975.72
788.224	35651.21
788.557	35788.38
788.89	35844.42
789.223	35488.28
789.556	35265.91
789.888	35266.81
790.221	35044.9
790.554	34953.37
790.887	34845.35
791.219	34733.27
791.552	34681.97
791.884	34437.23
792.217	34398.36
792.549	34359.27
792.882	33907.3
793.214	33942.33
793.546	33798.15
793.879	33858.04
794.211	33543.92
794.543	33609.91
794.875	33529.23
795.207	33488.78
795.539	33318.39
795.871	33285.17
796.203	33239.3
796.535	32839.31
796.867	32856.25
797.198	32654.68
797.53	32632.08
797.862	32395.93
798.193	32572.65
798.525	32355.25
798.856	32404.06
799.188	32016.95
799.519	31871.87
799.85	31826.23
800.182	31764.98
800.513	31882.72
800.844	31390.76
801.175	31667.59
801.506	31455.39
801.837	31396.18
802.168	31139.46
802.499	31209.74
802.83	31013.59
803.161	31028.51
803.491	30919.58
803.822	31037.09
804.153	30591.91
804.483	30531.12
804.814	30329.09
805.145	30377
805.475	30376.55
805.805	30204.35
806.136	30263.78
806.466	30066.05
806.796	30147.85
807.126	29896.56
807.457	29701.31
807.787	29744.02
808.117	29724.81
808.447	29638.03
808.777	29633.06
809.107	29386.97
809.436	29149.01
809.766	29354.2
810.096	29346.52
810.426	29129.12
810.755	29347.19
811.085	29027.2
811.414	29005.06
811.744	28890.48
812.073	28913.08
812.403	28800.09
812.732	28691.84
813.061	28789.92
813.39	28325.53
813.719	28338.86
814.049	28416.15
814.378	28367.56
814.707	28187.9
815.036	28235.59
815.365	28034.69
815.693	27872.88
816.022	27852.77
816.351	27799.89
816.68	27733.68
817.008	27707.92
817.337	27417.08
817.665	27459.33
817.994	27468.6
818.322	27589.73
818.651	27441.03
818.979	27209.17
819.307	27328.94
819.636	27192.45
819.964	27163.52
820.292	27238.1
820.62	27006.92
820.948	27244.2
821.276	27201.26
821.604	27209.4
821.932	27279.45
822.259	27137.31
822.587	27111.55
822.915	27034.49
823.243	27179.12
823.57	26904.09
823.898	27137.08
824.225	26957.88
824.553	26924.66
824.88	26998.78
825.207	27166.23
825.535	26946.81
825.862	26989.06
826.189	26948.61
826.516	27132.56
826.843	27176.86
827.17	27187.7
827.497	27098.67
827.824	27083.53
828.151	27079.01
828.478	26939.35
828.805	27227.02
829.131	27059.35
829.458	27047.82
829.785	26978.22
830.111	27046.24
830.438	27163.52
830.764	27104.99
831.09	27160.13
831.417	26966.01
831.743	27090.76
832.069	26968.5
832.395	26805.79
832.722	27006.01
833.048	26900.93
833.374	27020.7
833.7	26926.02
834.026	26879.69
834.351	26815.74
834.677	26968.95
835.003	26885.11
835.329	26797.88
835.654	26860.25
835.98	26619.81
836.306	26808.73
836.631	26686.02
836.956	26852.57
837.282	26687.83
837.607	26611.45
837.932	26574.16
838.258	26609.64
838.583	26589.3
838.908	26361.74
839.233	26579.81
839.558	26364.45
839.883	26373.49
840.208	26188.63
840.533	26322.87
840.858	26204.23
841.182	26212.36
841.507	26271.34
841.832	26084
842.156	25989.99
842.481	26080.16
842.805	25880.39
843.13	25839.49
843.454	25797.46
843.778	25761.07
844.103	25757.23
844.427	25514.3
844.751	25614.86
845.075	25567.86
845.399	25462.55
845.723	25483.34
846.047	25349.56
846.371	25160.19
846.695	25164.93
847.019	25036.8
847.343	24899.18
847.666	24865.5
847.99	24689.92
848.313	24564.72
848.637	24548.22
848.96	24577.6
849.284	24595.68
849.607	24232.3
849.931	24208.57
850.254	24049.25
850.577	23811.29
850.9	23840.45
851.223	23705.76
851.546	23685.2
851.869	23511.64
852.192	23745.08
852.515	23389.61
852.838	23312.55
853.161	23300.8
853.483	23229.39
853.806	23169.96
854.129	22954.14
854.451	22934.48
854.774	22811.1
855.096	22732.91
855.419	22664.88
855.741	22643.19
856.063	22522.29
856.385	22403.87
856.708	22324.1
857.03	22405.23
857.352	22321.39
857.674	22242.97
857.996	22091.57
858.318	21941.29
858.64	22082.75
858.961	22007.5
859.283	21908.75
859.605	21715.76
859.926	21828.52
860.248	21726.6
860.57	21653.16
860.891	21646.38
861.212	21486.16
861.534	21507.63
861.855	21392.15
862.176	21391.47
862.498	21369.33
862.819	21347.63
863.14	21214.98
863.461	21155.55
863.782	21080.75
864.103	21209.1
864.424	20994.65
864.745	21068.77
865.065	20892.73
865.386	20954.65
865.707	20980.18
866.027	20956.45
866.348	20846.18
866.668	20835.33
866.989	20865.16
867.309	20625.16
867.63	20671.49
867.95	20669
868.27	20603.92
868.59	20701.55
868.91	20480.31
869.23	20416.13
869.55	20467.88
869.87	20532.28
870.19	20438.28
870.51	20443.93
870.83	20344.72
871.15	20259.52
871.469	20120.77
871.789	20318.51
872.109	20234.67
872.428	20127.78
872.748	20242.35
873.067	20169.13
873.386	20148.34
873.706	20113.31
874.025	19915.58
874.344	19926.88
874.663	19912.19
874.982	19936.82
875.301	19862.7
875.62	19838.97
875.939	19728.24
876.258	19732.76
876.577	19589.71
876.896	19717.17
877.214	19633.1
877.533	19687.34
877.852	19667.45
878.17	19522.59
878.489	19550.84
878.807	19551.29
879.125	19526.44
879.444	19481.01
879.762	19344.52
880.08	19381.81
880.398	19236.5
880.716	19366.67
881.034	19354.24
881.352	19326.22
881.67	19309.49
881.988	19306.78
882.306	19164.86
882.624	19164.86
882.941	18998.77
883.259	18958.99
883.577	18902.5
883.894	18780.92
884.212	18911.54
884.529	18771.2
884.846	18796.51
885.164	18753.8
885.481	18775.27
885.798	18700.69
886.115	18558.55
886.432	18606.46
886.75	18528.27
887.067	18589.06
887.383	18489.63
887.7	18413.7
888.017	18349.07
888.334	18370.53
888.651	18230.88
888.967	18180.93
889.284	18152.01
889.6	18096.42
889.917	17898.23
890.233	18049.19
890.55	17954.27
890.866	17909.3
891.182	17841.96
891.498	17820.94
891.815	17755.41
892.131	17749.31
892.447	17627.73
892.763	17521.06
893.079	17541.86
893.395	17509.09
893.71	17471.57
894.026	17367.17
894.342	17369.88
894.657	17210.34
894.973	17305.48
895.289	17195.42
895.604	17145.26
895.92	17020.29
896.235	16956.33
896.55	16974.86
896.865	16868.2
897.181	16860.52
897.496	16879.05
897.811	16812.16
898.126	16660.75
898.441	16624.37
898.756	16649.45
899.071	16494.65
899.386	16504.37
899.7	16378.72
900.015	16266.41
900.33	16208.33
900.644	16208.78
900.959	16082.68
901.273	16073.87
901.588	16049.01
901.902	15940.77
902.216	16004.27
902.531	15898.96
902.845	15822.13
903.159	15714.11
903.473	15641.79
903.787	15651.51
904.101	15524.73
904.415	15590.27
904.729	15503.49
905.042	15344.85
905.356	15334.68
905.67	15343.49
905.984	15297.62
906.297	15321.12
906.611	15124.74
906.924	15096.27
907.237	15056.5
907.551	14929.04
907.864	14922.94
908.177	14937.4
908.491	14806.33
908.804	14751.42
909.117	14613.12
909.43	14520.47
909.743	14561.82
910.056	14497.42
910.368	14438.21
910.681	14354.37
910.994	14255.16
911.307	14193.24
911.619	14058.33
911.932	14124.09
912.244	14016.75
912.557	14000.25
912.869	13976.98
913.181	13916.64
913.494	13897.21
913.806	13793.48
914.118	13694.95
914.43	13639.58
914.742	13619.47
915.054	13546.71
915.366	13525.01
915.678	13486.14
915.99	13421.96
916.302	13327.05
916.613	13262.87
916.925	13260.84
917.236	13209.77
917.548	13141.52
917.859	13090.45
918.171	13019.04
918.482	12916.89
918.794	12930.45
919.105	12851.13
919.416	12725.48
919.727	12702.89
920.038	12707.41
920.349	12577.01
920.66	12538.14
920.971	12577.69
921.282	12490.24
921.593	12369.56
921.903	12253.86
922.214	12278.94
922.525	12240.75
922.835	12205.05
923.146	12140.87
923.456	12154.88
923.767	11982.45
924.077	11978.84
924.387	11915.56
924.697	11857.48
925.008	11862.91
925.318	11750.82
925.628	11727.77
925.938	11615.01
926.248	11483.94
926.558	11501.56
926.867	11462.92
927.177	11470.38
927.487	11381.34
927.796	11310.15
928.106	11345.86
928.416	11215.24
928.725	11191.97
929.034	11159.88
929.344	11153.77
929.653	11098.18
929.962	10980.9
930.271	10927.34
930.581	10983.16
930.89	10872.43
931.199	10818.19
931.508	10774.8
931.817	10776.16
932.125	10679.89
932.434	10656.61
932.743	10528.03
933.051	10524.41
933.36	10513.11
933.669	10415.49
933.977	10332.1
934.286	10334.81
934.594	10289.16
934.902	10294.36
935.21	10206.23
935.519	10179.11
935.827	10112.67
936.135	10068.61
936.443	10006.91
936.751	10022.5
937.059	9959.68
937.367	9909.29
937.674	9890.08
937.982	9850.98
938.29	9792.45
938.597	9811.89
938.905	9675.4
939.213	9613.7
939.52	9582.29
939.827	9653.7
940.135	9533.25
940.442	9472.46
940.749	9376.42
941.056	9482.63
941.363	9383.2
941.67	9342.97
941.977	9288.29
942.284	9206.03
942.591	9240.6
942.898	9160.83
943.205	9152.02
943.511	9021.18
943.818	9078.35
944.125	8986.6
944.431	8996.54
944.738	8927.62
945.044	8850.78
945.35	8772.82
945.657	8812.37
945.963	8777.57
946.269	8750.22
946.575	8655.76
946.881	8619.6
947.187	8639.49
947.493	8609.43
947.799	8568.98
948.105	8547.06
948.41	8483.56
948.716	8417.58
949.022	8394.98
949.327	8383.9
949.633	8262.1
949.938	8268.2
950.244	8240.18
950.549	8215.32
950.854	8141.42
951.16	8127.19
951.465	8110.01
951.77	8062.1
952.075	8009.9
952.38	7999.51
952.685	7910.47
952.99	7905.5
953.294	7810.81
953.599	7807.2
953.904	7789.34
954.209	7705.5
954.513	7758.61
954.818	7703.24
955.122	7771.49
955.426	7627.99
955.731	7589.8
956.035	7611.95
956.339	7513.64
956.643	7512.97
956.948	7406.53
957.252	7409.47
957.556	7434.78
957.86	7365.4
958.163	7301.22
958.467	7242.69
958.771	7257.61
959.075	7235.46
959.378	7144.16
959.682	7189.58
959.985	7173.99
960.289	7071.4
960.592	7063.03
960.896	6998.86
961.199	6970.61
961.502	6950.72
961.805	6920.21
962.108	6866.43
962.411	6947.78
962.714	6895.36
963.017	6842.48
963.32	6769.26
963.623	6783.95
963.926	6696.26
964.228	6706.89
964.531	6617.85
964.833	6677.73
965.136	6616.49
965.438	6562.03
965.741	6543.5
966.043	6522.94
966.345	6517.74
966.648	6416.72
966.95	6381.47
967.252	6424.41
967.554	6389.83
967.856	6345.77
968.158	6268.25
968.46	6297.41
968.761	6253.79
969.063	6207.24
969.365	6172.66
969.666	6155.49
969.968	6104.87
970.269	6125.43
970.571	6071.65
970.872	6087.24
971.174	5955.04
971.475	5973.8
971.776	6037.52
972.077	5933.8
972.378	5895.16
972.679	5916.85
972.98	5863.07
973.281	5823.07
973.582	5808.83
973.883	5762.05
974.183	5718.21
974.484	5717.08
974.785	5687.93
975.085	5633.24
975.386	5654.94
975.686	5648.38
975.986	5594.6
976.287	5612
976.587	5557.76
976.887	5499.01
977.187	5452.91
977.487	5474.83
977.787	5454.04
978.087	5403.19
978.387	5399.35
978.687	5355.96
978.987	5367.71
979.286	5324.78
979.586	5323.19
979.885	5278.9
980.185	5240.71
980.484	5179.92
980.784	5196.87
981.083	5170.66
981.382	5155.74
981.682	5126.81
981.981	5143.31
982.28	5039.36
982.579	5046.14
982.878	5016.08
983.177	5001.39
983.475	5030.32
983.774	4950.1
984.073	4902.41
984.372	4892.02
984.67	4891.34
984.969	4830.32
985.267	4845.69
985.566	4853.15
985.864	4760.72
986.162	4811.12
986.461	4740.61
986.759	4740.38
987.057	4672.14
987.355	4635.75
987.653	4631.01
987.951	4639.82
988.249	4594.4
988.547	4586.04
988.844	4546.72
989.142	4550.33
989.44	4524.57
989.737	4502.65
990.035	4517.11
990.332	4483.67
990.63	4446.61
990.927	4427.17
991.224	4432.14
991.521	4408.42
991.819	4365.03
992.116	4351.47
992.413	4278.48
992.71	4304.46
993.006	4253.62
993.303	4259.04
993.6	4234.86
993.897	4169.1
994.193	4197.57
994.49	4183.79
994.787	4101.08
995.083	4123.22
995.379	4145.15
995.676	4100.17
995.972	4038.93
996.268	4026.5
996.565	3988.09
996.861	3995.32
997.157	3981.99
997.453	3918.26
997.749	3917.35
998.044	3897.24
998.34	3859.73
998.636	3899.05
998.932	3852.05
999.227	3850.01
999.523	3745.38
999.818	3691.37
1000.114	3788.09
1000.409	3722.11
1000.704	3691.37
1001	3676.01
1001.295	3698.38
1001.59	3635.55
1001.885	3648.66
1002.18	3613.63
1002.475	3594.43
1002.77	3570.02
1003.065	3555.78
1003.359	3553.75
1003.654	3525.73
1003.949	3490.02
1004.243	3466.97
1004.538	3444.82
1004.832	3441.66
1005.127	3412.28
1005.421	3415.22
1005.715	3359.86
1006.009	3346.07
1006.304	3321.89
1006.598	3304.94
1006.892	3292.06
1007.186	3248.45
1007.48	3248.45
1007.773	3205.73
1008.067	3231.04
1008.361	3177.26
1008.655	3194.44
1008.948	3166.19
1009.242	3172.06
1009.535	3152.18
1009.829	3086.64
1010.122	3065.85
1010.415	3078.73
1010.708	3039.19
1011.001	3017.49
1011.295	3002.58
1011.588	3007.1
1011.881	2958.51
1012.173	2957.83
1012.466	2903.82
1012.759	2888.91
1013.052	2910.15
1013.344	2903.37
1013.637	2847.33
1013.93	2837.16
1014.222	2878.29
1014.514	2796.71
1014.807	2839.19
1015.099	2743.15
1015.391	2734.79
1015.683	2742.92
1015.976	2730.72
1016.268	2698.4
1016.56	2652.76
1016.851	2670.61
1017.143	2642.81
1017.435	2606.65
1017.727	2597.84
1018.018	2609.82
1018.31	2594.68
1018.602	2568.24
1018.893	2534.11
1019.185	2497.73
1019.476	2521.46
1019.767	2514.45
1020.058	2463.83
1020.35	2446.43
1020.641	2427.45
1020.932	2434.91
1021.223	2418.41
1021.514	2365.31
1021.804	2323.72
1022.095	2339.54
1022.386	2344.29
1022.677	2287.79
1022.967	2296.38
1023.258	2321.01
1023.548	2262.71
1023.839	2204.41
1024.129	2233.33
1024.419	2181.36
1024.709	2178.87
1025	2173.45
1025.29	2153.56
1025.58	2154.46
1025.87	2126.44
1026.16	2123.28
1026.449	2130.73
1026.739	2117.63
1027.029	2065.43
1027.319	2038.99
1027.608	2053.45
1027.898	2026.56
1028.187	1997.86
1028.477	2017.07
1028.766	2008.48
1029.055	1981.36
1029.344	1957.41
1029.634	1939.78
1029.923	1930.29
1030.212	1937.52
1030.501	1893.91
1030.79	1879.44
1031.078	1855.71
1031.367	1880.57
1031.656	1842.15
1031.945	1796.28
1032.233	1819.78
1032.522	1823.85
1032.81	1797.41
1033.099	1781.59
1033.387	1796.28
1033.675	1779.11
1033.963	1741.14
1034.251	1717.19
1034.54	1714.02
1034.828	1703.4
1035.116	1688.71
1035.403	1680.35
1035.691	1661.59
1035.979	1629.96
1036.267	1640.8
1036.554	1621.37
1036.842	1640.58
1037.129	1608.49
1037.417	1610.52
1037.704	1604.42
1037.992	1579.56
1038.279	1548.38
1038.566	1563.29
1038.853	1563.29
1039.14	1563.29
