Data from 152_FLMS001491_006.txt Node
Date: Thu Apr 19 16:17:45 BST 2018
User: hsy
Spectrometer: FLMS00149
Trigger mode: 0
Integration Time (sec): 1.000000E-2
Scans to average: 10
Electric dark correction enabled: true
Nonlinearity correction enabled: false
Boxcar width: 0
XAxis mode: Wavelengths
Number of Pixels in Spectrum: 2048
>>>>>Begin Spectral Data<<<<<
341.393	-16.48
341.776	-16.48
342.16	-16.48
342.543	-62.81
342.927	-65.07
343.31	-58.52
343.693	-71.4
344.077	-62.36
344.46	-59.19
344.843	-65.97
345.226	-34.34
345.61	-33.21
345.993	-6.54
346.376	-9.25
346.759	-0.89
347.142	13.12
347.525	51.99
347.908	46.11
348.291	91.76
348.674	82.05
349.057	116.62
349.44	144.87
349.823	151.65
350.206	186.22
350.588	243.62
350.971	251.98
351.354	259.89
351.737	283.62
352.119	279.33
352.502	292.89
352.884	295.83
353.267	320.91
353.65	321.81
354.032	341.02
354.414	325.66
354.797	340.57
355.179	346.45
355.562	378.54
355.944	371.3
356.326	362.94
356.709	369.72
357.091	388.48
357.473	372.89
357.855	387.12
358.238	395.48
358.62	402.26
359.002	369.95
359.384	390.96
359.766	383.73
360.148	382.15
360.53	369.04
360.912	384.18
361.294	387.35
361.676	367.46
362.057	378.76
362.439	364.3
362.821	378.54
363.203	360.91
363.584	387.35
363.966	365.2
364.348	382.38
364.729	375.82
365.111	379.44
365.493	393.22
365.874	361.13
366.256	369.04
366.637	376.28
367.019	371.53
367.4	381.02
367.781	365.65
368.163	381.02
368.544	373.79
368.925	381.25
369.306	376.5
369.688	362.72
370.069	361.36
370.45	359.33
370.831	378.31
371.212	399.78
371.593	369.5
371.974	364.75
372.355	348.71
372.736	381.7
373.117	379.44
373.498	370.85
373.879	368.82
374.26	383.51
374.641	370.63
375.021	388.48
375.402	375.15
375.783	396.61
376.163	377.63
376.544	402.72
376.925	393.68
377.305	401.59
377.686	383.28
378.066	395.26
378.447	384.18
378.827	393.22
379.208	416.05
379.588	407.24
379.968	391.19
380.349	388.7
380.729	416.27
381.109	420.79
381.489	407.01
381.87	400.46
382.25	430.96
382.63	407.69
383.01	405.65
383.39	430.06
383.77	428.25
384.15	435.03
384.53	437.97
384.91	451.53
385.29	439.1
385.67	432.09
386.049	447.91
386.429	464.41
386.809	459.44
387.189	469.61
387.568	449.72
387.948	457.86
388.328	473.9
388.707	470.74
389.087	482.26
389.466	456.73
389.846	471.19
390.225	474.13
390.605	480.23
390.984	453.11
391.363	491.98
391.743	478.65
392.122	490.62
392.501	493.56
392.881	512.77
393.26	484.3
393.639	482.26
394.018	498.08
394.397	504.41
394.776	518.87
395.155	504.63
395.534	519.77
395.913	526.78
396.292	524.07
396.671	517.29
397.05	510.96
397.429	536.5
397.808	530.62
398.186	539.21
398.565	536.95
398.944	531.07
399.323	545.99
399.701	521.36
400.08	552.99
400.458	561.81
400.837	556.16
401.215	557.51
401.594	555.03
401.972	576.72
402.351	571.07
402.729	576.95
403.107	557.74
403.486	593.67
403.864	606.1
404.242	587.34
404.62	603.39
404.999	585.54
405.377	611.07
405.755	600
406.133	605.87
406.511	582.82
406.889	626.44
407.267	645.42
407.645	638.64
408.023	646.1
408.401	629.83
408.779	644.06
409.156	663.05
409.534	662.14
409.912	677.51
410.29	690.84
410.667	686.1
411.045	673.22
411.422	675.7
411.8	685.65
412.178	690.84
412.555	724.74
412.933	711.18
413.31	717.96
413.687	743.27
414.065	728.81
414.442	752.54
414.819	757.28
415.197	756.83
415.574	780.33
415.951	758.64
416.328	760.45
416.705	774.91
417.082	761.12
417.46	783.95
417.837	801.57
418.214	808.58
418.591	814.68
418.967	814
419.344	817.39
419.721	829.6
420.098	808.13
420.475	842.03
420.852	843.16
421.228	835.47
421.605	871.4
421.982	869.14
422.358	874.12
422.735	857.62
423.111	868.24
423.488	884.06
423.864	879.77
424.241	902.59
424.617	905.3
424.994	931.06
425.37	927.22
425.746	943.27
426.123	944.62
426.499	960.44
426.875	954.11
427.251	961.57
427.627	987.33
428.003	964.96
428.379	997.95
428.756	1012.19
429.132	1006.09
429.507	1023.94
429.883	1040.44
430.259	1035.24
430.635	1014
431.011	1055.58
431.387	1094.22
431.763	1087.9
432.138	1091.96
432.514	1118.18
432.89	1116.82
433.265	1143.26
433.641	1131.51
434.016	1166.54
434.392	1166.54
434.767	1183.49
435.143	1176.48
435.518	1192.53
435.894	1213.77
436.269	1216.25
436.644	1233.65
437.02	1221.22
437.395	1248.79
437.77	1225.52
438.145	1262.58
438.52	1278.4
438.895	1286.31
439.271	1311.84
439.646	1307.32
440.021	1315.46
440.395	1312.3
440.77	1299.87
441.145	1339.64
441.52	1359.3
441.895	1348
442.27	1351.84
442.645	1371.5
443.019	1379.41
443.394	1393.88
443.769	1389.58
444.143	1402.01
444.518	1388.45
444.892	1404.27
445.267	1409.47
445.641	1444.5
446.016	1430.94
446.39	1437.94
446.764	1448.34
447.139	1457.83
447.513	1446.76
447.887	1493.31
448.262	1493.08
448.636	1501.9
449.01	1497.6
449.384	1526.08
449.758	1529.01
450.132	1526.53
450.506	1576.92
450.88	1550.71
451.254	1555.91
451.628	1578.73
452.002	1586.87
452.376	1593.64
452.75	1651.5
453.123	1663.93
453.497	1632.29
453.871	1646.52
454.244	1703.92
454.618	1750.02
454.992	1754.77
455.365	1766.07
455.739	1788.22
456.112	1797.26
456.486	1827.76
456.859	1802.9
457.232	1878.16
457.606	1887.87
457.979	1912.28
458.352	1950.7
458.725	1950.02
459.099	1967.42
459.472	1962.45
459.845	1977.36
460.218	2005.84
460.591	2053.07
460.964	2090.81
461.337	2095.1
461.71	2125.38
462.083	2171.71
462.456	2157.02
462.829	2166.06
463.201	2218.03
463.574	2216.68
463.947	2273.17
464.32	2288.32
464.692	2260.97
465.065	2332.38
465.438	2334.42
465.81	2328.09
466.183	2354.75
466.555	2410.57
466.928	2406.5
467.3	2437.01
467.672	2480.85
468.045	2515.88
468.417	2524.24
468.789	2529.89
469.161	2521.08
469.534	2586.39
469.906	2651.7
470.278	2671.58
470.65	2674.75
471.022	2752.94
471.394	2762.2
471.766	2824.35
472.138	2873.61
472.51	2870.22
472.882	2934.17
473.253	2958.13
473.625	3015.08
473.997	3061.85
474.369	3074.96
474.74	3088.52
475.112	3193.83
475.484	3204.45
475.855	3279.7
476.227	3292.58
476.598	3367.16
476.97	3414.39
477.341	3476.31
477.713	3528.28
478.084	3593.37
478.455	3670.88
478.827	3698.67
479.198	3789.29
479.569	3793.13
479.94	3881.49
480.311	3945.22
480.682	4020.25
481.053	4120.13
481.424	4153.13
481.795	4209.85
482.166	4258.21
482.537	4395.6
482.908	4420.01
483.279	4516.05
483.65	4584.98
484.021	4702.26
484.391	4727.8
484.762	4835.59
485.133	4871.75
485.503	4945.19
485.874	5064.06
486.244	5130.27
486.615	5228.13
486.985	5335.02
487.356	5426.09
487.726	5449.59
488.097	5556.7
488.467	5667.66
488.837	5781.78
489.207	5891.84
489.578	5973.19
489.948	6054.32
490.318	6166.86
490.688	6225.16
491.058	6304.03
491.428	6438.04
491.798	6504.25
492.168	6671.7
492.538	6723.68
492.908	6763.9
493.278	6943.56
493.648	6966.16
494.017	7162.99
494.387	7195.76
494.757	7278.92
495.126	7407.05
495.496	7466.71
495.866	7602.53
496.235	7725.23
496.605	7835.51
496.974	7925.23
497.344	8004.55
497.713	8080.71
498.082	8201.38
498.452	8341.72
498.821	8387.82
499.19	8472.79
499.559	8544.42
499.928	8678.43
500.298	8761.59
500.667	8851.76
501.036	8910.74
501.405	8995.71
501.774	9059.44
502.143	9241.81
502.512	9243.61
502.88	9362.03
503.249	9460.1
503.618	9541.68
503.987	9654
504.356	9815.8
504.724	9848.34
505.093	9905.74
505.462	9994.78
505.83	10047.43
506.199	10143.93
506.567	10335.56
506.936	10378.72
507.304	10512.96
507.672	10596.57
508.041	10635.67
508.409	10736
508.777	10820.97
509.145	10909.56
509.514	10923.57
509.882	11105.03
510.25	11108.2
510.618	11220.74
510.986	11315.2
511.354	11493.5
511.722	11602.19
512.09	11639.48
512.458	11646.26
512.826	11789.76
513.193	11787.27
513.561	11935.07
513.929	12048.28
514.297	12211.22
514.664	12154.27
515.032	12335.51
515.4	12438.78
515.767	12448.73
516.135	12626.8
516.502	12498.89
516.869	12834.7
517.237	12799.23
517.604	12816.4
517.972	12967.58
518.339	13081.93
518.706	13142.49
519.073	13203.73
519.44	13340.45
519.808	13471.3
520.175	13554.23
520.542	13591.07
520.909	13716.26
521.276	13789.48
521.643	13913.32
522.009	13976.6
522.376	14101.79
522.743	14358.96
523.11	14451.84
523.477	14578.84
523.843	14620.42
524.21	14772.28
524.577	14960.98
524.943	15009.79
525.31	15134.31
525.676	15270.35
526.043	15348.31
526.409	15479.61
526.776	15676.21
527.142	15699.26
527.508	15824.23
527.874	16025.58
528.241	16054.06
528.607	16217.67
528.973	16371.56
529.339	16416.98
529.705	16504.44
530.071	16744.43
530.437	16801.38
530.803	16939.68
531.169	17022.62
531.535	17019
531.901	17091.32
532.267	17212.22
532.632	17399.56
532.998	17498.54
533.364	17516.84
533.73	17621.02
534.095	17762.71
534.461	17871.18
534.826	17924.51
535.192	18068.01
535.557	18152.53
535.923	18173.55
536.288	18323.6
536.653	18433.65
537.019	18388.91
537.384	18479.08
537.749	18496.48
538.114	18619.19
538.479	18627.09
538.845	18704.16
539.21	18797.49
539.575	18880.65
539.94	18908.67
540.305	19029.8
540.67	18997.03
541.034	19187.76
541.399	19254.65
541.764	19267.3
542.129	19364.7
542.494	19352.27
542.858	19519.27
543.223	19430.24
543.587	19653.06
543.952	19605.83
544.316	19643.11
544.681	19755.88
545.045	19936.89
545.41	20025.25
545.774	19979.6
546.138	19975.31
546.503	20150.22
546.867	20040.39
547.231	20205.81
547.595	20328.52
547.959	20358.12
548.324	20420.72
548.688	20425.92
549.052	20523.09
549.416	20514.95
549.779	20617.33
550.143	20638.34
550.507	20813.03
550.871	20849.41
551.235	20837.88
551.599	21022.51
551.962	21022.96
552.326	21167.82
552.689	21147.71
553.053	21174.82
553.417	21180.7
553.78	21469.73
554.143	21420.47
554.507	21533.69
554.87	21596.51
555.234	21853.45
555.597	21623.17
555.96	21736.39
556.323	21910.62
556.686	21914.69
557.05	22057.29
557.413	22031.75
557.776	22144.74
558.139	22332.53
558.502	22241.92
558.865	22344.06
559.228	22669.93
559.59	22742.24
559.953	22696.82
560.316	22945.85
560.679	22856.36
561.041	22993.76
561.404	23193.3
561.767	23413.41
562.129	23304.49
562.492	23589.9
562.854	23438.27
563.217	23577.7
563.579	23764.36
563.941	23833.74
564.304	23978.82
564.666	24300.84
565.028	24180.17
565.39	24327.06
565.753	24451.8
566.115	24502.42
566.477	24664.68
566.839	24681.4
567.201	24871
567.563	24902.41
567.925	25252.91
568.287	25216.3
568.648	25284.1
569.01	25557.76
569.372	25797.98
569.734	25752.33
570.095	25884.76
570.457	26083.17
570.819	26114.13
571.18	26235.93
571.542	26556.15
571.903	26463.5
572.265	26666.66
572.626	26802.47
572.987	26787.33
573.349	27121.33
573.71	27218.28
574.071	27463.25
574.432	27596.12
574.794	27881.77
575.155	27862.11
575.516	27752.5
575.877	28078.15
576.238	28144.36
576.599	28353.84
576.96	28471.36
577.32	28481.53
577.681	28793.83
578.042	29025.01
578.403	29102.07
578.763	29131.23
579.124	29320.83
579.485	29654.6
579.845	29672
580.206	29822.51
580.566	30128.04
580.927	30150.41
581.287	30461.59
581.648	30646.89
582.008	30844.17
582.368	31078.74
582.728	31176.6
583.089	31536.13
583.449	31621.33
583.809	31945.16
584.169	32204.14
584.529	32254.31
584.889	32866.49
585.249	32834.86
585.609	33095.87
585.969	33510.09
586.329	33755.51
586.688	34050.87
587.048	34191.88
587.408	34534.02
587.768	34952.09
588.127	35315.7
588.487	35462.81
588.846	36323.35
589.206	36224.15
589.565	36554.53
589.925	37102.32
590.284	37383.21
590.643	37760.38
591.003	38261.61
591.362	38832.67
591.721	39111.53
592.08	39470.61
592.44	40006.87
592.799	40329.12
593.158	40701.54
593.517	40950.8
593.876	41628.3
594.235	42044.56
594.593	42311.22
594.952	42987.58
595.311	43212.21
595.67	43684.74
596.029	44251.28
596.387	44816.46
596.746	45289.67
597.104	45399.5
597.463	45720.62
597.822	46418
598.18	46755.62
598.538	46952.45
598.897	47573.9
599.255	47705.43
599.613	48673.76
599.972	48552.41
600.33	49073.07
600.688	49241.66
601.046	49640.52
601.404	50137.23
601.762	50363.21
602.12	50714.84
602.478	50998
602.836	51287.03
603.194	51253.13
603.552	51763.62
603.91	51953.9
604.268	52439.09
604.625	52624.62
604.983	52932.63
605.341	53008.56
605.698	53431.15
606.056	53735.32
606.413	53735.78
606.771	54140.29
607.128	54313.84
607.485	54483.78
607.843	54621.85
608.2	54965.8
608.557	55155.85
608.914	55322.18
609.272	55626.8
609.629	55822.5
609.986	56055.94
610.343	56132.1
610.7	56468.59
611.057	56518.75
611.414	56643.04
611.771	56941.12
612.127	57062.47
612.484	57205.29
612.841	57308.56
613.198	57375.23
613.554	57489.35
613.911	57772.96
614.267	57876.01
614.624	57926.63
614.98	58070.35
615.337	58363.68
615.693	58415.43
616.05	58490.91
616.406	58679.15
616.762	58673.05
617.118	58854.74
617.475	58939.48
617.831	59127.72
618.187	59158.68
618.543	59308.06
618.899	59455.17
619.255	59461.28
619.611	59525
619.967	59748.95
620.323	59824.43
620.678	59827.14
621.034	59829.85
621.39	59920.92
621.746	59967.93
622.101	60261.48
622.457	60130.64
622.812	60321.59
623.168	60342.38
623.523	60363.4
623.879	60460.57
624.234	60396.62
624.589	60581.02
624.945	60599.1
625.3	60658.31
625.655	60690.4
626.01	60762.03
626.365	60838.41
626.72	60787.34
627.075	60802.26
627.43	60854.01
627.785	60895.14
628.14	60889.94
628.495	61001.57
628.85	60987.34
629.205	60998.41
629.559	61096.03
629.914	60926.32
630.269	61041.12
630.623	60919.77
630.978	60947.56
631.332	61097.62
631.687	61071.18
632.041	61033.44
632.396	61072.98
632.75	61051.74
633.104	61129.71
633.459	61005.87
633.813	60987.56
634.167	60982.14
634.521	60994.79
634.875	61054.23
635.229	60955.02
635.583	60901.24
635.937	60926.77
636.291	60847
636.645	60936.26
636.999	60824.18
637.352	60963.38
637.706	60844.52
638.06	60890.39
638.413	60840.45
638.767	60739.21
639.121	60847.68
639.474	60751.41
639.828	60763.16
640.181	60762.48
640.534	60769.94
640.888	60743.73
641.241	60590.29
641.594	60620.79
641.947	60735.37
642.301	60647.69
642.654	60634.58
643.007	60636.16
643.36	60600.91
643.713	60576.95
644.066	60701.69
644.419	60521.59
644.771	60291.31
645.124	60037.98
645.477	59999.79
645.83	59929.96
646.182	59872.79
646.535	59828.95
646.888	59974.71
647.24	59836.63
647.593	59915.73
647.945	59862.62
648.298	59806.35
648.65	59734.04
649.002	59585.79
649.355	59579.92
649.707	59534.04
650.059	59515.74
650.411	59836.86
650.763	59941.71
651.115	60217.41
651.467	60150.52
651.819	60086.57
652.171	60068.27
652.523	60073.01
652.875	60074.59
653.227	59925.9
653.578	60117.08
653.93	60019.9
654.282	59900.81
654.633	59881.83
654.985	59909.4
655.337	59946.46
655.688	59935.16
656.039	59991.66
656.391	59733.58
656.742	59801.61
657.094	59791.44
657.445	59821.04
657.796	59823.07
658.147	59743.75
658.498	59770.19
658.849	59804.77
659.2	59759.8
659.551	59643.42
659.902	59775.17
660.253	59638.9
660.604	59747.82
660.955	59570.88
661.306	59701.27
661.656	59551.44
662.007	59569.75
662.358	59568.84
662.708	59553.93
663.059	59601.16
663.409	59405.01
663.76	59587.6
664.11	59515.74
664.461	59572.91
664.811	59558.22
665.161	59575.62
665.511	59440.49
665.862	59473.03
666.212	59537.66
666.562	59480.71
666.912	59438.68
667.262	59404.78
667.612	59412.92
667.962	59510.99
668.312	59396.42
668.662	59533.36
669.011	59482.29
669.361	59421.05
669.711	59428.28
670.06	59388.74
670.41	59364.1
670.76	59308.96
671.109	59448.17
671.459	59354.61
671.808	59340.83
672.157	59395.29
672.507	59278.46
672.856	59338.79
673.205	59355.74
673.554	59384.44
673.904	59259.47
674.253	59527.49
674.602	59263.99
674.951	59032.13
675.3	58843.66
675.649	59325.91
675.998	59331.11
676.346	59338.79
676.695	59337.89
677.044	59144.45
677.393	59247.95
677.741	59297.44
678.09	59244.11
678.438	59177.22
678.787	59253.37
679.135	59202.98
679.484	59049.99
679.832	59241.39
680.181	59049.53
680.529	59132.24
680.877	59039.59
681.225	58965.47
681.573	59139.48
681.922	59019.48
682.27	58928.86
682.618	58995.07
682.966	58878.92
683.314	58942.65
683.661	58920.72
684.009	58694.74
684.357	58803.21
684.705	58759.15
685.053	58729.32
685.4	58696.55
685.748	58641.41
686.095	58612.48
686.443	58454.75
686.79	58462.66
687.138	58553.73
687.485	58535.2
687.832	58354.86
688.18	58458.14
688.527	58345.37
688.874	58347.41
689.221	58337.01
689.568	58216.56
689.915	58167.52
690.262	58194.42
690.609	58125.94
690.956	58025.38
691.303	58056.57
691.65	57990.58
691.997	57911.49
692.344	57831.49
692.69	57774.99
693.037	57777.93
693.383	57644.83
693.73	57741.55
694.077	57561.89
694.423	57621.78
694.769	57500.42
695.116	57448
695.462	57376.36
695.808	57337.04
696.155	57438.5
696.501	57125.97
696.847	57196.7
697.193	57029.02
697.539	57049.81
697.885	56941.12
698.231	56834.45
698.577	56842.14
698.923	56848.24
699.269	56631.52
699.614	56550.39
699.96	56563.95
700.306	56575.25
700.651	56465.2
700.997	56422.49
701.342	56345.65
701.688	56294.58
702.033	56214.13
702.379	56170.97
702.724	56140.46
703.069	56146.33
703.415	55854.59
703.76	55829.05
704.105	55834.03
704.45	55758.32
704.795	55692.56
705.14	55610.08
705.485	55521.49
705.83	55361.95
706.175	55567.14
706.52	55382.29
706.865	55270.43
707.209	55209.18
707.554	55152.01
707.899	55112.46
708.243	55059.58
708.588	54985.24
708.932	54888.97
709.277	54923.09
709.621	54758.8
709.966	54637
710.31	54665.24
710.654	54486.27
710.998	54569.88
711.342	54614.17
711.687	54409.88
712.031	54436.55
712.375	54249.89
712.719	54254.63
713.063	54059.61
713.407	54283.11
713.75	54065.03
714.094	54031.14
714.438	53917.47
714.782	53874.3
715.125	53767.87
715.469	53865.04
715.812	53606.74
716.156	53661.43
716.499	53616.91
716.843	53661.88
717.186	53486.97
717.53	53536.46
717.873	53558.15
718.216	53405.62
718.559	53348.44
718.902	53114.1
719.246	53182.34
719.589	53138.05
719.932	52983.93
720.275	53019.41
720.617	52978.06
720.96	52873.43
721.303	52902.35
721.646	52887.21
721.989	52748.01
722.331	52769.25
722.674	52753.2
723.016	52668.01
723.359	52553.21
723.701	52535.36
724.044	52470.95
724.386	52321.35
724.729	52419.88
725.071	52377.85
725.413	52356.83
725.755	52240
726.097	52124.29
726.439	52164.29
726.782	52014.92
727.124	52098.31
727.465	52140.11
727.807	51962.72
728.149	51981.47
728.491	51809.95
728.833	51893.79
729.175	51829.61
729.516	51705.1
729.858	51688.82
730.199	51804.98
730.541	51708.94
730.882	51585.1
731.224	51645.21
731.565	51429.62
731.906	51485.21
732.248	51409.96
732.589	51341.94
732.93	51213.36
733.271	51257.42
733.612	51140.36
733.953	51355.5
734.294	51138.56
734.635	50980.59
734.976	51232.79
735.317	51009.07
735.658	50934.95
735.999	50939.92
736.339	50908.28
736.68	50913.03
737.021	50927.49
737.361	50751.9
737.702	50926.36
738.042	50645.24
738.383	50615.41
738.723	50805.23
739.063	50471.91
739.404	50577.67
739.744	50545.35
740.084	50381.06
740.424	50421.97
740.764	50373.6
741.104	50460.16
741.444	50343.32
741.784	50243.66
742.124	50308.07
742.464	50139.49
742.804	50154.4
743.143	50167.73
743.483	50177.68
743.823	49952.15
744.162	49896.78
744.502	49913.96
744.841	49691.81
745.181	49909.89
745.52	49792.38
745.86	49855.43
746.199	49706.28
746.538	49666.73
746.877	49838.03
747.216	49675.09
747.556	49455.44
747.895	49656.79
748.234	49453.18
748.573	49414.76
748.911	49383.57
749.25	49281.66
749.589	49105.39
749.928	49241.21
750.267	49185.39
750.605	49102.68
750.944	48991.95
751.283	48960.76
751.621	49000.53
751.96	48768.68
752.298	48744.5
752.636	48801.89
752.975	48629.24
753.313	48548.34
753.651	48767.32
753.989	48363.49
754.327	48447.33
754.666	48211.63
755.004	48210.5
755.342	48154.23
755.679	48148.35
756.017	47977.51
756.355	48032.88
756.693	47929.38
757.031	48031.52
757.368	47716.27
757.706	47778.19
758.044	47605.54
758.381	47677.18
758.719	47326.23
759.056	47379.11
759.394	47219.56
759.731	46990.19
760.068	46930.53
760.405	46962.62
760.743	46729.18
761.08	46798.56
761.417	46451.22
761.754	46460.94
762.091	46475.4
762.428	46119.25
762.765	45944.34
763.102	45956.32
763.438	46031.57
763.775	45666.38
764.112	45738.7
764.449	45716.55
764.785	45507.74
765.122	45416
765.458	45125.83
765.795	45027.3
766.131	45030.24
766.467	44773.53
766.804	44578.05
767.14	44530.14
767.476	44263.48
767.812	44365.18
768.148	44249.92
768.485	43936.03
768.821	43792.53
769.157	43781.24
769.492	43677.51
769.828	43617.17
770.164	43168.14
770.5	43160.69
770.836	43145.09
771.171	42901.48
771.507	42823.07
771.842	42459.46
772.178	42459.01
772.513	42326.13
772.849	42129.98
773.184	42230.77
773.519	41997.78
773.855	41814.28
774.19	41586.72
774.525	41531.8
774.86	41569.32
775.195	41398.25
775.53	41105.83
775.865	40869.22
776.2	40659.74
776.535	40442.34
776.87	40350.14
777.205	40269.69
777.539	40092.75
777.874	40139.75
778.209	39693.21
778.543	39833.54
778.878	39609.37
779.212	39501.8
779.547	39209.83
779.881	39200.11
780.215	38977.07
780.55	38991.53
780.884	38731.43
781.218	38582.28
781.552	38653.01
781.886	38399
782.22	38116.07
782.554	38095.28
782.888	37638.12
783.222	37607.16
783.556	37538.46
783.889	37335.98
784.223	37056.89
784.557	37202.65
784.89	37314.97
785.224	36947.07
785.557	36810.57
785.891	36651.93
786.224	36638.37
786.558	36562.89
786.891	36200.64
787.224	36045.39
787.557	35948.45
787.891	35928.56
788.224	35793.88
788.557	35530.61
788.89	35561.11
789.223	35551.4
789.556	35333.1
789.888	35265.53
790.221	35161.35
790.554	34947.34
790.887	34863.28
791.219	34783.05
791.552	34690.85
791.884	34452.89
792.217	34437.3
792.549	34362.5
792.882	33910.31
793.214	33892.46
793.546	34037.54
793.879	33733.82
794.211	33527.95
794.543	33765.91
794.875	33577.66
795.207	33423.77
795.539	33293.38
795.871	33264.45
796.203	33065.81
796.535	32814.29
796.867	32924.35
797.198	32722.32
797.53	32570.46
797.862	32385.38
798.193	32445.26
798.525	32365.72
798.856	32282.78
799.188	31850.93
799.519	31760.53
799.85	31755.79
800.182	31716.92
800.513	31785.17
800.844	31426.08
801.175	31607.09
801.506	31499.98
801.837	31323.48
802.168	31177.73
802.499	31206.65
802.83	30990.16
803.161	30914.46
803.491	30928.92
803.822	30842.59
804.153	30563.96
804.483	30455.71
804.814	30278.77
805.145	30356.96
805.475	30398.31
805.805	30169.62
806.136	30182.72
806.466	30067.92
806.796	29938.21
807.126	29844.2
807.457	29783.86
807.787	29776.63
808.117	29655.05
808.447	29550.88
808.777	29640.36
809.107	29273.82
809.436	29213.26
809.766	29335.29
810.096	29370.32
810.426	29058.01
810.755	29145.69
811.085	29016.88
811.414	28954.96
811.744	28792.48
812.073	28710.45
812.403	28704.34
812.732	28442.66
813.061	28657.57
813.39	28441.98
813.719	28397.91
814.049	28589.09
814.378	28407.85
814.707	28175.77
815.036	28269.78
815.365	28125.6
815.693	27977.36
816.022	27892.39
816.351	27635.22
816.68	27571.72
817.008	27795.89
817.337	27424.6
817.665	27458.05
817.994	27500.99
818.322	27458.73
818.651	27343.93
818.979	27331.05
819.307	27320.43
819.636	27289.01
819.964	27080.88
820.292	27178.51
820.62	27039.98
820.948	27087.21
821.276	27194.55
821.604	27098.28
821.932	27129.02
822.259	26998.85
822.587	27029.13
822.915	27072.75
823.243	27105.29
823.57	27017.61
823.898	27097.83
824.225	26935.13
824.553	26977.38
824.88	26945.07
825.207	27039.53
825.535	26930.15
825.862	26970.38
826.189	26841.79
826.516	27033.88
826.843	27043.14
827.17	27143.93
827.497	27109.81
827.824	27044.27
828.151	27161.79
828.478	27018.29
828.805	27184.38
829.131	27026.42
829.458	27030.72
829.785	26863.04
830.111	26945.52
830.438	26998.85
830.764	27002.02
831.09	27029.13
831.417	26971.28
831.743	27084.95
832.069	26955.24
832.395	26853.09
832.722	27029.59
833.048	26778.07
833.374	27057.61
833.7	26817.61
834.026	26780.33
834.351	26825.75
834.677	26840.44
835.003	26851.51
835.329	26804.06
835.654	26716.83
835.98	26590.05
836.306	26804.06
836.631	26556.83
836.956	26782.59
837.282	26732.42
837.607	26638.18
837.932	26544.63
838.258	26486.1
838.583	26464.4
838.908	26376.5
839.233	26440.67
839.558	26372.43
839.883	26221.02
840.208	26217.18
840.533	26353.9
840.858	26228.93
841.182	26124.07
841.507	26207.23
841.832	25911.88
842.156	25999.1
842.481	25887.7
842.805	25933.12
843.13	25770.41
843.454	25782.84
843.778	25772.9
844.103	25570.87
844.427	25591.43
844.751	25647.25
845.075	25494.26
845.399	25569.06
845.723	25520.47
846.047	25556.4
846.371	25270.08
846.695	25146.7
847.019	25130.2
847.343	24835.29
847.666	24843.2
847.99	24766.59
848.313	24679.59
848.637	24668.52
848.96	24513.04
849.284	24584.9
849.607	24285.93
849.931	24182.43
850.254	24064.01
850.577	23905.37
850.9	23840.52
851.223	23749.67
851.546	23674.65
851.869	23567.3
852.192	23613.18
852.515	23436.46
852.838	23282.34
853.161	23343.36
853.483	23147.2
853.806	23117.15
854.129	23040.76
854.451	22897.49
854.774	22944.72
855.096	22732.3
855.419	22720.55
855.741	22664.5
856.063	22605.52
856.385	22491.85
856.708	22421.8
857.03	22349.03
857.352	22348.58
857.674	22351.52
857.996	22156.49
858.318	22017.74
858.64	22088.7
858.961	21954.92
859.283	21927.12
859.605	21728.26
859.926	21766
860.248	21834.47
860.57	21660.91
860.891	21690.97
861.212	21601.93
861.534	21494.36
861.855	21382.28
862.176	21478.09
862.498	21497.53
862.819	21438.09
863.14	21228.61
863.461	21156.52
863.782	21131.21
864.103	21233.13
864.424	21139.8
864.745	21186.58
865.065	21036.75
865.386	20970.31
865.707	20974.6
866.027	21059.8
866.348	20853.03
866.668	20905.91
866.989	20766.93
867.309	20785.46
867.63	20615.97
867.95	20786.36
868.27	20628.4
868.59	20694.39
868.91	20658.91
869.23	20582.98
869.55	20389.08
869.87	20438.12
870.19	20345.24
870.51	20345.92
870.83	20324.9
871.15	20291.01
871.469	20246.71
871.789	20271.35
872.109	20309.76
872.428	20163.1
872.748	20187.96
873.067	20145.47
873.386	20071.12
873.706	20102.54
874.025	19985.03
874.344	19915.2
874.663	19960.85
874.982	19937.12
875.301	19899.38
875.62	19807.18
875.939	19775.77
876.258	19806.72
876.577	19688.76
876.896	19699.16
877.214	19699.84
877.533	19714.52
877.852	19672.49
878.17	19545.26
878.489	19612.83
878.807	19492.61
879.125	19548.65
879.444	19436.79
879.762	19402.22
880.08	19406.74
880.398	19246.29
880.716	19391.59
881.034	19279.51
881.352	19280.86
881.67	19141.88
881.988	19106.4
882.306	19118.61
882.624	19100.08
882.941	19086.97
883.259	18866.41
883.577	18937.37
883.894	18827.32
884.212	18829.12
884.529	18870.03
884.846	18734.89
885.164	18656.7
885.481	18724.95
885.798	18697.83
886.115	18609.02
886.432	18594.1
886.75	18449.7
887.067	18521.56
887.383	18460.32
887.7	18325.18
888.017	18274.56
888.334	18303.49
888.651	18218.07
888.967	18133.32
889.284	18052.42
889.6	18125.41
889.917	18057.39
890.233	17982.37
890.55	17898.75
890.866	17929.71
891.182	17863.73
891.498	17835.93
891.815	17766.55
892.131	17696.5
892.447	17670.06
892.763	17466.67
893.079	17482.72
893.395	17498.54
893.71	17391.65
894.026	17336.73
894.342	17382.16
894.657	17240.92
894.973	17243.63
895.289	17192.33
895.604	17083.86
895.92	17029.4
896.235	16958.44
896.55	16944.65
896.865	16865.56
897.181	16913.47
897.496	16814.71
897.811	16674.15
898.126	16673.7
898.441	16595.74
898.756	16620.14
899.071	16526.13
899.386	16541.05
899.7	16343.77
900.015	16282.98
900.33	16209.53
900.644	16170.44
900.959	16166.82
901.273	16096.54
901.588	16063.09
901.902	15997.33
902.216	15923.66
902.531	15942.42
902.845	15715.76
903.159	15713.73
903.473	15633.05
903.787	15575.42
904.101	15543.33
904.415	15541.98
904.729	15443.45
905.042	15354.86
905.356	15305.15
905.67	15245.49
905.984	15235.09
906.297	15147.19
906.611	15138.37
906.924	15075.32
907.237	15000.52
907.551	14913.75
907.864	14924.82
908.177	14901.32
908.491	14831.04
908.804	14744.94
909.117	14527.77
909.43	14443.02
909.743	14495
910.056	14472.18
910.368	14433.76
910.681	14304.04
910.994	14256.81
911.307	14184.27
911.619	14136.14
911.932	14114.45
912.244	13930.5
912.557	13982.47
912.869	13865.41
913.181	13841.23
913.494	13775.02
913.806	13792.87
914.118	13656.38
914.43	13616.83
914.742	13612.31
915.054	13504.07
915.366	13454.12
915.678	13479.89
915.99	13367.57
916.302	13317.4
916.613	13229.95
916.925	13234.02
917.236	13162.38
917.548	13050.74
917.859	13058.88
918.171	12967.81
918.482	12833.8
918.794	12809.62
919.105	12800.36
919.416	12691.66
919.727	12668.61
920.038	12630.42
920.349	12461.61
920.66	12502.51
920.971	12556.07
921.282	12421.38
921.593	12346.58
921.903	12341.38
922.214	12223.87
922.525	12270.43
922.835	12140.71
923.146	12042.86
923.456	11990.66
923.767	12032.92
924.077	11918.34
924.387	11966.93
924.697	11896.88
925.008	11799.7
925.318	11721.29
925.628	11700.27
925.938	11585.47
926.248	11544.8
926.558	11471.35
926.867	11504.8
927.177	11417.12
927.487	11381.18
927.796	11358.13
928.106	11265.71
928.416	11268.42
928.725	11208.76
929.034	11105.71
929.344	11084.24
929.653	11143.68
929.962	10942.78
930.271	10976
930.581	10885.38
930.89	10803.57
931.199	10809.45
931.508	10730.13
931.817	10745.27
932.125	10662.56
932.434	10627.08
932.743	10555.67
933.051	10429.34
933.36	10496.69
933.669	10413.53
933.977	10365.62
934.286	10351.15
934.594	10291.95
934.902	10271.83
935.21	10204.27
935.519	10071.84
935.827	10129.47
936.135	10065.06
936.443	9974.89
936.751	9910.94
937.059	10025.29
937.367	9919.98
937.674	9866.42
937.982	9826.87
938.29	9807.89
938.597	9810.38
938.905	9676.6
939.213	9632.76
939.52	9586.88
939.827	9654.9
940.135	9597.28
940.442	9464.85
940.749	9405.87
941.056	9404.96
941.363	9336.72
941.67	9331.07
941.977	9310.5
942.284	9193.9
942.591	9210.62
942.898	9181.69
943.205	9171.52
943.511	9107.8
943.818	9104.86
944.125	8925.2
944.431	8939.21
944.738	8856.28
945.044	8812.89
945.35	8846.34
945.657	8776.96
945.963	8827.58
946.269	8626.91
946.575	8721.59
946.881	8615.15
947.187	8627.58
947.493	8535.38
947.799	8520.69
948.105	8492.22
948.41	8434.37
948.716	8389.4
949.022	8366.35
949.327	8384.2
949.633	8242.06
949.938	8294.71
950.244	8275.73
950.549	8202.28
950.854	8082.51
951.16	8110.08
951.465	8065.79
951.77	8052.01
952.075	7992.35
952.38	8001.84
952.685	7925.46
952.99	7897.43
953.294	7933.59
953.599	7782.41
953.904	7849.98
954.209	7739.92
954.513	7709.64
954.818	7673.26
955.122	7656.54
955.426	7641.62
955.731	7614.5
956.035	7491.34
956.339	7534.73
956.643	7459.93
956.948	7403.21
957.252	7401.4
957.556	7427.84
957.86	7351.46
958.163	7362.08
958.467	7346.04
958.771	7226.72
959.075	7237.11
959.378	7193.05
959.682	7151.01
959.985	7124.35
960.289	7041.41
960.592	7038.47
960.896	6985.37
961.199	6932.26
961.502	6962.54
961.805	6962.32
962.108	6817.69
962.411	6853.17
962.714	6797.35
963.017	6824.02
963.32	6813.39
963.623	6777.69
963.926	6758.25
964.228	6672.38
964.531	6671.7
964.833	6639.39
965.136	6607.75
965.438	6575.21
965.741	6464.7
966.043	6531.14
966.345	6415.44
966.648	6462.9
966.95	6419.96
967.252	6358.72
967.554	6366.17
967.856	6320.53
968.158	6247.53
968.46	6332.95
968.761	6180.87
969.063	6191.49
969.365	6236.23
969.666	6152.17
969.968	6092.51
970.269	6057.48
970.571	6061.55
970.872	6075.33
971.174	6017.71
971.475	5996.69
971.776	5978.16
972.077	5959.86
972.378	5953.08
972.679	5921.89
972.98	5857.26
973.281	5840.76
973.582	5849.8
973.883	5776.36
974.183	5715.57
974.484	5713.76
974.785	5634.22
975.085	5652.52
975.386	5677.6
975.686	5642.35
975.986	5582.69
976.287	5533.65
976.587	5493.2
976.887	5511.96
977.187	5543.15
977.487	5462.02
977.787	5429.93
978.087	5434.67
978.387	5340.89
978.687	5368.01
978.987	5299.54
979.286	5290.04
979.586	5292.08
979.885	5214.57
980.185	5184.74
980.484	5144.29
980.784	5165.08
981.083	5211.18
981.382	5138.18
981.682	5109.71
981.981	5132.53
982.28	5062.48
982.579	5021.58
982.878	5032.88
983.177	4997.4
983.475	5014.35
983.774	4966.21
984.073	4945.42
984.372	4904.07
984.67	4862.71
984.969	4873.11
985.267	4867.68
985.566	4815.71
985.864	4841.69
986.162	4789.49
986.461	4756.05
986.759	4749.27
987.057	4679.67
987.355	4652.77
987.653	4647.35
987.951	4580.01
988.249	4626.11
988.547	4583.85
988.844	4544.3
989.142	4504.3
989.44	4528.03
989.737	4480.35
990.035	4459.56
990.332	4439.9
990.63	4411.65
990.927	4370.07
991.224	4380.01
991.521	4353.35
991.819	4327.36
992.116	4326.23
992.413	4281.26
992.71	4273.8
993.006	4274.7
993.303	4222.95
993.6	4220.47
993.897	4214.37
994.193	4161.49
994.49	4142.05
994.787	4103.86
995.083	4072
995.379	4100.7
995.676	4060.7
995.972	3986.58
996.268	4039.46
996.565	4001.26
996.861	4026.57
997.157	3970.98
997.453	3959.68
997.749	3968.05
998.044	3894.6
998.34	3878.56
998.636	3887.82
998.932	3850.08
999.227	3835.17
999.523	3830.42
999.818	3783.42
1000.114	3709.3
1000.409	3732.57
1000.704	3708.84
1001	3680.6
1001.295	3684.66
1001.59	3670.88
1001.885	3597.43
1002.18	3616.42
1002.475	3610.77
1002.77	3576.19
1003.065	3544.55
1003.359	3513.82
1003.654	3491.67
1003.949	3506.81
1004.243	3484.89
1004.538	3421.85
1004.832	3420.26
1005.127	3374.61
1005.421	3400.38
1005.715	3402.41
1006.009	3379.36
1006.304	3348.85
1006.598	3258.01
1006.892	3267.05
1007.186	3275.86
1007.48	3231.34
1007.773	3193.6
1008.067	3181.85
1008.361	3161.96
1008.655	3147.5
1008.948	3121.74
1009.242	3150.67
1009.535	3104.11
1009.829	3101.63
1010.122	3065.24
1010.415	3074.51
1010.708	3019.14
1011.001	3001.29
1011.295	2985.02
1011.588	2988.86
1011.881	2967.85
1012.173	2938.02
1012.466	2949.32
1012.759	2903.44
1013.052	2895.53
1013.344	2902.31
1013.637	2870.22
1013.93	2819.83
1014.222	2812.82
1014.514	2806.72
1014.807	2768.08
1015.099	2752.03
1015.391	2752.03
1015.683	2770.56
1015.976	2717.68
1016.268	2706.16
1016.56	2657.57
1016.851	2664.58
1017.143	2663.67
1017.435	2637.46
1017.727	2610.11
1018.018	2591.13
1018.31	2542.32
1018.602	2587.52
1018.893	2518.59
1019.185	2513.17
1019.476	2500.74
1019.767	2501.19
1020.058	2472.04
1020.35	2443.11
1020.641	2412.15
1020.932	2430.01
1021.223	2389.78
1021.514	2348.2
1021.804	2346.17
1022.095	2340.07
1022.386	2336.68
1022.677	2318.82
1022.967	2280.63
1023.258	2237.47
1023.548	2276.11
1023.839	2244.25
1024.129	2221.65
1024.419	2182.78
1024.709	2227.98
1025	2173.06
1025.29	2205.38
1025.58	2143.46
1025.87	2157.25
1026.16	2104.59
1026.449	2100.3
1026.739	2055.33
1027.029	2038.38
1027.319	2048.77
1027.608	2023.92
1027.898	2044.03
1028.187	2051.71
1028.477	1967.42
1028.766	1995.22
1029.055	1978.49
1029.344	1978.04
1029.634	1955.44
1029.923	1930.13
1030.212	1907.99
1030.501	1882.9
1030.79	1880.87
1031.078	1867.54
1031.367	1852.85
1031.656	1852.62
1031.945	1806.97
1032.233	1835.45
1032.522	1792.06
1032.81	1780.98
1033.099	1775.56
1033.387	1777.82
1033.675	1769.91
1033.963	1742.12
1034.251	1739.4
1034.54	1698.27
1034.828	1684.49
1035.116	1664.15
1035.403	1665.51
1035.691	1658.5
1035.979	1656.02
1036.267	1654.21
1036.554	1625.28
1036.842	1628.67
1037.129	1600.88
1037.417	1593.87
1037.704	1588.45
1037.992	1575.79
1038.279	1564.72
1038.566	1538.73
1038.853	1538.73
1039.14	1538.73
