Data from 152_FLMS001491_001.txt Node
Date: Thu Apr 19 16:17:33 BST 2018
User: hsy
Spectrometer: FLMS00149
Trigger mode: 0
Integration Time (sec): 1.000000E-2
Scans to average: 10
Electric dark correction enabled: true
Nonlinearity correction enabled: false
Boxcar width: 0
XAxis mode: Wavelengths
Number of Pixels in Spectrum: 2048
>>>>>Begin Spectral Data<<<<<
341.393	6.43
341.776	6.43
342.16	6.43
342.543	-46.23
342.927	-68.6
343.31	-69.73
343.693	-83.97
344.077	-76.74
344.46	-69.96
344.843	-53.23
345.226	-30.18
345.61	-28.83
345.993	-26.12
346.376	6.2
346.759	-0.58
347.142	41
347.525	30.15
347.908	80.77
348.291	85.52
348.674	85.97
349.057	109.7
349.44	137.95
349.823	121.68
350.206	175.69
350.588	204.61
350.971	242.13
351.354	269.7
351.737	273.99
352.119	302.24
352.502	297.94
352.884	322.12
353.267	312.86
353.65	325.97
354.032	332.75
354.414	352.63
354.797	362.35
355.179	377.26
355.562	343.82
355.944	385.17
356.326	363.93
356.709	365.96
357.091	388.56
357.473	367.55
357.855	387.43
358.238	391.5
358.62	375.23
359.002	385.4
359.384	389.47
359.766	401.9
360.148	395.34
360.53	408.68
360.912	380.43
361.294	384.5
361.676	371.84
362.057	380.65
362.439	392.63
362.821	374.78
363.203	361.9
363.584	373.2
363.966	383.59
364.348	369.58
364.729	380.88
365.111	372.97
365.493	384.04
365.874	366.19
366.256	361.45
366.637	386.76
367.019	361.22
367.4	392.18
367.781	384.5
368.163	379.3
368.544	353.54
368.925	377.72
369.306	361.9
369.688	381.11
370.069	374.1
370.45	394.89
370.831	384.72
371.212	388.56
371.593	392.63
371.974	384.72
372.355	382.69
372.736	403.25
373.117	395.12
373.498	386.76
373.879	363.03
374.26	366.87
374.641	387.66
375.021	378.85
375.402	408.22
375.783	413.65
376.163	427.66
376.544	402.35
376.925	387.66
377.305	396.92
377.686	414.33
378.066	407.77
378.447	393.31
378.827	405.06
379.208	414.1
379.588	416.36
379.968	420.43
380.349	436.25
380.729	402.8
381.109	416.13
381.489	431.27
381.87	419.52
382.25	421.33
382.63	429.69
383.01	425.85
383.39	450.26
383.77	413.42
384.15	427.88
384.53	435.34
384.91	446.19
385.29	449.58
385.67	443.93
386.049	463.14
386.429	464.04
386.809	476.47
387.189	440.99
387.568	437.15
387.948	463.36
388.328	475.57
388.707	497.26
389.087	459.3
389.466	483.48
389.846	476.47
390.225	487.32
390.605	465.85
390.984	479.86
391.363	467.88
391.743	505.85
392.122	490.48
392.501	523.25
392.881	487.32
393.26	524.6
393.639	537.49
394.018	490.03
394.397	496.13
394.776	497.71
395.155	499.97
395.534	510.82
395.913	535
396.292	530.71
396.671	528.22
397.05	533.87
397.429	553.3
397.808	533.64
398.186	524.83
398.565	542.91
398.944	553.76
399.323	548.56
399.701	570.03
400.08	562.12
400.458	550.37
400.837	586.98
401.215	582.68
401.594	568.45
401.972	570.71
402.351	571.84
402.729	572.29
403.107	580.42
403.486	582.23
403.864	568.9
404.242	591.04
404.62	622.46
404.999	617.26
405.377	593.76
405.755	593.98
406.133	595.79
406.511	627.88
406.889	630.59
407.267	628.1
407.645	632.17
408.023	637.82
408.401	658.39
408.779	668.56
409.156	657.93
409.534	679.18
409.912	670.36
410.29	664.49
410.667	681.66
411.045	682.79
411.422	676.47
411.8	677.14
412.178	720.31
412.555	706.29
412.933	718.72
413.31	736.8
413.687	744.94
414.065	723.24
414.442	756.92
414.819	758.72
415.197	755.79
415.574	770.47
415.951	774.99
416.328	762.11
416.705	763.47
417.082	786.74
417.46	794.88
417.837	809.57
418.214	782.9
418.591	785.39
418.967	811.6
419.344	816.57
419.721	819.74
420.098	811.83
420.475	849.79
420.852	821.77
421.228	841.66
421.605	866.74
421.982	842.34
422.358	864.26
422.735	843.24
423.111	868.55
423.488	885.05
423.864	869.68
424.241	927.53
424.617	902.22
424.994	902.45
425.37	907.19
425.746	931.37
426.123	921.66
426.499	939.96
426.875	957.81
427.251	955.78
427.627	962.56
428.003	991.26
428.379	951.71
428.756	1029.9
429.132	1000.07
429.507	990.81
429.883	1024.03
430.259	1040.3
430.635	1040.52
431.011	1039.62
431.387	1068.55
431.763	1072.61
432.138	1080.97
432.514	1104.48
432.89	1122.78
433.265	1112.61
433.641	1127.3
434.016	1132.95
434.392	1138.37
434.767	1181.31
435.143	1170.01
435.518	1198.49
435.894	1212.27
436.269	1216.34
436.644	1242.55
437.02	1224.47
437.395	1251.82
437.77	1254.53
438.145	1266.96
438.52	1264.25
438.895	1301.76
439.271	1284.36
439.646	1320.06
440.021	1318.48
440.395	1347.63
440.77	1329.1
441.145	1356
441.52	1333.85
441.895	1348.99
442.27	1352.15
442.645	1317.58
443.019	1354.87
443.394	1399.84
443.769	1379.95
444.143	1353.51
444.518	1383.79
444.892	1371.14
445.267	1405.26
445.641	1437.12
446.016	1420.85
446.39	1442.32
446.764	1467.86
447.139	1422.21
447.513	1459.72
447.887	1471.02
448.262	1472.15
448.636	1470.34
449.01	1480.29
449.384	1511.02
449.758	1514.86
450.132	1537.23
450.506	1527.52
450.88	1550.79
451.254	1556.67
451.628	1601.64
452.002	1562.54
452.376	1640.28
452.75	1620.62
453.123	1640.51
453.497	1648.19
453.871	1681.41
454.244	1695.42
454.618	1691.81
454.992	1725.25
455.365	1751.92
455.739	1739.04
456.112	1784.01
456.486	1776.55
456.859	1799.15
457.232	1852.03
457.606	1843.21
457.979	1861.07
458.352	1936.77
458.725	1942.42
459.099	1925.7
459.472	1949.43
459.845	1993.72
460.218	2025.36
460.591	2027.16
460.964	2038.92
461.337	2069.87
461.71	2136.77
462.083	2113.26
462.456	2104.68
462.829	2148.97
463.201	2159.14
463.574	2194.39
463.947	2194.62
464.32	2217.89
464.692	2248.4
465.065	2250.89
465.438	2319.81
465.81	2393.48
466.183	2344.44
466.555	2383.99
466.928	2402.52
467.3	2406.36
467.672	2452.01
468.045	2501.95
468.417	2485.68
468.789	2509.41
469.161	2555.51
469.534	2553.93
469.906	2599.13
470.278	2647.94
470.65	2673.47
471.022	2713.7
471.394	2765.9
471.766	2765.9
472.138	2813.13
472.51	2842.51
472.882	2877.54
473.253	2939
473.625	2954.37
473.997	3035.95
474.369	3055.39
474.74	3042.28
475.112	3119.11
475.484	3163.86
475.855	3207.92
476.227	3226.68
476.598	3329.5
476.97	3397.07
477.341	3454.25
477.713	3462.15
478.084	3520.68
478.455	3566.33
478.827	3662.6
479.198	3715.93
479.569	3724.75
479.94	3811.75
480.311	3876.61
480.682	3917.51
481.053	4045.64
481.424	4117.73
481.795	4165.19
482.166	4233.43
482.537	4300.78
482.908	4346.88
483.279	4470.94
483.65	4535.12
484.021	4603.14
484.391	4699.64
484.762	4698.96
485.133	4782.12
485.503	4853.08
485.874	4966.52
486.244	5051.49
486.615	5146.18
486.985	5267.53
487.356	5311.6
487.726	5395.44
488.097	5511.37
488.467	5567.18
488.837	5690.57
489.207	5794.97
489.578	5868.19
489.948	5975.99
490.318	6058.02
490.688	6090.33
491.058	6225.92
491.428	6375.3
491.798	6441.74
492.168	6563.09
492.538	6581.62
492.908	6763.08
493.278	6850.99
493.648	6879.69
494.017	7032.23
494.387	7170.53
494.757	7201.49
495.126	7342.28
495.496	7394.93
495.866	7522.84
496.235	7570.3
496.605	7720.8
496.974	7806.45
497.344	7939.1
497.713	7994.46
498.082	8100.45
498.452	8189.71
498.821	8290.73
499.19	8327.11
499.559	8496.6
499.928	8563.72
500.298	8667.44
500.667	8781.11
501.036	8823.82
501.405	8920.54
501.774	8948.34
502.143	9167.99
502.512	9188.56
502.88	9316.92
503.249	9372.96
503.618	9504.71
503.987	9528.89
504.356	9621.77
504.724	9769.79
505.093	9830.12
505.462	9923.91
505.83	9986.95
506.199	10154.18
506.567	10247.74
506.936	10288.42
507.304	10401.86
507.672	10504.23
508.041	10586.49
508.409	10611.35
508.777	10753.49
509.145	10874.16
509.514	10916.42
509.882	11074.16
510.25	11078
510.618	11264.44
510.986	11313.93
511.354	11395.28
511.722	11492.45
512.09	11600.7
512.458	11567.93
512.826	11736.51
513.193	11802.05
513.561	11866.68
513.929	11901.93
514.297	12134.47
514.664	12185.77
515.032	12243.39
515.4	12360
515.767	12530.16
516.135	12504.4
516.502	12489.49
516.869	12742.14
517.237	12859.65
517.604	12755.92
517.972	13018.29
518.339	12992.75
518.706	13136.93
519.073	13117.72
519.44	13196.59
519.808	13430.03
520.175	13427.77
520.542	13637.25
520.909	13738.95
521.276	13751.83
521.643	13938.72
522.009	13954.99
522.376	14094.42
522.743	14218.03
523.11	14376.44
523.477	14428.65
523.843	14572.37
524.21	14723.55
524.577	14887.62
524.943	15044.22
525.31	15030.66
525.676	15277.21
526.043	15258.91
526.409	15405.57
526.776	15573.93
527.142	15668.39
527.508	15805.78
527.874	15970.07
528.241	16030.86
528.607	16108.15
528.973	16348.82
529.339	16321.48
529.705	16512.66
530.071	16659.55
530.437	16758.53
530.803	16838.53
531.169	16957.17
531.535	17093.21
531.901	17076.26
532.267	17248.91
532.632	17310.15
532.998	17389.02
533.364	17583.14
533.73	17591.5
534.095	17705.4
534.461	17858.84
534.826	17907.65
535.192	18077.36
535.557	18124.14
535.923	18147.64
536.288	18298.37
536.653	18437.13
537.019	18435.77
537.384	18517.58
537.749	18545.15
538.114	18688.2
538.479	18712.83
538.845	18712.38
539.21	18896.1
539.575	18839.6
539.94	18913.95
540.305	19127.51
540.67	19128.64
541.034	19221.29
541.399	19326.82
541.764	19291.12
542.129	19368.63
542.494	19460.38
542.858	19479.59
543.223	19515.97
543.587	19673.71
543.952	19649.3
544.316	19799.8
544.681	19766.58
545.045	19955.51
545.41	19938.56
545.774	20011.32
546.138	20070.31
546.503	20085.45
546.867	20253.58
547.231	20254.03
547.595	20398.88
547.959	20350.75
548.324	20552.78
548.688	20593.23
549.052	20565.89
549.416	20527.02
549.779	20685.43
550.143	20806.33
550.507	20897.85
550.871	20938.31
551.235	20910.28
551.599	21177.4
551.962	21228.24
552.326	21140.79
552.689	21258.07
553.053	21186.66
553.417	21333.78
553.78	21519.76
554.143	21651.96
554.507	21566.99
554.87	21662.35
555.234	21845.17
555.597	21770.6
555.96	21913.65
556.323	22088.56
556.686	22069.12
557.05	22141.89
557.413	22174.43
557.776	22329
558.139	22421.2
558.502	22498.26
558.865	22547.08
559.228	22683.34
559.59	22748.2
559.953	22890.57
560.316	23191.81
560.679	23081.75
561.041	23318.81
561.404	23331.01
561.767	23473.83
562.129	23390.9
562.492	23735.52
562.854	23728.97
563.217	23777.78
563.579	23899.81
563.941	23920.83
564.304	24174.6
564.666	24312.45
565.028	24384.54
565.39	24432.9
565.753	24670.64
566.115	24727.13
566.477	24811.42
566.839	24913.12
567.201	25211.64
567.563	25162.38
567.925	25423.16
568.287	25419.09
568.648	25561.01
569.01	25802.58
569.372	25973.2
569.734	25990.6
570.095	26136.59
570.457	26300.88
570.819	26427.2
571.18	26444.6
571.542	26603.47
571.903	26773.86
572.265	26862.22
572.626	27082.32
572.987	27307.4
573.349	27365.03
573.71	27417.91
574.071	27629.2
574.432	27903.32
574.794	28030.77
575.155	28087.5
575.516	28295.63
575.877	28391.89
576.238	28417.88
576.599	28656.07
576.96	28879.57
577.32	28813.8
577.681	29096.96
578.042	29316.39
578.403	29424.86
578.763	29398.65
579.124	29592.32
579.485	29967.9
579.845	30055.81
580.206	30161.57
580.566	30411.73
580.927	30397.72
581.287	30705.96
581.648	30786.86
582.008	31148.66
582.368	31238.6
582.728	31448.76
583.089	31710.45
583.449	31821.64
583.809	32152.02
584.169	32440.83
584.529	32535.97
584.889	33082.62
585.249	33159.9
585.609	33281.26
585.969	33689.38
586.329	33742.49
586.688	34346.09
587.048	34411.17
587.408	34908.79
587.768	35086.63
588.127	35495.44
588.487	35826.95
588.846	36301.29
589.206	36458.58
589.565	36758.45
589.925	37326.35
590.284	37612.44
590.643	37977.18
591.003	38318.19
591.362	38906.19
591.721	39317.03
592.08	39665.5
592.44	40208.53
592.799	40598.35
593.158	40968.97
593.517	41208.96
593.876	41852.78
594.235	42255.26
594.593	42563.5
594.952	43135.24
595.311	43356.47
595.67	43906.52
596.029	44357.8
596.387	44879.14
596.746	45432.35
597.104	45508.05
597.463	45861.04
597.822	46496.05
598.18	46678.19
598.538	47062.14
598.897	47606.76
599.255	47840.87
599.613	48540.52
599.972	48568.31
600.33	49110.9
600.688	49301.85
601.046	49760.15
601.404	50241.26
601.762	50389.51
602.12	50799.67
602.478	51101.13
602.836	51478.29
603.194	51474.68
603.552	51844.84
603.91	52043.48
604.268	52463.35
604.625	52631.03
604.983	52931.59
605.341	52965.26
605.698	53397.34
606.056	53747.39
606.413	53815.41
606.771	54105.57
607.128	54266.92
607.485	54364.77
607.843	54616.74
608.2	54939.22
608.557	55051.53
608.914	55240.23
609.272	55620.78
609.629	55766.09
609.986	55917.72
610.343	56076.59
610.7	56417.6
611.057	56449.46
611.414	56505.51
611.771	56849.9
612.127	56925.38
612.484	57135.09
612.841	57228.88
613.198	57341.64
613.554	57431.13
613.911	57679.94
614.267	57787.96
614.624	57860.72
614.98	58062.53
615.337	58286.7
615.693	58351.56
616.05	58501.84
616.406	58588.16
616.762	58653.7
617.118	58787.71
617.475	58856.4
617.831	59021.82
618.187	59126
618.543	59161.71
618.899	59403.51
619.255	59463.39
619.611	59472.21
619.967	59650.06
620.323	59756.72
620.678	59742.03
621.034	59679.89
621.39	59875.59
621.746	59894.12
622.101	60226.54
622.457	60056.6
622.812	60219.31
623.168	60250.04
623.523	60280.1
623.879	60456.36
624.234	60403.03
624.589	60447.1
624.945	60590.37
625.3	60601.22
625.655	60601.22
626.01	60680.76
626.365	60747.65
626.72	60611.16
627.075	60698.84
627.43	60739.74
627.785	60808.67
628.14	60825.17
628.495	60814.32
628.85	60912.85
629.205	60852.74
629.559	61019.74
629.914	60889.12
630.269	60956.01
630.623	60886.41
630.978	60845.05
631.332	60999.4
631.687	61007.08
632.041	60924.82
632.396	61060.87
632.75	60945.16
633.104	61024.26
633.459	60911.94
633.813	60954.88
634.167	60954.43
634.521	60925.5
634.875	60988.78
635.229	60856.13
635.583	60860.42
635.937	60837.14
636.291	60883.92
636.645	60838.05
636.999	60756.92
637.352	60878.72
637.706	60702.01
638.06	60851.61
638.413	60758.73
638.767	60726.86
639.121	60789.91
639.474	60668.33
639.828	60605.74
640.181	60666.07
640.534	60695.9
640.888	60607.32
641.241	60543.82
641.594	60557.38
641.947	60672.63
642.301	60508.79
642.654	60615
643.007	60466.98
643.36	60613.19
643.713	60526.19
644.066	60528
644.419	60422.24
644.771	60156.94
645.124	59945.87
645.477	59911.29
645.83	59855.93
646.182	59776.38
646.535	59789.26
646.888	59781.8
647.24	59746.32
647.593	59859.77
647.945	59740.9
648.298	59705.65
648.65	59596.5
649.002	59501.13
649.355	59484.41
649.707	59404.41
650.059	59396.28
650.411	59630.85
650.763	59819.09
651.115	60120.1
651.467	60042.59
651.819	60043.72
652.171	59992.42
652.523	59940.22
652.875	59933.44
653.227	59875.81
653.578	60011.63
653.93	59895.02
654.282	59830.84
654.633	59744.52
654.985	59780.45
655.337	59861.58
655.688	59763.73
656.039	59866.55
656.391	59544.52
656.742	59702.26
657.094	59704.97
657.445	59712.43
657.796	59691.18
658.147	59595.82
658.498	59605.54
658.849	59690.51
659.2	59607.57
659.551	59526.22
659.902	59667
660.253	59612.77
660.604	59608.48
660.955	59490.06
661.306	59604.86
661.656	59544.75
662.007	59488.93
662.358	59485.09
662.708	59476.28
663.059	59472.89
663.409	59291.42
663.76	59481.7
664.11	59441.93
664.461	59468.37
664.811	59459.55
665.161	59455.94
665.511	59319.9
665.862	59401.7
666.212	59435.15
666.562	59444.64
666.912	59469.72
667.262	59304.08
667.612	59389.27
667.962	59386.33
668.312	59279.44
668.662	59544.52
669.011	59436.5
669.361	59285.32
669.711	59383.62
670.06	59307.47
670.41	59295.94
670.76	59313.12
671.109	59371.42
671.459	59296.17
671.808	59257.52
672.157	59327.13
672.507	59169.16
672.856	59218.43
673.205	59238.99
673.554	59312.89
673.904	59204.87
674.253	59358.99
674.602	59224.53
674.951	58969.4
675.3	58813.69
675.649	59257.52
675.998	59201.48
676.346	59169.39
676.695	59270.86
677.044	59045.78
677.393	59081.94
677.741	59210.97
678.09	59128.26
678.438	59083.74
678.787	59129.17
679.135	59099.79
679.484	58952.22
679.832	59061.6
680.181	58981.6
680.529	59001.71
680.877	58968.04
681.225	58980.69
681.573	59116.28
681.922	58970.53
682.27	58841.72
682.618	58911.09
682.966	58867.03
683.314	58853.69
683.661	58895.5
684.009	58762.85
684.357	58676.75
684.705	58596.75
685.053	58664.55
685.4	58608.95
685.748	58577.77
686.095	58536.41
686.443	58442.86
686.79	58453.25
687.138	58512.46
687.485	58505
687.832	58342.75
688.18	58400.15
688.527	58266.59
688.874	58304.1
689.221	58355.85
689.568	58155.63
689.915	58126.71
690.262	58206.48
690.609	58142.3
690.956	58048.52
691.303	57954.51
691.65	57929.65
691.997	57878.13
692.344	57832.25
692.69	57710.9
693.037	57794.74
693.383	57512.26
693.73	57658.92
694.077	57535.54
694.423	57530.11
694.769	57415.99
695.116	57374.18
695.462	57337.57
695.808	57242.66
696.155	57290.57
696.501	57111.14
696.847	57185.04
697.193	56996.34
697.539	56997.24
697.885	56801.54
698.231	56707.99
698.577	56760.19
698.923	56736.91
699.269	56628.44
699.614	56532.85
699.96	56484.72
700.306	56449.24
700.651	56388.45
700.997	56257.6
701.342	56280.2
701.688	56141.67
702.033	56148
702.379	56090.15
702.724	55962.47
703.069	55993.65
703.415	55771.97
703.76	55709.37
704.105	55750.5
704.45	55670.73
704.795	55573.33
705.14	55482.93
705.485	55465.99
705.83	55284.52
706.175	55487.23
706.52	55342.82
706.865	55237.97
707.209	55088.82
707.554	55086.56
707.899	55060.12
708.243	54949.84
708.588	54930.86
708.932	54781.94
709.277	54787.36
709.621	54729.73
709.966	54449.97
710.31	54541.72
710.654	54317.99
710.998	54455.62
711.342	54342.17
711.687	54406.8
712.031	54266.24
712.375	54120.26
712.719	54179.47
713.063	54052.46
713.407	54207.04
713.75	53971.79
714.094	53908.51
714.438	53845.01
714.782	53876.87
715.125	53671.46
715.469	53809.98
715.812	53550.1
716.156	53508.07
716.499	53479.6
716.843	53563.21
717.186	53305.82
717.53	53491.35
717.873	53389.66
718.216	53317.12
718.559	53211.58
718.902	52878.03
719.246	52999.61
719.589	53036.9
719.932	52842.55
720.275	52888.2
720.617	52806.39
720.96	52818.6
721.303	52801.65
721.646	52811.59
721.989	52586.74
722.331	52618.83
722.674	52566.63
723.016	52573.41
723.359	52457.02
723.701	52439.62
724.044	52278.5
724.386	52155.56
724.729	52249.8
725.071	52121.67
725.413	52129.8
725.755	52058.84
726.097	51971.16
726.439	51904.72
726.782	51850.71
727.124	52017.49
727.465	51919.86
727.807	51790.6
728.149	51862.69
728.491	51641.23
728.833	51677.61
729.175	51608.01
729.516	51593.77
729.858	51471.97
730.199	51593.77
730.541	51523.49
730.882	51384.06
731.224	51471.29
731.565	51353.1
731.906	51362.36
732.248	51335.25
732.589	51097.96
732.93	51146.32
733.271	51189.04
733.612	51024.29
733.953	51237.17
734.294	51053.9
734.635	50833.79
734.976	51070.62
735.317	50855.71
735.658	50880.34
735.999	50833.79
736.339	50673.57
736.68	50721.7
737.021	50713.79
737.361	50608.49
737.702	50843.28
738.042	50676.96
738.383	50691.42
738.723	50646
739.063	50429.96
739.404	50612.1
739.744	50513.57
740.084	50425.67
740.424	50336.85
740.764	50331.2
741.104	50472.44
741.444	50271.32
741.784	50070.19
742.124	50244.43
742.464	50198.78
742.804	49999.01
743.143	50003.3
743.483	50049.4
743.823	49884.44
744.162	49854.16
744.502	49909.07
744.841	49666.59
745.181	49858.67
745.52	49691.67
745.86	49685.35
746.199	49640.6
746.538	49610.77
746.877	49728.28
747.216	49545.91
747.556	49436.77
747.895	49523.32
748.234	49358.58
748.573	49346.37
748.911	49226.38
749.25	49204
749.589	49137.56
749.928	49119.49
750.267	49132.14
750.605	48912.49
750.944	49062.09
751.283	48909.32
751.621	48925.82
751.96	48678.37
752.298	48665.94
752.636	48561.53
752.975	48559.27
753.313	48339.84
753.651	48601.98
753.989	48439.05
754.327	48317.47
754.666	48024.37
755.004	48234.76
755.342	48111.15
755.679	48089.46
756.017	47720.43
756.355	48051.72
756.693	47775.11
757.031	47874.09
757.368	47572.86
757.706	47524.27
758.044	47447.89
758.381	47301
758.719	47244.51
759.056	47286.77
759.394	47147.79
759.731	46891.3
760.068	46704.86
760.405	46937.85
760.743	46668.93
761.08	46642.71
761.417	46453.11
761.754	46418.99
762.091	46161.15
762.428	45934.26
762.765	45882.51
763.102	45899.01
763.438	45774.71
763.775	45512.8
764.112	45440.94
764.449	45463.31
764.785	45485.68
765.122	45189.42
765.458	44964.34
765.795	44801.86
766.131	44927.28
766.467	44682.99
766.804	44565.25
767.14	44334.53
767.476	44236.9
767.812	44150.12
768.148	44187.41
768.485	44023.12
768.821	43763.24
769.157	43637.37
769.492	43555.79
769.828	43411.84
770.164	43103.15
770.5	43028.12
770.836	43097.27
771.171	42800.33
771.507	42629.71
771.842	42167.13
772.178	42456.38
772.513	42237.41
772.849	42094.36
773.184	41966
773.519	41854.82
773.855	41682.39
774.19	41721.26
774.525	41424.77
774.86	41425.9
775.195	41141.39
775.53	41018.46
775.865	40898.01
776.2	40694.62
776.535	40380.05
776.87	40360.62
777.205	40082.89
777.539	40040.18
777.874	40048.99
778.209	39618.94
778.543	39647.87
778.878	39533.3
779.212	39486.52
779.547	39100.09
779.881	39117.71
780.215	38865.07
780.55	39018.73
780.884	38652.87
781.218	38557.96
781.552	38644.28
781.886	38358.19
782.22	38031.87
782.554	37893.34
782.888	37589.62
783.222	37589.62
783.556	37411.32
783.889	37342.62
784.223	37124.09
784.557	37100.82
784.89	36973.59
785.224	36873.48
785.557	36688.63
785.891	36659.02
786.224	36571.34
786.558	36397.33
786.891	36238.24
787.224	36004.35
787.557	35877.12
787.891	35829.21
788.224	35569.11
788.557	35566.85
788.89	35465.61
789.223	35445.04
789.556	35236.69
789.888	35085.05
790.221	34926.86
790.554	34728.45
790.887	34758.28
791.219	34579.3
791.552	34446.65
791.884	34371.17
792.217	34223.61
792.549	34027.45
792.882	33916.95
793.214	33845.99
793.546	33881.47
793.879	33620.68
794.211	33343.4
794.543	33609.38
794.875	33470.86
795.207	33443.74
795.539	33210.53
795.871	33251.43
796.203	32937.76
796.535	32790.42
796.867	32904.32
797.198	32517.66
797.53	32626.81
797.862	32393.15
798.193	32447.61
798.525	32238.35
798.856	32215.52
799.188	31764.91
799.519	31811.24
799.85	31607.18
800.182	31636.78
800.513	31753.61
800.844	31308.2
801.175	31504.13
801.506	31451.02
801.837	31224.14
802.168	31127.64
802.499	31212.84
802.83	30937.82
803.161	30813.07
803.491	30756.58
803.822	30827.54
804.153	30587.32
804.483	30423.03
804.814	30189.59
805.145	30348.23
805.475	30265.07
805.805	30215.12
806.136	30294.44
806.466	30003.15
806.796	29960.44
807.126	29704.18
807.457	29628.47
807.787	29665.08
808.117	29644.29
808.447	29335.15
808.777	29546.67
809.107	29272.55
809.436	29240.01
809.766	29147.81
810.096	29188.26
810.426	28975.16
810.755	29003.86
811.085	28828.27
811.414	28891.32
811.744	28779.91
812.073	28775.61
812.403	28554.83
812.732	28373.82
813.061	28532
813.39	28294.5
813.719	28193.03
814.049	28433.48
814.378	28307.6
814.707	28132.69
815.036	28143.31
815.365	27910.55
815.693	27906.26
816.022	27740.84
816.351	27632.59
816.68	27522.31
817.008	27631.24
817.337	27448.19
817.665	27389.66
817.994	27360.06
818.322	27577.45
818.651	27223.56
818.979	27294.97
819.307	27222.66
819.636	27154.41
819.964	27101.99
820.292	27115.77
820.62	27073.74
820.948	27152.38
821.276	27212.04
821.604	27096.34
821.932	27245.26
822.259	27062.44
822.587	27055.43
822.915	26940.41
823.243	27074.42
823.57	26969.33
823.898	27186.95
824.225	27067.18
824.553	26878.49
824.88	26920.29
825.207	27203
825.535	26911.93
825.862	27036
826.189	26939.96
826.516	27177.69
826.843	27164.13
827.17	27033.06
827.497	27022.89
827.824	27100.18
828.151	27166.62
828.478	26914.65
828.805	27234.19
829.131	27089.78
829.458	27007.3
829.785	26862.44
830.111	26942.44
830.438	26998.49
830.764	26940.18
831.09	27041.87
831.417	26835.1
831.743	27045.26
832.069	26963.01
832.395	26850.24
832.722	26870.35
833.048	26770.02
833.374	26876.23
833.7	26714.42
834.026	27000.74
834.351	26805.72
834.677	26868.77
835.003	26805.95
835.329	26791.03
835.654	26736.35
835.98	26593.52
836.306	26709.45
836.631	26592.85
836.956	26724.59
837.282	26691.37
837.607	26552.85
837.932	26559.85
838.258	26509.68
838.583	26469.69
838.908	26346.3
839.233	26489.12
839.558	26337.26
839.883	26207.77
840.208	26213.19
840.533	26202.57
840.858	26094.78
841.182	26220.2
841.507	26115.57
841.832	26002.8
842.156	25907.21
842.481	25975.69
842.805	25832.64
843.13	25683.04
843.454	25765.52
843.778	25715.35
844.103	25715.58
844.427	25528.92
844.751	25531.86
845.075	25506.55
845.399	25432.2
845.723	25261.36
846.047	25321.69
846.371	25037.86
846.695	24978.88
847.019	24952.89
847.343	24744.08
847.666	24712.22
847.99	24655.72
848.313	24589.06
848.637	24457.99
848.96	24494.14
849.284	24459.79
849.607	24157.88
849.931	24232.91
850.254	23991.78
850.577	23803.77
850.9	23719.48
851.223	23769.42
851.546	23580.72
851.869	23444
852.192	23545.92
852.515	23241.97
852.838	23241.3
853.161	23186.83
853.483	22971.47
853.806	23035.43
854.129	22903.9
854.451	22778.71
854.774	22720.86
855.096	22627.98
855.419	22565.83
855.741	22543.91
856.063	22452.16
856.385	22443.8
856.708	22364.26
857.03	22283.35
857.352	22281.77
857.674	22145.73
857.996	22174.88
858.318	22036.13
858.64	21948.67
858.961	21910.71
859.283	21696.03
859.605	21730.83
859.926	21685.63
860.248	21606.54
860.57	21483.15
860.891	21494
861.212	21404.73
861.534	21373.32
861.855	21278.18
862.176	21372.87
862.498	21322.93
862.819	21372.42
863.14	21261.01
863.461	21225.76
863.782	21128.81
864.103	21099.88
864.424	21084.06
864.745	21074.57
865.065	20902.6
865.386	20790.29
865.707	20900.34
866.027	20932.66
866.348	20846.33
866.668	20805.43
866.989	20795.03
867.309	20604.75
867.63	20596.62
867.95	20670.29
868.27	20594.13
868.59	20605.66
868.91	20459
869.23	20553.91
869.55	20464.42
869.87	20419.22
870.19	20406.12
870.51	20375.16
870.83	20353.01
871.15	20232.11
871.469	20172
871.789	20301.03
872.109	20267.36
872.428	20115.73
872.748	20122.73
873.067	20151.66
873.386	20036.63
873.706	20109.4
874.025	19937.43
874.344	19837.54
874.663	19955.73
874.982	19880.25
875.301	19936.07
875.62	19709.86
875.939	19645.46
876.258	19750.54
876.577	19672.12
876.896	19624.89
877.214	19674.61
877.533	19701.95
877.852	19606.14
878.17	19637.1
878.489	19648.17
878.807	19548.51
879.125	19471.23
879.444	19431.68
879.762	19321.4
880.08	19534.95
880.398	19316.2
880.716	19302.87
881.034	19329.76
881.352	19296.54
881.67	19115.08
881.988	19202.08
882.306	19123.66
882.624	19126.83
882.941	19076.43
883.259	18974.29
883.577	18973.39
883.894	18853.61
884.212	18886.38
884.529	18754.86
884.846	18778.14
885.164	18765.26
885.481	18698.36
885.798	18757.8
886.115	18546.05
886.432	18668.53
886.75	18481.65
887.067	18534.3
887.383	18403.46
887.7	18394.64
888.017	18262.67
888.334	18259.28
888.651	18252.05
888.967	18236.23
889.284	18077.14
889.6	18104.48
889.917	18006.86
890.233	17975.9
890.55	17936.12
890.866	17918.27
891.182	17800.99
891.498	17939.29
891.815	17712.63
892.131	17652.06
892.447	17645.74
892.763	17558.06
893.079	17481.22
893.395	17379.53
893.71	17398.06
894.026	17354.67
894.342	17346.76
894.657	17194.9
894.973	17181.57
895.289	17121
895.604	17065.19
895.92	17060.67
896.235	16985.41
896.55	16899.77
896.865	16926.89
897.181	16762.6
897.496	16850.5
897.811	16715.14
898.126	16649.15
898.441	16565.54
898.756	16549.72
899.071	16405.77
899.386	16497.97
899.7	16289.84
900.015	16231.08
900.33	16100.47
900.644	16100.47
900.959	16082.39
901.273	15956.52
901.588	15927.14
901.902	15832.45
902.216	15777.54
902.531	15763.3
902.845	15782.96
903.159	15561.72
903.473	15526.47
903.787	15572.57
904.101	15482.63
904.415	15434.72
904.729	15346.36
905.042	15316.76
905.356	15346.36
905.67	15369.64
905.984	15203.09
906.297	15156.54
906.611	15031.57
906.924	15041.74
907.237	14971.68
907.551	14855.3
907.864	14844.45
908.177	14841.52
908.491	14769.2
908.804	14612.6
909.117	14570.56
909.43	14452.37
909.743	14519.27
910.056	14376.44
910.368	14408.76
910.681	14275.66
910.994	14241.98
911.307	14149.78
911.619	14072.27
911.932	14122.67
912.244	13935.78
912.557	13960.64
912.869	13886.51
913.181	13838.38
913.494	13790.92
913.806	13761.09
914.118	13632.28
914.43	13649.46
914.742	13482.46
915.054	13455.11
915.366	13393.42
915.678	13361.1
915.99	13343.25
916.302	13180.32
916.613	13223.03
916.925	13187.77
917.236	13150.71
917.548	13045.18
917.859	13056.7
918.171	12970.61
918.482	12801.57
918.794	12875.24
919.105	12767.45
919.416	12694.91
919.727	12652.2
920.038	12701.46
920.349	12533.78
920.66	12454.23
920.971	12481.13
921.282	12414.69
921.593	12310.51
921.903	12213.11
922.214	12254.92
922.525	12180.34
922.835	12137.41
923.146	11995.04
923.456	11975.15
923.767	11981.25
924.077	11943.97
924.387	11874.81
924.697	11812.22
925.008	11807.47
925.318	11709.17
925.628	11748.26
925.938	11681.83
926.248	11558.67
926.558	11502.85
926.867	11508.5
927.177	11467.59
927.487	11342.63
927.796	11247.03
928.106	11303.98
928.416	11217.43
928.725	11268.05
929.034	11116.42
929.344	11173.14
929.653	11104.67
929.962	11027.15
930.271	10977.44
930.581	10897.67
930.89	10831.45
931.199	10826.93
931.508	10810.21
931.817	10723.43
932.125	10654.06
932.434	10670.78
932.743	10539.93
933.051	10518.24
933.36	10550.33
933.669	10404.12
933.977	10419.49
934.286	10306.04
934.594	10291.58
934.902	10251.13
935.21	10158.48
935.519	10132.04
935.827	10186.05
936.135	10061.3
936.443	10018.59
936.751	9964.36
937.059	9910.8
937.367	9913.96
937.674	9861.99
937.982	9897.69
938.29	9864.92
938.597	9755.77
938.905	9713.52
939.213	9613.63
939.52	9553.29
939.827	9571.15
940.135	9536.8
940.442	9468.1
940.749	9525.95
941.056	9428.33
941.363	9388.78
941.67	9369.57
941.977	9286.86
942.284	9258.16
942.591	9224.72
942.898	9178.16
943.205	9168.22
943.511	9085.28
943.818	9089.58
944.125	9003.48
944.431	8959.19
944.738	8967.09
945.044	8891.84
945.35	8829.25
945.657	8798.74
945.963	8725.75
946.269	8720.32
946.575	8704.95
946.881	8645.75
947.187	8624.28
947.493	8565.75
947.799	8585.64
948.105	8522.59
948.41	8385.87
948.716	8446.88
949.022	8366.88
949.327	8394.23
949.633	8248.7
949.938	8308.58
950.244	8208.92
950.549	8167.57
950.854	8146.1
951.16	8114.24
951.465	8126.89
951.77	8063.16
952.075	8017.29
952.38	7996.95
952.685	7980.23
952.99	7865.65
953.294	7933.22
953.599	7845.77
953.904	7813
954.209	7732.78
954.513	7736.39
954.818	7731.42
955.122	7687.58
955.426	7659.56
955.731	7577.53
956.035	7557.19
956.339	7535.04
956.643	7527.13
956.948	7482.84
957.252	7403.52
957.556	7335.27
957.86	7378.21
958.163	7365.78
958.467	7307.7
958.771	7224.09
959.075	7201.04
959.378	7202.85
959.682	7191.1
959.985	7146.13
960.289	7058.67
960.592	7050.08
960.896	6978.22
961.199	7017.77
961.502	6935.28
961.805	6909.3
962.108	6846.47
962.411	6852.12
962.714	6816.42
963.017	6804.67
963.32	6796.98
963.623	6759.92
963.926	6718.11
964.228	6664.56
964.531	6638.79
964.833	6683.09
965.136	6557.67
965.438	6573.94
965.741	6533.94
966.043	6499.81
966.345	6418.91
966.648	6470.21
966.95	6493.04
967.252	6372.81
967.554	6384.34
967.856	6331.91
968.158	6257.11
968.46	6272.25
968.761	6237.22
969.063	6136.43
969.365	6191.8
969.666	6160.61
969.968	6094.4
970.269	6063.22
970.571	6062.99
970.872	6022.99
971.174	5972.82
971.475	5954.52
971.776	5905.25
972.077	5905.25
972.378	5859.38
972.679	5875.2
972.98	5841.3
973.281	5803.34
973.582	5806.05
973.883	5787.52
974.183	5693.06
974.484	5697.8
974.785	5649.22
975.085	5647.41
975.386	5652.15
975.686	5594.98
975.986	5548.88
976.287	5563.12
976.587	5514.08
976.887	5517.92
977.187	5515.89
977.487	5449.9
977.787	5453.51
978.087	5368.55
978.387	5375.55
978.687	5356.12
978.987	5353.4
979.286	5323.12
979.586	5254.88
979.885	5234.76
980.185	5220.3
980.484	5240.64
980.784	5162.9
981.083	5193.41
981.382	5188.21
981.682	5182.79
981.981	5082.45
982.28	5077.03
982.579	5039.51
982.878	5049.01
983.177	4948.67
983.475	4981.89
983.774	4972.85
984.073	4929.69
984.372	4903.25
984.67	4873.64
984.969	4853.98
985.267	4834.1
985.566	4831.38
985.864	4795
986.162	4779.18
986.461	4721.56
986.759	4724.72
987.057	4651.95
987.355	4667.55
987.653	4679.07
987.951	4617.83
988.249	4594.78
988.547	4611.73
988.844	4543.26
989.142	4541.9
989.44	4494.9
989.737	4485.86
990.035	4502.35
990.332	4491.96
990.63	4425.29
990.927	4425.29
991.224	4434.56
991.521	4378.51
991.819	4351.17
992.116	4310.27
992.413	4310.72
992.71	4297.16
993.006	4274.79
993.303	4253.32
993.6	4230.27
993.897	4241.57
994.193	4212.42
994.49	4193.66
994.787	4142.36
995.083	4116.6
995.379	4130.61
995.676	4085.87
995.972	4096.94
996.268	4034.8
996.565	4005.19
996.861	3937.4
997.157	3934.46
997.453	3939.66
997.749	3905.53
998.044	3861.92
998.34	3838.19
998.636	3884.29
998.932	3835.03
999.227	3815.37
999.523	3786.44
999.818	3737.4
1000.114	3752.32
1000.409	3764.29
1000.704	3721.81
1001	3671.41
1001.295	3691.08
1001.59	3628.03
1001.885	3654.47
1002.18	3593.22
1002.475	3571.3
1002.77	3582.83
1003.065	3578.99
1003.359	3557.97
1003.654	3523.17
1003.949	3473
1004.243	3489.5
1004.538	3465.54
1004.832	3411.76
1005.127	3403.4
1005.421	3352.1
1005.715	3410.86
1006.009	3404.08
1006.304	3334.7
1006.598	3296.51
1006.892	3317.98
1007.186	3267.58
1007.48	3251.99
1007.773	3194.59
1008.067	3198.88
1008.361	3147.81
1008.655	3148.26
1008.948	3188.49
1009.242	3155.5
1009.535	3086.8
1009.829	3077.31
1010.122	3071.66
1010.415	3076.85
1010.708	3030.75
1011.001	3010.87
1011.295	3037.53
1011.588	3007.25
1011.881	2911.21
1012.173	2946.01
1012.466	2938.1
1012.759	2931.32
1013.052	2888.61
1013.344	2859.91
1013.637	2848.61
1013.93	2823.3
1014.222	2799.57
1014.514	2811.78
1014.807	2781.72
1015.099	2795.73
1015.391	2710.08
1015.683	2735.85
1015.976	2688.84
1016.268	2681.61
1016.56	2684.55
1016.851	2637.77
1017.143	2649.07
1017.435	2620.37
1017.727	2600.26
1018.018	2606.13
1018.31	2586.92
1018.602	2554.38
1018.893	2559.58
1019.185	2501.5
1019.476	2492.69
1019.767	2486.36
1020.058	2478.23
1020.35	2425.12
1020.641	2428.28
1020.932	2426.48
1021.223	2364.33
1021.514	2390.77
1021.804	2355.74
1022.095	2355.97
1022.386	2321.17
1022.677	2338.57
1022.967	2284.56
1023.258	2270.32
1023.548	2226.48
1023.839	2242.75
1024.129	2245.92
1024.419	2222.41
1024.709	2213.83
1025	2176.09
1025.29	2185.8
1025.58	2150.55
1025.87	2128.18
1026.16	2105.81
1026.449	2086.15
1026.739	2071.68
1027.029	2065.36
1027.319	2052.7
1027.608	2062.64
1027.898	2044.79
1028.187	2025.13
1028.477	1986.26
1028.766	1971.12
1029.055	1960.27
1029.344	1971.12
1029.634	1941.97
1029.923	1943.55
1030.212	1880.95
1030.501	1876.21
1030.79	1876.21
1031.078	1858.13
1031.367	1867.85
1031.656	1834.63
1031.945	1824.23
1032.233	1845.02
1032.522	1795.31
1032.81	1784.23
1033.099	1770.9
1033.387	1756.66
1033.675	1765.93
1033.963	1741.07
1034.251	1723.67
1034.54	1706.72
1034.828	1695.87
1035.116	1683.22
1035.403	1675.76
1035.691	1671.24
1035.979	1659.04
1036.267	1659.26
1036.554	1607.51
1036.842	1629.21
1037.129	1609.1
1037.417	1593.05
1037.704	1599.38
1037.992	1591.92
1038.279	1597.8
1038.566	1579.04
1038.853	1579.04
1039.14	1579.04
