Data from 152_FLMS001491_008.txt Node
Date: Thu Apr 19 16:17:50 BST 2018
User: hsy
Spectrometer: FLMS00149
Trigger mode: 0
Integration Time (sec): 1.000000E-2
Scans to average: 10
Electric dark correction enabled: true
Nonlinearity correction enabled: false
Boxcar width: 0
XAxis mode: Wavelengths
Number of Pixels in Spectrum: 2048
>>>>>Begin Spectral Data<<<<<
341.393	-28.28
341.776	-28.28
342.16	-28.28
342.543	-47.03
342.927	-56.3
343.31	-74.83
343.693	-64.21
344.077	-59.24
344.46	-52.23
344.843	-59.69
345.226	-28.28
345.61	-23.98
345.993	-4.1
346.376	-5.68
346.759	-1.38
347.142	22.8
347.525	49.91
347.908	45.17
348.291	75.22
348.674	75.9
349.057	104.6
349.44	129.91
349.823	143.47
350.206	184.6
350.588	253.07
350.971	239.74
351.354	269.12
351.737	289
352.119	310.92
352.502	327.42
352.884	300.98
353.267	334.88
353.65	344.14
354.032	344.14
354.414	364.26
354.797	380.53
355.179	381.88
355.562	366.74
355.944	386.85
356.326	369.23
356.709	389.11
357.091	393.86
357.473	389.79
357.855	380.98
358.238	379.85
358.62	388.21
359.002	374.88
359.384	399.51
359.766	394.09
360.148	388.89
360.53	406.51
360.912	413.52
361.294	413.75
361.676	383.69
362.057	390.92
362.439	400.19
362.821	392.28
363.203	405.61
363.584	374.88
363.966	379.85
364.348	398.15
364.729	389.57
365.111	367.19
365.493	390.24
365.874	410.58
366.256	385.95
366.637	372.39
367.019	376.23
367.4	386.63
367.781	387.98
368.163	383.24
368.544	369.68
368.925	395.67
369.306	376.91
369.688	385.05
370.069	376.23
370.45	380.98
370.831	373.3
371.212	384.14
371.593	396.12
371.974	385.95
372.355	395.67
372.736	409.68
373.117	372.62
373.498	375.56
373.879	373.07
374.26	391.15
374.641	386.18
375.021	367.65
375.402	413.07
375.783	403.35
376.163	417.81
376.544	416.46
376.925	408.32
377.305	394.09
377.686	404.93
378.066	413.52
378.447	411.26
378.827	430.69
379.208	422.11
379.588	425.05
379.968	438.15
380.349	417.14
380.729	410.58
381.109	412.16
381.489	420.98
381.87	429.11
382.25	454.65
382.63	444.25
383.01	426.85
383.39	428.89
383.77	436.8
384.15	444.71
384.53	429.79
384.91	459.39
385.29	475.44
385.67	453.97
386.049	471.15
386.429	469.34
386.809	460.07
387.189	462.33
387.568	460.07
387.948	479.28
388.328	468.89
388.707	463.69
389.087	470.47
389.466	463.01
389.846	491.48
390.225	496.23
390.605	498.94
390.984	478.38
391.363	500.3
391.743	517.02
392.122	498.26
392.501	522.22
392.881	542.78
393.26	520.18
393.639	520.64
394.018	519.51
394.397	535.1
394.776	531.26
395.155	520.41
395.534	524.93
395.913	545.72
396.292	545.27
396.671	542.56
397.05	534.19
397.429	565.15
397.808	553.63
398.186	543.91
398.565	554.99
398.944	557.92
399.323	570.8
399.701	556.34
400.08	564.93
400.458	559.51
400.837	587.3
401.215	569
401.594	600.86
401.972	559.73
402.351	594.53
402.729	590.24
403.107	606.74
403.486	594.31
403.864	612.16
404.242	597.47
404.62	616
404.999	617.36
405.377	618.49
405.755	634.53
406.133	624.81
406.511	630.24
406.889	640.18
407.267	655.1
407.645	638.37
408.023	671.14
408.401	638.83
408.779	682.44
409.156	685.38
409.534	677.92
409.912	692.61
410.29	709.11
410.667	704.81
411.045	730.57
411.422	715.89
411.8	745.94
412.178	745.04
412.555	730.57
412.933	741.2
413.31	758.14
413.687	787.52
414.065	762.44
414.442	746.84
414.819	776.9
415.197	808.76
415.574	797.69
415.951	811.25
416.328	824.13
416.705	792.27
417.082	820.97
417.46	826.84
417.837	817.8
418.214	839.95
418.591	851.7
418.967	851.7
419.344	865.94
419.721	875.43
420.098	851.93
420.475	870.46
420.852	887.86
421.228	895.54
421.605	890.34
421.982	897.12
422.358	909.33
422.735	895.32
423.111	924.02
423.488	923.56
423.864	917.24
424.241	941.87
424.617	949.55
424.994	940.96
425.37	978.25
425.746	973.05
426.123	948.87
426.499	967.18
426.875	983.9
427.251	997.91
427.627	1005.82
428.003	1011.24
428.379	1034.29
428.756	1050.34
429.132	1043.79
429.507	1070.9
429.883	1085.59
430.259	1066.38
430.635	1122.43
431.011	1102.77
431.387	1107.97
431.763	1101.19
432.138	1128.76
432.514	1149.55
432.89	1179.38
433.265	1176.21
433.641	1230
434.016	1200.39
434.392	1220.96
434.767	1245.36
435.143	1232.93
435.518	1259.83
435.894	1252.14
436.269	1260.73
436.644	1299.6
437.02	1307.73
437.395	1297.56
437.77	1333.27
438.145	1316.1
438.52	1317
438.895	1354.51
439.271	1356.32
439.646	1395.64
440.021	1395.64
440.395	1376.43
440.77	1381.18
441.145	1396.09
441.52	1429.99
441.895	1426.83
442.27	1418.01
442.645	1460.27
443.019	1464.79
443.394	1457.11
443.769	1440.39
444.143	1473.38
444.518	1479.48
444.892	1483.32
445.267	1479.71
445.641	1494.4
446.016	1530.55
446.39	1521.97
446.764	1539.82
447.139	1511.8
447.513	1562.87
447.887	1568.74
448.262	1558.8
448.636	1565.35
449.01	1596.77
449.384	1594.05
449.758	1612.81
450.132	1622.53
450.506	1638.57
450.88	1653.26
451.254	1658.23
451.628	1666.14
452.002	1693.94
452.376	1713.37
452.75	1723.54
453.123	1698.91
453.497	1754.05
453.871	1757.67
454.244	1796.76
454.618	1806.25
454.992	1841.05
455.365	1847.83
455.739	1881.28
456.112	1891.9
456.486	1905.91
456.859	1942.29
457.232	1985.91
457.606	1994.04
457.979	1999.02
458.352	2022.97
458.725	2048.51
459.099	2061.61
459.472	2098
459.845	2125.57
460.218	2123.76
460.591	2126.47
460.964	2142.74
461.337	2193.81
461.71	2258.44
462.083	2244.21
462.456	2279.46
462.829	2295.73
463.201	2307.48
463.574	2317.2
463.947	2346.58
464.32	2378.44
464.692	2401.04
465.065	2410.3
465.438	2458.66
465.81	2511.09
466.183	2513.13
466.555	2523.75
466.928	2581.82
467.3	2571.88
467.672	2593.35
468.045	2668.6
468.417	2636.51
468.789	2713.57
469.161	2698.21
469.534	2730.75
469.906	2780.92
470.278	2804.64
470.65	2910.86
471.022	2883.29
471.394	2926
471.766	2943.85
472.138	3009.38
472.51	3034.02
472.882	3104.3
473.253	3131.64
473.625	3155.37
473.997	3224.52
474.369	3261.58
474.74	3307
475.112	3340.22
475.484	3345.87
475.855	3483.72
476.227	3490.05
476.598	3627
476.97	3634.68
477.341	3659.76
477.713	3714.9
478.084	3806.43
478.455	3874.45
478.827	3887.55
479.198	3999.64
479.569	4003.26
479.94	4159.41
480.311	4160.31
480.682	4262.01
481.053	4379.07
481.424	4440.76
481.795	4463.81
482.166	4549.46
482.537	4602.56
482.908	4691.6
483.279	4771.37
483.65	4833.07
484.021	4968.43
484.391	5042.33
484.762	5080.52
485.133	5178.59
485.503	5170.23
485.874	5330.23
486.244	5411.81
486.615	5504.01
486.985	5580.39
487.356	5699.48
487.726	5781.97
488.097	5888.86
488.467	5960.72
488.837	6028.51
489.207	6166.59
489.578	6279.35
489.948	6315.51
490.318	6429.18
490.688	6517.77
491.058	6730.64
491.428	6734.26
491.798	6807.48
492.168	7013.35
492.538	7053.57
492.908	7143.96
493.278	7301.93
493.648	7353
494.017	7484.75
494.387	7630.05
494.757	7670.5
495.126	7713.89
495.496	7852.65
495.866	7939.65
496.235	8046.54
496.605	8185.97
496.974	8272.52
497.344	8404.04
497.713	8418.73
498.082	8520.88
498.452	8571.5
498.821	8785.96
499.19	8759.74
499.559	8983.24
499.928	9032.05
500.298	9068.43
500.667	9255.55
501.036	9297.13
501.405	9353.17
501.774	9472.49
502.143	9512.49
502.512	9613.73
502.88	9774.86
503.249	9809.88
503.618	9956.09
503.987	10019.82
504.356	10131.68
504.724	10230.89
505.093	10263.88
505.462	10288.97
505.83	10379.36
506.199	10457.32
506.567	10629.52
506.936	10692.8
507.304	10830.2
507.672	10928.05
508.041	10967.14
508.409	11083.97
508.777	11187.25
509.145	11311.09
509.514	11323.97
509.882	11438.32
510.25	11518.09
510.618	11690.29
510.986	11651.64
511.354	11790.85
511.722	11934.8
512.09	12088.24
512.458	12029.94
512.826	12215.24
513.193	12217.5
513.561	12297.95
513.929	12380.44
514.297	12526.2
514.664	12590.6
515.032	12667.44
515.4	12794.21
515.767	12807.09
516.135	12952.4
516.502	12884.83
516.869	13148.78
517.237	13263.35
517.604	13203.69
517.972	13442.56
518.339	13431.48
518.706	13632.38
519.073	13663.34
519.44	13739.5
519.808	13854.52
520.175	13900.17
520.542	14152.82
520.909	14090.67
521.276	14220.16
521.643	14406.82
522.009	14487.05
522.376	14654.05
522.743	14689.98
523.11	14911.67
523.477	15096.52
523.843	15072.57
524.21	15292.45
524.577	15334.94
524.943	15485.67
525.31	15568.38
525.676	15748.03
526.043	15882.04
526.409	15952.09
526.776	16072.09
527.142	16152.09
527.508	16280
527.874	16530.84
528.241	16595.69
528.607	16629.37
528.973	16890.6
529.339	16884.5
529.705	17015.12
530.071	17190.03
530.437	17367.2
530.803	17463.24
531.169	17521.09
531.535	17478.83
531.901	17725.38
532.267	17717.25
532.632	17927.86
532.998	17926.28
533.364	18062.1
533.73	18183.9
534.095	18334.86
534.461	18350.22
534.826	18585.7
535.192	18632.48
535.557	18777.56
535.923	18718.58
536.288	18961.51
536.653	19027.72
537.019	19055.74
537.384	19084.67
537.749	19149.98
538.114	19197.89
538.479	19229.3
538.845	19474.49
539.21	19388.16
539.575	19503.19
539.94	19478.33
540.305	19639.23
540.67	19671.09
541.034	19795.38
541.399	19892.33
541.764	19976.17
542.129	20075.83
542.494	20155.6
542.858	20075.83
543.223	20061.59
543.587	20251.87
543.952	20322.15
544.316	20397.18
544.681	20391.53
545.045	20478.08
545.41	20655.02
545.774	20516.72
546.138	20525.76
546.503	20723.04
546.867	20772.31
547.231	20845.53
547.595	20953.09
547.959	20976.37
548.324	21074.45
548.688	21052.3
549.052	21092.52
549.416	21189.02
549.779	21218.85
550.143	21337.49
550.507	21395.34
550.871	21501.1
551.235	21431.05
551.599	21580.87
551.962	21735.45
552.326	21774.99
552.689	21742.68
553.053	21702.9
553.417	21916.46
553.78	22165.72
554.143	22039.39
554.507	22080.07
554.87	22297.46
555.234	22443
555.597	22301.31
555.96	22456.1
556.323	22595.76
556.686	22647.29
557.05	22712.14
557.413	22870.56
557.776	22837.56
558.139	23058.8
558.502	23123.21
558.865	23085.24
559.228	23171.79
559.59	23250.66
559.953	23356.42
560.316	23616.07
560.679	23569.07
561.041	23760.25
561.404	23858.33
561.767	24120.92
562.129	24000.92
562.492	24287.69
562.854	24314.13
563.217	24302.61
563.579	24444.75
563.941	24400.23
564.304	24666.89
564.666	24907.11
565.028	24857.85
565.39	24997.28
565.753	25284.28
566.115	25325.41
566.477	25399.53
566.839	25418.06
567.201	25693.76
567.563	25771.5
567.925	25893.53
568.287	25993.41
568.648	26054.2
569.01	26378.26
569.372	26588.65
569.734	26584.13
570.095	26876.78
570.457	26967.85
570.819	26971.69
571.18	27090.11
571.542	27321.51
571.903	27419.14
572.265	27515.63
572.626	27751.11
572.987	27759.02
573.349	28004.21
573.71	28115.16
574.071	28165.33
574.432	28430.86
574.794	28623.4
575.155	28659.11
575.516	28734.58
575.877	28860.23
576.238	29028.36
576.599	29211.18
576.96	29345.41
577.32	29501.12
577.681	29660.43
578.042	29897.94
578.403	29975.68
578.763	30027.88
579.124	30180.42
579.485	30525.5
579.845	30768.88
580.206	30692.72
580.566	30887.97
580.927	30946.95
581.287	31186.5
581.648	31381.07
582.008	31685.47
582.368	32001.84
582.728	31950.09
583.089	32197.32
583.449	32461.49
583.809	32678.43
584.169	33106.9
584.529	33133.34
584.889	33641.8
585.249	33613.55
585.609	33799.76
585.969	34378.5
586.329	34475.9
586.688	34817.14
587.048	35163.34
587.408	35488.53
587.768	35674.74
588.127	36115.41
588.487	36242.63
588.846	36947.7
589.206	37058.66
589.565	37471.08
589.925	38074
590.284	38200.55
590.643	38680.99
591.003	39153.97
591.362	39645.48
591.721	39963.89
592.08	40359.81
592.44	40815.4
592.799	41117.76
593.158	41440.24
593.517	41845.43
593.876	42368.58
594.235	42648.34
594.593	43134.66
594.952	43540.3
595.311	43971.92
595.67	44297.34
596.029	44858.68
596.387	45314.26
596.746	45978.65
597.104	46038.99
597.463	46401.46
597.822	47049.13
598.18	47153.76
598.538	47728.89
598.897	48265.14
599.255	48271.7
599.613	49011.79
599.972	49085.23
600.33	49507.14
600.688	49758.66
601.046	50169.27
601.404	50666.66
601.762	50835.92
602.12	51041.79
602.478	51616.47
602.836	51804.49
603.194	51918.38
603.552	52221.2
603.91	52372.38
604.268	52790.9
604.625	52976.21
604.983	53297.33
605.341	53319.02
605.698	53720.82
606.056	54105.44
606.413	54113.8
606.771	54472.44
607.128	54620.23
607.485	54735.03
607.843	54972.31
608.2	55210.5
608.557	55442.36
608.914	55553.09
609.272	55909.69
609.629	56140.64
609.986	56245.95
610.343	56368.89
610.7	56743.79
611.057	56760.74
611.414	56858.59
611.771	57158.02
612.127	57297.22
612.484	57362.31
612.841	57531.34
613.198	57581.96
613.554	57654.73
613.911	57930.65
614.267	58034.38
614.624	58162.96
614.98	58312.11
615.337	58532.44
615.693	58612.67
616.05	58735.15
616.406	58866.22
616.762	58853.11
617.118	59023.05
617.475	59100.79
617.831	59292.42
618.187	59381.46
618.543	59488.35
618.899	59659.42
619.255	59725.18
619.611	59639.31
619.967	59935.12
620.323	59990.48
620.678	59922.46
621.034	59986.64
621.39	60063.48
621.746	60136.02
622.101	60390.7
622.457	60244.94
622.812	60432.28
623.168	60491.49
623.523	60446.74
623.879	60565.16
624.234	60504.82
624.589	60675.44
624.945	60641.54
625.3	60720.18
625.655	60781.2
626.01	60846.28
626.365	60901.2
626.72	60858.94
627.075	60866.85
627.43	60901.42
627.785	60966.96
628.14	60990.91
628.495	61082.43
628.85	61110.23
629.205	61068.42
629.559	61199.49
629.914	61101.64
630.269	61160.62
630.623	61083.79
630.978	61020.74
631.332	61153.39
631.687	61205.59
632.041	61139.38
632.396	61119.72
632.75	61166.27
633.104	61219.83
633.459	61119.72
633.813	61176.22
634.167	61145.26
634.521	61158.14
634.875	61175.99
635.229	61083.34
635.583	61034.75
635.937	61088.76
636.291	61024.13
636.645	61084.92
636.999	61004.24
637.352	61031.14
637.706	60964.24
638.06	61049.21
638.413	61044.24
638.767	60903.23
639.121	60991.81
639.474	60859.61
639.828	60871.82
640.181	60875.43
640.534	60891.93
640.888	60744.59
641.241	60712.5
641.594	60792.05
641.947	60829.56
642.301	60669.56
642.654	60771.93
643.007	60666.85
643.36	60760.41
643.713	60697.58
644.066	60754.08
644.419	60637.93
644.771	60304.37
645.124	60097.6
645.477	60140.31
645.83	60026.64
646.182	60039.07
646.535	59915.68
646.888	59936.02
647.24	59935.34
647.593	60152.74
647.945	59935.8
648.298	59841.79
648.65	59769.02
649.002	59719.76
649.355	59676.59
649.707	59595.24
650.059	59628.69
650.411	59864.84
650.763	60027.77
651.115	60360.87
651.467	60192.51
651.819	60258.73
652.171	60165.62
652.523	60079.3
652.875	60098.96
653.227	60010.15
653.578	60195.68
653.93	60076.81
654.282	60021.9
654.633	60009.92
654.985	60069.13
655.337	60023.48
655.688	60007.21
656.039	60058.51
656.391	59795.01
656.742	59886.76
657.094	59962.01
657.445	59989.58
657.796	59997.72
658.147	59896.02
658.498	59924.27
658.849	59946.87
659.2	59823.94
659.551	59726.76
659.902	59941.9
660.253	59785.74
660.604	59839.08
660.955	59661.23
661.306	59846.76
661.656	59721.79
662.007	59766.54
662.358	59731.73
662.708	59721.79
663.059	59715.24
663.409	59515.69
663.76	59658.74
664.11	59723.83
664.461	59726.54
664.811	59653.32
665.161	59639.31
665.511	59593.21
665.862	59612.42
666.212	59652.87
666.562	59643.38
666.912	59643.38
667.262	59563.15
667.612	59594.79
667.962	59553.89
668.312	59483.83
668.662	59644.05
669.011	59584.85
669.361	59575.58
669.711	59569.03
670.06	59478.41
670.41	59515.69
670.76	59481.57
671.109	59552.76
671.459	59543.04
671.808	59452.87
672.157	59454.45
672.507	59404.51
672.856	59432.53
673.205	59435.7
673.554	59487.45
673.904	59395.02
674.253	59564.96
674.602	59347.34
674.951	59145.76
675.3	58949.16
675.649	59429.37
675.998	59403.38
676.346	59379.65
676.695	59449.03
677.044	59298.75
677.393	59328.13
677.741	59312.08
678.09	59264.18
678.438	59215.36
678.787	59264.63
679.135	59269.15
679.484	59088.81
679.832	59208.58
680.181	59132.2
680.529	59152.77
680.877	59101.02
681.225	59066.67
681.573	59223.73
681.922	59076.38
682.27	59014.01
682.618	59069.38
682.966	58983.96
683.314	58992.54
683.661	58986.44
684.009	58832.55
684.357	58869.16
684.705	58753.46
685.053	58860.34
685.4	58672.33
685.748	58646.79
686.095	58758.43
686.443	58579.22
686.79	58560.24
687.138	58650.18
687.485	58611.31
687.832	58562.05
688.18	58536.96
688.527	58449.96
688.874	58452.22
689.221	58403.86
689.568	58327.7
689.915	58291.09
690.262	58270.76
690.609	58221.49
690.956	58107.6
691.303	58117.54
691.65	58052.68
691.997	58051.33
692.344	57914.61
692.69	57860.37
693.037	57900.14
693.383	57686.14
693.73	57835.06
694.077	57601.62
694.423	57628.06
694.769	57529.98
695.116	57543.32
695.462	57444.79
695.808	57414.28
696.155	57442.53
696.501	57207.51
696.847	57342.87
697.193	57160.73
697.539	57158.47
697.885	57008.87
698.231	56889.32
698.577	56973.84
698.923	56887.97
699.269	56725.94
699.614	56619.73
699.96	56574.76
700.306	56647.75
700.651	56578.6
700.997	56433.06
701.342	56449.56
701.688	56426.74
702.033	56262.22
702.379	56370.47
702.724	56265.61
703.069	56311.94
703.415	55932.51
703.76	55872.85
704.105	56007.99
704.45	55791.95
704.795	55771.39
705.14	55694.1
705.485	55654.1
705.83	55531.84
706.175	55625.4
706.52	55496.14
706.865	55419.76
707.209	55323.04
707.554	55357.16
707.899	55328.69
708.243	55175.92
708.588	55173.89
708.932	54925.76
709.277	55090.5
709.621	54871.75
709.966	54724.86
710.31	54811.86
710.654	54638.08
710.998	54662.94
711.342	54663.39
711.687	54568.71
712.031	54516.96
712.375	54269.96
712.719	54349.5
713.063	54215.04
713.407	54371.88
713.75	54272.89
714.094	54200.35
714.438	54016.18
714.782	54093.46
715.125	53910.19
715.469	54021.83
715.812	53785.9
716.156	53669.3
716.499	53758.33
716.843	53728.73
717.186	53574.38
717.53	53683.76
717.873	53547.72
718.216	53534.38
718.559	53390.21
718.902	53183.43
719.246	53353.82
719.589	53270.44
719.932	53146.82
720.275	53096.43
720.617	53130.78
720.96	53064.11
721.303	52923.1
721.646	53101.17
721.989	52935.98
722.331	52954.06
722.674	52735.31
723.016	52828.19
723.359	52650.56
723.701	52702.31
724.044	52553.17
724.386	52424.58
724.729	52543.67
725.071	52547.74
725.413	52437.69
725.755	52364.47
726.097	52220.29
726.439	52132.84
726.782	52161.99
727.124	52122.9
727.465	52180.29
727.807	52056.68
728.149	52168.09
728.491	51892.39
728.833	52040.41
729.175	51954.09
729.516	51803.58
729.858	51806.75
730.199	51905.27
730.541	51851.49
730.882	51713.64
731.224	51645.17
731.565	51622.8
731.906	51609.91
732.248	51652.4
732.589	51386.19
732.93	51389.81
733.271	51450.6
733.612	51291.96
733.953	51429.81
734.294	51292.63
734.635	51217.38
734.976	51313.88
735.317	51101.45
735.658	51137.61
735.999	50898.97
736.339	50965.86
736.68	51032.98
737.021	50957.05
737.361	50854.23
737.702	50973.55
738.042	50794.57
738.383	50968.12
738.723	50966.54
739.063	50643.61
739.404	50796.6
739.744	50687.9
740.084	50668.7
740.424	50705.98
740.764	50531.3
741.104	50661.01
741.444	50432.32
741.784	50273.68
742.124	50482.26
742.464	50342.38
742.804	50251.31
743.143	50193.68
743.483	50308.25
743.823	50177.18
744.162	50212.21
744.502	50176.96
744.841	50067.36
745.181	50212.66
745.52	49965.44
745.86	50020.35
746.199	49871.43
746.538	49841.83
746.877	49975.38
747.216	49938.32
747.556	49750.75
747.895	49695.16
748.234	49675.28
748.573	49487.48
748.911	49484.55
749.25	49506.92
749.589	49338.11
749.928	49345.11
750.267	49423.98
750.605	49181.73
750.944	49287.04
751.283	49072.58
751.621	49249.75
751.96	48967.95
752.298	48950.1
752.636	48895.86
752.975	48805.47
753.313	48708.3
753.651	48933.83
753.989	48602.31
754.327	48687.28
754.666	48397.34
755.004	48453.16
755.342	48466.49
755.679	48406.83
756.017	48104.7
756.355	48145.15
756.693	48127.29
757.031	48088.88
757.368	48006.17
757.706	47818.15
758.044	47703.58
758.381	47680.3
758.719	47535.67
759.056	47549.23
759.394	47394.43
759.731	47077.15
760.068	47041.45
760.405	47148.34
760.743	46964.61
761.08	46902.24
761.417	46742.47
761.754	46761.45
762.091	46650.5
762.428	46296.61
762.765	46244.86
763.102	46145.2
763.438	46054.35
763.775	45804.87
764.112	45815.49
764.449	45802.16
764.785	45561.03
765.122	45396.74
765.458	45294.37
765.795	45266.13
766.131	45254.83
766.467	45012.35
766.804	44796.76
767.14	44566.26
767.476	44487.62
767.812	44427.5
768.148	44337.34
768.485	44251.46
768.821	43786.84
769.157	43774.87
769.492	43714.98
769.828	43753.62
770.164	43300.53
770.5	43294.65
770.836	43361.54
771.171	43012.4
771.507	42807.21
771.842	42628.46
772.178	42581.68
772.513	42368.8
772.849	42237.73
773.184	42252.65
773.519	42101.92
773.855	41700.57
774.19	41707.58
774.525	41600.91
774.86	41609.73
775.195	41433.91
775.53	41317.98
775.865	41096.97
776.2	40813.14
776.535	40629.19
776.87	40638.45
777.205	40404.11
777.539	40336.76
777.874	40307.61
778.209	39956.66
778.543	40018.58
778.878	39652.04
779.212	39730.45
779.547	39317.81
779.881	39330.91
780.215	38944.71
780.55	39256.79
780.884	38738.16
781.218	38658.16
781.552	38724.83
781.886	38456.59
782.22	38270.6
782.554	37940.9
782.888	37939.77
783.222	37831.07
783.556	37639.89
783.889	37577.74
784.223	37149.96
784.557	37274.47
784.89	37435.37
785.224	37127.13
785.557	36790.87
785.891	36727.14
786.224	36854.37
786.558	36616.18
786.891	36494.61
787.224	36132.13
787.557	36160.15
787.891	36092.58
788.224	35824.34
788.557	35845.36
788.89	35772.14
789.223	35677.68
789.556	35481.3
789.888	35317.69
790.221	35108.88
790.554	35080.41
790.887	35064.36
791.219	34745.72
791.552	34743.01
791.884	34472.51
792.217	34371.95
792.549	34329.69
792.882	34066.42
793.214	34011.28
793.546	34039.53
793.879	33747.56
794.211	33452.43
794.543	33712.08
794.875	33653.32
795.207	33532.42
795.539	33391.18
795.871	33401.81
796.203	33102.38
796.535	32886.11
796.867	33014.02
797.198	32666.91
797.53	32720.24
797.862	32469.63
798.193	32621.26
798.525	32401.15
798.856	32486.12
799.188	32060.82
799.519	31925.91
799.85	31842.98
800.182	31880.04
800.513	31813.37
800.844	31465.36
801.175	31615.64
801.506	31590.33
801.837	31320.5
802.168	31364.8
802.499	31313.5
802.83	31123.67
803.161	30967.07
803.491	31007.74
803.822	31106.72
804.153	30722.33
804.483	30614.08
804.814	30431.71
805.145	30470.81
805.475	30524.82
805.805	30451.6
806.136	30339.29
806.466	30066.53
806.796	30162.57
807.126	29917.83
807.457	29906.53
807.787	29909.69
808.117	29817.72
808.447	29754.22
808.777	29781.56
809.107	29507.22
809.436	29425.64
809.766	29415.02
810.096	29316.49
810.426	29168.92
810.755	29226.55
811.085	29112.2
811.414	29097.74
811.744	28922.6
812.073	28965.31
812.403	28788.14
812.732	28671.08
813.061	28829.5
813.39	28573.23
813.719	28546.57
814.049	28619.11
814.378	28433.35
814.707	28333.24
815.036	28282.39
815.365	28201.49
815.693	27959.46
816.022	28004.89
816.351	27916.53
816.68	27770.54
817.008	27874.95
817.337	27682.41
817.665	27726.25
817.994	27672.92
818.322	27712.24
818.651	27535.29
818.979	27354.96
819.307	27487.61
819.636	27371.91
819.964	27285.36
820.292	27281.29
820.62	27257.33
820.948	27349.54
821.276	27323.32
821.604	27260.5
821.932	27333.94
822.259	27374.62
822.587	27291.46
822.915	27203.32
823.243	27276.99
823.57	27075.64
823.898	27216.43
824.225	27146.15
824.553	27193.38
824.88	27128.75
825.207	27321.74
825.535	27083.55
825.862	27148.41
826.189	27123.1
826.516	27347.95
826.843	27255.53
827.17	27229.54
827.497	27307.5
827.824	27210.33
828.151	27307.28
828.478	27094.85
828.805	27274.73
829.131	27137.56
829.458	27316.54
829.785	27044.91
830.111	27075.87
830.438	27280.61
830.764	27198.58
831.09	27177.56
831.417	27058.47
831.743	27201.74
832.069	27044.68
832.395	26973.05
832.722	27108.41
833.048	26857.34
833.374	27044.91
833.7	26798.36
834.026	27118.35
834.351	26965.36
834.677	27035.42
835.003	26971.92
835.329	26929.89
835.654	26961.3
835.98	26734.86
836.306	26909.32
836.631	26670.68
836.956	26925.14
837.282	26830.23
837.607	26656.22
837.932	26719.72
838.258	26568.76
838.583	26544.58
838.908	26539.84
839.233	26547.97
839.558	26481.08
839.883	26314.53
840.208	26259.39
840.533	26331.03
840.858	26267.3
841.182	26262.11
841.507	26202.22
841.832	26056.46
842.156	25964.03
842.481	26046.52
842.805	25909.35
843.13	25770.37
843.454	25837.26
843.778	25784.6
844.103	25622.35
844.427	25653.53
844.751	25629.13
845.075	25622.12
845.399	25504.61
845.723	25287.89
846.047	25473.2
846.371	25216.48
846.695	25203.6
847.019	24995.25
847.343	24834.35
847.666	24862.14
847.99	24700.57
848.313	24614.47
848.637	24645.65
848.96	24500.8
849.284	24518.42
849.607	24269.84
849.931	24130.18
850.254	24179.9
850.577	23852.45
850.9	23853.81
851.223	23821.04
851.546	23690.42
851.869	23532.91
852.192	23684.09
852.515	23445.01
852.838	23313.26
853.161	23346.48
853.483	23179.25
853.806	23119.59
854.129	23055.86
854.451	22984
854.774	22896.32
855.096	22829.65
855.419	22743.55
855.741	22708.98
856.063	22473.05
856.385	22417.24
856.708	22455.2
857.03	22432.38
857.352	22496.56
857.674	22389.67
857.996	22174.98
858.318	22029.22
858.64	22214.3
858.961	22111.03
859.283	21976.34
859.605	21834.43
859.926	21861.54
860.248	21810.02
860.57	21775.22
860.891	21646.18
861.212	21625.17
861.534	21505.39
861.855	21401.89
862.176	21508.78
862.498	21528.9
862.819	21397.6
863.14	21428.56
863.461	21283.48
863.782	21213.2
864.103	21279.86
864.424	21265.63
864.745	21205.74
865.065	21088
865.386	21055.69
865.707	21096.37
866.027	21048.23
866.348	20967.56
866.668	20977.73
866.989	20954.9
867.309	20704.51
867.63	20742.03
867.95	20909.03
868.27	20678.3
868.59	20843.72
868.91	20730.05
869.23	20634.23
869.55	20602.37
869.87	20680.78
870.19	20575.93
870.51	20515.59
870.83	20458.64
871.15	20399.89
871.469	20340
871.789	20457.06
872.109	20331.87
872.428	20287.12
872.748	20316.73
873.067	20221.36
873.386	20200.57
873.706	20151.08
874.025	20155.6
874.344	20081.25
874.663	20120.8
874.982	20108.6
875.301	19975.49
875.62	19880.13
875.939	19890.07
876.258	19902.95
876.577	19733.24
876.896	19736.85
877.214	19777.08
877.533	19764.42
877.852	19704.09
878.17	19692.79
878.489	19810.3
878.807	19594.71
879.125	19517.42
879.444	19553.81
879.762	19439.69
880.08	19606.91
880.398	19327.6
880.716	19526.92
881.034	19346.58
881.352	19370.76
881.67	19328.28
881.988	19317.88
882.306	19205.34
882.624	19217.32
882.941	19151.33
883.259	18962.86
883.577	19021.39
883.894	18913.37
884.212	18975.52
884.529	18903.88
884.846	18898.23
885.164	18869.76
885.481	18792.92
885.798	18799.93
886.115	18667.05
886.432	18724.68
886.75	18582.99
887.067	18674.28
887.383	18614.85
887.7	18477.23
888.017	18448.75
888.334	18440.39
888.651	18412.82
888.967	18403.78
889.284	18206.95
889.6	18119.95
889.917	18106.39
890.233	18085.15
890.55	18138.93
890.866	18081.53
891.182	17996.79
891.498	17900.07
891.815	17807.64
892.131	17767.19
892.447	17795.89
892.763	17714.53
893.079	17621.43
893.395	17562
893.71	17476.12
894.026	17420.53
894.342	17477.03
894.657	17299.86
894.973	17296.69
895.289	17220.31
895.604	17291.49
895.92	17045.63
896.235	17056.02
896.55	17063.93
896.865	16946.87
897.181	16916.82
897.496	16911.17
897.811	16754.79
898.126	16731.06
898.441	16710.27
898.756	16669.82
899.071	16575.81
899.386	16645.64
899.7	16449.26
900.015	16397.96
900.33	16232.09
900.644	16224.86
900.959	16231.18
901.273	16265.31
901.588	16128.81
901.902	16009.49
902.216	16051.08
902.531	15936.5
902.845	15900.8
903.159	15768.82
903.473	15713.68
903.787	15622.84
904.101	15652.89
904.415	15575.16
904.729	15470.3
905.042	15383.52
905.356	15323.18
905.67	15320.7
905.984	15310.98
906.297	15226.24
906.611	15115.05
906.924	15206.13
907.237	15128.61
907.551	15043.87
907.864	14916.64
908.177	14867.15
908.491	14853.14
908.804	14746.02
909.117	14744.89
909.43	14621.28
909.743	14559.36
910.056	14520.95
910.368	14487.27
910.681	14340.84
910.994	14351.91
911.307	14306.26
911.619	14180.16
911.932	14213.84
912.244	14098.36
912.557	14130.22
912.869	13959.6
913.181	14002.54
913.494	13866.73
913.806	13868.99
914.118	13774.98
914.43	13706.05
914.742	13662.21
915.054	13570.91
915.366	13554.87
915.678	13545.15
915.99	13461.99
916.302	13347.87
916.613	13339.28
916.925	13287.08
917.236	13242.79
917.548	13158.72
917.859	13165.28
918.171	13048.89
918.482	13002.34
918.794	12877.15
919.105	12888.22
919.416	12825.17
919.727	12826.53
920.038	12779.75
920.349	12670.83
920.66	12605.06
920.971	12577.95
921.282	12544.05
921.593	12464.05
921.903	12352.87
922.214	12391.74
922.525	12254.11
922.835	12220.22
923.146	12234.68
923.456	12103.83
923.767	12005.08
924.077	12070.39
924.387	11994.91
924.697	11959.21
925.008	11959.43
925.318	11844.63
925.628	11858.42
925.938	11700.23
926.248	11628.59
926.558	11530.52
926.867	11577.52
927.177	11442.16
927.487	11463.63
927.796	11340.92
928.106	11387.02
928.416	11381.82
928.725	11281.93
929.034	11240.35
929.344	11277.19
929.653	11162.39
929.962	11108.15
930.271	10992.45
930.581	10985.45
930.89	10907.03
931.199	10901.83
931.508	10851.44
931.817	10845.11
932.125	10862.74
932.434	10718.79
932.743	10601.05
933.051	10616.19
933.36	10579.81
933.669	10494.39
933.977	10474.95
934.286	10420.04
934.594	10328.97
934.902	10363.09
935.21	10215.3
935.519	10250.32
935.827	10229.53
936.135	10134.62
936.443	10103.43
936.751	10048.3
937.059	10022.76
937.367	10015.3
937.674	9949.54
937.982	9872.93
938.29	9822.31
938.597	9821.18
938.905	9697.57
939.213	9688.08
939.52	9616.44
939.827	9594.97
940.135	9535.77
940.442	9520.63
940.749	9420.06
941.056	9486.5
941.363	9377.8
941.67	9419.61
941.977	9349.33
942.284	9284.7
942.591	9290.35
942.898	9200.86
943.205	9181.2
943.511	9096.23
943.818	9208.54
944.125	8985.95
944.431	8997.02
944.738	8946.4
945.044	8914.99
945.35	8882
945.657	8823.24
945.963	8847.2
946.269	8776.69
946.575	8765.84
946.881	8678.61
947.187	8733.75
947.493	8606.3
947.799	8585.51
948.105	8522.69
948.41	8480.2
948.716	8475
949.022	8412.41
949.327	8439.07
949.633	8316.82
949.938	8299.87
950.244	8326.76
950.549	8228.46
950.854	8151.62
951.16	8172.19
951.465	8157.05
951.77	8119.08
952.075	8052.87
952.38	8012.19
952.685	7991.17
952.99	7888.58
953.294	7918.86
953.599	7851.97
953.904	7829.37
954.209	7733.1
954.513	7785.08
954.818	7746.21
955.122	7671.63
955.426	7701.24
955.731	7574.01
956.035	7542.37
956.339	7536.95
956.643	7512.54
956.948	7460.79
957.252	7481.13
957.556	7434.35
957.86	7391.42
958.163	7449.27
958.467	7304.19
958.771	7314.58
959.075	7287.69
959.378	7191.65
959.682	7195.94
959.985	7130.41
960.289	7126.11
960.592	7080.01
960.896	7077.3
961.199	7039.33
961.502	7032.1
961.805	6957.98
962.108	6881.82
962.411	6892.45
962.714	6877.08
963.017	6802.28
963.32	6854.03
963.623	6804.09
963.926	6752.56
964.228	6712.56
964.531	6675.73
964.833	6702.85
965.136	6668.72
965.438	6571.1
965.741	6473.7
966.043	6533.59
966.345	6527.48
966.648	6506.02
966.95	6468.95
967.252	6387.83
967.554	6462.85
967.856	6376.75
968.158	6314.38
968.46	6329.3
968.761	6259.02
969.063	6207.72
969.365	6242.97
969.666	6190.09
969.968	6120.49
970.269	6103.99
970.571	6114.61
970.872	6111
971.174	6007.05
971.475	6046.37
971.776	6013.82
972.077	5991.9
972.378	5929.31
972.679	5971.34
972.98	5890.66
973.281	5848.63
973.582	5842.98
973.883	5838.91
974.183	5766.37
974.484	5812.25
974.785	5695.42
975.085	5733.38
975.386	5658.81
975.686	5615.64
975.986	5605.25
976.287	5601.41
976.587	5578.13
976.887	5545.36
977.187	5550.56
977.487	5536.55
977.787	5445.48
978.087	5453.84
978.387	5428.08
978.687	5403.45
978.987	5366.16
979.286	5339.94
979.586	5302.43
979.885	5330.68
980.185	5258.14
980.484	5251.13
980.784	5240.51
981.083	5203.9
981.382	5196.9
981.682	5211.13
981.981	5116
982.28	5112.38
982.579	5092.49
982.878	5092.72
983.177	5043.91
983.475	5031.03
983.774	4963.23
984.073	4940.41
984.372	5003.23
984.67	4934.53
984.969	4903.35
985.267	4906.06
985.566	4823.35
985.864	4804.37
986.162	4799.62
986.461	4786.06
986.759	4736.57
987.057	4742.22
987.355	4730.47
987.653	4683.69
987.951	4695.89
988.249	4623.13
988.547	4643.24
988.844	4600.98
989.142	4554.65
989.44	4560.53
989.737	4560.08
990.035	4524.6
990.332	4486.86
990.63	4430.14
990.927	4466.52
991.224	4406.86
991.521	4431.49
991.819	4419.74
992.116	4309.91
992.413	4333.42
992.71	4327.77
993.006	4260.88
993.303	4280.54
993.6	4262.01
993.897	4257.94
994.193	4240.31
994.49	4161.44
994.787	4169.13
995.083	4132.52
995.379	4118.28
995.676	4116.25
995.972	4072.18
996.268	4025.4
996.565	4006.87
996.861	3959.64
997.157	3975.23
997.453	3949.47
997.749	3914.45
998.044	3889.14
998.34	3914.67
998.636	3911.96
998.932	3904.05
999.227	3797.16
999.523	3832.41
999.818	3808.69
1000.114	3776.82
1000.409	3776.37
1000.704	3716.94
1001	3705.41
1001.295	3671.97
1001.59	3711.29
1001.885	3648.92
1002.18	3602.59
1002.475	3619.09
1002.77	3562.59
1003.065	3537.96
1003.359	3527.11
1003.654	3567.34
1003.949	3531.18
1004.243	3538.86
1004.538	3469.94
1004.832	3482.82
1005.127	3439.66
1005.421	3380.22
1005.715	3352.65
1006.009	3412.31
1006.304	3316.95
1006.598	3319.21
1006.892	3317.85
1007.186	3307.46
1007.48	3278.53
1007.773	3251.86
1008.067	3273.78
1008.361	3181.36
1008.655	3214.12
1008.948	3196.27
1009.242	3170.96
1009.535	3161.92
1009.829	3115.6
1010.122	3074.47
1010.415	3087.35
1010.708	3058.87
1011.001	3052.77
1011.295	3024.07
1011.588	2981.81
1011.881	2956.96
1012.173	2967.58
1012.466	2953.79
1012.759	2942.72
1013.052	2901.14
1013.344	2915.15
1013.637	2872.21
1013.93	2846
1014.222	2843.74
1014.514	2820.91
1014.807	2772.33
1015.099	2796.96
1015.391	2759
1015.683	2762.38
1015.976	2744.08
1016.268	2722.39
1016.56	2669.05
1016.851	2658.88
1017.143	2624.31
1017.435	2632.67
1017.727	2616.4
1018.018	2618.89
1018.31	2622.28
1018.602	2589.28
1018.893	2532.33
1019.185	2528.94
1019.476	2506.57
1019.767	2505.89
1020.058	2517.87
1020.35	2468.61
1020.641	2450.53
1020.932	2407.82
1021.223	2408.5
1021.514	2414.6
1021.804	2368.27
1022.095	2356.97
1022.386	2356.97
1022.677	2339.35
1022.967	2254.6
1023.258	2295.73
1023.548	2249.86
1023.839	2271.32
1024.129	2249.86
1024.419	2224.09
1024.709	2195.17
1025	2179.35
1025.29	2199.46
1025.58	2174.6
1025.87	2142.29
1026.16	2115.85
1026.449	2113.14
1026.739	2083.98
1027.029	2063.87
1027.319	2084.66
1027.608	2025.68
1027.898	2019.13
1028.187	2034.04
1028.477	2009.86
1028.766	2008.28
1029.055	1992.24
1029.344	1964.44
1029.634	1959.92
1029.923	1940.26
1030.212	1917.66
1030.501	1904.33
1030.79	1894.61
1031.078	1876.31
1031.367	1877.44
1031.656	1846.48
1031.945	1840.15
1032.233	1809.64
1032.522	1823.65
1032.81	1811
1033.099	1806.03
1033.387	1777.1
1033.675	1747.27
1033.963	1777.55
1034.251	1743.2
1034.54	1759.02
1034.828	1707.05
1035.116	1708.85
1035.403	1683.32
1035.691	1670.21
1035.979	1657.78
1036.267	1689.42
1036.554	1661.62
1036.842	1628.86
1037.129	1634.73
1037.417	1583.88
1037.704	1628.63
1037.992	1593.38
1038.279	1584.56
1038.566	1552.02
1038.853	1552.02
1039.14	1552.02
