Data from 16-1255_FLMS001491_010.txt Node
Date: Thu Apr 19 16:17:15 BST 2018
User: hsy
Spectrometer: FLMS00149
Trigger mode: 0
Integration Time (sec): 1.000000E-2
Scans to average: 10
Electric dark correction enabled: true
Nonlinearity correction enabled: false
Boxcar width: 0
XAxis mode: Wavelengths
Number of Pixels in Spectrum: 2048
>>>>>Begin Spectral Data<<<<<
341.393	-13.09
341.776	-13.09
342.16	-13.09
342.543	-58.52
342.927	-69.36
343.31	-74.33
343.693	-67.33
344.077	-101.68
344.46	-57.39
344.843	-52.87
345.226	-56.48
345.61	-25.52
345.993	-12.64
346.376	0.92
346.759	10.41
347.142	20.13
347.525	60.35
347.908	68.71
348.291	68.03
348.674	100.12
349.057	119.56
349.44	130.18
349.823	155.94
350.206	184.42
350.588	240.23
350.971	266.9
351.354	266.22
351.737	278.88
352.119	286.33
352.502	302.15
352.884	304.41
353.267	315.49
353.65	350.29
354.032	340.57
354.414	351.64
354.797	385.99
355.179	383.96
355.562	381.7
355.944	383.96
356.326	374.69
356.709	381.92
357.091	392.32
357.473	406.56
357.855	397.07
358.238	401.13
358.62	412.88
359.002	393.45
359.384	404.3
359.766	400.91
360.148	398.87
360.53	410.85
360.912	378.99
361.294	393
361.676	399.33
362.057	399.33
362.439	411.75
362.821	400.91
363.203	375.6
363.584	375.15
363.966	396.61
364.348	391.64
364.729	392.09
365.111	374.92
365.493	380.34
365.874	413.34
366.256	388.48
366.637	383.51
367.019	384.64
367.4	385.09
367.781	387.8
368.163	385.31
368.544	387.8
368.925	363.62
369.306	388.03
369.688	422.15
370.069	394.35
370.45	400
370.831	398.42
371.212	397.97
371.593	398.87
371.974	380.12
372.355	417.86
372.736	391.64
373.117	397.52
373.498	388.7
373.879	411.3
374.26	382.38
374.641	373.34
375.021	399.55
375.402	405.65
375.783	415.6
376.163	435.93
376.544	436.39
376.925	421.7
377.305	440
377.686	414.92
378.066	428.03
378.447	430.29
378.827	434.58
379.208	428.7
379.588	458.31
379.968	419.66
380.349	441.36
380.729	430.74
381.109	450.17
381.489	447.23
381.87	446.33
382.25	447.23
382.63	451.3
383.01	449.72
383.39	471.41
383.77	491.98
384.15	458.53
384.53	460.79
384.91	460.57
385.29	480.23
385.67	484.07
386.049	483.39
386.429	484.52
386.809	484.3
387.189	475.71
387.568	491.98
387.948	509.38
388.328	502.15
388.707	518.87
389.087	519.32
389.466	515.93
389.846	524.29
390.225	526.33
390.605	520
390.984	504.86
391.363	533.56
391.743	545.31
392.122	520.68
392.501	538.53
392.881	543.5
393.26	563.84
393.639	561.36
394.018	564.75
394.397	563.84
394.776	575.14
395.155	556.61
395.534	577.63
395.913	577.4
396.292	567.91
396.671	587.8
397.05	585.08
397.429	593.9
397.808	603.61
398.186	603.39
398.565	621.24
398.944	605.65
399.323	580.34
399.701	589.83
400.08	614.24
400.458	613.78
400.837	626.44
401.215	627.79
401.594	657.4
401.972	620.34
402.351	647.23
402.729	650.39
403.107	643.84
403.486	664.4
403.864	659.66
404.242	694.23
404.62	679.77
404.999	675.48
405.377	683.39
405.755	705.31
406.133	704.18
406.511	705.76
406.889	701.24
407.267	724.74
407.645	716.83
408.023	722.03
408.401	732.2
408.779	731.75
409.156	770.62
409.534	734.01
409.912	791.63
410.29	777.62
410.667	790.95
411.045	793.89
411.422	798.64
411.8	795.93
412.178	835.02
412.555	855.81
412.933	846.09
413.31	876.83
413.687	853.33
414.065	852.65
414.442	883.38
414.819	875.7
415.197	879.09
415.574	893.32
415.951	909.59
416.328	924.28
416.705	903.72
417.082	922.93
417.46	943.94
417.837	951.4
418.214	931.74
418.591	959.76
418.967	948.69
419.344	945.53
419.721	984.17
420.098	974
420.475	986.2
420.852	1002.25
421.228	995.24
421.605	981.46
421.982	1001.8
422.358	1041.12
422.735	1002.7
423.111	1028.91
423.488	1069.59
423.864	1067.1
424.241	1084.73
424.617	1097.39
424.994	1067.1
425.37	1087.67
425.746	1117.95
426.123	1128.8
426.499	1108.01
426.875	1123.6
427.251	1159.31
427.627	1156.37
428.003	1166.99
428.379	1193.66
428.756	1205.41
429.132	1207.21
429.507	1227.1
429.883	1213.32
430.259	1257.38
430.635	1267.1
431.011	1279.08
431.387	1284.5
431.763	1332.41
432.138	1332.63
432.514	1332.63
432.89	1335.35
433.265	1360.88
433.641	1391.84
434.016	1395.46
434.392	1420.77
434.767	1462.12
435.143	1433.42
435.518	1443.82
435.894	1452.63
436.269	1472.07
436.644	1500.54
437.02	1525.62
437.395	1532.63
437.77	1543.02
438.145	1569.92
438.52	1563.36
438.895	1570.37
439.271	1582.12
439.646	1591.84
440.021	1624.6
440.395	1619.18
440.77	1608.33
441.145	1670.7
441.52	1677.03
441.895	1662.8
442.27	1702.57
442.645	1683.36
443.019	1688.33
443.394	1732.4
443.769	1742.79
444.143	1737.37
444.518	1733.53
444.892	1717.71
445.267	1744.38
445.641	1768.56
446.016	1788.44
446.39	1778.05
446.764	1778.5
447.139	1819.4
447.513	1820.08
447.887	1809.68
448.262	1829.12
448.636	1855.78
449.01	1894.43
449.384	1886.52
449.758	1882
450.132	1939.62
450.506	1917.93
450.88	1928.55
451.254	1940.98
451.628	1989.57
452.002	1973.52
452.376	2023.69
452.75	2025.05
453.123	2049.9
453.497	2064.82
453.871	2099.17
454.244	2120.86
454.618	2144.36
454.992	2160.41
455.365	2191.37
455.739	2233.18
456.112	2225.04
456.486	2269.11
456.859	2299.16
457.232	2360.4
457.606	2350.23
457.979	2403.57
458.352	2416.22
458.725	2472.04
459.099	2449.22
459.472	2518.82
459.845	2538.48
460.218	2532.6
460.591	2582.55
460.964	2607.18
461.337	2655.31
461.71	2684.24
462.083	2726.72
462.456	2745.25
462.829	2723.11
463.201	2784.35
463.574	2775.53
463.947	2873.38
464.32	2890.33
464.692	2920.62
465.065	2931.91
465.438	2973.27
465.81	3008.07
466.183	3021.4
466.555	3115.64
466.928	3117.9
467.3	3078.35
467.672	3110.89
468.045	3215.3
468.417	3227.27
468.789	3235.64
469.161	3262.3
469.534	3356.54
469.906	3380.26
470.278	3420.72
470.65	3495.06
471.022	3482.41
471.394	3539.58
471.766	3620.26
472.138	3640.82
472.51	3735.28
472.882	3774.83
473.253	3785.45
473.625	3845.11
473.997	3968.5
474.369	3932.11
474.74	4043.3
475.112	4093.47
475.484	4111.54
475.855	4255.95
476.227	4286.68
476.598	4359.9
476.97	4470.86
477.341	4516.51
477.713	4544.08
478.084	4639.89
478.455	4667.24
478.827	4726.9
479.198	4872.65
479.569	4909.72
479.94	5031.75
480.311	5128.69
480.682	5175.02
481.053	5349.48
481.424	5424.05
481.795	5521.22
482.166	5573.43
482.537	5652.07
482.908	5809.8
483.279	5914.66
483.65	5992.17
484.021	6100.87
484.391	6186.74
484.762	6320.98
485.133	6365.72
485.503	6439.84
485.874	6621.53
486.244	6665.15
486.615	6878.7
486.985	7023.78
487.356	7175.42
487.726	7200.5
488.097	7406.6
488.467	7430.55
488.837	7659.47
489.207	7726.82
489.578	7947.6
489.948	8013.36
490.318	8179.91
490.688	8152.79
491.058	8390.98
491.428	8541.71
491.798	8639.11
492.168	8939.44
492.538	8992.32
492.908	9116.84
493.278	9272.99
493.648	9347.56
494.017	9551.4
494.387	9648.8
494.757	9846.99
495.126	9968.11
495.496	10104.16
495.866	10213.08
496.235	10359.06
496.605	10531.94
496.974	10642.22
497.344	10847.86
497.713	11012.15
498.082	11097.12
498.452	11273.62
498.821	11348.87
499.19	11483.33
499.559	11636.54
499.928	11894.84
500.298	11919.02
500.667	12207.15
501.036	12220.71
501.405	12404.21
501.774	12517.65
502.143	12620.47
502.512	12772.33
502.88	12920.8
503.249	13063.17
503.618	13256.39
503.987	13387.23
504.356	13502.03
504.724	13648.24
505.093	13657.73
505.462	13803.27
505.83	13955.13
506.199	14152.18
506.567	14337.26
506.936	14480.54
507.304	14675.56
507.672	14832.17
508.041	14958.72
508.409	15181.54
508.777	15268.54
509.145	15397.12
509.514	15554.63
509.882	15669.66
510.25	15706.04
510.618	15899.48
510.986	15991.91
511.354	16163.43
511.722	16349.41
512.09	16600.71
512.458	16530.65
512.826	16761.61
513.193	16813.36
513.561	16978.32
513.929	17148.49
514.297	17321.59
514.664	17445.21
515.032	17611.08
515.4	17774.46
515.767	17830.51
516.135	18025.75
516.502	17848.81
516.869	18222.59
517.237	18405.86
517.604	18342.36
517.972	18609.02
518.339	18642.46
518.706	18883.59
519.073	18902.57
519.44	19118.16
519.808	19233.18
520.175	19438.15
520.542	19669.33
520.909	19694.41
521.276	19833.39
521.643	20093.72
522.009	20219.6
522.376	20330.1
522.743	20428.86
523.11	20657.78
523.477	20944.1
523.843	20964.21
524.21	21194.71
524.577	21436.51
524.943	21585.21
525.31	21708.82
525.676	22055.48
526.043	22163.5
526.409	22293.89
526.776	22489.14
527.142	22590.38
527.508	22763.94
527.874	23010.26
528.241	23200.76
528.607	23383.58
528.973	23467.19
529.339	23540.86
529.705	23898.59
530.071	24057.69
530.437	24204.58
530.803	24440.73
531.169	24540.61
531.535	24502.65
531.901	24691.57
532.267	24754.17
532.632	24989.87
532.998	25183.53
533.364	25219.92
533.73	25370.87
534.095	25624.88
534.461	25639.34
534.826	25809.28
535.192	25857.64
535.557	26131.3
535.923	26155.71
536.288	26311.86
536.653	26463.05
537.019	26415.59
537.384	26581.69
537.749	26657.17
538.114	26689.71
538.479	26874.56
538.845	26877.73
539.21	26853.77
539.575	27006.08
539.94	27235
540.305	27288.11
540.67	27322.69
541.034	27449.01
541.399	27538.95
541.764	27601.1
542.129	27783.01
542.494	27842.9
542.858	28114.98
543.223	27884.03
543.587	28115.21
543.952	28078.15
544.316	28227.97
544.681	28199.05
545.045	28420.06
545.41	28547.06
545.774	28515.65
546.138	28563.1
546.503	28728.3
546.867	28717
547.231	29027.5
547.595	29142.3
547.959	29147.5
548.324	29181.62
548.688	29217.1
549.052	29382.52
549.416	29300.49
549.779	29379.13
550.143	29591.1
550.507	29809.63
550.871	29661.61
551.235	29838.55
551.599	30120.13
551.962	30024.76
552.326	30160.13
552.689	30271.08
553.053	30112.44
553.417	30240.57
553.78	30609.15
554.143	30573.9
554.507	30791.52
554.87	30847.79
555.234	31110.38
555.597	30795.59
555.96	30903.83
556.323	31213.66
556.686	31146.54
557.05	31485.74
557.413	31537.72
557.776	31488.68
558.139	31875.11
558.502	31869.68
558.865	31839.18
559.228	32126.85
559.59	32049.79
559.953	32277.36
560.316	32810.68
560.679	32601.19
561.041	32768.87
561.404	33041.41
561.767	33115.53
562.129	33103.32
562.492	33473.03
562.854	33440.04
563.217	33520.04
563.579	33676.87
563.941	33829.18
564.304	34066.24
564.666	34333.35
565.028	34317.98
565.39	34401.82
565.753	34776.95
566.115	34793.45
566.477	34972.43
566.839	35083.16
567.201	35416.48
567.563	35437.95
567.925	35655.35
568.287	35698.51
568.648	35808.79
569.01	36096.47
569.372	36477.47
569.734	36355.22
570.095	36719.5
570.457	36975.31
570.819	36860.97
571.18	36974.86
571.542	37379.37
571.903	37429.99
572.265	37741.17
572.626	37770.55
572.987	37932.35
573.349	38231.1
573.71	38383.41
574.071	38688.26
574.432	38853
574.794	39168.93
575.155	39123.28
575.516	39110.85
575.877	39483.27
576.238	39569.14
576.599	39784.96
576.96	39906.76
577.32	40085.97
577.681	40285.96
578.042	40582.68
578.403	40712.39
578.763	40911.03
579.124	41069.22
579.485	41312.83
579.845	41688.41
580.206	41642.99
580.566	41800.72
580.927	42044.33
581.287	42317.09
581.648	42407.03
582.008	42819
582.368	42960.24
582.728	43170.4
583.089	43423.73
583.449	43628.92
583.809	43703.05
584.169	43982.81
584.529	44278.85
584.889	44684.04
585.249	44763.36
585.609	44818.95
585.969	45491.02
586.329	45486.73
586.688	45979.37
587.048	46105.69
587.408	46355.63
587.768	46565.57
588.127	47082.39
588.487	47237.42
588.846	47791.53
589.206	47682.6
589.565	47985.87
589.925	48410.94
590.284	48757.6
590.643	48924.83
591.003	49316.23
591.362	49814.07
591.721	49932.49
592.08	50134.29
592.44	50558.68
592.799	50812.46
593.158	51160.7
593.517	51233.47
593.876	51691.08
594.235	51864.64
594.593	52164.29
594.952	52395.47
595.311	52552.53
595.67	52854.67
596.029	53256.01
596.387	53508.66
596.746	53856
597.104	53758.15
597.463	53960.18
597.822	54484.23
598.18	54445.36
598.538	54631.12
598.897	55076.53
599.255	55168.51
599.613	55645.78
599.972	55570.08
600.33	55822.95
600.688	55953.35
601.046	56224.07
601.404	56537.28
601.762	56643.04
602.12	56888.69
602.478	57033.77
602.836	57225.85
603.194	57203.48
603.552	57516.92
603.91	57537.03
604.268	57756.01
604.625	57884.82
604.983	58168.43
605.341	58080.29
605.698	58432.83
606.056	58696.1
606.413	58649.09
606.771	58872.36
607.128	59003.21
607.485	59024
607.843	59229.64
608.2	59400.94
608.557	59596.41
608.914	59674.38
609.272	59839.12
609.629	60001.6
609.986	60166.79
610.343	60171.31
610.7	60475.49
611.057	60442.94
611.414	60566.56
611.771	60717.29
612.127	60823.95
612.484	60891.97
612.841	61061.01
613.198	61002.48
613.554	61087.9
613.911	61340.55
614.267	61427.78
614.624	61489.7
614.98	61648.79
615.337	61788.45
615.693	61840.87
616.05	61933.75
616.406	62054.2
616.762	62056.69
617.118	62118.83
617.475	62146.4
617.831	62338.04
618.187	62416.9
618.543	62479.95
618.899	62604.92
619.255	62659.84
619.611	62637.46
619.967	62825.03
620.323	62875.2
620.678	62806.27
621.034	62903.22
621.39	62968.08
621.746	62973.5
622.101	63259.82
622.457	63072.25
622.812	63257.11
623.168	63238.13
623.523	63265.24
623.879	63368.07
624.234	63289.88
624.589	63404.67
624.945	63427.95
625.3	63457.55
625.655	63494.84
626.01	63495.29
626.365	63499.14
626.72	63474.05
627.075	63502.3
627.43	63487.16
627.785	63509.3
628.14	63516.99
628.495	63509.3
628.85	63516.99
629.205	63515.63
629.559	63514.28
629.914	63516.31
630.269	63516.99
630.623	63504.56
630.978	63500.72
631.332	63516.99
631.687	63510.89
632.041	63516.99
632.396	63516.99
632.75	63516.99
633.104	63516.99
633.459	63494.16
633.813	63516.99
634.167	63505.69
634.521	63516.99
634.875	63516.99
635.229	63500.94
635.583	63438.12
635.937	63486.71
636.291	63457.55
636.645	63472.7
636.999	63420.49
637.352	63435.86
637.706	63345.24
638.06	63447.61
638.413	63336.88
638.767	63287.39
639.121	63359.03
639.474	63277.9
639.828	63239.48
640.181	63195.41
640.534	63347.73
640.888	63213.72
641.241	63120.39
641.594	63162.65
641.947	63204.23
642.301	63069.09
642.654	63149.54
643.007	63086.94
643.36	63151.12
643.713	63083.55
644.066	63195.41
644.419	62991.58
644.771	62789.32
645.124	62508.43
645.477	62553.85
645.83	62455.32
646.182	62448.99
646.535	62404.7
646.888	62459.16
647.24	62404.47
647.593	62555.21
647.945	62471.14
648.298	62398.15
648.65	62256.91
649.002	62152.05
649.355	62178.04
649.707	62095.1
650.059	62110.25
650.411	62374.87
650.763	62462.78
651.115	62767.4
651.467	62670.46
651.819	62683.11
652.171	62639.72
652.523	62510.91
652.875	62567.86
653.227	62537.8
653.578	62707.07
653.93	62648.54
654.282	62525.83
654.633	62487.18
654.985	62524.7
655.337	62590.46
655.688	62499.39
656.039	62562.44
656.391	62312.5
656.742	62415.1
657.094	62376.23
657.445	62421.88
657.796	62427.53
658.147	62313.63
658.498	62326.28
658.849	62357.7
659.2	62262.33
659.551	62191.6
659.902	62362.89
660.253	62222.56
660.604	62339.17
660.955	62184.82
661.306	62344.59
661.656	62249.9
662.007	62195.67
662.358	62252.61
662.708	62279.96
663.059	62190.02
663.409	62025.05
663.76	62143.24
664.11	62114.99
664.461	62203.8
664.811	62124.93
665.161	62109.12
665.511	62033.41
665.862	62108.89
666.212	62184.82
666.562	62093.97
666.912	62057.82
667.262	62023.24
667.612	62055.11
667.962	62105.95
668.312	62060.98
668.662	62138.49
669.011	62100.08
669.361	62003.13
669.711	62089.23
670.06	62051.49
670.41	62000.87
670.76	61878.39
671.109	62130.13
671.459	62000.87
671.808	61975.79
672.157	62111.15
672.507	61925.39
672.856	61925.17
673.205	61948.22
673.554	62040.64
673.904	61924.49
674.253	62123.58
674.602	61996.12
674.951	61633.87
675.3	61508.91
675.649	61925.84
675.998	61901.44
676.346	61899.18
676.695	61948.67
677.044	61777.82
677.393	61875.9
677.741	61926.75
678.09	61832.51
678.438	61729.69
678.787	61801.33
679.135	61818.5
679.484	61625.74
679.832	61761.1
680.181	61704.15
680.529	61718.62
680.877	61631.61
681.225	61560.43
681.573	61781.67
681.922	61594.78
682.27	61581.45
682.618	61554.55
682.966	61493.09
683.314	61492.86
683.661	61480.88
684.009	61383.94
684.357	61312.53
684.705	61320.21
685.053	61352.75
685.4	61183.72
685.748	61196.15
686.095	61170.61
686.443	61054.91
686.79	61063.72
687.138	61161.8
687.485	61069.14
687.832	60953.44
688.18	61031.4
688.527	60896.72
688.874	60928.58
689.221	60860.11
689.568	60792.77
689.915	60688.36
690.262	60800.9
690.609	60681.36
690.956	60598.65
691.303	60567.01
691.65	60516.16
691.997	60520.91
692.344	60442.04
692.69	60380.8
693.037	60407.47
693.383	60133.8
693.73	60296.28
694.077	60106
694.423	60139
694.769	60022.16
695.116	59987.36
695.462	59906.69
695.808	59869.4
696.155	59870.3
696.501	59693.36
696.847	59813.58
697.193	59598.45
697.539	59642.51
697.885	59449.3
698.231	59406.14
698.577	59368.62
698.923	59428.73
699.269	59208.17
699.614	59179.02
699.96	59091.57
700.306	58995.3
700.651	58883.89
700.997	58871.69
701.342	58817.9
701.688	58842.31
702.033	58736.32
702.379	58676.66
702.724	58586.27
703.069	58546.27
703.415	58339.27
703.76	58341.53
704.105	58322.1
704.45	58199.84
704.795	58084.59
705.14	57959.39
705.485	58026.96
705.83	57947.64
706.175	57951.48
706.52	57846.85
706.865	57760.3
707.209	57784.94
707.554	57692.96
707.899	57652.28
708.243	57560.53
708.588	57507.88
708.932	57398.96
709.277	57424.04
709.621	57265.63
709.966	57137.27
710.31	57216.81
710.654	57050.94
710.998	57073.54
711.342	57073.09
711.687	56925.97
712.031	56907.22
712.375	56712.87
712.719	56768.01
713.063	56765.75
713.407	56880.33
713.75	56756.26
714.094	56635.14
714.438	56549.26
714.782	56577.74
715.125	56388.81
715.469	56510.62
715.812	56177.75
716.156	56191.31
716.499	56199.44
716.843	56257.07
717.186	56095.71
717.53	56174.36
717.873	56197.63
718.216	56067.24
718.559	55994.93
718.902	55787.93
719.246	55781.37
719.589	55715.61
719.932	55655.95
720.275	55565.33
720.617	55639.68
720.96	55536.41
721.303	55550.64
721.646	55577.76
721.989	55465.45
722.331	55459.35
722.674	55395.17
723.016	55327.15
723.359	55329.18
723.701	55303.87
724.044	55189.3
724.386	55052.35
724.729	55145
725.071	55223.65
725.413	55061.84
725.755	55048.96
726.097	54967.16
726.439	54827.27
726.782	54746.82
727.124	54958.57
727.465	54853.26
727.807	54753.38
728.149	54826.6
728.491	54683.1
728.833	54745.47
729.175	54738.01
729.516	54589.31
729.858	54574.85
730.199	54649.42
730.541	54577.56
730.882	54389.09
731.224	54531.91
731.565	54406.72
731.906	54432.71
732.248	54371.69
732.589	54187.06
732.93	54231.36
733.271	54278.59
733.612	54173.28
733.953	54317.23
734.294	54179.15
734.635	54076.78
734.976	54255.54
735.317	53999.27
735.658	54072.72
735.999	54034.98
736.339	54054.41
736.68	54062.77
737.021	54013.28
737.361	53936.45
737.702	54101.19
738.042	53887.86
738.383	53940.29
738.723	53930.35
739.063	53836.79
739.404	53860.97
739.744	53808.09
740.084	53660.52
740.424	53869.11
740.764	53801.09
741.104	53867.75
741.444	53748.21
741.784	53630.69
742.124	53689.68
742.464	53650.81
742.804	53549.34
743.143	53547.08
743.483	53604.03
743.823	53558.38
744.162	53487.42
744.502	53578.27
744.841	53364.94
745.181	53522.22
745.52	53390.47
745.86	53455.56
746.199	53415.11
746.538	53345.05
746.877	53482.22
747.216	53431.15
747.556	53305.28
747.895	53373.53
748.234	53226.86
748.573	53240.87
748.911	53228.67
749.25	53145.28
749.589	53107.32
749.928	53127.43
750.267	53207.65
750.605	53120.65
750.944	53116.58
751.283	53012.41
751.621	53089.24
751.96	52899.87
752.298	52981.67
752.636	52939.19
752.975	52896.48
753.313	52737.38
753.651	52960.43
753.989	52834.11
754.327	52816.7
754.666	52618.97
755.004	52731.28
755.342	52665.97
755.679	52667.1
756.017	52402.48
756.355	52603.15
756.693	52430.05
757.031	52547.11
757.368	52269.83
757.706	52319.09
758.044	52250.17
758.381	52234.12
758.719	52117.06
759.056	52176.95
759.394	51990.29
759.731	51831.42
760.068	51815.6
760.405	51876.84
760.743	51652.67
761.08	51727.47
761.417	51516.85
761.754	51571.31
762.091	51455.16
762.428	51391.43
762.765	51099.46
763.102	51266.69
763.438	51113.47
763.775	50947.38
764.112	51015.85
764.449	50762.52
764.785	50793.48
765.122	50602.3
765.458	50472.81
765.795	50503.09
766.131	50422.64
766.467	50360.27
766.804	50180.16
767.14	50095.87
767.476	49931.58
767.812	49891.58
768.148	49863.34
768.485	49723
768.821	49386.96
769.157	49364.59
769.492	49394.2
769.828	49241.88
770.164	48847.54
770.5	48744.95
770.836	48883.25
771.171	48647.55
771.507	48539.3
771.842	48324.39
772.178	48401.68
772.513	48153.32
772.849	47987.9
773.184	47938.87
773.519	47912.2
773.855	47574.36
774.19	47613
774.525	47362.38
774.86	47290.3
775.195	47151.09
775.53	47021.38
775.865	46870.87
776.2	46543.65
776.535	46414.84
776.87	46240.38
777.205	46208.52
777.539	45999.71
777.874	46051.01
778.209	45670.45
778.543	45754.52
778.878	45512.49
779.212	45342.78
779.547	45058.72
779.881	45198.83
780.215	44799.97
780.55	44906.86
780.884	44512.52
781.218	44481.56
781.552	44523.14
781.886	44091.28
782.22	43908.69
782.554	43781.46
782.888	43457.18
783.222	43436.16
783.556	43327.69
783.889	43178.99
784.223	42787.14
784.557	42885.44
784.89	42925.21
785.224	42656.97
785.557	42465.11
785.891	42267.15
786.224	42223.31
786.558	42172.46
786.891	41906.48
787.224	41662.2
787.557	41549.66
787.891	41497.68
788.224	41342.88
788.557	41167.97
788.89	41263.11
789.223	40997.35
789.556	40839.84
789.888	40604.6
790.221	40488.44
790.554	40320.08
790.887	40363.25
791.219	40153.76
791.552	40026.08
791.884	39806.65
792.217	39740.21
792.549	39594.91
792.882	39333.67
793.214	39293.9
793.546	39137.74
793.879	38961.48
794.211	38804.87
794.543	39036.5
794.875	38744.31
795.207	38685.32
795.539	38499.11
795.871	38510.87
796.203	38232.23
796.535	37961.73
796.867	37944.78
797.198	37797.44
797.53	37808.74
797.862	37547.95
798.193	37528.52
798.525	37352.03
798.856	37554.96
799.188	36928.08
799.519	36933.73
799.85	36846.05
800.182	36698.94
800.513	36859.38
800.844	36384.82
801.175	36665.49
801.506	36389.57
801.837	36305.95
802.168	36267.31
802.499	36236.12
802.83	35990.93
803.161	35865.06
803.491	35893.08
803.822	35835
804.153	35597.04
804.483	35378.97
804.814	35351.18
805.145	35287.22
805.475	35137.17
805.805	35141.46
806.136	34963.39
806.466	34902.83
806.796	34970.17
807.126	34659.67
807.457	34571.76
807.787	34582.38
808.117	34431.43
808.447	34291.99
808.777	34394.82
809.107	34001.61
809.436	33989.18
809.766	34084.77
810.096	34169.06
810.426	33706.25
810.755	33863.98
811.085	33657.89
811.414	33708.96
811.744	33456.54
812.073	33381.06
812.403	33277.11
812.732	33078.01
813.061	33303.55
813.39	32976.55
813.719	33001.86
814.049	33088.41
814.378	32959.6
814.707	32727.06
815.036	32794.18
815.365	32576.78
815.693	32416.34
816.022	32463.34
816.351	32263.12
816.68	32207.98
817.008	32188.09
817.337	31960.08
817.665	31938.16
817.994	31981.77
818.322	31964.37
818.651	31903.36
818.979	31699.29
819.307	31866.52
819.636	31797.37
819.964	31653.19
820.292	31818.61
820.62	31546.3
820.948	31647.32
821.276	31640.31
821.604	31434.44
821.932	31726.64
822.259	31558.51
822.587	31486.64
822.915	31499.52
823.243	31523.71
823.57	31344.27
823.898	31544.04
824.225	31412.97
824.553	31293.43
824.88	31354.22
825.207	31528.9
825.535	31309.25
825.862	31467.21
826.189	31365.97
826.516	31505.4
826.843	31494.1
827.17	31568
827.497	31483.93
827.824	31468.79
828.151	31614.1
828.478	31338.63
828.805	31500.88
829.131	31386.99
829.458	31432.86
829.785	31309.25
830.111	31313.32
830.438	31533.2
830.764	31365.52
831.09	31466.53
831.417	31313.99
831.743	31473.76
832.069	31282.81
832.395	31239.64
832.722	31331.62
833.048	31149.03
833.374	31171.4
833.7	31135.92
834.026	31208.91
834.351	31007.11
834.677	31169.14
835.003	31258.4
835.329	31031.51
835.654	31048.92
835.98	30854.34
836.306	31046.2
836.631	30800.33
836.956	31085.3
837.282	31120.55
837.607	30922.14
837.932	30856.83
838.258	30826.32
838.583	30706.55
838.908	30652.54
839.233	30798.53
839.558	30574.35
839.883	30572.54
840.208	30394.24
840.533	30449.83
840.858	30434.92
841.182	30306.34
841.507	30451.42
841.832	30231.31
842.156	30293.23
842.481	30100.47
842.805	30025.44
843.13	29947.7
843.454	29888.72
843.778	29914.26
844.103	29744.32
844.427	29773.92
844.751	29648.73
845.075	29658.22
845.399	29657.09
845.723	29468.17
846.047	29511.55
846.371	29142.98
846.695	29213.94
847.019	29002.64
847.343	28888.97
847.666	28802.65
847.99	28607.85
848.313	28623.67
848.637	28504.8
848.96	28452.83
849.284	28403.34
849.607	28161.76
849.931	28092.16
850.254	28004.02
850.577	27793.86
850.9	27692.85
851.223	27643.13
851.546	27545.5
851.869	27340.54
852.192	27554.77
852.515	27177.38
852.838	27059.42
853.161	27072.07
853.483	26913.43
853.806	26813.09
854.129	26779.87
854.451	26700.33
854.774	26538.07
855.096	26379.66
855.419	26393.9
855.741	26250.17
856.063	26204.52
856.385	26106.22
856.708	26063.06
857.03	26021.93
857.352	25904.64
857.674	25842.5
857.996	25800.24
858.318	25657.42
858.64	25737.87
858.961	25570.19
859.283	25431.44
859.605	25266.02
859.926	25400.48
860.248	25240.48
860.57	25180.82
860.891	25160.03
861.212	24945.12
861.534	24926.14
861.855	24915.29
862.176	24969.53
862.498	24975.18
862.819	24804.79
863.14	24640.04
863.461	24654.96
863.782	24622.64
864.103	24741.96
864.424	24482.08
864.745	24428.3
865.065	24417.23
865.386	24220.85
865.707	24296.55
866.027	24244.8
866.348	24265.59
866.668	24193.73
866.989	24148.76
867.309	24065.6
867.63	23994.19
867.95	24100.17
868.27	23930.01
868.59	23918.26
868.91	23894.3
869.23	23951.93
869.55	23804.36
869.87	23878.48
870.19	23658.6
870.51	23720.29
870.83	23664.93
871.15	23480.3
871.469	23494.31
871.789	23651.37
872.109	23568.43
872.428	23491.83
872.748	23540.41
873.067	23443.24
873.386	23297.03
873.706	23294.99
874.025	23260.19
874.344	23063.14
874.663	23223.58
874.982	23172.51
875.301	23050.71
875.62	22997.38
875.939	23001.67
876.258	23130.93
876.577	23052.52
876.896	22874.89
877.214	22853.2
877.533	22808
877.852	22829.02
878.17	22770.26
878.489	22826.08
878.807	22702.69
879.125	22605.07
879.444	22617.5
879.762	22609.82
880.08	22667.44
880.398	22476.26
880.716	22457.73
881.034	22374.12
881.352	22450.72
881.67	22321.69
881.988	22276.49
882.306	22226.55
882.624	22216.15
882.941	22032.88
883.259	22066.1
883.577	21980.91
883.894	21789.95
884.212	21876.73
884.529	21876.05
884.846	21808.03
885.164	21751.08
885.481	21686.22
885.798	21650.74
886.115	21580.24
886.432	21492.56
886.75	21552.67
887.067	21459.79
887.383	21432.9
887.7	21410.3
888.017	21227.03
888.334	21320.81
888.651	21236.97
888.967	21211.21
889.284	21120.81
889.6	20991.78
889.917	20869.52
890.233	20942.74
890.55	20780.71
890.866	20836.3
891.182	20795.4
891.498	20725.8
891.815	20636.76
892.131	20500.72
892.447	20495.75
892.763	20409.42
893.079	20385.01
893.395	20207.17
893.71	20196.09
894.026	20171.46
894.342	20229.09
894.657	20027.51
894.973	20135.08
895.289	20065.93
895.604	19851.92
895.92	19793.84
896.235	19616
896.55	19617.8
896.865	19637.92
897.181	19473.4
897.496	19573.28
897.811	19417.58
898.126	19308.43
898.441	19320.41
898.756	19252.62
899.071	19036.35
899.386	19101.88
899.7	19062.11
900.015	18946.41
900.33	18807.43
900.644	18769.24
900.959	18819.18
901.273	18669.13
901.588	18615.12
901.902	18562.46
902.216	18445.18
902.531	18419.64
902.845	18411.73
903.159	18262.36
903.473	18300.1
903.787	18192.53
904.101	18063.04
904.415	18067.56
904.729	17885.87
905.042	17905.53
905.356	17803.16
905.67	17719.77
905.984	17788.47
906.297	17706.44
906.611	17638.19
906.924	17430.06
907.237	17395.94
907.551	17362.27
907.864	17261.71
908.177	17258.77
908.491	17232.1
908.804	17120.47
909.117	17055.61
909.43	16894.71
909.743	16881.6
910.056	16793.02
910.368	16680.48
910.681	16742.17
910.994	16554.61
911.307	16525.46
911.619	16377.66
911.932	16510.99
912.244	16323.2
912.557	16332.47
912.869	16141.51
913.181	16039.37
913.494	16172.02
913.806	16044.34
914.118	15913.72
914.43	15882.76
914.742	15840.73
915.054	15678.92
915.366	15693.61
915.678	15564.58
915.99	15526.61
916.302	15428.54
916.613	15348.54
916.925	15382.21
917.236	15303.57
917.548	15203.46
917.859	15224.7
918.171	15126.85
918.482	15047.53
918.794	14946.29
919.105	14921.43
919.416	14719.18
919.727	14757.37
920.038	14679.85
920.349	14642.79
920.66	14520.31
920.971	14545.17
921.282	14456.58
921.593	14342.91
921.903	14240.32
922.214	14160.32
922.525	14103.6
922.835	14139.76
923.146	13992.64
923.456	14015.92
923.767	13910.38
924.077	13977.73
924.387	13811.18
924.697	13760.33
925.008	13667
925.318	13676.94
925.628	13591.97
925.938	13530.28
926.248	13354.47
926.558	13372.77
926.867	13354.47
927.177	13316.73
927.487	13206.22
927.796	13088.48
928.106	13135.49
928.416	13089.61
928.725	13030.41
929.034	12883.07
929.344	12983.85
929.653	12866.34
929.962	12750.87
930.271	12740.47
930.581	12662.05
930.89	12667.25
931.199	12490.53
931.508	12569.63
931.817	12472.68
932.125	12390.2
932.434	12394.49
932.743	12251.67
933.051	12168.06
933.36	12150.2
933.669	12101.39
933.977	12069.98
934.286	11987.72
934.594	11954.28
934.902	11890.32
935.21	11766.48
935.519	11763.55
935.827	11785.69
936.135	11615.98
936.443	11586.15
936.751	11536.21
937.059	11520.84
937.367	11507.51
937.674	11425.25
937.982	11432.48
938.29	11370.79
938.597	11326.5
938.905	11194.75
939.213	11216.22
939.52	11126.95
939.827	11202.21
940.135	10982.55
940.442	10969.44
940.749	10894.64
941.056	10948.2
941.363	10829.33
941.67	10750.69
941.977	10811.71
942.284	10660.52
942.591	10639.96
942.898	10620.75
943.205	10528.32
943.511	10524.48
943.818	10472.28
944.125	10347.76
944.431	10367.88
944.738	10301.89
945.044	10294.66
945.35	10200.65
945.657	10189.12
945.963	10157.49
946.269	10050.6
946.575	10078.62
946.881	10015.57
947.187	10001.33
947.493	9863.03
947.799	9829.36
948.105	9842.02
948.41	9727.89
948.716	9745.75
949.022	9634.34
949.327	9691.51
949.633	9512.76
949.938	9513.21
950.244	9595.47
950.549	9390.28
950.854	9351.86
951.16	9384.4
951.465	9367.45
951.77	9307.11
952.075	9152.32
952.38	9219.88
952.685	9180.11
952.99	9093.11
953.294	9063.5
953.599	9026.67
953.904	8997.29
954.209	8918.2
954.513	8936.28
954.818	8824.41
955.122	8766.34
955.426	8770.86
955.731	8708.71
956.035	8656.28
956.339	8691.09
956.643	8643.85
956.948	8549.62
957.252	8601.82
957.556	8563.4
957.86	8530.41
958.163	8438.89
958.467	8389.85
958.771	8325.44
959.075	8324.54
959.378	8263.75
959.682	8308.5
959.985	8232.11
960.289	8222.85
960.592	8134.94
960.896	8040.25
961.199	8096.07
961.502	7953.93
961.805	7947.83
962.108	7899.92
962.411	7936.08
962.714	7828.73
963.017	7862.63
963.32	7913.7
963.623	7805.01
963.926	7749.64
964.228	7709.19
964.531	7673.71
964.833	7637.55
965.136	7586.26
965.438	7528.18
965.741	7534.28
966.043	7477.33
966.345	7466.71
966.648	7464.9
966.95	7428.75
967.252	7359.37
967.554	7335.19
967.856	7262.87
968.158	7241.18
968.46	7264.23
968.761	7207.96
969.063	7166.61
969.365	7104.23
969.666	7098.36
969.968	7065.82
970.269	6986.72
970.571	7051.58
970.872	7005.71
971.174	6913.05
971.475	6910.11
971.776	6853.62
972.077	6854.07
972.378	6793.28
972.679	6786.73
972.98	6764.13
973.281	6724.13
973.582	6734.98
973.883	6631.03
974.183	6646.17
974.484	6615.43
974.785	6523.46
975.085	6513.29
975.386	6575.89
975.686	6485.72
975.986	6421.99
976.287	6399.62
976.587	6358.72
976.887	6327.98
977.187	6311.03
977.487	6273.3
977.787	6266.97
978.087	6214.99
978.387	6202.56
978.687	6214.77
978.987	6122.57
979.286	6105.16
979.586	6064.04
979.885	6058.61
980.185	6029.91
980.484	5990.59
980.784	5986.98
981.083	5931.84
981.382	5965.51
981.682	5878.28
981.981	5860.43
982.28	5869.46
982.579	5800.09
982.878	5860.2
983.177	5725.06
983.475	5747.21
983.774	5698.85
984.073	5676.7
984.372	5635.57
984.67	5611.84
984.969	5612.3
985.267	5612.3
985.566	5549.47
985.864	5525.52
986.162	5511.06
986.461	5459.98
986.759	5433.77
987.057	5395.8
987.355	5361
987.653	5375.69
987.951	5324.39
988.249	5283.27
988.547	5314.68
988.844	5299.08
989.142	5222.48
989.44	5129.14
989.737	5197.39
990.035	5139.77
990.332	5099.54
990.63	5061.12
990.927	5054.8
991.224	5083.95
991.521	5031.97
991.819	5006.66
992.116	4970.73
992.413	4929.15
992.71	4884.86
993.006	4881.69
993.303	4836.05
993.6	4835.14
993.897	4859.55
994.193	4801.47
994.49	4774.58
994.787	4732.09
995.083	4733
995.379	4709.49
995.676	4698.42
995.972	4688.93
996.268	4605.09
996.565	4619.1
996.861	4558.76
997.157	4529.39
997.453	4505.21
997.749	4470.63
998.044	4467.92
998.34	4398.32
998.636	4390.18
998.932	4380.24
999.227	4338.21
999.523	4342.05
999.818	4329.39
1000.114	4311.31
1000.409	4243.97
1000.704	4217.53
1001	4250.3
1001.295	4156.29
1001.59	4217.08
1001.885	4149.51
1002.18	4119
1002.475	4078.78
1002.77	4094.82
1003.065	4059.79
1003.359	4043.3
1003.654	3997.88
1003.949	3964.66
1004.243	3982.73
1004.538	3934.37
1004.832	3932.34
1005.127	3907.26
1005.421	3888.73
1005.715	3827.26
1006.009	3824.77
1006.304	3822.96
1006.598	3761.05
1006.892	3707.94
1007.186	3706.36
1007.48	3702.06
1007.773	3683.08
1008.067	3663.65
1008.361	3675.4
1008.655	3608.28
1008.948	3594.95
1009.242	3548.85
1009.535	3571.9
1009.829	3532.35
1010.122	3518.79
1010.415	3450.09
1010.708	3444.44
1011.001	3424.78
1011.295	3394.05
1011.588	3368.06
1011.881	3346.37
1012.173	3344.33
1012.466	3312.24
1012.759	3291.45
1013.052	3254.84
1013.344	3259.36
1013.637	3264.11
1013.93	3208.74
1014.222	3217.56
1014.514	3179.82
1014.807	3174.62
1015.099	3108.86
1015.391	3160.16
1015.683	3138.46
1015.976	3067.73
1016.268	3048.3
1016.56	3044.23
1016.851	3006.71
1017.143	3006.71
1017.435	2964
1017.727	2936.43
1018.018	2936.43
1018.31	2881.97
1018.602	2867.28
1018.893	2853.5
1019.185	2817.34
1019.476	2832.48
1019.767	2776.44
1020.058	2789.32
1020.35	2783.22
1020.641	2733.73
1020.932	2749.55
1021.223	2680.85
1021.514	2674.52
1021.804	2670.9
1022.095	2636.78
1022.386	2641.3
1022.677	2582.32
1022.967	2600.85
1023.258	2578.48
1023.548	2573.05
1023.839	2544.81
1024.129	2500.51
1024.419	2486.5
1024.709	2467.52
1025	2449.22
1025.29	2446.73
1025.58	2403.57
1025.87	2423
1026.16	2363.12
1026.449	2343.91
1026.739	2319.05
1027.029	2342.78
1027.319	2325.83
1027.608	2281.76
1027.898	2296
1028.187	2253.97
1028.477	2272.72
1028.766	2221.65
1029.055	2211.03
1029.344	2200.41
1029.634	2178.04
1029.923	2165.15
1030.212	2163.57
1030.501	2102.78
1030.79	2138.49
1031.078	2117.92
1031.367	2050.81
1031.656	2114.31
1031.945	2068.43
1032.233	2038.83
1032.522	2051.03
1032.81	2027.08
1033.099	2009
1033.387	2005.39
1033.675	1972.84
1033.963	1928.33
1034.251	1940.53
1034.54	1941.21
1034.828	1918.61
1035.116	1851.49
1035.403	1884.71
1035.691	1842.68
1035.979	1862.79
1036.267	1846.07
1036.554	1805.39
1036.842	1833.41
1037.129	1794.77
1037.417	1770.82
1037.704	1789.35
1037.992	1733.53
1038.279	1733.53
1038.566	1714.55
1038.853	1714.55
1039.14	1714.55
