Data from 16-1255_FLMS001491_002.txt Node
Date: Thu Apr 19 16:16:50 BST 2018
User: hsy
Spectrometer: FLMS00149
Trigger mode: 0
Integration Time (sec): 1.000000E-2
Scans to average: 10
Electric dark correction enabled: true
Nonlinearity correction enabled: false
Boxcar width: 0
XAxis mode: Wavelengths
Number of Pixels in Spectrum: 2048
>>>>>Begin Spectral Data<<<<<
341.393	-4.68
341.776	-4.68
342.16	-4.68
342.543	-77.22
342.927	-60.94
343.31	-70.44
343.693	-89.87
344.077	-72.24
344.46	-64.56
344.843	-46.48
345.226	-27.73
345.61	-41.74
345.993	-16.65
346.376	-14.39
346.759	23.57
347.142	40.3
347.525	36.23
347.908	53.18
348.291	70.13
348.674	103.34
349.057	117.36
349.44	120.97
349.823	160.52
350.206	184.92
350.588	235.77
350.971	261.08
351.354	248.43
351.737	282.78
352.119	294.3
352.502	293.4
352.884	308.76
353.267	328.65
353.65	331.14
354.032	340.63
354.414	372.94
354.797	344.69
355.179	370
355.562	363
355.944	355.77
356.326	390.34
356.709	347.63
357.091	386.28
357.473	380.17
357.855	403.45
358.238	400.29
358.62	384.47
359.002	381.08
359.384	377.24
359.766	381.3
360.148	392.38
360.53	380.85
360.912	398.93
361.294	377.24
361.676	376.11
362.057	385.37
362.439	400.29
362.821	369.33
363.203	385.6
363.584	391.02
363.966	378.37
364.348	370.91
364.729	385.15
365.111	373.39
365.493	365.48
365.874	378.14
366.256	364.58
366.637	362.09
367.019	362.77
367.4	375.43
367.781	358.48
368.163	376.11
368.544	361.19
368.925	384.24
369.306	379.27
369.688	379.04
370.069	392.6
370.45	380.17
370.831	373.85
371.212	372.49
371.593	365.48
371.974	377.69
372.355	390.12
372.736	390.34
373.117	415.43
373.498	380.17
373.879	401.87
374.26	393.96
374.641	358.25
375.021	374.98
375.402	400.51
375.783	392.38
376.163	399.61
376.544	412.49
376.925	405.26
377.305	403.68
377.686	381.08
378.066	395.77
378.447	419.72
378.827	418.14
379.208	411.13
379.588	414.75
379.968	403.45
380.349	426.95
380.729	408.65
381.109	428.08
381.489	433.73
381.87	411.81
382.25	436.44
382.63	421.08
383.01	438.7
383.39	444.58
383.77	434.18
384.15	426.95
384.53	445.48
384.91	409.78
385.29	422.43
385.67	448.87
386.049	452.71
386.429	444.35
386.809	444.13
387.189	467.85
387.568	475.99
387.948	466.95
388.328	473.96
388.707	470.11
389.087	462.66
389.466	478.93
389.846	467.4
390.225	473.28
390.605	494.29
390.984	475.99
391.363	465.82
391.743	499.94
392.122	498.59
392.501	501.3
392.881	504.01
393.26	512.6
393.639	508.08
394.018	515.99
394.397	515.76
394.776	517.8
395.155	511.92
395.534	530
395.913	519.83
396.292	544.01
396.671	527.29
397.05	538.36
397.429	547.17
397.808	538.36
398.186	546.95
398.565	540.85
398.944	536.55
399.323	545.59
399.701	547.63
400.08	542.66
400.458	559.15
400.837	566.61
401.215	555.99
401.594	570.45
401.972	582.65
402.351	582.88
402.729	583.56
403.107	576.55
403.486	582.2
403.864	593.28
404.242	589.66
404.62	606.16
404.999	596.21
405.377	611.13
405.755	580.39
406.133	624.01
406.511	608.42
406.889	643.67
407.267	642.31
407.645	645.93
408.023	642.77
408.401	682.76
408.779	671.24
409.156	645.03
409.534	657
409.912	687.96
410.29	690.45
410.667	685.48
411.045	669.43
411.422	718.02
411.8	711.24
412.178	724.8
412.555	715.53
412.933	727.28
413.31	722.54
413.687	738.81
414.065	758.02
414.442	762.31
414.819	750.79
415.197	773.84
415.574	766.83
415.951	780.62
416.328	790.11
416.705	787.17
417.082	788.75
417.46	806.83
417.837	819.94
418.214	800.95
418.591	812.03
418.967	816.77
419.344	838.01
419.721	854.74
420.098	848.41
420.475	849.09
420.852	816.55
421.228	876.66
421.605	866.04
421.982	868.52
422.358	878.69
422.735	873.27
423.111	878.47
423.488	875.53
423.864	884.12
424.241	909.43
424.617	913.94
424.994	914.85
425.37	927.05
425.746	915.3
426.123	932.25
426.499	941.97
426.875	964.79
427.251	980.84
427.627	986.26
428.003	986.94
428.379	1015.19
428.756	1005.47
429.132	1026.26
429.507	1041.63
429.883	1052.02
430.259	1054.05
430.635	1071
431.011	1049.08
431.387	1082.53
431.763	1090.66
432.138	1082.53
432.514	1122.08
432.89	1123.2
433.265	1156.2
433.641	1145.35
434.016	1159.36
434.392	1179.93
434.767	1215.86
435.143	1209.76
435.518	1215.63
435.894	1201.39
436.269	1245.24
436.644	1246.14
437.02	1246.37
437.395	1257.89
437.77	1273.03
438.145	1313.03
438.52	1270.77
438.895	1285.46
439.271	1319.13
439.646	1333.37
440.021	1344.44
440.395	1353.26
440.77	1317.78
441.145	1356.42
441.52	1373.59
441.895	1346.7
442.27	1386.25
442.645	1389.19
443.019	1433.71
443.394	1386.47
443.769	1398
444.143	1403.42
444.518	1429.41
444.892	1412.69
445.267	1410.88
445.641	1419.69
446.016	1472.8
446.39	1452.91
446.764	1493.14
447.139	1449.3
447.513	1480.94
447.887	1500.37
448.262	1511.22
448.636	1492.23
449.01	1551.44
449.384	1521.61
449.758	1530.88
450.132	1567.94
450.506	1559.8
450.88	1590.31
451.254	1596.19
451.628	1639.12
452.002	1617.88
452.376	1645.68
452.75	1661.95
453.123	1688.84
453.497	1695.17
453.871	1715.51
454.244	1720.25
454.618	1725.22
454.992	1778.33
455.365	1736.52
455.739	1788.05
456.112	1822.4
456.486	1830.53
456.859	1843.19
457.232	1888.83
457.606	1902.85
457.979	1924.77
458.352	1944.65
458.725	1971.77
459.099	1974.03
459.472	1985.78
459.845	2029.62
460.218	2061.03
460.591	2079.79
460.964	2094.25
461.337	2108.49
461.71	2182.39
462.083	2185.55
462.456	2192.78
462.829	2205.89
463.201	2251.76
463.574	2252.67
463.947	2256.28
464.32	2308.94
464.692	2320.01
465.065	2295.15
465.438	2377.41
465.81	2380.57
466.183	2393
466.555	2457.63
466.928	2481.59
467.3	2471.87
467.672	2499.44
468.045	2576.27
468.417	2573.34
468.789	2583.96
469.161	2629.15
469.534	2667.12
469.906	2677.06
470.278	2715.48
470.65	2748.25
471.022	2793.67
471.394	2835.93
471.766	2866.66
472.138	2896.04
472.51	2959.31
472.882	2993.44
473.253	3004.29
473.625	3015.81
473.997	3139.42
474.369	3112.98
474.74	3164.51
475.112	3218.29
475.484	3315.92
475.855	3283.37
476.227	3375.12
476.598	3447.44
476.97	3467.55
477.341	3520.43
477.713	3609.69
478.084	3655.57
478.455	3758.62
478.827	3744.38
479.198	3865.73
479.569	3841.55
479.94	3971.49
480.311	3989.34
480.682	4067.31
481.053	4192.73
481.424	4259.17
481.795	4297.81
482.166	4349.79
482.537	4430.91
482.908	4534.19
483.279	4576.45
483.65	4690.12
484.021	4790.91
484.391	4822.54
484.762	4900.28
485.133	4957.45
485.503	5107.51
485.874	5205.36
486.244	5274.06
486.615	5403.32
486.985	5486.48
487.356	5599.47
487.726	5602.41
488.097	5752.46
488.467	5789.97
488.837	5997.43
489.207	6054.37
489.578	6165.33
489.948	6249.4
490.318	6353.58
490.688	6442.84
491.058	6605.55
491.428	6720.57
491.798	6722.83
492.168	6939.55
492.538	7044.63
492.908	7119.88
493.278	7282.37
493.648	7350.16
494.017	7515.81
494.387	7584.28
494.757	7643.49
495.126	7778.4
495.496	7915.34
495.866	8062.01
496.235	8113.53
496.605	8232.85
496.974	8384.03
497.344	8429.68
497.713	8598.94
498.082	8707.86
498.452	8889.78
498.821	8937.24
499.19	9048.42
499.559	9163.67
499.928	9252.48
500.298	9442.99
500.667	9511.23
501.036	9558.92
501.405	9737.89
501.774	9813.6
502.143	10000.71
502.512	10014.72
502.88	10259.24
503.249	10268.28
503.618	10366.58
503.987	10540.81
504.356	10632.33
504.724	10802.72
505.093	10881.37
505.462	11005.66
505.83	11053.34
506.199	11246.55
506.567	11417.17
506.936	11429.6
507.304	11605.42
507.672	11777.39
508.041	11784.85
508.409	11932.41
508.777	12114.55
509.145	12208.56
509.514	12284.72
509.882	12391.16
510.25	12516.13
510.618	12606.07
510.986	12719.28
511.354	12823.69
511.722	13027.3
512.09	13155.43
512.458	13156.11
512.826	13313.62
513.193	13339.61
513.561	13528.3
513.929	13623.44
514.297	13723.55
514.664	13852.59
515.032	13961.51
515.4	14066.14
515.767	14141.17
516.135	14303.42
516.502	14211.45
516.869	14478.79
517.237	14616.86
517.604	14596.97
517.972	14865.22
518.339	14960.81
518.706	15013.01
519.073	15008.94
519.44	15242.38
519.808	15337.52
520.175	15464.07
520.542	15635.59
520.909	15798.3
521.276	15760.33
521.643	15932.08
522.009	16089.82
522.376	16215.01
522.743	16314.44
523.11	16509.47
523.477	16597.6
523.843	16754.66
524.21	16903.35
524.577	17059.28
524.943	17202.78
525.31	17311.93
525.676	17505.15
526.043	17649.78
526.409	17720.73
526.776	17903.55
527.142	18008.64
527.508	18164.11
527.874	18291.57
528.241	18390.55
528.607	18459.7
528.973	18789.86
529.339	18775.4
529.705	19041.83
530.071	19086.57
530.437	19230.3
530.803	19332.44
531.169	19500.35
531.535	19558.65
531.901	19672.77
532.267	19820.34
532.632	19921.58
532.998	20087.45
533.364	20145.08
533.73	20323.38
534.095	20480.44
534.461	20390.72
534.826	20536.71
535.192	20601.56
535.557	20768.34
535.923	20835.91
536.288	20915.23
536.653	21008.33
537.019	21026.64
537.384	21304.6
537.749	21289.91
538.114	21299.62
538.479	21293.75
538.845	21518.15
539.21	21491.71
539.575	21643.57
539.94	21678.14
540.305	21860.74
540.67	21837.69
541.034	21916.1
541.399	21950.45
541.764	22172.59
542.129	22234.74
542.494	22250.11
542.858	22379.14
543.223	22309.09
543.587	22457.11
543.952	22463.21
544.316	22513.83
544.681	22577.1
545.045	22705.01
545.41	22766.7
545.774	22750.66
546.138	22789.53
546.503	22910.2
546.867	22932.35
547.231	23083.31
547.595	23132.12
547.959	23178.67
548.324	23243.08
548.688	23291.44
549.052	23360.13
549.416	23283.3
549.779	23467.93
550.143	23499.11
550.507	23726.9
550.871	23726.9
551.235	23721.71
551.599	24028.82
551.962	23919.44
552.326	24083.96
552.689	24088.7
553.053	23924.41
553.417	24090.96
553.78	24322.59
554.143	24457.73
554.507	24471.97
554.87	24461.8
555.234	24681
555.597	24599.2
555.96	24823.82
556.323	24719.19
556.686	24918.51
557.05	25064.95
557.413	25096.81
557.776	25135
558.139	25407.54
558.502	25316.69
558.865	25340.42
559.228	25617.25
559.59	25675.33
559.953	25737.7
560.316	26000.06
560.679	26052.04
561.041	26197.8
561.404	26367.96
561.767	26391.92
562.129	26374.52
562.492	26668.75
562.854	26658.35
563.217	26638.01
563.579	26633.27
563.941	26915.07
564.304	27027.38
564.666	27361.84
565.028	27252.46
565.39	27366.81
565.753	27505.79
566.115	27518.44
566.477	27867.59
566.839	27925.44
567.201	28155.71
567.563	28072.33
567.925	28289.04
568.287	28410.17
568.648	28435.26
569.01	28709.37
569.372	28905.98
569.734	28963.83
570.095	29226.87
570.457	29293.09
570.819	29392.97
571.18	29493.08
571.542	29679.52
571.903	29633.64
572.265	29836.35
572.626	30071.14
572.987	30045.61
573.349	30287.18
573.71	30480.85
574.071	30702.31
574.432	30806.04
574.794	31055.75
575.155	31036.09
575.516	31169.42
575.877	31444.89
576.238	31476.76
576.599	31840.59
576.96	31764.21
577.32	31969.85
577.681	32071.77
578.042	32312.89
578.403	32360.12
578.763	32528.25
579.124	32692.54
579.485	33019.77
579.845	33184.06
580.206	33174.11
580.566	33415.92
580.927	33561
581.287	33854.32
581.648	33904.49
582.008	34237.36
582.368	34338.15
582.728	34477.81
583.089	34679.61
583.449	34851.58
583.809	35230.33
584.169	35479.82
584.529	35631.22
584.889	36087.48
585.249	35925.91
585.609	36100.14
585.969	36675.26
586.329	36685.43
586.688	37050.85
587.048	37215.82
587.408	37628.69
587.768	37843.14
588.127	38266.86
588.487	38462.11
588.846	39066.16
589.206	38876.79
589.565	39278.59
589.925	39665.24
590.284	40177.32
590.643	40421.83
591.003	40687.14
591.362	41189.5
591.721	41456.61
592.08	41784.51
592.44	42340.2
592.799	42461.55
593.158	42761.88
593.517	43144.02
593.876	43623.56
594.235	43788.07
594.593	44219.25
594.952	44555.74
595.311	44855.39
595.67	45358.43
596.029	45844.51
596.387	46033.21
596.746	46470.26
597.104	46475.01
597.463	46747.99
597.822	47317.02
598.18	47480.63
598.538	47737.8
598.897	48284.45
599.255	48255.3
599.613	48996.07
599.972	49090.31
600.33	49334.82
600.688	49598.99
601.046	50022.03
601.404	50397.62
601.762	50517.61
602.12	50883.93
602.478	51083.93
602.836	51347.65
603.194	51291.15
603.552	51659.05
603.91	51766.17
604.268	52138.81
604.625	52305.14
604.983	52705.58
605.341	52621.29
605.698	52990.54
606.056	53371.77
606.413	53344.2
606.771	53651.32
607.128	53763.63
607.485	53890.18
607.843	54068.71
608.2	54380.79
608.557	54547.79
608.914	54609.93
609.272	54865.29
609.629	55025.29
609.986	55322.01
610.343	55342.12
610.7	55614.2
611.057	55615.78
611.414	55684.71
611.771	55977.36
612.127	56070.69
612.484	56220.29
612.841	56371.7
613.198	56429.55
613.554	56559.71
613.911	56743.89
614.267	56889.2
614.624	56897.11
614.98	57052.58
615.337	57319.69
615.693	57273.37
616.05	57441.05
616.406	57500.93
616.762	57563.08
617.118	57646.92
617.475	57706.35
617.831	57902.95
618.187	57897.76
618.543	58090.75
618.899	58260.69
619.255	58246.67
619.611	58217.97
619.967	58418.2
620.323	58573.45
620.678	58407.35
621.034	58458.65
621.39	58544.97
621.746	58652.77
622.101	58935.92
622.457	58651.86
622.812	58899.76
623.168	58976.37
623.523	58929.82
623.879	59070.38
624.234	58976.15
624.589	59108.12
624.945	59158.97
625.3	59182.02
625.655	59223.37
626.01	59280.77
626.365	59337.49
626.72	59274.67
627.075	59265.4
627.43	59276.03
627.785	59422.01
628.14	59427.66
628.495	59411.84
628.85	59381.79
629.205	59368
629.559	59490.03
629.914	59432.63
630.269	59474.89
630.623	59407.1
630.978	59390.37
631.332	59519.86
631.687	59546.75
632.041	59497.49
632.396	59541.33
632.75	59475.57
633.104	59533.19
633.459	59353.09
633.813	59385.85
634.167	59418.62
634.521	59377.72
634.875	59437.6
635.229	59343.59
635.583	59259.98
635.937	59333.2
636.291	59255.24
636.645	59297.49
636.999	59197.16
637.352	59266.76
637.706	59158.52
638.06	59320.77
638.413	59167.1
638.767	59151.74
639.121	59189.7
639.474	59109.93
639.828	59086.43
640.181	59170.27
640.534	59115.58
640.888	59021.34
641.241	58984.06
641.594	59022.93
641.947	59092.53
642.301	58934.34
642.654	58999.88
643.007	58971.63
643.36	58962.36
643.713	58907.45
644.066	59016.6
644.419	58845.08
644.771	58607.8
645.124	58404.64
645.477	58368.48
645.83	58282.61
646.182	58283.96
646.535	58180.69
646.888	58250.74
647.24	58184.53
647.593	58318.31
647.945	58187.47
648.298	58125.77
648.65	58000.35
649.002	57847.59
649.355	57872.9
649.707	57843.75
650.059	57873.35
650.411	58173
650.763	58282.61
651.115	58567.57
651.467	58447.57
651.819	58453.45
652.171	58401.02
652.523	58331.64
652.875	58340.23
653.227	58270.4
653.578	58454.8
653.93	58292.32
654.282	58243.28
654.633	58211.65
654.985	58274.7
655.337	58277.18
655.688	58178.88
656.039	58309.05
656.391	58099.11
656.742	58139.56
657.094	58133.01
657.445	58168.71
657.796	58129.16
658.147	58080.8
658.498	58126.45
658.849	58139.11
659.2	58084.19
659.551	57952.9
659.902	58146.56
660.253	57974.82
660.604	58112.67
660.955	57978.66
661.306	58051.2
661.656	57954.7
662.007	57989.05
662.358	57992.22
662.708	58044.19
663.059	57980.02
663.409	57905.21
663.76	57977.76
664.11	57988.15
664.461	57999.9
664.811	58001.03
665.161	57926.23
665.511	57885.55
665.862	57921.03
666.212	58001.48
666.562	58033.8
666.912	57920.13
667.262	57841.71
667.612	57817.99
667.962	57879.23
668.312	57816.63
668.662	57916.97
669.011	57878.77
669.361	57837.87
669.711	57895.95
670.06	57831.09
670.41	57793.35
670.76	57826.35
671.109	57833.35
671.459	57749.51
671.808	57754.94
672.157	57805.78
672.507	57642.17
672.856	57654.15
673.205	57687.59
673.554	57667.71
673.904	57609.18
674.253	57821.83
674.602	57625.22
674.951	57373.7
675.3	57234.95
675.649	57709.97
675.998	57644.88
676.346	57702.51
676.695	57615.28
677.044	57409.63
677.393	57502.51
677.741	57669.29
678.09	57522.4
678.438	57452.12
678.787	57608.5
679.135	57500.93
679.484	57332.8
679.832	57460.25
680.181	57369.64
680.529	57393.36
680.877	57295.97
681.225	57351.11
681.573	57545.9
681.922	57320.6
682.27	57265.01
682.618	57259.58
682.966	57225.01
683.314	57254.38
683.661	57192.24
684.009	57121.96
684.357	57067.72
684.705	57081.73
685.053	57066.82
685.4	56977.33
685.748	57001.74
686.095	56972.36
686.443	56751.8
686.79	56764.45
687.138	56885.81
687.485	56804
687.832	56764.45
688.18	56700.95
688.527	56646.04
688.874	56611.01
689.221	56673.61
689.568	56551.58
689.915	56456.67
690.262	56511.81
690.609	56416.89
690.956	56290.79
691.303	56374.18
691.65	56235.43
691.997	56227.74
692.344	56119.05
692.69	56121.98
693.037	56034.3
693.383	55826.4
693.73	55897.36
694.077	55809.22
694.423	55820.98
694.769	55686.52
695.116	55699.17
695.462	55543.02
695.808	55472.06
696.155	55470.93
696.501	55320.42
696.847	55337.6
697.193	55117.72
697.539	55252.18
697.885	55027.32
698.231	54911.62
698.577	54928.8
698.923	54787.56
699.269	54679.54
699.614	54730.61
699.96	54580.1
700.306	54591.18
700.651	54431.18
700.997	54421.92
701.342	54296.04
701.688	54232.32
702.033	54137.86
702.379	54101.47
702.724	54045.43
703.069	54077.29
703.415	53725.44
703.76	53651.09
704.105	53750.3
704.45	53638.21
704.795	53531.54
705.14	53402.96
705.485	53508.49
705.83	53272.34
706.175	53380.14
706.52	53168.16
706.865	53145.11
707.209	53032.12
707.554	53035.96
707.899	53009.07
708.243	52807.5
708.588	52821.28
708.932	52629.65
709.277	52699.25
709.621	52554.39
709.966	52356.89
710.31	52434.17
710.654	52164.12
710.998	52332.71
711.342	52275.98
711.687	52097.01
712.031	52116.67
712.375	51865.15
712.719	51831.25
713.063	51760.97
713.407	51915.77
713.75	51693.4
714.094	51734.3
714.438	51614.76
714.782	51549.9
715.125	51332.28
715.469	51561.65
715.812	51187.88
716.156	51220.87
716.499	51196.69
716.843	51209.35
717.186	51062.91
717.53	51176.8
717.873	51165.5
718.216	50978.39
718.559	50834.21
718.902	50564.62
719.246	50768.23
719.589	50563.26
719.932	50483.26
720.275	50543.37
720.617	50549.25
720.96	50331.85
721.303	50455.24
721.646	50386.54
721.989	50198.07
722.331	50215.47
722.674	50128.24
723.016	50204.17
723.359	49984.29
723.701	50086.66
724.044	49914.92
724.386	49862.94
724.729	49998.98
725.071	49771.42
725.413	49789.04
725.755	49762.83
726.097	49622.27
726.439	49523.51
726.782	49467.24
727.124	49754.02
727.465	49532.33
727.807	49347.25
728.149	49487.58
728.491	49321.26
728.833	49366.46
729.175	49409.84
729.516	49168.95
729.858	49203.07
730.199	49184.99
730.541	49147.93
730.882	49067.48
731.224	49130.53
731.565	49014.38
731.906	49000.14
732.248	49071.77
732.589	48678.79
732.93	48723.99
733.271	48734.38
733.612	48790.2
733.953	48744.33
734.294	48607.61
734.635	48578
734.976	48752.91
735.317	48427.95
735.658	48562.64
735.999	48390.66
736.339	48399.02
736.68	48483.32
737.021	48360.83
737.361	48263.43
737.702	48516.99
738.042	48352.92
738.383	48337.78
738.723	48363.77
739.063	48211.01
739.404	48439.47
739.744	48223.89
740.084	48053.72
740.424	48307.95
740.764	48069.99
741.104	48374.62
741.444	47979.83
741.784	47991.35
742.124	48104.79
742.464	47968.07
742.804	47914.97
743.143	47752.04
743.483	47891.47
743.823	47901.18
744.162	47721.08
744.502	47911.58
744.841	47621.87
745.181	47844.01
745.52	47670
745.86	47737.8
746.199	47633.17
746.538	47576.67
746.877	47755.65
747.216	47618.93
747.556	47623.68
747.895	47615.99
748.234	47482.89
748.573	47477.69
748.911	47479.95
749.25	47429.78
749.589	47296
749.928	47456.9
750.267	47587.07
750.605	47340.07
750.944	47225.72
751.283	47176.91
751.621	47347.3
751.96	47075.22
752.298	47159.51
752.636	47226.85
752.975	46999.74
753.313	46851.04
753.651	47171.03
753.989	46870.93
754.327	46832.06
754.666	46762.91
755.004	46797.03
755.342	46810.59
755.679	46713.87
756.017	46486.08
756.355	46726.98
756.693	46512.97
757.031	46637.04
757.368	46428.23
757.706	46582.8
758.044	46274.33
758.381	46389.13
758.719	46223.26
759.056	46354.56
759.394	46120.44
759.731	45786.66
760.068	45865.31
760.405	45763.84
760.743	45529.04
761.08	45642.03
761.417	45522.94
761.754	45463.73
762.091	45304.19
762.428	45082.5
762.765	45051.32
763.102	45033.24
763.438	45030.3
763.775	44796.63
764.112	44743.07
764.449	44627.15
764.785	44550.76
765.122	44387.83
765.458	44202.52
765.795	44199.36
766.131	44197.55
766.467	44107.61
766.804	43667.85
767.14	43603.9
767.476	43553.5
767.812	43354.86
768.148	43461.53
768.485	43301.53
768.821	42994.65
769.157	42843.01
769.492	42871.03
769.828	42807.31
770.164	42514.43
770.5	42460.2
770.836	42311.5
771.171	42083.71
771.507	41992.64
771.842	41860.21
772.178	41850.72
772.513	41470.62
772.849	41430.62
773.184	41390.85
773.519	41277.18
773.855	40849.62
774.19	41039.9
774.525	40867.47
774.86	40798.09
775.195	40688.04
775.53	40417.09
775.865	40307.49
776.2	40157.66
776.535	39974.39
776.87	39883.54
777.205	39714.96
777.539	39587.28
777.874	39555.19
778.209	39209.44
778.543	39124.92
778.878	39002.21
779.212	38965.6
779.547	38646.06
779.881	38633.18
780.215	38191.38
780.55	38424.6
780.884	38169.46
781.218	38074.32
781.552	38025.06
781.886	37832.52
782.22	37607.67
782.554	37508.46
782.888	37218.3
783.222	37264.4
783.556	36874.36
783.889	36782.61
784.223	36573.57
784.557	36630.29
784.89	36698.09
785.224	36399.34
785.557	36258.78
785.891	36148.72
786.224	36021.04
786.558	36028.28
786.891	35768.85
787.224	35475.07
787.557	35462.64
787.891	35485.24
788.224	35177.9
788.557	35141.75
788.89	35110.11
789.223	35075.53
789.556	34825.6
789.888	34684.81
790.221	34447.07
790.554	34354.2
790.887	34330.47
791.219	34196.69
791.552	34057.25
791.884	33804.38
792.217	33797.6
792.549	33683.48
792.882	33557.61
793.214	33329.14
793.546	33323.49
793.879	33290.95
794.211	33032.2
794.543	33207.33
794.875	33010.5
795.207	32941.35
795.539	32837.85
795.871	32892.77
796.203	32543.85
796.535	32426.56
796.867	32465.43
797.198	32119
797.53	32144.08
797.862	31915.16
798.193	32015.05
798.525	31778.67
798.856	31857.76
799.188	31378.23
799.519	31409.87
799.85	31243.54
800.182	31348.4
800.513	31255.07
800.844	30981.18
801.175	31171.23
801.506	31131.91
801.837	30914.96
802.168	30827.96
802.499	30740.51
802.83	30525.14
803.161	30462.32
803.491	30491.25
803.822	30555.65
804.153	30252.16
804.483	30150.69
804.814	29768.33
805.145	29993.63
805.475	30044.93
805.805	29866.18
806.136	29948.66
806.466	29683.81
806.796	29761.1
807.126	29469.58
807.457	29433.87
807.787	29382.57
808.117	29351.39
808.447	29188.46
808.777	29216.25
809.107	28913.43
809.436	28872.31
809.766	28910.5
810.096	28799.54
810.426	28696.27
810.755	28757.96
811.085	28665.76
811.414	28612.65
811.744	28367.91
812.073	28465.76
812.403	28252.44
812.732	27942.39
813.061	28241.81
813.39	28061.48
813.719	27913.91
814.049	28096.28
814.378	27994.36
814.707	27784.2
815.036	27934.93
815.365	27684.54
815.693	27494.49
816.022	27496.75
816.351	27365.68
816.68	27383.98
817.008	27327.94
817.337	27150.54
817.665	27043.65
817.994	27040.49
818.322	27165.01
818.651	27037.1
818.979	26878.01
819.307	26978.12
819.636	26826.48
819.964	26744.45
820.292	26888.63
820.62	26861.51
820.948	26840.49
821.276	26774.96
821.604	26722.31
821.932	26945.35
822.259	26751.01
822.587	26773.83
822.915	26724.79
823.243	26846.6
823.57	26652.7
823.898	26810.44
824.225	26690.67
824.553	26666.94
824.88	26689.99
825.207	26751.46
825.535	26579.71
825.862	26756.2
826.189	26668.97
826.516	26908.52
826.843	26822.42
827.17	26776.09
827.497	26750.55
827.824	26824
828.151	26813.6
828.478	26630.1
828.805	26892.02
829.131	26671.01
829.458	26741.51
829.785	26525.93
830.111	26597.79
830.438	26805.92
830.764	26683.66
831.09	26728.18
831.417	26612.25
831.743	26788.29
832.069	26596.21
832.395	26519.37
832.722	26671.91
833.048	26538.81
833.374	26734.06
833.7	26437.12
834.026	26504.46
834.351	26430.11
834.677	26451.58
835.003	26395.08
835.329	26517.34
835.654	26531.58
835.98	26300.62
836.306	26446.61
836.631	26370.68
836.956	26464.01
837.282	26424.23
837.607	26339.04
837.932	26261.53
838.258	26189.89
838.583	26173.17
838.908	26050.23
839.233	26191.92
839.558	25999.61
839.883	26051.59
840.208	25931.59
840.533	25923.91
840.858	25889.33
841.182	25913.06
841.507	25843.23
841.832	25662.67
842.156	25626.52
842.481	25639.62
842.805	25556.91
843.13	25526.18
843.454	25608.21
843.778	25415.9
844.103	25337.03
844.427	25351.04
844.751	25360.31
845.075	25232.85
845.399	25156.7
845.723	25086.87
846.047	25097.49
846.371	24900.43
846.695	24775.01
847.019	24641.23
847.343	24530.95
847.666	24577.73
847.99	24473.1
848.313	24263.39
848.637	24199.89
848.96	24186.33
849.284	24164.86
849.607	23999.67
849.931	23898.2
850.254	23758.09
850.577	23566.23
850.9	23536.63
851.223	23491.66
851.546	23461.15
851.869	23256.86
852.192	23447.82
852.515	23047.15
852.838	23012.8
853.161	23065.9
853.483	22855.51
853.806	22762.86
854.129	22696.2
854.451	22630.21
854.774	22472.93
855.096	22474.06
855.419	22317.68
855.741	22359.26
856.063	22189.09
856.385	22095.31
856.708	22156.32
857.03	21988.87
857.352	22022.99
857.674	22001.3
857.996	21874.75
858.318	21753.4
858.64	21910.68
858.961	21726.5
859.283	21633.4
859.605	21500.07
859.926	21497.36
860.248	21501.88
860.57	21380.3
860.891	21355.89
861.212	21276.8
861.534	21250.36
861.855	21128.33
862.176	21089.46
862.498	21126.52
862.819	21160.87
863.14	20867.09
863.461	20932.85
863.782	20912.06
864.103	20939.63
864.424	20834.33
864.745	20878.62
865.065	20749.58
865.386	20598.17
865.707	20729.24
866.027	20653.99
866.348	20551.17
866.668	20633.43
866.989	20493.54
867.309	20275.24
867.63	20457.39
867.95	20456.93
868.27	20281.57
868.59	20433.21
868.91	20256.04
869.23	20204.51
869.55	20106.21
869.87	20292.87
870.19	20128.35
870.51	20192.31
870.83	20047.23
871.15	20030.05
871.469	20103.95
871.789	20042.48
872.109	19974.91
872.428	19923.84
872.748	20030.5
873.067	19957.74
873.386	20014.91
873.706	19962.94
874.025	19783.51
874.344	19801.36
874.663	19683.39
874.982	19623.06
875.301	19679.1
875.62	19604.75
875.939	19541.03
876.258	19547.81
876.577	19512.1
876.896	19550.52
877.214	19373.8
877.533	19456.06
877.852	19356.62
878.17	19441.59
878.489	19377.87
878.807	19345.32
879.125	19317.98
879.444	19173.13
879.762	19219.68
880.08	19251.99
880.398	19031.21
880.716	19104.43
881.034	19124.77
881.352	19101.72
881.67	19100.81
881.988	19107.82
882.306	18952.11
882.624	18935.17
882.941	18876.18
883.259	18805.68
883.577	18766.58
883.894	18593.48
884.212	18662.63
884.529	18642.74
884.846	18593.03
885.164	18488.17
885.481	18466.48
885.798	18476.42
886.115	18273.71
886.432	18310.1
886.75	18243.66
887.067	18308.74
887.383	18205.69
887.7	18241.4
888.017	18035.08
888.334	18184
888.651	17999.15
888.967	18069.43
889.284	17950.33
889.6	17903.1
889.917	17806.83
890.233	17839.6
890.55	17739.27
890.866	17735.42
891.182	17760.73
891.498	17628.53
891.815	17609.55
892.131	17425.6
892.447	17444.58
892.763	17388.54
893.079	17230.58
893.395	17317.13
893.71	17246.62
894.026	17234.19
894.342	17153.52
894.657	17038.27
894.973	17094.99
895.289	16980.87
895.604	16934.31
895.92	16843.47
896.235	16757.6
896.55	16787.65
896.865	16611.61
897.181	16666.3
897.496	16617.71
897.811	16537.04
898.126	16476.25
898.441	16383.37
898.756	16363.71
899.071	16286.87
899.386	16245.07
899.7	16073.77
900.015	16044.62
900.33	15976.15
900.644	15970.72
900.959	16025.86
901.273	15826.55
901.588	15815.7
901.902	15778.64
902.216	15744.29
902.531	15615.93
902.845	15567.34
903.159	15554.92
903.473	15450.29
903.787	15384.52
904.101	15396.73
904.415	15366.45
904.729	15237.64
905.042	15168.26
905.356	15182.27
905.67	15131.2
905.984	15088.94
906.297	14975.04
906.611	15002.39
906.924	14929.85
907.237	14787.03
907.551	14759.91
907.864	14739.8
908.177	14639.69
908.491	14646.92
908.804	14537.99
909.117	14434.04
909.43	14317.89
909.743	14315.85
910.056	14265.91
910.368	14220.04
910.681	14232.24
910.994	14067.05
911.307	14065.46
911.619	13941.85
911.932	14009.42
912.244	13746.38
912.557	13820.5
912.869	13763.55
913.181	13834.51
913.494	13778.69
913.806	13664.8
914.118	13555.87
914.43	13515.42
914.742	13383.9
915.054	13374.63
915.366	13376.89
915.678	13268.2
915.99	13242.21
916.302	13178.93
916.613	13036.34
916.925	13152.27
917.236	12961.31
917.548	12932.61
917.859	12863.46
918.171	12821.43
918.482	12784.59
918.794	12708.66
919.105	12729.68
919.416	12616.46
919.727	12543.92
920.038	12586.86
920.349	12489.91
920.66	12388.22
920.971	12343.47
921.282	12298.28
921.593	12249.47
921.903	12151.16
922.214	12216.47
922.525	12078.4
922.835	12021
923.146	11953.2
923.456	11893.09
923.767	11822.13
924.077	11806.99
924.387	11854
924.697	11732.64
925.008	11725.19
925.318	11667.79
925.628	11643.83
925.938	11576.72
926.248	11485.87
926.558	11383.05
926.867	11370.62
927.177	11275.71
927.487	11214.01
927.796	11228.48
928.106	11177.18
928.416	11183.96
928.725	11071.19
929.034	11000.91
929.344	11015.15
929.653	11005.43
929.962	10836.62
930.271	10891.08
930.581	10877.52
930.89	10755.72
931.199	10671.65
931.508	10664.2
931.817	10595.95
932.125	10621.71
932.434	10548.72
932.743	10470.98
933.051	10452.45
933.36	10377.65
933.669	10335.17
933.977	10209.52
934.286	10255.17
934.594	10175.4
934.902	10134.95
935.21	10080.48
935.519	10000.26
935.827	10033.71
936.135	9980.6
936.443	9936.31
936.751	9847.72
937.059	9773.15
937.367	9816.31
937.674	9860.6
937.982	9719.36
938.29	9654.96
938.597	9726.14
938.905	9477.56
939.213	9478.47
939.52	9459.03
939.827	9491.57
940.135	9467.17
940.442	9395.76
940.749	9351.92
941.056	9337.23
941.363	9256.55
941.67	9211.13
941.977	9196.89
942.284	9129.1
942.591	9085.48
942.898	9021.75
943.205	9125.48
943.511	9016.1
943.818	8908.31
944.125	8892.27
944.431	8801.42
944.738	8772.72
945.044	8738.82
945.35	8712.38
945.657	8647.07
945.963	8582.67
946.269	8621.76
946.575	8625.38
946.881	8483.46
947.187	8545.38
947.493	8485.72
947.799	8409.57
948.105	8349.23
948.41	8308.78
948.716	8296.12
949.022	8261.55
949.327	8322.56
949.633	8153.75
949.938	8120.08
950.244	8223.36
950.549	8047.77
950.854	8024.72
951.16	8027.88
951.465	7933.87
951.77	7925.51
952.075	7947.43
952.38	7844.38
952.685	7784.95
952.99	7704.05
953.294	7774.33
953.599	7701.34
953.904	7711.05
954.209	7607.55
954.513	7671.06
954.818	7576.37
955.122	7530.95
955.426	7527.56
955.731	7495.47
956.035	7431.06
956.339	7395.58
956.643	7393.77
956.948	7390.38
957.252	7290.95
957.556	7334.57
957.86	7299.54
958.163	7260.9
958.467	7183.38
958.771	7173.22
959.075	7162.37
959.378	7067
959.682	7078.08
959.985	6996.5
960.289	7005.08
960.592	6984.52
960.896	6935.93
961.199	6872.21
961.502	6867.23
961.805	6854.35
962.108	6766.22
962.411	6738.42
962.714	6709.5
963.017	6774.58
963.32	6692.32
963.623	6666.11
963.926	6652.78
964.228	6598.32
964.531	6549.95
964.833	6531.2
965.136	6473.8
965.438	6443.97
965.741	6392.67
966.043	6405.1
966.345	6476.96
966.648	6413.46
966.95	6346.57
967.252	6265.67
967.554	6331.66
967.856	6239.91
968.158	6194.48
968.46	6172.34
968.761	6216.63
969.063	6131.89
969.365	6091.44
969.666	6055.73
969.968	6079.91
970.269	6046.47
970.571	6015.96
970.872	6006.24
971.174	5954.26
971.475	5978.22
971.776	5887.15
972.077	5865.45
972.378	5840.6
972.679	5873.81
972.98	5754.04
973.281	5776.64
973.582	5714.95
973.883	5700.94
974.183	5699.36
974.484	5673.59
974.785	5604.22
975.085	5629.53
975.386	5629.53
975.686	5476.76
975.986	5500.04
976.287	5542.52
976.587	5456.65
976.887	5466.37
977.187	5419.14
977.487	5446.26
977.787	5384.79
978.087	5359.25
978.387	5327.61
978.687	5291.91
978.987	5322.64
979.286	5248.97
979.586	5272.02
979.885	5221.4
980.185	5164.91
980.484	5129.2
980.784	5142.53
981.083	5138.69
981.382	5091.46
981.682	5093.95
981.981	5036.1
982.28	5007.85
982.579	5008.07
982.878	4973.27
983.177	4926.72
983.475	4929.43
983.774	4909.77
984.073	4847.85
984.372	4819.6
984.67	4801.98
984.969	4808.76
985.267	4772.15
985.566	4762.43
985.864	4728.08
986.162	4717.23
986.461	4697.35
986.759	4679.72
987.057	4643.11
987.355	4596.33
987.653	4587.97
987.951	4564.24
988.249	4549.33
988.547	4563.57
988.844	4593.85
989.142	4478.14
989.44	4479.95
989.737	4474.3
990.035	4437.47
990.332	4394.31
990.63	4423.68
990.927	4365.61
991.224	4345.95
991.521	4339.62
991.819	4292.84
992.116	4289.9
992.413	4311.6
992.71	4225.72
993.006	4168.1
993.303	4197.47
993.6	4184.37
993.897	4198.6
994.193	4160.87
994.49	4140.75
994.787	4105.73
995.083	4074.09
995.379	4037.25
995.676	4037.25
995.972	4010.81
996.268	3972.17
996.565	3988.67
996.861	3930.59
997.157	3946.18
997.453	3884.26
997.749	3883.81
998.044	3873.87
998.34	3850.36
998.636	3796.58
998.932	3780.31
999.227	3799.07
999.523	3754.77
999.818	3728.11
1000.114	3690.6
1000.409	3665.74
1000.704	3708.9
1001	3635
1001.295	3666.64
1001.59	3611.28
1001.885	3579.64
1002.18	3583.48
1002.475	3555.23
1002.77	3533.54
1003.065	3519.3
1003.359	3500.32
1003.654	3496.25
1003.949	3459.41
1004.243	3474.1
1004.538	3363.15
1004.832	3394.33
1005.127	3379.42
1005.421	3334.67
1005.715	3344.84
1006.009	3346.65
1006.304	3298.74
1006.598	3251.51
1006.892	3232.98
1007.186	3236.37
1007.48	3194.56
1007.773	3203.15
1008.067	3179.65
1008.361	3167.22
1008.655	3133.1
1008.948	3117.28
1009.242	3097.39
1009.535	3088.35
1009.829	3079.09
1010.122	2998.64
1010.415	3008.58
1010.708	3015.58
1011.001	3017.17
1011.295	2978.52
1011.588	2974.68
1011.881	2918.86
1012.173	2901.92
1012.466	2891.52
1012.759	2861.69
1013.052	2869.83
1013.344	2812.43
1013.637	2828.92
1013.93	2808.13
1014.222	2783.27
1014.514	2769.94
1014.807	2720.23
1015.099	2720.45
1015.391	2724.97
1015.683	2712.54
1015.976	2682.03
1016.268	2674.12
1016.56	2650.62
1016.851	2615.82
1017.143	2622.15
1017.435	2607.01
1017.727	2595.03
1018.018	2554.81
1018.31	2553.9
1018.602	2558.42
1018.893	2517.97
1019.185	2501.93
1019.476	2492.66
1019.767	2509.38
1020.058	2438.2
1020.35	2397.97
1020.641	2411.53
1020.932	2381.7
1021.223	2362.27
1021.514	2353.46
1021.804	2319.78
1022.095	2306.45
1022.386	2322.72
1022.677	2253.8
1022.967	2260.35
1023.258	2254.25
1023.548	2207.47
1023.839	2225.32
1024.129	2212.44
1024.419	2208.83
1024.709	2170.64
1025	2153.69
1025.29	2122.73
1025.58	2117.53
1025.87	2084.76
1026.16	2089.51
1026.449	2063.29
1026.739	2082.5
1027.029	2038.66
1027.319	2022.62
1027.608	2023.07
1027.898	2012.9
1028.187	2022.62
1028.477	1969.06
1028.766	1976.52
1029.055	1937.19
1029.344	1934.48
1029.634	1902.17
1029.923	1885.9
1030.212	1924.31
1030.501	1880.47
1030.79	1869.4
1031.078	1859
1031.367	1827.82
1031.656	1819.01
1031.945	1831.21
1032.233	1803.64
1032.522	1788.27
1032.81	1778.1
1033.099	1736.07
1033.387	1762.96
1033.675	1753.7
1033.963	1729.06
1034.251	1711.66
1034.54	1665.56
1034.828	1715.96
1035.116	1659.91
1035.403	1652
1035.691	1664.89
1035.979	1662.63
1036.267	1618.33
1036.554	1637.32
1036.842	1623.53
1037.129	1597.99
1037.417	1551.89
1037.704	1575.4
1037.992	1548.73
1038.279	1556.41
1038.566	1544.66
1038.853	1544.66
1039.14	1544.66
