Data from 16-1255_FLMS001491_009.txt Node
Date: Thu Apr 19 16:17:12 BST 2018
User: hsy
Spectrometer: FLMS00149
Trigger mode: 0
Integration Time (sec): 1.000000E-2
Scans to average: 10
Electric dark correction enabled: true
Nonlinearity correction enabled: false
Boxcar width: 0
XAxis mode: Wavelengths
Number of Pixels in Spectrum: 2048
>>>>>Begin Spectral Data<<<<<
341.393	-28.56
341.776	-28.56
342.16	-28.56
342.543	-65.62
342.927	-80.99
343.31	-77.37
343.693	-69.69
344.077	-73.08
344.46	-55.45
344.843	-23.81
345.226	-50.7
345.61	-44.6
345.993	-21.1
346.376	3.08
346.759	-0.31
347.142	9.86
347.525	40.14
347.908	67.48
348.291	86.92
348.674	107.71
349.057	100.93
349.44	141.15
349.823	145.22
350.206	202.4
350.588	219.12
350.971	254.6
351.354	260.93
351.737	287.14
352.119	285.78
352.502	304.99
352.884	320.81
353.267	319.45
353.65	342.51
354.032	331.43
354.414	353.13
354.797	370.75
355.179	370.3
355.562	375.95
355.944	380.24
356.326	396.51
356.709	391.32
357.091	396.74
357.473	377.98
357.855	379.79
358.238	397.87
358.62	389.51
359.002	409.4
359.384	389.74
359.766	388.15
360.148	415.27
360.53	394.71
360.912	375.95
361.294	405.78
361.676	390.87
362.057	373.92
362.439	374.14
362.821	374.14
363.203	384.54
363.584	392
363.966	374.14
364.348	366.23
364.729	392.45
365.111	394.71
365.493	384.09
365.874	371.66
366.256	385.44
366.637	375.5
367.019	380.02
367.4	398.55
367.781	377.98
368.163	364.43
368.544	364.43
368.925	389.74
369.306	382.5
369.688	397.42
370.069	386.8
370.45	367.82
370.831	353.58
371.212	368.95
371.593	379.57
371.974	378.66
372.355	391.09
372.736	384.09
373.117	382.05
373.498	375.5
373.879	380.02
374.26	389.28
374.641	370.98
375.021	359.45
375.402	392.67
375.783	403.29
376.163	412.56
376.544	422.95
376.925	427.02
377.305	410.07
377.686	405.55
378.066	408.27
378.447	419.34
378.827	419.79
379.208	431.32
379.588	426.57
379.968	408.27
380.349	427.02
380.729	430.41
381.109	447.14
381.489	409.85
381.87	436.97
382.25	425.89
382.63	445.33
383.01	433.58
383.39	434.25
383.77	451.43
384.15	452.33
384.53	436.06
384.91	450.3
385.29	472.22
385.67	434.25
386.049	460.92
386.429	444.2
386.809	456.4
387.189	465.44
387.568	476.96
387.948	481.03
388.328	475.38
388.707	467.7
389.087	476.29
389.466	470.64
389.846	464.31
390.225	493.46
390.605	487.81
390.984	487.13
391.363	480.35
391.743	481.71
392.122	514.25
392.501	520.58
392.881	523.52
393.26	522.84
393.639	521.26
394.018	508.15
394.397	514.7
394.776	541.6
395.155	516.29
395.534	543.86
395.913	542.27
396.292	516.51
396.671	537.98
397.05	525.55
397.429	539.56
397.808	535.49
398.186	564.42
398.565	551.99
398.944	533.46
399.323	566.23
399.701	535.72
400.08	586.11
400.458	553.35
400.837	539.79
401.215	586.11
401.594	565.1
401.972	576.17
402.351	547.47
402.729	574.59
403.107	565.1
403.486	593.57
403.864	595.15
404.242	588.37
404.62	610.97
404.999	611.65
405.377	626.11
405.755	620.24
406.133	628.6
406.511	637.41
406.889	644.42
407.267	648.49
407.645	648.26
408.023	664.98
408.401	646.68
408.779	664.3
409.156	672.67
409.534	664.53
409.912	652.33
410.29	702.72
410.667	689.61
411.045	699.78
411.422	695.04
411.8	710.18
412.178	733.46
412.555	747.01
412.933	720.35
413.31	734.36
413.687	740.69
414.065	788.6
414.442	747.47
414.819	764.41
415.197	770.97
415.574	769.84
415.951	768.03
416.328	783.62
416.705	806
417.082	794.47
417.46	789.27
417.837	802.15
418.214	791.31
418.591	814.81
418.967	828.37
419.344	827.24
419.721	828.14
420.098	828.82
420.475	862.27
420.852	851.64
421.228	849.16
421.605	863.4
421.982	869.72
422.358	867.92
422.735	895.03
423.111	867.24
423.488	885.99
423.864	895.26
424.241	925.77
424.617	925.77
424.994	933.45
425.37	959.44
425.746	943.62
426.123	930.06
426.499	965.99
426.875	931.87
427.251	980.91
427.627	973.9
428.003	986.1
428.379	998.08
428.756	1019.55
429.132	1037.85
429.507	1024.3
429.883	1029.49
430.259	1052.77
430.635	1058.42
431.011	1064.52
431.387	1085.54
431.763	1130.51
432.138	1116.27
432.514	1124.86
432.89	1137.74
433.265	1150.17
433.641	1131.18
434.016	1174.57
434.392	1168.7
434.767	1184.97
435.143	1174.35
435.518	1207.57
435.894	1214.35
436.269	1219.09
436.644	1230.39
437.02	1267.45
437.395	1257.74
437.77	1290.95
438.145	1275.14
438.52	1292.76
438.895	1302.48
439.271	1321.91
439.646	1325.08
440.021	1313.78
440.395	1332.31
440.77	1344.29
441.145	1342.48
441.52	1343.83
441.895	1376.83
442.27	1386.09
442.645	1379.09
443.019	1379.54
443.394	1401.91
443.769	1410.27
444.143	1393.55
444.518	1415.7
444.892	1414.12
445.267	1423.61
445.641	1416.38
446.016	1439.65
446.39	1445.98
446.764	1468.8
447.139	1452.53
447.513	1481.01
447.887	1484.17
448.262	1463.15
448.636	1502.47
449.01	1521.68
449.384	1509.93
449.758	1570.5
450.132	1556.71
450.506	1582.7
450.88	1578.4
451.254	1571.17
451.628	1599.2
452.002	1614.56
452.376	1608.23
452.75	1636.48
453.123	1661.34
453.497	1677.61
453.871	1694.33
454.244	1746.76
454.618	1718.29
454.992	1759.19
455.365	1753.54
455.739	1803.71
456.112	1796.7
456.486	1832.64
456.859	1838.06
457.232	1920.09
457.606	1881.9
457.979	1921.67
458.352	1919.41
458.725	1970.26
459.099	1984.5
459.472	1994.21
459.845	2047.32
460.218	2038.96
460.591	2076.47
460.964	2065.85
461.337	2103.81
461.71	2131.84
462.083	2157.37
462.456	2192.17
462.829	2204.83
463.201	2190.14
463.574	2240.08
463.947	2277.14
464.32	2315.56
464.692	2295.67
465.065	2350.81
465.438	2352.62
465.81	2363.02
466.183	2389.23
466.555	2462.22
466.928	2455.44
467.3	2482.79
467.672	2487.99
468.045	2542.67
468.417	2534.54
468.789	2579.96
469.161	2593.07
469.534	2626.29
469.906	2665.16
470.278	2684.14
470.65	2710.8
471.022	2760.97
471.394	2797.13
471.766	2838.94
472.138	2879.61
472.51	2920.06
472.882	2932.04
473.253	2969.55
473.625	3017.01
473.997	3102.43
474.369	3087.52
474.74	3152.37
475.112	3188.08
475.484	3252.03
475.855	3330.22
476.227	3341.97
476.598	3360.28
476.97	3457.9
477.341	3488.64
477.713	3581.97
478.084	3571.8
478.455	3689.76
478.827	3708.07
479.198	3803.88
479.569	3857.21
479.94	3943.77
480.311	4021.96
480.682	4108.51
481.053	4199.8
481.424	4265.34
481.795	4263.76
482.166	4316.86
482.537	4384.21
482.908	4560.7
483.279	4589.17
483.65	4663.52
484.021	4784.42
484.391	4793.91
484.762	4854.93
485.133	4921.82
485.503	5058.77
485.874	5150.51
486.244	5188.71
486.615	5378.53
486.985	5421.92
487.356	5532.43
487.726	5579.88
488.097	5748.46
488.467	5821.23
488.837	5952.53
489.207	6077.04
489.578	6106.42
489.948	6239.3
490.318	6315.91
490.688	6381.89
491.058	6544.6
491.428	6616.69
491.798	6758.83
492.168	6928.77
492.538	6972.61
492.908	7134.64
493.278	7185.04
493.648	7244.24
494.017	7426.39
494.387	7519.27
494.757	7661.18
495.126	7777.34
495.496	7856.43
495.866	7959.93
496.235	8115.86
496.605	8283.31
496.974	8237.89
497.344	8427.49
497.713	8556.3
498.082	8598.56
498.452	8761.27
498.821	8918.1
499.19	8906.8
499.559	9131.88
499.928	9261.82
500.298	9350.4
500.667	9484.41
501.036	9523.73
501.405	9724.63
501.774	9662.26
502.143	9903.84
502.512	10019.09
502.88	10208.01
503.249	10208.91
503.618	10380.89
503.987	10497.04
504.356	10600.54
504.724	10762.12
505.093	10738.39
505.462	10936.58
505.83	11045.27
506.199	11176.8
506.567	11332.05
506.936	11426.51
507.304	11552.83
507.672	11714.18
508.041	11717.12
508.409	11882.54
508.777	12000.28
509.145	12195.75
509.514	12236.66
509.882	12334.05
510.25	12394.39
510.618	12578.12
510.986	12612.46
511.354	12788.05
511.722	12974.94
512.09	13092
512.458	13136.29
512.826	13229.4
513.193	13293.8
513.561	13327.02
513.929	13384.42
514.297	13635.04
514.664	13617.86
515.032	13763.17
515.4	13974.46
515.767	14024.86
516.135	14215.81
516.502	14208.36
516.869	14416.49
517.237	14555.69
517.604	14398.18
517.972	14738.06
518.339	14744.84
518.706	14856.02
519.073	14901.9
519.44	15045.62
519.808	15319.06
520.175	15227.31
520.542	15381.66
520.909	15622.33
521.276	15627.07
521.643	15846.96
522.009	15977.12
522.376	16063
522.743	16178.02
523.11	16283.1
523.477	16631.57
523.843	16510.67
524.21	16832.47
524.577	16928.28
524.943	17078.34
525.31	17112.91
525.676	17406.24
526.043	17556.06
526.409	17548.38
526.776	17740.24
527.142	17890.07
527.508	18056.84
527.874	18139.55
528.241	18205.31
528.607	18361.92
528.973	18657.73
529.339	18622.25
529.705	18833.77
530.071	18991.73
530.437	19050.26
530.803	19223.36
531.169	19327.09
531.535	19465.84
531.901	19478.95
532.267	19619.29
532.632	19845.72
532.998	19875.78
533.364	19984.02
533.73	20074.42
534.095	20175.88
534.461	20257.91
534.826	20297.91
535.192	20459.26
535.557	20621.52
535.923	20682.31
536.288	20803.89
536.653	20936.09
537.019	20900.16
537.384	20969.76
537.749	20988.06
538.114	21126.37
538.479	21230.32
538.845	21332.01
539.21	21394.38
539.575	21490.42
539.94	21462.4
540.305	21729.06
540.67	21657.65
541.034	21736.97
541.399	21899.23
541.764	21942.16
542.129	21926.8
542.494	22001.37
542.858	22191.87
543.223	22163.63
543.587	22271.87
543.952	22279.56
544.316	22493.79
544.681	22353.45
545.045	22496.72
545.41	22608.81
545.774	22654.46
546.138	22761.8
546.503	22850.84
546.867	22877.28
547.231	22974
547.595	23065.52
547.959	23079.99
548.324	23094.45
548.688	23204.95
549.052	23290.6
549.416	23191.62
549.779	23290.15
550.143	23303.94
550.507	23518.17
550.871	23630.48
551.235	23687.2
551.599	23855.56
551.962	23811.04
552.326	23980.3
552.689	24019.62
553.053	23884.94
553.417	24010.58
553.78	24249.45
554.143	24281.31
554.507	24251.48
554.87	24310.46
555.234	24561.08
555.597	24387.75
555.96	24755.42
556.323	24706.16
556.686	24761.3
557.05	24913.84
557.413	24988.86
557.776	24896.44
558.139	25145.02
558.502	25202.42
558.865	25171.91
559.228	25468.4
559.59	25479.47
559.953	25612.35
560.316	25925.11
560.679	25829.97
561.041	25843.3
561.404	26046.91
561.767	26247.36
562.129	26103.41
562.492	26493.46
562.854	26498.43
563.217	26454.59
563.579	26606.22
563.941	26789.27
564.304	26918.3
564.666	27148.13
565.028	27150.39
565.39	27263.38
565.753	27360.78
566.115	27360.1
566.477	27629.92
566.839	27621.34
567.201	27908.33
567.563	27966.86
567.925	28085.5
568.287	28130.7
568.648	28339.96
569.01	28447.75
569.372	28748.09
569.734	28665.38
570.095	28786.05
570.457	28976.1
570.819	29118.7
571.18	29216.55
571.542	29410.22
571.903	29516.88
572.265	29529.31
572.626	29823.09
572.987	29916.64
573.349	30071.44
573.71	30173.13
574.071	30347.82
574.432	30506.46
574.794	30833.45
575.155	31010.4
575.516	31004.3
575.877	31230.96
576.238	31226.44
576.599	31495.58
576.96	31565.64
577.32	31596.6
577.681	31832.07
578.042	32055.57
578.403	32199.29
578.763	32223.47
579.124	32330.82
579.485	32718.6
579.845	32895.55
580.206	33035.2
580.566	33104.13
580.927	33340.06
581.287	33655.08
581.648	33601.74
582.008	34091.9
582.368	34217.32
582.728	34422.29
583.089	34522.17
583.449	34864.08
583.809	35043.06
584.169	35276.05
584.529	35363.28
584.889	35895.47
585.249	36085.52
585.609	36158.06
585.969	36662.23
586.329	36683.24
586.688	37173.4
587.048	37348.76
587.408	37653.39
587.768	37973.38
588.127	38378.12
588.487	38597.09
588.846	39096.29
589.206	39047.02
589.565	39366.79
589.925	40119.54
590.284	40285.18
590.643	40688.56
591.003	41038.61
591.362	41454.87
591.721	41775.54
592.08	42105.25
592.44	42627.04
592.799	42810.32
593.158	43076.97
593.517	43425.67
593.876	43938.65
594.235	44191.75
594.593	44430.84
594.952	44892.97
595.311	45106.53
595.67	45656.79
596.029	46005.94
596.387	46322.99
596.746	46779.7
597.104	46859.93
597.463	47128.85
597.822	47665.78
598.18	47820.13
598.538	48057.41
598.897	48712.76
599.255	48765.86
599.613	49447.88
599.972	49421.67
600.33	49808.78
600.688	49959.73
601.046	50217.13
601.404	50717
601.762	50902.98
602.12	51181.85
602.478	51363.76
602.836	51575.51
603.194	51564.44
603.552	51961.03
603.91	52085.78
604.268	52358.31
604.625	52518.31
604.983	52869.94
605.341	52889.15
605.698	53274.9
606.056	53569.13
606.413	53526.19
606.771	53903.58
607.128	53885.05
607.485	54038.27
607.843	54216.79
608.2	54473.06
608.557	54741.53
608.914	54781.07
609.272	55008.64
609.629	55279.59
609.986	55380.61
610.343	55450.89
610.7	55787.6
611.057	55846.58
611.414	55859.24
611.771	56059.23
612.127	56128.16
612.484	56288.83
612.841	56456.96
613.198	56459
613.554	56568.6
613.911	56810.4
614.267	56889.72
614.624	57024.63
614.98	57075.25
615.337	57319.76
615.693	57327
616.05	57422.36
616.406	57606.31
616.762	57644.5
617.118	57675.46
617.475	57777.38
617.831	57884.49
618.187	58009.69
618.543	58034.77
618.899	58249.91
619.255	58270.93
619.611	58286.52
619.967	58484.03
620.323	58510.47
620.678	58497.13
621.034	58550.01
621.39	58621.88
621.746	58627.3
622.101	58953.62
622.457	58746.17
622.812	58956.78
623.168	59003.11
623.523	59095.08
623.879	59151.58
624.234	59060.28
624.589	59121.52
624.945	59211.69
625.3	59255.76
625.655	59237
626.01	59362.42
626.365	59374.63
626.72	59275.19
627.075	59304.34
627.43	59356.32
627.785	59368.52
628.14	59416.43
628.495	59459.82
628.85	59522.19
629.205	59520.16
629.559	59570.1
629.914	59489.65
630.269	59545.69
630.623	59425.92
630.978	59358.81
631.332	59606.26
631.687	59583.21
632.041	59545.02
632.396	59541.4
632.75	59522.64
633.104	59611.46
633.459	59469.54
633.813	59436.09
634.167	59519.03
634.521	59562.19
634.875	59536.88
635.229	59458.24
635.583	59406.26
635.937	59405.13
636.291	59383.44
636.645	59382.08
636.999	59280.16
637.352	59387.51
637.706	59175.08
638.06	59292.82
638.413	59249.66
638.767	59178.02
639.121	59222.09
639.474	59175.08
639.828	59161.07
640.181	59149.55
640.534	59174.18
640.888	59046.27
641.241	59018.7
641.594	59101.64
641.947	59144.12
642.301	59017.35
642.654	59030.45
643.007	59036.1
643.36	59007.86
643.713	58949.78
644.066	59091.24
644.419	58879.72
644.771	58600.41
645.124	58435.67
645.477	58409
645.83	58331.71
646.182	58293.75
646.535	58220.31
646.888	58251.04
647.24	58116.13
647.593	58299.4
647.945	58186.86
648.298	58079.07
648.65	58048.78
649.002	57912.06
649.355	57887.66
649.707	57723.14
650.059	57867.55
650.411	58163.81
650.763	58276.58
651.115	58660.29
651.467	58501.43
651.819	58555.44
652.171	58459.4
652.523	58425.27
652.875	58455.33
653.227	58382.56
653.578	58503.69
653.93	58434.31
654.282	58329.23
654.633	58289.91
654.985	58349.79
655.337	58347.99
655.688	58266.18
656.039	58362.9
656.391	58122.23
656.742	58187.54
657.094	58198.61
657.445	58272.28
657.796	58153.41
658.147	58084.49
658.498	58202.68
658.849	58235.9
659.2	58041.1
659.551	58017.15
659.902	58137.14
660.253	58071.16
660.604	58173.3
660.955	57983.7
661.306	58127.65
661.656	58019.18
662.007	58028.45
662.358	58063.7
662.708	58049.69
663.059	58004.27
663.409	57877.26
663.76	58015.79
664.11	57993.87
664.461	58047.43
664.811	58007.43
665.161	57973.31
665.511	57902.57
665.862	57949.13
666.212	57978.73
666.562	58067.09
666.912	57982.35
667.262	57875.46
667.612	57880.43
667.962	57948.67
668.312	57874.1
668.662	57954.55
669.011	57900.09
669.361	57917.71
669.711	57914.55
670.06	57865.96
670.41	57821.22
670.76	57793.2
671.109	57895.79
671.459	57779.86
671.808	57809.69
672.157	57804.95
672.507	57677.04
672.856	57711.84
673.205	57707.32
673.554	57771.73
673.904	57650.15
674.253	57929.01
674.602	57675.23
674.951	57376.94
675.3	57297.62
675.649	57670.72
675.998	57612.19
676.346	57726.53
676.695	57677.95
677.044	57590.72
677.393	57649.47
677.741	57624.16
678.09	57556.82
678.438	57499.42
678.787	57539.87
679.135	57612.41
679.484	57425.75
679.832	57534
680.181	57418.97
680.529	57419.42
680.877	57359.54
681.225	57371.06
681.573	57556.37
681.922	57313.66
682.27	57329.48
682.618	57336.26
682.966	57266.88
683.314	57263.27
683.661	57257.17
684.009	57169.71
684.357	57096.04
684.705	57032.99
685.053	57142.37
685.4	56921.13
685.748	56961.81
686.095	56944.18
686.443	56767.24
686.79	56761.59
687.138	56918.42
687.485	56848.82
687.832	56732.66
688.18	56743.51
688.527	56640.01
688.874	56541.93
689.221	56618.31
689.568	56560.24
689.915	56399.56
690.262	56496.73
690.609	56355.04
690.956	56283.18
691.303	56258.55
691.65	56204.31
691.997	56186.23
692.344	56080.47
692.69	56049.51
693.037	56039.35
693.383	55853.81
693.73	55921.61
694.077	55803.65
694.423	55808.84
694.769	55676.87
695.116	55663.08
695.462	55595.97
695.808	55451.34
696.155	55614.5
696.501	55347.84
696.847	55358.69
697.193	55120.27
697.539	55277.78
697.885	55042.31
698.231	55014.74
698.577	55045.7
698.923	54984.46
699.269	54796.67
699.614	54675.99
699.96	54645.03
700.306	54630.8
700.651	54493.62
700.997	54441.87
701.342	54312.39
701.688	54316.23
702.033	54115.55
702.379	54168.89
702.724	54087.76
703.069	54000.98
703.415	53810.25
703.76	53763.47
704.105	53723.93
704.45	53721.21
704.795	53538.39
705.14	53444.61
705.485	53512.86
705.83	53362.13
706.175	53367.55
706.52	53222.24
706.865	53179.08
707.209	53015.7
707.554	52975.02
707.899	53073.55
708.243	52814.35
708.588	52825.19
708.932	52664.75
709.277	52678.3
709.621	52604.41
709.966	52419.78
710.31	52431.53
710.654	52229.05
710.998	52281.93
711.342	52354.7
711.687	52098.66
712.031	52101.82
712.375	51960.81
712.719	51944.54
713.063	51846.46
713.407	51907.02
713.75	51840.81
714.094	51735.73
714.438	51656.64
714.782	51599.01
715.125	51400.37
715.469	51662.74
715.812	51210.32
716.156	51221.17
716.499	51241.96
716.843	51253.03
717.186	51029.08
717.53	51206.48
717.873	51112.47
718.216	51047.61
718.559	50926.71
718.902	50704.34
719.246	50767.39
719.589	50647.62
719.932	50559.04
720.275	50532.6
720.617	50618.47
720.96	50538.47
721.303	50427.52
721.646	50458.02
721.989	50194.08
722.331	50451.7
722.674	50172.38
723.016	50137.81
723.359	50097.36
723.701	50199.27
724.044	50003.8
724.386	49891.48
724.729	49989.79
725.071	49913.63
725.413	49863.69
725.755	49848.77
726.097	49753.86
726.439	49613.3
726.782	49530.59
727.124	49729.23
727.465	49626.18
727.807	49412.85
728.149	49458.95
728.491	49366.3
728.833	49579.63
729.175	49461.44
729.516	49201.11
729.858	49244.27
730.199	49442.46
730.541	49267.32
730.882	49086.31
731.224	49133.99
731.565	49002.47
731.906	49067.1
732.248	49026.42
732.589	48861.46
732.93	48831.17
733.271	48875.24
733.612	48814.9
733.953	48851.29
734.294	48707.56
734.635	48658.07
734.976	48814.45
735.317	48568.58
735.658	48538.98
735.999	48477.51
736.339	48455.36
736.68	48509.37
737.021	48463.73
737.361	48429.15
737.702	48501.92
738.042	48353.45
738.383	48266.67
738.723	48415.37
739.063	48176.5
739.404	48363.39
739.744	48291.75
740.084	48093.79
740.424	48297.63
740.764	48127.01
741.104	48247.91
741.444	48011.76
741.784	47972.21
742.124	48062.61
742.464	48052.44
742.804	47933.57
743.143	47815.16
743.483	48010.86
743.823	47784.87
744.162	47824.19
744.502	47843.63
744.841	47682.5
745.181	47926.34
745.52	47656.74
745.86	47787.13
746.199	47710.75
746.538	47644.31
746.877	47805.44
747.216	47683.18
747.556	47648.61
747.895	47655.16
748.234	47506.91
748.573	47494.94
748.911	47524.54
749.25	47431.44
749.589	47374.26
749.928	47381.04
750.267	47451.32
750.605	47315.73
750.944	47368.39
751.283	47362.06
751.621	47287.03
751.96	47136.08
752.298	47186.47
752.636	47198
752.975	47119.13
753.313	46893.15
753.651	47146.02
753.989	46949.64
754.327	47000.26
754.666	46645.24
755.004	46881.39
755.342	46989.41
755.679	46870.32
756.017	46632.59
756.355	46715.3
756.693	46580.61
757.031	46766.37
757.368	46364.8
757.706	46353.27
758.044	46190.79
758.381	46377.68
758.719	46235.54
759.056	46299.26
759.394	46086.61
759.731	45948.99
760.068	45922.1
760.405	45795.77
760.743	45645.95
761.08	45722.33
761.417	45625.61
761.754	45532.5
762.091	45517.14
762.428	45290.7
762.765	45008.22
763.102	45132.97
763.438	45110.59
763.775	44989.47
764.112	44766.87
764.449	44712.64
764.785	44764.84
765.122	44550.83
765.458	44230.62
765.795	44229.26
766.131	44264.06
766.467	44069.49
766.804	43796.96
767.14	43871.08
767.476	43745.66
767.812	43568.04
768.148	43505.66
768.485	43330.98
768.821	43039.69
769.157	42882.63
769.492	42860.03
769.828	42932.35
770.164	42562.19
770.5	42484.45
770.836	42467.5
771.171	42251.01
771.507	41982.77
771.842	41818.02
772.178	41802.88
772.513	41725.6
772.849	41580.74
773.184	41612.15
773.519	41386.4
773.855	41121.55
774.19	40999.97
774.525	40917.71
774.86	40773.98
775.195	40648.79
775.53	40505.52
775.865	40330.61
776.2	40141.46
776.535	39931.07
776.87	39878.87
777.205	39683.84
777.539	39514.58
777.874	39673.67
778.209	39165.89
778.543	39416.28
778.878	39054.48
779.212	39095.16
779.547	38797.09
779.881	38842.06
780.215	38508.96
780.55	38577.21
780.884	38062.64
781.218	38115.75
781.552	38212.24
781.886	37896.09
782.22	37716.21
782.554	37473.51
782.888	37346.5
783.222	37294.08
783.556	37123.91
783.889	36886.4
784.223	36780.87
784.557	36775.9
784.89	36849.57
785.224	36417.71
785.557	36238.28
785.891	36271.05
786.224	36190.38
786.558	36102.47
786.891	36003.71
787.224	35728.47
787.557	35572.54
787.891	35624.29
788.224	35412.32
788.557	35397.18
788.89	35256.84
789.223	35127.58
789.556	34918.09
789.888	34727.14
790.221	34600.81
790.554	34453.02
790.887	34366.02
791.219	34241.05
791.552	34272.01
791.884	34130.32
792.217	33786.6
792.549	33899.14
792.882	33514.06
793.214	33385.48
793.546	33471.35
793.879	33285.37
794.211	33174.64
794.543	33311.36
794.875	33167.4
795.207	33038.59
795.539	32868.2
795.871	32986.84
796.203	32823.68
796.535	32458.95
796.867	32642.9
797.198	32258.73
797.53	32220.54
797.862	31956.36
798.193	32102.35
798.525	31879.53
798.856	32066.42
799.188	31588.69
799.519	31532.19
799.85	31348.02
800.182	31354.12
800.513	31383.95
800.844	30963.62
801.175	31210.17
801.506	31160.68
801.837	30894.24
802.168	30872.1
802.499	30873.45
802.83	30717.3
803.161	30456.97
803.491	30521.15
803.822	30581.26
804.153	30211.32
804.483	30094.72
804.814	29939.02
805.145	30009.3
805.475	30054.49
805.805	29893.37
806.136	29925
806.466	29724.33
806.796	29764.1
807.126	29532.7
807.457	29452.02
807.787	29536.54
808.117	29363.66
808.447	29247.96
808.777	29200.28
809.107	28941.53
809.436	29042.54
809.766	28932.49
810.096	29025.14
810.426	28733.62
810.755	28916.22
811.085	28627.64
811.414	28632.83
811.744	28465.16
812.073	28446.85
812.403	28316.68
812.732	28132.28
813.061	28264.26
813.39	28126.18
813.719	28024.04
814.049	28156.24
814.378	28054.54
814.707	27772.29
815.036	27971.16
815.365	27726.87
815.693	27452.3
816.022	27584.05
816.351	27569.13
816.68	27349.7
817.008	27390.38
817.337	27139.31
817.665	27238.52
817.994	27155.59
818.322	27227.22
818.651	27029.94
818.979	27086.89
819.307	27057.06
819.636	26965.53
819.964	26892.32
820.292	26815.71
820.62	26913.56
820.948	26807.8
821.276	26892.54
821.604	26821.36
821.932	26889.38
822.259	26759.44
822.587	26717.18
822.915	26645.32
823.243	26838.53
823.57	26611.42
823.898	26675.6
824.225	26630.18
824.553	26751.98
824.88	26763.28
825.207	26804.18
825.535	26685.32
825.862	26938.42
826.189	26735.71
826.516	27033.78
826.843	26827.68
827.17	26838.53
827.497	26920.11
827.824	26752.43
828.151	26911.07
828.478	26788.14
828.805	26900.22
829.131	26737.74
829.458	26801.47
829.785	26516.73
830.111	26730.74
830.438	26765.99
830.764	26718.08
831.09	26745.65
831.417	26549.95
831.743	26833.79
832.069	26633.11
832.395	26634.92
832.722	26743.17
833.048	26547.92
833.374	26666.33
833.7	26527.35
834.026	26622.72
834.351	26535.26
834.677	26600.35
835.003	26561.48
835.329	26409.62
835.654	26490.29
835.98	26261.6
836.306	26487.81
836.631	26385.21
836.956	26559.22
837.282	26380.24
837.607	26260.47
837.932	26171.88
838.258	26280.13
838.583	26224.54
838.908	26159.91
839.233	26197.87
839.558	26083.52
839.883	25902.06
840.208	25913.36
840.533	25984.77
840.858	25882.17
841.182	25936.41
841.507	25812.8
841.832	25741.61
842.156	25665.68
842.481	25858.44
842.805	25561.73
843.13	25602.86
843.454	25487.83
843.778	25370.1
844.103	25437.44
844.427	25285.8
844.751	25323.77
845.075	25292.58
845.399	25233.6
845.723	25088.97
846.047	25083.55
846.371	24936.89
846.695	24819.83
847.019	24716.1
847.343	24527.63
847.666	24467.07
847.99	24433.85
848.313	24277.47
848.637	24303.91
848.96	24217.81
849.284	24075.44
849.607	24009
849.931	23948.89
850.254	23839.06
850.577	23626.64
850.9	23477.49
851.223	23522.69
851.546	23368.57
851.869	23316.82
852.192	23409.47
852.515	23150.49
852.838	23060.55
853.161	23030.27
853.483	22798.41
853.806	22950.72
854.129	22762.03
854.451	22664.18
854.774	22587.34
855.096	22480.68
855.419	22406.56
855.741	22384.19
856.063	22243.62
856.385	22249.05
856.708	22143.51
857.03	22090.86
857.352	22076.85
857.674	21984.65
857.996	21892.45
858.318	21699.91
858.64	21835.05
858.961	21731.77
859.283	21576.75
859.605	21558.67
859.926	21601.83
860.248	21508.73
860.57	21466.24
860.891	21343.31
861.212	21272.58
861.534	21186.02
861.855	21135.86
862.176	21148.74
862.498	21238
862.819	21200.71
863.14	21050.66
863.461	21064.22
863.782	20927.27
864.103	20971.79
864.424	20828.52
864.745	20835.07
865.065	20772.93
865.386	20727.28
865.707	20784.68
866.027	20671.46
866.348	20666.94
866.668	20683.67
866.989	20569.77
867.309	20349.66
867.63	20457.68
867.95	20485.48
868.27	20309.44
868.59	20475.54
868.91	20318.7
869.23	20349.89
869.55	20312.83
869.87	20370.45
870.19	20115.77
870.51	20204.58
870.83	20242.77
871.15	20054.08
871.469	20042.78
871.789	20099.05
872.109	20093.62
872.428	19986.96
872.748	19943.8
873.067	19946.06
873.386	19895.44
873.706	19867.87
874.025	19828.32
874.344	19709
874.663	19718.04
874.982	19661.32
875.301	19765.5
875.62	19669.45
875.939	19578.38
876.258	19557.37
876.577	19476.69
876.896	19516.69
877.214	19460.87
877.533	19406.41
877.852	19350.37
878.17	19454.32
878.489	19417.48
878.807	19415.68
879.125	19274.44
879.444	19268.56
879.762	19247.32
880.08	19173.65
880.398	19183.14
880.716	19161.67
881.034	19032.18
881.352	19058.4
881.67	18977.95
881.988	18925.52
882.306	18968.68
882.624	18908.34
882.941	18720.33
883.259	18785.86
883.577	18705.86
883.894	18567.56
884.212	18540.44
884.529	18607.79
884.846	18524.85
885.164	18446.89
885.481	18435.59
885.798	18527.79
886.115	18378.87
886.432	18389.04
886.75	18311.75
887.067	18300.23
887.383	18161.02
887.7	18184.3
888.017	18172.77
888.334	18198.53
888.651	18119.21
888.967	18054.36
889.284	18050.97
889.6	17845.55
889.917	17774.14
890.233	17839.9
890.55	17769.62
890.866	17827.47
891.182	17817.98
891.498	17695.04
891.815	17550.19
892.131	17526.01
892.447	17553.13
892.763	17456.63
893.079	17344.54
893.395	17254.83
893.71	17268.39
894.026	17289.63
894.342	17246.02
894.657	16934.84
894.973	17059.13
895.289	16987.27
895.604	16897.32
895.92	16814.61
896.235	16782.3
896.55	16748.4
896.865	16659.14
897.181	16638.8
897.496	16669.08
897.811	16562.87
898.126	16472.7
898.441	16450.78
898.756	16318.58
899.071	16264.12
899.386	16327.85
899.7	16135.76
900.015	16108.87
900.33	16080.17
900.644	16061.87
900.959	15973.73
901.273	15842.21
901.588	15805.38
901.902	15805.38
902.216	15717.92
902.531	15672.95
902.845	15625.49
903.159	15567.87
903.473	15513.18
903.787	15314.54
904.101	15330.13
904.415	15425.05
904.729	15304.6
905.042	15178.27
905.356	15244.49
905.67	15103.7
905.984	15089.24
906.297	15095.34
906.611	14969.01
906.924	15009.69
907.237	14858.51
907.551	14837.94
907.864	14683.14
908.177	14693.31
908.491	14681.56
908.804	14561.79
909.117	14489.7
909.43	14329.26
909.743	14386.2
910.056	14312.99
910.368	14270.27
910.681	14189.15
910.994	14189.6
911.307	14091.07
911.619	13952.77
911.932	13992.54
912.244	13756.84
912.557	13815.15
912.869	13739.89
913.181	13658.99
913.494	13693.34
913.806	13514.81
914.118	13447.92
914.43	13532.44
914.742	13438.21
915.054	13389.85
915.366	13363.86
915.678	13304.88
915.99	13270.53
916.302	13084.77
916.613	13059.01
916.925	13066.46
917.236	12947.37
917.548	12899.69
917.859	12925.9
918.171	12807.26
918.482	12771.78
918.794	12776.75
919.105	12637.32
919.416	12580.38
919.727	12631.67
920.038	12540.6
920.349	12440.72
920.66	12371.34
920.971	12457.21
921.282	12257.45
921.593	12178.13
921.903	12180.39
922.214	12087.96
922.525	12015.64
922.835	11983.55
923.146	11927.29
923.456	11911.69
923.767	11860.85
924.077	11791.02
924.387	11788.98
924.697	11737.69
925.008	11635.09
925.318	11662.66
925.628	11617.91
925.938	11505.83
926.248	11441.42
926.558	11395.55
926.867	11445.72
927.177	11250.92
927.487	11269.9
927.796	11201.43
928.106	11202.78
928.416	11086.18
928.725	11037.82
929.034	11079.62
929.344	11069.91
929.653	10979.51
929.962	10920.31
930.271	10853.19
930.581	10826.3
930.89	10757.15
931.199	10673.08
931.508	10622.91
931.817	10648
932.125	10631.05
932.434	10484.39
932.743	10411.17
933.051	10426.76
933.36	10342.02
933.669	10308.12
933.977	10354.45
934.286	10255.24
934.594	10187.22
934.902	10118.97
935.21	10044.85
935.519	10034.68
935.827	10021.35
936.135	9921.24
936.443	9848.92
936.751	9861.35
937.059	9815.7
937.367	9749.94
937.674	9778.42
937.982	9765.99
938.29	9756.72
938.597	9690.51
938.905	9551.08
939.213	9535.94
939.52	9558.76
939.827	9482.38
940.135	9397.86
940.442	9371.65
940.749	9278.09
941.056	9358.54
941.363	9258.43
941.67	9258.65
941.977	9195.15
942.284	9185.66
942.591	9112.67
942.898	9093.01
943.205	9005.55
943.511	8974.82
943.818	8982.28
944.125	8880.36
944.431	8872.45
944.738	8758.33
945.044	8801.72
945.35	8765.33
945.657	8693.92
945.963	8654.6
946.269	8693.47
946.575	8587.49
946.881	8540.71
947.187	8570.31
947.493	8420.71
947.799	8441.5
948.105	8423.2
948.41	8353.37
948.716	8363.99
949.022	8300.94
949.327	8251.68
949.633	8203.32
949.938	8123.09
950.244	8223.65
950.549	8112.47
950.854	8040.16
951.16	8024.56
951.465	7982.98
951.77	7962.87
952.075	7857.56
952.38	7842.87
952.685	7844.23
952.99	7813.27
953.294	7847.39
953.599	7701.18
953.904	7695.08
954.209	7624.8
954.513	7627.74
954.818	7628.19
955.122	7531.24
955.426	7464.13
955.731	7481.3
956.035	7448.98
956.339	7425.26
956.643	7409.89
956.948	7294.41
957.252	7350.46
957.556	7305.03
957.86	7216.45
958.163	7240.4
958.467	7190.46
958.771	7169.9
959.075	7094.19
959.378	7099.39
959.682	7161.53
959.985	6978.49
960.289	6955.21
960.592	6969.22
960.896	6913.63
961.199	6920.86
961.502	6854.65
961.805	6844.26
962.108	6798.61
962.411	6790.47
962.714	6773.75
963.017	6785.95
963.32	6730.81
963.623	6646.75
963.926	6665.95
964.228	6592.51
964.531	6576.92
964.833	6565.62
965.136	6487.88
965.438	6422.57
965.741	6446.3
966.043	6400.65
966.345	6354.55
966.648	6320.88
966.95	6384.61
967.252	6262.8
967.554	6318.39
967.856	6274.78
968.158	6199.53
968.46	6241.56
968.761	6185.52
969.063	6128.34
969.365	6085.86
969.666	6085.86
969.968	6056.03
970.269	6013.54
970.571	5962.7
970.872	5970.61
971.174	5948.69
971.475	5917.73
971.776	5869.14
972.077	5830.72
972.378	5858.97
972.679	5781.68
972.98	5783.72
973.281	5814.45
973.582	5725.87
973.883	5690.84
974.183	5704.62
974.484	5727.45
974.785	5610.39
975.085	5573.78
975.386	5580.33
975.686	5621.46
975.986	5516.15
976.287	5546.89
976.587	5492.88
976.887	5428.25
977.187	5461.01
977.487	5463.95
977.787	5400
978.087	5332.2
978.387	5320
978.687	5336.5
978.987	5261.47
979.286	5257.18
979.586	5218.99
979.885	5188.03
980.185	5182.15
980.484	5127.92
980.784	5117.75
981.083	5053.79
981.382	5102.38
981.682	5072.32
981.981	5029.39
982.28	5033.91
982.579	4971.54
982.878	4988.48
983.177	4942.61
983.475	4932.21
983.774	4884.08
984.073	4819.9
984.372	4784.87
984.67	4849.73
984.969	4809.28
985.267	4841.82
985.566	4741.94
985.864	4715.95
986.162	4693.8
986.461	4675.5
986.759	4677.08
987.057	4604.09
987.355	4590.08
987.653	4635.05
987.951	4575.16
988.249	4563.41
988.547	4597.53
988.844	4540.36
989.142	4480.93
989.44	4466.24
989.737	4432.57
990.035	4437.99
990.332	4421.27
990.63	4350.08
990.927	4353.02
991.224	4365.68
991.521	4359.57
991.819	4347.15
992.116	4316.64
992.413	4258.33
992.71	4224.44
993.006	4246.36
993.303	4216.53
993.6	4176.98
993.897	4192.57
994.193	4127.49
994.49	4117.1
994.787	4104.89
995.083	4072.35
995.379	4065.12
995.676	4035.06
995.972	4020.15
996.268	3985.35
996.565	3965.23
996.861	3988.51
997.157	3930.21
997.453	3905.58
997.749	3896.54
998.044	3840.49
998.34	3852.24
998.636	3842.53
998.932	3821.06
999.227	3752.58
999.523	3747.16
999.818	3740.83
1000.114	3679.14
1000.409	3720.72
1000.704	3632.59
1001	3676.2
1001.295	3638.92
1001.59	3620.39
1001.885	3615.41
1002.18	3573.61
1002.475	3590.78
1002.77	3524.34
1003.065	3521.18
1003.359	3514.63
1003.654	3482.54
1003.949	3459.03
1004.243	3477.34
1004.538	3369.32
1004.832	3407.51
1005.127	3395.08
1005.421	3377.23
1005.715	3365.25
1006.009	3323.9
1006.304	3314.18
1006.598	3273.5
1006.892	3276.21
1007.186	3213.84
1007.48	3265.82
1007.773	3202.32
1008.067	3182.88
1008.361	3155.09
1008.655	3122.55
1008.948	3117.12
1009.242	3090.46
1009.535	3055.43
1009.829	3067.86
1010.122	3066.05
1010.415	3002.77
1010.708	3013.62
1011.001	2996.45
1011.295	2971.36
1011.588	2943.34
1011.881	2928.65
1012.173	2922.32
1012.466	2916
1012.759	2894.75
1013.052	2878.26
1013.344	2821.08
1013.637	2866.96
1013.93	2811.82
1014.222	2829.67
1014.514	2777.24
1014.807	2785.6
1015.099	2782.67
1015.391	2737.92
1015.683	2748.54
1015.976	2667.87
1016.268	2629.68
1016.56	2680.3
1016.851	2618.15
1017.143	2579.96
1017.435	2614.76
1017.727	2581.09
1018.018	2562.11
1018.31	2544.26
1018.602	2500.64
1018.893	2502
1019.185	2501.32
1019.476	2471.71
1019.767	2492.73
1020.058	2497.02
1020.35	2402.34
1020.641	2393.3
1020.932	2391.72
1021.223	2372.96
1021.514	2340.87
1021.804	2347.65
1022.095	2329.57
1022.386	2319.18
1022.677	2272.4
1022.967	2274.43
1023.258	2265.84
1023.548	2245.96
1023.839	2219.74
1024.129	2219.74
1024.419	2217.26
1024.709	2184.94
1025	2137.03
1025.29	2149.24
1025.58	2109.92
1025.87	2113.98
1026.16	2095.68
1026.449	2093.87
1026.739	2089.8
1027.029	2041.22
1027.319	2051.61
1027.608	2020.88
1027.898	1999.64
1028.187	2013.87
1028.477	1986.98
1028.766	1942.24
1029.055	1939.75
1029.344	1926.87
1029.634	1898.85
1029.923	1912.63
1030.212	1886.19
1030.501	1896.59
1030.79	1869.24
1031.078	1826.08
1031.367	1841.45
1031.656	1844.84
1031.945	1819.3
1032.233	1790.38
1032.522	1777.04
1032.81	1779.76
1033.099	1759.87
1033.387	1754.9
1033.675	1721.9
1033.963	1697.5
1034.251	1709.47
1034.54	1693.43
1034.828	1666.54
1035.116	1677.84
1035.403	1669.7
1035.691	1661.11
1035.979	1625.41
1036.267	1609.59
1036.554	1604.62
1036.842	1594.22
1037.129	1612.75
1037.417	1577.05
1037.704	1543.15
1037.992	1577.5
1038.279	1569.82
1038.566	1542.7
1038.853	1542.7
1039.14	1542.7
