Data from 16-1255_FLMS001491_001.txt Node
Date: Thu Apr 19 16:16:46 BST 2018
User: hsy
Spectrometer: FLMS00149
Trigger mode: 0
Integration Time (sec): 1.000000E-2
Scans to average: 10
Electric dark correction enabled: true
Nonlinearity correction enabled: false
Boxcar width: 0
XAxis mode: Wavelengths
Number of Pixels in Spectrum: 2048
>>>>>Begin Spectral Data<<<<<
341.393	-8.12
341.776	-8.12
342.16	-8.12
342.543	-48.12
342.927	-75.24
343.31	-79.31
343.693	-68.46
344.077	-65.52
344.46	-58.29
344.843	-53.54
345.226	-33.21
345.61	-15.13
345.993	-23.49
346.376	-16.71
346.759	-4.96
347.142	27.58
347.525	38.43
347.908	43.18
348.291	86.34
348.674	109.39
349.057	113.68
349.44	109.84
349.823	121.59
350.206	153.91
350.588	255.6
350.971	219.22
351.354	263.74
351.737	279.55
352.119	296.28
352.502	302.38
352.884	316.84
353.267	302.15
353.65	334.02
354.032	340.34
354.414	326.33
354.797	347.12
355.179	360.23
355.562	375.82
355.944	372.21
356.326	370.63
356.709	374.47
357.091	409.72
357.473	391.64
357.855	377.18
358.238	379.44
358.62	374.02
359.002	395.03
359.384	369.04
359.766	378.54
360.148	383.05
360.53	386.9
360.912	375.15
361.294	377.86
361.676	384.86
362.057	391.19
362.439	366.78
362.821	375.15
363.203	375.37
363.584	388.03
363.966	369.27
364.348	371.53
364.729	362.72
365.111	361.81
365.493	374.02
365.874	349.38
366.256	369.04
366.637	351.87
367.019	355.94
367.4	385.99
367.781	373.56
368.163	357.29
368.544	369.27
368.925	356.16
369.306	371.08
369.688	395.03
370.069	373.79
370.45	349.84
370.831	377.41
371.212	379.21
371.593	388.93
371.974	370.4
372.355	382.6
372.736	377.86
373.117	380.8
373.498	369.72
373.879	390.51
374.26	386.44
374.641	384.86
375.021	382.6
375.402	377.86
375.783	384.64
376.163	380.34
376.544	393.45
376.925	421.47
377.305	390.96
377.686	381.02
378.066	393.9
378.447	399.33
378.827	429.16
379.208	403.39
379.588	417.86
379.968	414.01
380.349	418.53
380.729	403.62
381.109	416.27
381.489	433.22
381.87	427.57
382.25	415.14
382.63	419.89
383.01	420.34
383.39	403.62
383.77	429.16
384.15	438.42
384.53	433.68
384.91	437.97
385.29	440.68
385.67	437.97
386.049	451.08
386.429	462.6
386.809	459.66
387.189	437.06
387.568	451.75
387.948	440
388.328	464.18
388.707	467.8
389.087	469.61
389.466	469.83
389.846	486.33
390.225	501.47
390.605	462.37
390.984	463.73
391.363	493.79
391.743	484.97
392.122	490.85
392.501	487.01
392.881	501.24
393.26	503.5
393.639	525.42
394.018	509.83
394.397	502.37
394.776	524.75
395.155	524.07
395.534	526.33
395.913	524.97
396.292	531.98
396.671	525.88
397.05	531.53
397.429	545.99
397.808	549.6
398.186	549.83
398.565	540.11
398.944	555.93
399.323	552.09
399.701	569.26
400.08	562.94
400.458	543.5
400.837	563.84
401.215	573.33
401.594	571.07
401.972	562.49
402.351	582.37
402.729	598.87
403.107	587.12
403.486	592.99
403.864	594.12
404.242	579.43
404.62	607
404.999	577.85
405.377	597.96
405.755	611.75
406.133	619.21
406.511	633.67
406.889	635.7
407.267	625.31
407.645	628.02
408.023	641.81
408.401	649.04
408.779	653.33
409.156	673.22
409.534	666.89
409.912	687.23
410.29	674.12
410.667	684.52
411.045	680.67
411.422	687.91
411.8	705.53
412.178	726.32
412.555	731.52
412.933	733.78
413.31	712.09
413.687	736.94
414.065	751.18
414.442	747.57
414.819	742.82
415.197	770.84
415.574	785.08
415.951	798.64
416.328	789.15
416.705	781.46
417.082	787.56
417.46	789.15
417.837	797.28
418.214	789.82
418.591	815.59
418.967	839.99
419.344	833.44
419.721	832.08
420.098	833.44
420.475	852.65
420.852	837.05
421.228	857.84
421.605	856.49
421.982	855.36
422.358	899.43
422.735	850.61
423.111	863.49
423.488	898.97
423.864	904.17
424.241	908.46
424.617	915.24
424.994	901.91
425.37	927.9
425.746	906.43
426.123	931.29
426.499	940.33
426.875	978.52
427.251	974
427.627	966.32
428.003	995.69
428.379	994.34
428.756	997.95
429.132	1036.15
429.507	1033.89
429.883	995.69
430.259	1070.27
430.635	1046.54
431.011	1103.94
431.387	1068.69
431.763	1092.19
432.138	1079.76
432.514	1112.3
432.89	1110.72
433.265	1143.26
433.641	1160.44
434.016	1173.32
434.392	1162.7
434.767	1186.42
435.143	1170.6
435.518	1207.67
435.894	1223.94
436.269	1211.51
436.644	1248.57
437.02	1239.98
437.395	1278.62
437.77	1248.79
438.145	1298.74
438.52	1300.77
438.895	1309.58
439.271	1303.93
439.646	1313.88
440.021	1306.42
440.395	1355.46
440.77	1306.65
441.145	1321.79
441.52	1360.88
441.895	1362.69
442.27	1380.32
442.645	1402.24
443.019	1367.66
443.394	1430.71
443.769	1399.75
444.143	1403.59
444.518	1430.48
444.892	1429.13
445.267	1442.69
445.641	1471.16
446.016	1448.56
446.39	1460.54
446.764	1479.98
447.139	1487.88
447.513	1475.68
447.887	1498.96
448.262	1505.29
448.636	1493.99
449.01	1543.25
449.384	1511.61
449.758	1517.04
450.132	1559.52
450.506	1576.92
450.88	1557.49
451.254	1587.54
451.628	1605.85
452.002	1621.67
452.376	1654.66
452.75	1650.59
453.123	1639.52
453.497	1682.23
453.871	1671.16
454.244	1696.92
454.618	1762.23
454.992	1754.09
455.365	1794.09
455.739	1807.88
456.112	1785.96
456.486	1811.04
456.859	1843.13
457.232	1900.3
457.606	1900.3
457.979	1933.3
458.352	1913.41
458.725	1955.22
459.099	1980.98
459.472	2011.94
459.845	2049.45
460.218	2025.95
460.591	2060.07
460.964	2096.46
461.337	2113.86
461.71	2158.38
462.083	2201.09
462.456	2187.3
462.829	2185.95
463.201	2228.66
463.574	2259.16
463.947	2274.98
464.32	2333.06
464.692	2302.33
465.065	2345.94
465.438	2378.93
465.81	2381.87
466.183	2421.65
466.555	2469.33
466.928	2463.68
467.3	2474.98
467.672	2509.55
468.045	2582.09
468.417	2540.06
468.789	2592.94
469.161	2597.23
469.534	2647.18
469.906	2660.28
470.278	2716.33
470.65	2728.98
471.022	2794.29
471.394	2807.4
471.766	2853.95
472.138	2881.07
472.51	2976.89
472.882	2975.3
473.253	3004.45
473.625	3063.89
473.997	3158.58
474.369	3157.9
474.74	3165.35
475.112	3240.83
475.484	3245.8
475.855	3328.06
476.227	3335.29
476.598	3422.97
476.97	3519.02
477.341	3578.68
477.713	3609.18
478.084	3643.08
478.455	3730.54
478.827	3758.33
479.198	3864.32
479.569	3861.16
479.94	3966.46
480.311	4004.2
480.682	4123.07
481.053	4234.48
481.424	4255.04
481.795	4290.07
482.166	4412.1
482.537	4474.47
482.908	4549.05
483.279	4589.5
483.65	4660.68
484.021	4820.9
484.391	4927.12
484.762	4941.58
485.133	4984.74
485.503	5078.75
485.874	5259.76
486.244	5321
486.615	5403.94
486.985	5483.49
487.356	5576.82
487.726	5676.02
488.097	5830.82
488.467	5817.26
488.837	6023.81
489.207	6084.15
489.578	6160.53
489.948	6288.21
490.318	6421.31
490.688	6449.56
491.058	6643.68
491.428	6764.58
491.798	6786.95
492.168	6988.76
492.538	7018.36
492.908	7173.16
493.278	7297.9
493.648	7321.4
494.017	7525.47
494.387	7598.68
494.757	7744.44
495.126	7865.34
495.496	7936.75
495.866	8048.84
496.235	8207.26
496.605	8279.34
496.974	8481.15
497.344	8525.89
497.713	8615.83
498.082	8747.13
498.452	8822.16
498.821	8957.97
499.19	8974.24
499.559	9157.74
499.928	9246.78
500.298	9352.99
500.667	9531.51
501.036	9625.07
501.405	9747.33
501.774	9746.2
502.143	9992.07
502.512	10009.24
502.88	10192.51
503.249	10224.15
503.618	10395.9
503.987	10413.3
504.356	10571.04
504.724	10720.86
505.093	10797.92
505.462	10912.04
505.83	10993.17
506.199	11121.08
506.567	11241.3
506.936	11294.41
507.304	11503.89
507.672	11632.7
508.041	11753.6
508.409	11780.72
508.777	11984.56
509.145	12107.04
509.514	12133.93
509.882	12271.1
510.25	12352.91
510.618	12602.62
510.986	12527.59
511.354	12699.34
511.722	12841.26
512.09	12981.37
512.458	12919
512.826	13200.8
513.193	13222.94
513.561	13299.55
513.929	13435.14
514.297	13619.32
514.664	13668.81
515.032	13758.3
515.4	13892.3
515.767	14005.3
516.135	14054.56
516.502	13954.9
516.869	14243.71
517.237	14289.13
517.604	14322.8
517.972	14605.96
518.339	14660.65
518.706	14757.82
519.073	14842.56
519.44	14973.63
519.808	15195.77
520.175	15109
520.542	15389.67
520.909	15492.04
521.276	15544.01
521.643	15779.26
522.009	15769.99
522.376	15889.54
522.743	16050.89
523.11	16240.72
523.477	16399.36
523.843	16499.02
524.21	16697.88
524.577	16822.17
524.943	17059.9
525.31	17040.7
525.676	17302.38
526.043	17446.79
526.409	17461.48
526.776	17675.48
527.142	17771.3
527.508	17809.26
527.874	18057.62
528.241	18070.5
528.607	18150.5
528.973	18483.14
529.339	18475.46
529.705	18773.08
530.071	18766.3
530.437	19040.87
530.803	19141.88
531.169	19216.68
531.535	19316.34
531.901	19428.2
532.267	19505.94
532.632	19558.37
532.998	19682.43
533.364	19866.16
533.73	19977.79
534.095	20182.31
534.461	20162.87
534.826	20333.94
535.192	20357.22
535.557	20487.61
535.923	20580.72
536.288	20631.56
536.653	20877.88
537.019	20781.39
537.384	20874.27
537.749	20907.94
538.114	21043.98
538.479	21023.87
538.845	21192.45
539.21	21255.95
539.575	21400.58
539.94	21348.61
540.305	21549.5
540.67	21474.25
541.034	21609.84
541.399	21726.67
541.764	21817.52
542.129	21891.19
542.494	21969.61
542.858	22001.92
543.223	21913.79
543.587	22140.9
543.952	22083.28
544.316	22227.45
544.681	22279.65
545.045	22437.16
545.41	22419.54
545.774	22514.68
546.138	22543.83
546.503	22662.24
546.867	22663.82
547.231	22773.88
547.595	22959.86
547.959	22914.21
548.324	22894.33
548.688	22992.18
549.052	23016.13
549.416	23030.14
549.779	23164.15
550.143	23267.65
550.507	23499.06
550.871	23360.53
551.235	23437.82
551.599	23650.69
551.962	23724.36
552.326	23639.39
552.689	23868.99
553.053	23708.09
553.417	23927.29
553.78	24123.45
554.143	24104.47
554.507	24106.72
554.87	24088.19
555.234	24387.4
555.597	24321.63
555.96	24393.27
556.323	24398.47
556.686	24561.18
557.05	24713.94
557.413	24835.97
557.776	24875.74
558.139	25009.98
558.502	24956.65
558.865	25089.52
559.228	25267.6
559.59	25233.25
559.953	25321.61
560.316	25665.1
560.679	25590.98
561.041	25761.82
561.404	25975.15
561.767	26049.72
562.129	26026.22
562.492	26280.68
562.854	26194.81
563.217	26268.02
563.579	26281.81
563.941	26641.35
564.304	26738.29
564.666	26934.67
565.028	26878.4
565.39	27072.97
565.753	27424.6
566.115	27281.33
566.477	27518.61
566.839	27592.73
567.201	27813.75
567.563	27845.38
567.925	27996.11
568.287	28100.97
568.648	28183.23
569.01	28337.12
569.372	28697.34
569.734	28686.94
570.095	29007.39
570.457	29145.69
570.819	29204.44
571.18	29218
571.542	29450.54
571.903	29544.77
572.265	29666.13
572.626	29889.85
572.987	29902.05
573.349	30181.37
573.71	30152.67
574.071	30383.4
574.432	30594.69
574.794	31003.72
575.155	30985.19
575.516	30932.76
575.877	31270.6
576.238	31283.26
576.599	31525.51
576.96	31672.4
577.32	31768.67
577.681	31907.42
578.042	32154.87
578.403	32223.12
578.763	32356.9
579.124	32432.83
579.485	32755.76
579.845	32971.58
580.206	33105.58
580.566	33278.46
580.927	33365.92
581.287	33731.33
581.648	33753.25
582.008	34042.73
582.368	34205.67
582.728	34525.89
583.089	34569.5
583.449	34896.05
583.809	35179.65
584.169	35345.53
584.529	35538.97
584.889	35992.06
585.249	35967.66
585.609	36156.13
585.969	36662.55
586.329	36737.13
586.688	37229.77
587.048	37289.2
587.408	37738.68
587.768	37873.14
588.127	38114.72
588.487	38567.59
588.846	39108.14
589.206	38977.52
589.565	39376.61
589.925	39994.89
590.284	40004.39
590.643	40294.55
591.003	40739.73
591.362	41238.25
591.721	41549.2
592.08	41854.05
592.44	42375.85
592.799	42575.17
593.158	42944.42
593.517	43241.81
593.876	43655.36
594.235	43926.99
594.593	44314.33
594.952	44745.05
595.311	44848.78
595.67	45409.44
596.029	45934.17
596.387	46137.78
596.746	46641.05
597.104	46695.06
597.463	47015.95
597.822	47509.05
598.18	47643.73
598.538	47928.02
598.897	48468.12
599.255	48467.67
599.613	49268.1
599.972	49138.16
600.33	49630.57
600.688	49665.37
601.046	50000.06
601.404	50509.65
601.762	50693.6
602.12	50935.4
602.478	51175.39
602.836	51328.16
603.194	51357.76
603.552	51659.45
603.91	51866.45
604.268	52178.3
604.625	52409.26
604.983	52624.17
605.341	52716.14
605.698	52958.17
606.056	53320.42
606.413	53334.88
606.771	53672.05
607.128	53749.34
607.485	53859.61
607.843	54054.64
608.2	54310.68
608.557	54548.41
608.914	54560.16
609.272	54850.78
609.629	55046.93
609.986	55183.2
610.343	55290.99
610.7	55540.02
611.057	55643.75
611.414	55659.79
611.771	55944.98
612.127	56003.97
612.484	56189.95
612.841	56361.92
613.198	56384.29
613.554	56392.2
613.911	56726.21
614.267	56702.03
614.624	56893.43
614.98	57018.4
615.337	57235.35
615.693	57259.53
616.05	57255.23
616.406	57493.87
616.762	57496.36
617.118	57538.16
617.475	57671.49
617.831	57831.71
618.187	57896.57
618.543	58001.43
618.899	58216.56
619.255	58197.13
619.611	58143.8
619.967	58371.59
620.323	58418.14
620.678	58455.88
621.034	58432.83
621.39	58537.68
621.746	58505.37
622.101	58835.3
622.457	58665.36
622.812	58828.75
623.168	58908.07
623.523	58896.77
623.879	58998.46
624.234	58923.89
624.589	58984.45
624.945	59079.36
625.3	59160.72
625.655	59168.4
626.01	59181.51
626.365	59263.77
626.72	59161.4
627.075	59172.02
627.43	59248.4
627.785	59255.18
628.14	59303.54
628.495	59325.91
628.85	59402.29
629.205	59306.48
629.559	59404.55
629.914	59368.4
630.269	59345.8
630.623	59255.41
630.978	59266.48
631.332	59418.34
631.687	59449.75
632.041	59412.46
632.396	59390.32
632.75	59366.36
633.104	59425.12
633.459	59294.05
633.813	59380.83
634.167	59374.5
634.521	59327.27
634.875	59340.15
635.229	59264.67
635.583	59164.56
635.937	59227.61
636.291	59240.49
636.645	59264.44
636.999	59122.53
637.352	59268.74
637.706	59045.92
638.06	59111.91
638.413	59099.25
638.767	59030.33
639.121	59105.8
639.474	59016.54
639.828	59021.97
640.181	59015.19
640.534	59035.3
640.888	58930.67
641.241	58782.42
641.594	58889.99
641.947	58951.91
642.301	58767.73
642.654	58880.5
643.007	58774.74
643.36	58862.42
643.713	58818.13
644.066	58986.03
644.419	58665.36
644.771	58515.09
645.124	58254.75
645.477	58249.78
645.83	58075.78
646.182	58066.96
646.535	58109.22
646.888	58152.61
647.24	58060.63
647.593	58224.02
647.945	58103.8
648.298	57967.76
648.65	57867.65
649.002	57756.01
649.355	57790.13
649.707	57727.99
650.059	57729.12
650.411	58053.4
650.763	58078.26
651.115	58492.04
651.467	58364.81
651.819	58433.28
652.171	58321.42
652.523	58178.37
652.875	58243.68
653.227	58157.13
653.578	58379.27
653.93	58239.84
654.282	58182.67
654.633	58192.61
654.985	58192.61
655.337	58183.57
655.688	58134.76
656.039	58233.51
656.391	58009.79
656.742	57960.98
657.094	58047.53
657.445	58050.69
657.796	58082.1
658.147	57943.35
658.498	58086.85
658.849	58069.22
659.2	58040.75
659.551	57861.54
659.902	58102.44
660.253	57960.52
660.604	57999.39
660.955	57852.96
661.306	57955.55
661.656	57910.36
662.007	57857.93
662.358	57887.98
662.708	57861.09
663.059	57892.5
663.409	57775.44
663.76	57860.19
664.11	57858.83
664.461	57905.84
664.811	57892.73
665.161	57896.34
665.511	57791.71
665.862	57776.57
666.212	57887.08
666.562	57895.89
666.912	57852.96
667.262	57760.3
667.612	57753.98
667.962	57765.27
668.312	57717.14
668.662	57842.34
669.011	57730.7
669.361	57783.58
669.711	57749.68
670.06	57717.82
670.41	57701.32
670.76	57666.75
671.109	57735.22
671.459	57668.33
671.808	57669.46
672.157	57731.83
672.507	57561.21
672.856	57577.03
673.205	57586.75
673.554	57616.35
673.904	57488.67
674.253	57730.93
674.602	57534.09
674.951	57326.42
675.3	57131.85
675.649	57591.49
675.998	57558.73
676.346	57545.62
676.695	57546.52
677.044	57499.75
677.393	57491.61
677.741	57578.61
678.09	57383.59
678.438	57417.71
678.787	57409.58
679.135	57465.4
679.484	57346.08
679.832	57422.69
680.181	57325.74
680.529	57330.48
680.877	57235.35
681.225	57343.37
681.573	57452.97
681.922	57281.45
682.27	57247.55
682.618	57247.1
682.966	57187.66
683.314	57165.74
683.661	57125.97
684.009	57026.76
684.357	57025.41
684.705	56934.11
685.053	57048.46
685.4	56895.02
685.748	56850.27
686.095	56873.55
686.443	56728.69
686.79	56699.31
687.138	56828.35
687.485	56754.91
687.832	56665.87
688.18	56653.89
688.527	56559.88
688.874	56515.82
689.221	56544.74
689.568	56467
689.915	56359.44
690.262	56395.37
690.609	56382.71
690.956	56205.77
691.303	56273.11
691.65	56079.67
691.997	56149.05
692.344	55947.02
692.69	55911.09
693.037	55978.66
693.383	55730.53
693.73	55833.35
694.077	55582.06
694.423	55647.14
694.769	55556.75
695.116	55555.39
695.462	55390.42
695.808	55347.49
696.155	55437.65
696.501	55139.13
696.847	55246.92
697.193	55037.66
697.539	55166.25
697.885	54872.7
698.231	54842.87
698.577	54891
698.923	54817.56
699.269	54623.21
699.614	54452.82
699.96	54431.58
700.306	54469.77
700.651	54319.72
700.997	54265.48
701.342	54282.65
701.688	54172.15
702.033	53983.68
702.379	54050.34
702.724	53806.73
703.069	53907.07
703.415	53561.77
703.76	53586.85
704.105	53663.91
704.45	53512.73
704.795	53422.11
705.14	53328.56
705.485	53380.53
705.83	53089.47
706.175	53220.54
706.52	53056.47
706.865	52966.98
707.209	52924.27
707.554	52882.47
707.899	52801.79
708.243	52729.48
708.588	52635.92
708.932	52438.18
709.277	52594.79
709.621	52362.93
709.966	52237.51
710.31	52275.7
710.654	52131.07
710.998	52079.77
711.342	52126.55
711.687	52041.36
712.031	52016.27
712.375	51767.69
712.719	51805.88
713.063	51674.14
713.407	51855.6
713.75	51614.25
714.094	51621.48
714.438	51430.75
714.782	51379
715.125	51304.2
715.469	51469.4
715.812	51206.58
716.156	51121.83
716.499	51108.73
716.843	51201.61
717.186	50896.98
717.53	51065.56
717.873	50992.35
718.216	50948.05
718.559	50836.42
718.902	50550.32
719.246	50659.93
719.589	50507.61
719.932	50447.28
720.275	50518.69
720.617	50479.36
720.96	50475.98
721.303	50336.54
721.646	50380.61
721.989	50126.83
722.331	50269.43
722.674	50159.37
723.016	50120.28
723.359	49964.8
723.701	50060.62
724.044	49872.83
724.386	49748.54
724.729	49816.11
725.071	49829.21
725.413	49836.67
725.755	49736.79
726.097	49639.16
726.439	49546.51
726.782	49512.38
727.124	49660.18
727.465	49580.41
727.807	49362.33
728.149	49276.01
728.491	49286.4
728.833	49238.27
729.175	49189.23
729.516	49190.59
729.858	49044.15
730.199	49150.81
730.541	49101.55
730.882	49044.37
731.224	49002.12
731.565	48912.17
731.906	48927.09
732.248	48919.18
732.589	48708.34
732.93	48828.79
733.271	48672.18
733.612	48626.53
733.953	48683.25
734.294	48675.34
734.635	48539.75
734.976	48729.35
735.317	48568.91
735.658	48447.33
735.999	48400.55
736.339	48452.53
736.68	48350.61
737.021	48429.25
737.361	48311.96
737.702	48483.03
738.042	48299.54
738.383	48301.57
738.723	48392.19
739.063	48141.8
739.404	48245.07
739.744	48176.37
740.084	48156.26
740.424	48254.56
740.764	48071.07
741.104	48202.81
741.444	47888.25
741.784	47929.83
742.124	47977.74
742.464	47888.25
742.804	47951.3
743.143	47770.06
743.483	47803.95
743.823	47775.48
744.162	47786.1
744.502	47857.29
744.841	47787.01
745.181	47768.93
745.52	47636.05
745.86	47774.35
746.199	47682.15
746.538	47633.34
746.877	47754.92
747.216	47596.5
747.556	47581.81
747.895	47683.05
748.234	47513.12
748.573	47507.69
748.911	47463.17
749.25	47388.6
749.589	47164.65
749.928	47360.35
750.267	47433.8
750.605	47278.77
750.944	47456.85
751.283	47421.82
751.621	47327.58
751.96	47113.13
752.298	47203.74
752.636	47168.72
752.975	47153.12
753.313	46975.28
753.651	47203.52
753.989	46915.16
754.327	46944.99
754.666	46656.41
755.004	46800.37
755.342	46761.5
755.679	46824.09
756.017	46545
756.355	46768.95
756.693	46458.45
757.031	46681.95
757.368	46429.98
757.706	46333.94
758.044	46348.63
758.381	46429.98
758.719	46177.78
759.056	46238.12
759.394	46231.57
759.731	45830.22
760.068	45766.04
760.405	45870.9
760.743	45620.06
761.08	45662.77
761.417	45532.38
761.754	45442.66
762.091	45285.6
762.428	45183.23
762.765	45200.86
763.102	45046.74
763.438	44929.68
763.775	44652.4
764.112	44733.08
764.449	44831.15
764.785	44633.64
765.122	44245.18
765.458	44156.14
765.795	44108.91
766.131	44191.39
766.467	44028.69
766.804	43802.48
767.14	43704.4
767.476	43575.37
767.812	43491.98
768.148	43401.58
768.485	43244.98
768.821	42851.54
769.157	42831.43
769.492	43078.66
769.828	42785.33
770.164	42389.18
770.5	42287.72
770.836	42288.39
771.171	42145.35
771.507	42152.35
771.842	41784
772.178	41787.84
772.513	41704.68
772.849	41475.53
773.184	41443.22
773.519	41405.25
773.855	41089.33
774.19	41051.36
774.525	40803.46
774.86	40861.09
775.195	40715.55
775.53	40513.98
775.865	40217.94
776.2	40090.94
776.535	39852.98
776.87	39891.62
777.205	39702.92
777.539	39516.26
777.874	39525.08
778.209	39176.84
778.543	39243.73
778.878	39011.87
779.212	39045.99
779.547	38627.93
779.881	38713.12
780.215	38340.25
780.55	38492.56
780.884	38143.64
781.218	38176.19
781.552	38142.06
781.886	37795.18
782.22	37754.73
782.554	37490.33
782.888	37219.37
783.222	37055.99
783.556	37074.97
783.889	36830.23
784.223	36646.96
784.557	36719.95
784.89	36725.15
785.224	36443.12
785.557	36296.69
785.891	36232.51
786.224	36123.36
786.558	36076.81
786.891	35738.28
787.224	35631.85
787.557	35573.32
787.891	35480.66
788.224	35258.97
788.557	35147.34
788.89	35083.39
789.223	35000.45
789.556	34806.33
789.888	34842.26
790.221	34656.96
790.554	34398.43
790.887	34370.86
791.219	34230.3
791.552	34198.21
791.884	34018.1
792.217	33953.92
792.549	33866.02
792.882	33545.8
793.214	33509.42
793.546	33390.77
793.879	33336.99
794.211	33054.06
794.543	33201.4
794.875	33089.54
795.207	32992.37
795.539	32874.86
795.871	32925.7
796.203	32650.68
796.535	32525.94
796.867	32464.7
797.198	32223.35
797.53	32127.76
797.862	31967.99
798.193	32003.92
798.525	31918.04
798.856	31954.65
799.188	31491.16
799.519	31377.72
799.85	31283.03
800.182	31269.93
800.513	31417.95
800.844	30961.46
801.175	31167.78
801.506	31130.5
801.837	30931.86
802.168	30752.65
802.499	30801.46
802.83	30605.31
803.161	30455.71
803.491	30601.02
803.822	30415.26
804.153	30311.76
804.483	30039.9
804.814	29955.16
805.145	30173.01
805.475	29974.82
805.805	29921.71
806.136	29984.76
806.466	29780.02
806.796	29691.89
807.126	29504.55
807.457	29431.1
807.787	29538.9
808.117	29329.41
808.447	29202.18
808.777	29315.63
809.107	28923.1
809.436	28973.26
809.766	28889.42
810.096	28951.57
810.426	28765.13
810.755	28716.55
811.085	28727.85
811.414	28577.34
811.744	28445.82
812.073	28373.28
812.403	28199.72
812.732	28359.72
813.061	28400.4
813.39	28080.18
813.719	28048.77
814.049	28133.06
814.378	27950.47
814.707	27834.54
815.036	27884.93
815.365	27747.99
815.693	27666.18
816.022	27557.93
816.351	27481.55
816.68	27345.28
817.008	27484.72
817.337	27285.85
817.665	27223.71
817.994	27152.29
818.322	27316.58
818.651	27190.26
818.979	27052.64
819.307	27072.75
819.636	27048.34
819.964	26928.57
820.292	27030.49
820.62	26840.89
820.948	26912.53
821.276	27019.87
821.604	26879.99
821.932	27078.85
822.259	26815.81
822.587	26792.3
822.915	26691.29
823.243	26855.81
823.57	26616.26
823.898	26803.15
824.225	26637.73
824.553	26592.08
824.88	26776.94
825.207	26859.87
825.535	26756.6
825.862	26776.03
826.189	26638.86
826.516	26892.87
826.843	26858.29
827.17	26944.84
827.497	26902.81
827.824	26758.86
828.151	26956.14
828.478	26648.8
828.805	26950.72
829.131	26764.73
829.458	26797.05
829.785	26627.34
830.111	26664.62
830.438	26882.92
830.764	26748.69
831.09	26768.12
831.417	26581.91
831.743	26898.29
832.069	26810.38
832.395	26653.32
832.722	26739.88
833.048	26484.06
833.374	26768.35
833.7	26590.5
834.026	26724.96
834.351	26635.47
834.677	26725.87
835.003	26654.45
835.329	26657.62
835.654	26614.68
835.98	26447.68
836.306	26506.89
836.631	26399.55
836.956	26613.1
837.282	26512.31
837.607	26368.36
837.932	26192.32
838.258	26346.21
838.583	26251.3
838.908	26245.88
839.233	26268.25
839.558	26111.19
839.883	26049.5
840.208	25956.62
840.533	25967.24
840.858	25966.79
841.182	25901.03
841.507	25909.16
841.832	25701.94
842.156	25830.07
842.481	25811.09
842.805	25596.4
843.13	25632.33
843.454	25585.33
843.778	25478.44
844.103	25460.36
844.427	25436.41
844.751	25464.88
845.075	25272.8
845.399	25239.12
845.723	24989.87
846.047	25165
846.371	24988.74
846.695	24921.62
847.019	24749.19
847.343	24567.5
847.666	24640.72
847.99	24461.52
848.313	24370.22
848.637	24327.51
848.96	24278.47
849.284	24156.44
849.607	24165.03
849.931	23963.68
850.254	23801.87
850.577	23675.32
850.9	23511.94
851.223	23471.04
851.546	23378.38
851.869	23315.79
852.192	23475.33
852.515	23089.58
852.838	22986.75
853.161	23062.01
853.483	22800.54
853.806	22796.93
854.129	22721.45
854.451	22619.31
854.774	22597.39
855.096	22539.08
855.419	22435.13
855.741	22318.3
856.063	22271.29
856.385	22225.19
856.708	22037.85
857.03	22140
857.352	22125.08
857.674	22054.12
857.996	21801.93
858.318	21757.86
858.64	21872.21
858.961	21761.02
859.283	21551.99
859.605	21479.45
859.926	21580.24
860.248	21469.28
860.57	21388.83
860.891	21347.48
861.212	21312.9
861.534	21198.33
861.855	21147.03
862.176	21216.18
862.498	21139.35
862.819	21165.11
863.14	21140.7
863.461	20916.07
863.782	20950.88
864.103	20988.39
864.424	20840.14
864.745	20919.92
865.065	20867.49
865.386	20756.08
865.707	20762.41
866.027	20760.6
866.348	20677.44
866.668	20570.55
866.989	20571.9
867.309	20304.79
867.63	20419.82
867.95	20445.8
868.27	20417.78
868.59	20456.88
868.91	20215.98
869.23	20287.16
869.55	20278.8
869.87	20375.3
870.19	20218.92
870.51	20208.07
870.83	20082.88
871.15	20059.37
871.469	20022.31
871.789	20164
872.109	20056.44
872.428	19927.85
872.748	20050.56
873.067	19944.35
873.386	19926.04
873.706	19900.06
874.025	19755.88
874.344	19817.8
874.663	19738.7
874.982	19668.42
875.301	19691.02
875.62	19641.76
875.939	19570.57
876.258	19598.82
876.577	19538.71
876.896	19525.83
877.214	19513.4
877.533	19400.63
877.852	19464.14
878.17	19510.24
878.489	19451.03
878.807	19307.98
879.125	19347.3
879.444	19275.21
879.762	19212.39
880.08	19286.06
880.398	19150.92
880.716	19244.03
881.034	19186.18
881.352	19065.73
881.67	19055.56
881.988	19045.84
882.306	19065.73
882.624	18946.41
882.941	18811.27
883.259	18766.3
883.577	18780.76
883.894	18675.46
884.212	18611.28
884.529	18666.64
884.846	18666.64
885.164	18452.64
885.481	18418.06
885.798	18528.34
886.115	18328.12
886.432	18482.92
886.75	18207.9
887.067	18281.57
887.383	18176.49
887.7	18250.61
888.017	18087.9
888.334	18099.88
888.651	18044.96
888.967	18091.29
889.284	17885.42
889.6	17947.56
889.917	17817.62
890.233	17799.32
890.55	17762.71
890.866	17693.56
891.182	17705.54
891.498	17688.59
891.815	17512.77
892.131	17467.8
892.447	17453.34
892.763	17383.74
893.079	17324.76
893.395	17249.73
893.71	17227.81
894.026	17226
894.342	17226.91
894.657	17099.68
894.973	17025.56
895.289	17040.92
895.604	16888.38
895.92	16873.69
896.235	16716.86
896.55	16762.06
896.865	16537.43
897.181	16701.5
897.496	16616.3
897.811	16522.52
898.126	16465.57
898.441	16441.84
898.756	16355.52
899.071	16226.71
899.386	16375.18
899.7	16139.7
900.015	16045.24
900.33	16114.84
900.644	15997.56
900.959	16023.55
901.273	15887.96
901.588	15857.68
901.902	15764.57
902.216	15707.17
902.531	15650.22
902.845	15572.26
903.159	15448.87
903.473	15440.51
903.787	15358.48
904.101	15339.95
904.415	15349.22
904.729	15290.23
905.042	15178.6
905.356	15233.29
905.67	15183.8
905.984	15173.85
906.297	15037.81
906.611	14948.32
906.924	14917.59
907.237	14844.14
907.551	14735.45
907.864	14740.19
908.177	14649.35
908.491	14628.33
908.804	14571.61
909.117	14464.94
909.43	14336.13
909.743	14337.72
910.056	14418.17
910.368	14247.1
910.681	14227.66
910.994	14204.61
911.307	14022.92
911.619	13965.07
911.932	13949.7
912.244	13859.99
912.557	13868.12
912.869	13752.42
913.181	13766.43
913.494	13662.71
913.806	13724.17
914.118	13553.56
914.43	13564.63
914.742	13477.63
915.054	13373.9
915.366	13272.21
915.678	13196.28
915.99	13215.71
916.302	13116.51
916.613	13076.28
916.925	13153.11
917.236	13040.8
917.548	12975.49
917.859	12996.73
918.171	12882.61
918.482	12769.62
918.794	12743.86
919.105	12717.42
919.416	12625.67
919.727	12576.41
920.038	12573.47
920.349	12431.78
920.66	12428.61
920.971	12381.84
921.282	12345.23
921.593	12288.05
921.903	12217.09
922.214	12128.73
922.525	12104.55
922.835	12050.09
923.146	11868.18
923.456	11993.37
923.767	11837.89
924.077	11778.69
924.387	11865.69
924.697	11695.3
925.008	11658.69
925.318	11610.56
925.628	11619.6
925.938	11578.92
926.248	11470.9
926.558	11404.01
926.867	11348.42
927.177	11322.88
927.487	11289.89
927.796	11221.64
928.106	11124.24
928.416	11157.91
928.725	11089.89
929.034	11069.78
929.344	10983.45
929.653	11002.66
929.962	10907.3
930.271	10828.43
930.581	10822.78
930.89	10765.15
931.199	10657.36
931.508	10637.93
931.817	10641.09
932.125	10614.42
932.434	10526.74
932.743	10448.1
933.051	10448.33
933.36	10352.51
933.669	10366.97
933.977	10334.66
934.286	10266.41
934.594	10200.88
934.902	10171.95
935.21	10120.65
935.519	10065.74
935.827	10062.57
936.135	9905.06
936.443	9860.77
936.751	9877.72
937.059	9834.56
937.367	9817.38
937.674	9874.1
937.982	9707.78
938.29	9720.21
938.597	9732.19
938.905	9528.13
939.213	9537.62
939.52	9504.17
939.827	9529.71
940.135	9390.95
940.442	9358.41
940.749	9323.61
941.056	9350.28
941.363	9275.25
941.67	9236.61
941.977	9254.91
942.284	9103.73
942.591	9073.45
942.898	9087.46
943.205	9004.98
943.511	8895.37
943.818	8990.74
944.125	8884.53
944.431	8837.97
944.738	8788.03
945.044	8778.31
945.35	8799.56
945.657	8686.34
945.963	8655.38
946.269	8597.3
946.575	8599.11
946.881	8529.06
947.187	8525.44
947.493	8447.93
947.799	8459.68
948.105	8430.75
948.41	8358.66
948.716	8331.77
949.022	8329.74
949.327	8292.9
949.633	8143.98
949.938	8190.99
950.244	8130.2
950.549	8108.5
950.854	8077.54
951.16	8037.99
951.465	7912.57
951.77	7974.72
952.075	7973.82
952.38	7937.66
952.685	7927.26
952.99	7801.84
953.294	7815.63
953.599	7781.5
953.904	7705.8
954.209	7680.72
954.513	7659.93
954.818	7572.7
955.122	7598.46
955.426	7573.37
955.731	7502.19
956.035	7488.18
956.339	7414.96
956.643	7436.88
956.948	7337.45
957.252	7311.01
957.556	7339.71
957.86	7266.94
958.163	7259.03
958.467	7227.39
958.771	7162.99
959.075	7193.95
959.378	7076.21
959.682	7129.77
959.985	7048.19
960.289	6957.57
960.592	6978.81
960.896	6944.01
961.199	6897.69
961.502	6954.86
961.805	6824.92
962.108	6795.32
962.411	6747.18
962.714	6753.51
963.017	6706.73
963.32	6692.27
963.623	6670.57
963.926	6613.4
964.228	6633.74
964.531	6565.49
964.833	6526.62
965.136	6508.77
965.438	6491.82
965.741	6438.04
966.043	6401.65
966.345	6369.56
966.648	6323.46
966.95	6360.98
967.252	6360.3
967.554	6262
967.856	6238.95
968.158	6198.95
968.46	6243.01
968.761	6149.46
969.063	6134.09
969.365	6157.37
969.666	6058.39
969.968	6055
970.269	6021.1
970.571	6073.07
970.872	6038.73
971.174	5955.56
971.475	5960.76
971.776	5899.07
972.077	5890.71
972.378	5856.36
972.679	5799.86
972.98	5807.32
973.281	5792.86
973.582	5741.56
973.883	5705.17
974.183	5659.3
974.484	5675.12
974.785	5637.15
975.085	5600.09
975.386	5585.18
975.686	5555.12
975.986	5562.81
976.287	5518.97
976.587	5446.88
976.887	5463.83
977.187	5395.13
977.487	5429.25
977.787	5358.74
978.087	5284.85
978.387	5372.75
978.687	5330.5
978.987	5310.38
979.286	5251.85
979.586	5228.35
979.885	5258.63
980.185	5224.96
980.484	5148.58
980.784	5152.42
981.083	5108.35
981.382	5100.44
981.682	5045.53
981.981	5054.57
982.28	5003.72
982.579	4972.09
982.878	5036.72
983.177	4967.12
983.475	4933.44
983.774	4922.6
984.073	4836.72
984.372	4814.8
984.67	4830.85
984.969	4814.58
985.267	4795.82
985.566	4785.88
985.864	4757.86
986.162	4699.33
986.461	4695.48
986.759	4658.87
987.057	4613.23
987.355	4646.9
987.653	4591.76
987.951	4605.09
988.249	4543.17
988.547	4515.38
988.844	4529.39
989.142	4506.11
989.44	4497.97
989.737	4486.45
990.035	4420.24
990.332	4417.53
990.63	4380.46
990.927	4381.37
991.224	4339.56
991.521	4342.27
991.819	4325.1
992.116	4294.59
992.413	4249.39
992.71	4248.04
993.006	4182.73
993.303	4195.38
993.6	4211.43
993.897	4179.34
994.193	4148.61
994.49	4122.17
994.787	4104.31
995.083	4059.34
995.379	4040.13
995.676	4005.56
995.972	4005.78
996.268	4001.04
996.565	3974.37
996.861	3935.96
997.157	3933.92
997.453	3918.78
997.749	3864.32
998.044	3880.59
998.34	3865.68
998.636	3815.51
998.932	3812.34
999.227	3777.54
999.523	3775.73
999.818	3745.45
1000.114	3726.7
1000.409	3690.31
1000.704	3656.42
1001	3650.99
1001.295	3634.49
1001.59	3624.33
1001.885	3591.33
1002.18	3547.49
1002.475	3549.75
1002.77	3521.28
1003.065	3508.4
1003.359	3481.05
1003.654	3432.24
1003.949	3465.46
1004.243	3447.16
1004.538	3365.58
1004.832	3416.87
1005.127	3375.52
1005.421	3358.8
1005.715	3326.25
1006.009	3351.11
1006.304	3258.46
1006.598	3285.8
1006.892	3241.28
1007.186	3196.99
1007.48	3206.26
1007.773	3202.64
1008.067	3162.64
1008.361	3161.29
1008.655	3135.3
1008.948	3124.23
1009.242	3160.83
1009.535	3078.35
1009.829	3061.85
1010.122	3070.44
1010.415	3040.16
1010.708	2988.64
1011.001	2981.18
1011.295	3003.78
1011.588	2947.28
1011.881	2932.14
1012.173	2919.26
1012.466	2896.44
1012.759	2871.13
1013.052	2869.09
1013.344	2822.76
1013.637	2823.22
1013.93	2805.14
1014.222	2787.74
1014.514	2766.72
1014.807	2738.02
1015.099	2722.88
1015.391	2727.85
1015.683	2718.81
1015.976	2685.82
1016.268	2656.89
1016.56	2667.29
1016.851	2644.01
1017.143	2595.43
1017.435	2565.37
1017.727	2587.06
1018.018	2577.12
1018.31	2538.25
1018.602	2520.4
1018.893	2495.77
1019.185	2493.28
1019.476	2504.13
1019.767	2454.41
1020.058	2407.86
1020.35	2443.79
1020.641	2405.83
1020.932	2402.44
1021.223	2414.87
1021.514	2319.05
1021.804	2328.31
1022.095	2336.68
1022.386	2280.86
1022.677	2264.59
1022.967	2279.05
1023.258	2245.38
1023.548	2224.36
1023.839	2198.37
1024.129	2211.26
1024.419	2198.83
1024.709	2191.37
1025	2163.57
1025.29	2117.25
1025.58	2131.94
1025.87	2126.74
1026.16	2086.29
1026.449	2094.2
1026.739	2071.82
1027.029	2060.07
1027.319	2041.32
1027.608	2027.31
1027.898	1978.04
1028.187	1983.92
1028.477	1971.71
1028.766	1987.31
1029.055	1970.81
1029.344	1951.6
1029.634	1895.11
1029.923	1885.39
1030.212	1874.77
1030.501	1887.42
1030.79	1867.08
1031.078	1866.18
1031.367	1844.49
1031.656	1828.67
1031.945	1792.06
1032.233	1790.7
1032.522	1770.36
1032.81	1783.92
1033.099	1762.68
1033.387	1748.44
1033.675	1738.05
1033.963	1699.86
1034.251	1720.65
1034.54	1695.11
1034.828	1692.4
1035.116	1681.33
1035.403	1672.96
1035.691	1654.21
1035.979	1658.5
1036.267	1609.24
1036.554	1622.8
1036.842	1627.77
1037.129	1589.58
1037.417	1555.91
1037.704	1573.08
1037.992	1557.71
1038.279	1558.17
1038.566	1554.1
1038.853	1554.1
1039.14	1554.1
