Data from 16-1255_FLMS001491_005.txt Node
Date: Thu Apr 19 16:16:59 BST 2018
User: hsy
Spectrometer: FLMS00149
Trigger mode: 0
Integration Time (sec): 1.000000E-2
Scans to average: 10
Electric dark correction enabled: true
Nonlinearity correction enabled: false
Boxcar width: 0
XAxis mode: Wavelengths
Number of Pixels in Spectrum: 2048
>>>>>Begin Spectral Data<<<<<
341.393	0.06
341.776	0.06
342.16	0.06
342.543	-57.34
342.927	-56.44
343.31	-74.52
343.693	-71.58
344.077	-60.51
344.46	-63.67
344.843	-50.56
345.226	-41.3
345.61	-30.9
345.993	-27.06
346.376	-0.4
346.759	22.43
347.142	17.46
347.525	53.16
347.908	52.94
348.291	66.5
348.674	89.55
349.057	118.47
349.44	113.5
349.823	133.39
350.206	184.91
350.588	228.75
350.971	247.06
351.354	282.53
351.737	277.11
352.119	279.82
352.502	280.95
352.884	321.18
353.267	327.73
353.65	343.55
354.032	327.73
354.414	346.49
354.797	349.43
355.179	351.91
355.562	360.72
355.944	376.54
356.326	369.76
356.709	377
357.091	379.71
357.473	385.81
357.855	377.22
358.238	390.33
358.62	395.3
359.002	390.78
359.384	380.61
359.766	391.23
360.148	397.11
360.53	384.68
360.912	387.84
361.294	392.81
361.676	388.07
362.057	377.45
362.439	397.79
362.821	372.48
363.203	379.03
363.584	372.93
363.966	361.18
364.348	364.11
364.729	388.75
365.111	380.84
365.493	378.13
365.874	357.56
366.256	363.89
366.637	376.09
367.019	365.47
367.4	384
367.781	361.63
368.163	367.73
368.544	378.13
368.925	361.85
369.306	395.98
369.688	381.06
370.069	369.76
370.45	345.13
370.831	378.13
371.212	394.62
371.593	384.23
371.974	388.52
372.355	358.24
372.736	380.84
373.117	389.88
373.498	386.04
373.879	380.39
374.26	366.37
374.641	374.28
375.021	383.32
375.402	399.59
375.783	406.37
376.163	418.8
376.544	395.3
376.925	399.82
377.305	406.83
377.686	404.11
378.066	416.32
378.447	408.18
378.827	388.75
379.208	400.95
379.588	403.44
379.968	430.33
380.349	417.45
380.729	414.06
381.109	424.9
381.489	423.32
381.87	432.59
382.25	445.92
382.63	414.28
383.01	437.79
383.39	435.3
383.77	434.4
384.15	443.66
384.53	430.33
384.91	450.67
385.29	459.25
385.67	445.24
386.049	462.42
386.429	433.04
386.809	453.15
387.189	454.96
387.568	459.48
387.948	472.81
388.328	465.35
388.707	439.82
389.087	489.08
389.466	471.68
389.846	475.75
390.225	476.65
390.605	499.03
390.984	467.16
391.363	483.66
391.743	479.59
392.122	480.95
392.501	472.59
392.881	503.77
393.26	502.87
393.639	510.33
394.018	511
394.397	515.98
394.776	499.7
395.155	520.27
395.534	522.08
395.913	525.24
396.292	527.05
396.671	538.57
397.05	539.25
397.429	552.58
397.808	535.86
398.186	580.83
398.565	538.35
398.944	532.02
399.323	572.92
399.701	567.27
400.08	577.44
400.458	546.03
400.837	557.33
401.215	584
401.594	586.71
401.972	551.91
402.351	577.44
402.729	582.87
403.107	592.58
403.486	605.24
403.864	588.52
404.242	588.52
404.62	613.6
404.999	610.66
405.377	608.18
405.755	609.76
406.133	630.77
406.511	647.5
406.889	626.03
407.267	629.19
407.645	640.49
408.023	632.58
408.401	647.27
408.779	668.51
409.156	672.36
409.534	678.46
409.912	687.27
410.29	703.54
410.667	678.46
411.045	703.31
411.422	709.42
411.8	717.33
412.178	716.87
412.555	751.45
412.933	732.24
413.31	774.95
413.687	740.38
414.065	744.44
414.442	762.07
414.819	772.69
415.197	771.34
415.574	806.36
415.951	795.06
416.328	802.3
416.705	800.26
417.082	807.04
417.46	803.88
417.837	834.61
418.214	814.5
418.591	840.03
418.967	840.03
419.344	862.41
419.721	850.88
420.098	845.91
420.475	868.06
420.852	854.05
421.228	873.03
421.605	907.15
421.982	899.02
422.358	905.57
422.735	907.6
423.111	904.44
423.488	937.43
423.864	921.39
424.241	932.91
424.617	933.82
424.994	913.48
425.37	960.94
425.746	940.14
426.123	980.6
426.499	974.95
426.875	1019.46
427.251	971.56
427.627	1006.81
428.003	1037.54
428.379	1019.01
428.756	1046.36
429.132	1046.13
429.507	1061.95
429.883	1072.57
430.259	1092.46
430.635	1094.94
431.011	1079.12
431.387	1132.46
431.763	1128.61
432.138	1135.39
432.514	1146.02
432.89	1168.61
433.265	1150.76
433.641	1195.28
434.016	1244.09
434.392	1219.91
434.767	1236.41
435.143	1212.23
435.518	1235.05
435.894	1284.09
436.269	1289.29
436.644	1305.11
437.02	1283.19
437.395	1296.97
437.77	1300.14
438.145	1299.23
438.52	1344.2
438.895	1346.24
439.271	1337.87
439.646	1372.68
440.021	1399.79
440.395	1387.59
440.77	1374.26
441.145	1369.06
441.52	1430.3
441.895	1419.91
442.27	1452.45
442.645	1433.92
443.019	1437.98
443.394	1451.32
443.769	1482.5
444.143	1463.07
444.518	1473.46
444.892	1454.71
445.267	1486.35
445.641	1490.41
446.016	1527.02
446.39	1514.59
446.764	1507.81
447.139	1536.51
447.513	1543.52
447.887	1565.44
448.262	1529.51
448.636	1547.36
449.01	1592.78
449.384	1584.87
449.758	1612.67
450.132	1616.06
450.506	1652.89
450.88	1638.21
451.254	1635.49
451.628	1664.65
452.002	1696.28
452.376	1702.61
452.75	1733.12
453.123	1734.25
453.497	1752.33
453.871	1774.02
454.244	1775.15
454.618	1807.47
454.992	1840.46
455.365	1827.13
455.739	1863.74
456.112	1877.52
456.486	1900.12
456.859	1908.71
457.232	1976.05
457.606	1995.03
457.979	2009.04
458.352	2051.98
458.725	2023.05
459.099	2075.03
459.472	2098.76
459.845	2137.18
460.218	2165.88
460.591	2130.62
460.964	2140.57
461.337	2210.39
461.71	2247.91
462.083	2302.82
462.456	2287
462.829	2290.84
463.201	2339.66
463.574	2341.01
463.947	2395.02
464.32	2427.79
464.692	2420.78
465.065	2476.83
465.438	2450.84
465.81	2480.22
466.183	2516.83
466.555	2546.2
466.928	2556.6
467.3	2585.07
467.672	2603.38
468.045	2662.13
468.417	2698.06
468.789	2718.63
469.161	2728.57
469.534	2799.98
469.906	2801.34
470.278	2872.98
470.65	2822.58
471.022	2919.08
471.394	2951.39
471.766	2959.53
472.138	3013.31
472.51	3069.58
472.882	3109.58
473.253	3155.91
473.625	3196.58
473.997	3267.77
474.369	3282.68
474.74	3312.29
475.112	3373.75
475.484	3412.17
475.855	3510.02
476.227	3543.01
476.598	3621.88
476.97	3647.19
477.341	3743.01
477.713	3790.69
478.084	3830.24
478.455	3913.17
478.827	3922.89
479.198	4064.13
479.569	4070.01
479.94	4199.95
480.311	4221.41
480.682	4328.53
481.053	4391.13
481.424	4482.65
481.795	4525.81
482.166	4581.86
482.537	4690.1
482.908	4799.25
483.279	4795.86
483.65	4926.03
484.021	5013.26
484.391	5118.11
484.762	5172.58
485.133	5243.76
485.503	5326.47
485.874	5460.7
486.244	5488.95
486.615	5648.72
486.985	5770.3
487.356	5834.93
487.726	5943.18
488.097	6071.99
488.467	6130.29
488.837	6188.14
489.207	6344.97
489.578	6415.03
489.948	6598.75
490.318	6690.73
490.688	6763.04
491.058	6922.13
491.428	7058.4
491.798	7125.97
492.168	7329.13
492.538	7423.82
492.908	7502.23
493.278	7676.46
493.648	7748.33
494.017	7912.62
494.387	7946.97
494.757	8099.05
495.126	8237.35
495.496	8376.79
495.866	8478.93
496.235	8532.26
496.605	8773.16
496.974	8826.72
497.344	8941.97
497.713	9007.05
498.082	9087.28
498.452	9314.39
498.821	9362.75
499.19	9528.85
499.559	9672.57
499.928	9736.52
500.298	9826.69
500.667	10001.15
501.036	10125.44
501.405	10233.01
501.774	10289.28
502.143	10453.34
502.512	10558.87
502.88	10717.74
503.249	10781.24
503.618	10909.83
503.987	11034.34
504.356	11178.07
504.724	11320.21
505.093	11367.89
505.462	11512.52
505.83	11573.54
506.199	11723.14
506.567	11942.57
506.936	11986.41
507.304	12176.23
507.672	12289.45
508.041	12350.24
508.409	12436.57
508.777	12595.21
509.145	12744.58
509.514	12835.65
509.882	12913.16
510.25	13009.43
510.618	13244.68
510.986	13260.5
511.354	13470.44
511.722	13577.1
512.09	13826.13
512.458	13754.5
512.826	13930.31
513.193	13898.67
513.561	14036.52
513.929	14216.63
514.297	14282.84
514.664	14434.48
515.032	14440.81
515.4	14621.59
515.767	14721.03
516.135	14823.4
516.502	14779.55
516.869	15172.99
517.237	15234.46
517.604	15254.12
517.972	15424.28
518.339	15483.72
518.706	15423.15
519.073	15681.9
519.44	15833.54
519.808	16002.8
520.175	16056.13
520.542	16304.71
520.909	16347.2
521.276	16452.96
521.643	16690.01
522.009	16656.34
522.376	16857.24
522.743	16909.44
523.11	17155.99
523.477	17387.62
523.843	17401.86
524.21	17644.79
524.577	17851.34
524.943	17899.02
525.31	18125.23
525.676	18281.38
526.043	18395.28
526.409	18456.97
526.776	18723.86
527.142	18737.42
527.508	18946.22
527.874	19122.27
528.241	19199.33
528.607	19298.53
528.973	19546.89
529.339	19578.52
529.705	19837.73
530.071	19883.15
530.437	20016.25
530.803	20161.79
531.169	20393.64
531.535	20386.41
531.901	20479.97
532.267	20572.17
532.632	20769
532.998	20821.88
533.364	21112.5
533.73	21030.01
534.095	21215.54
534.461	21208.31
534.826	21490.79
535.192	21482.66
535.557	21714.29
535.923	21667.74
536.288	21788.18
536.653	21933.04
537.019	21845.36
537.384	22010.1
537.749	22117.67
538.114	22190.89
538.479	22210.09
538.845	22205.35
539.21	22276.08
539.575	22487.83
539.94	22559.24
540.305	22773.92
540.67	22823.41
541.034	22817.99
541.399	22855.95
541.764	22995.16
542.129	23063.63
542.494	23198.32
542.858	23230.63
543.223	23217.3
543.587	23363.96
543.952	23306.56
544.316	23443.73
544.681	23436.05
545.045	23614.12
545.41	23724.4
545.774	23741.35
546.138	23803.27
546.503	23868.81
546.867	24012.31
547.231	24037.39
547.595	24058.18
547.959	24081.46
548.324	24256.59
548.688	24234.9
549.052	24403.48
549.416	24309.93
549.779	24421.34
550.143	24473.99
550.507	24628.56
550.871	24824.94
551.235	24731.84
551.599	24948.1
551.962	24913.53
552.326	24974.09
552.689	25094.09
553.053	24982.45
553.417	25090.7
553.78	25245.95
554.143	25424.92
554.507	25377.02
554.87	25522.1
555.234	25774.07
555.597	25492.95
555.96	25749.66
556.323	25790.34
556.686	25796.21
557.05	26092.03
557.413	26136.54
557.776	26257.9
558.139	26360.72
558.502	26406.37
558.865	26394.16
559.228	26589.19
559.59	26792.8
559.953	26757.55
560.316	27101.94
560.679	27055.84
561.041	27146.01
561.404	27383.97
561.767	27583.29
562.129	27498.32
562.492	27722.27
562.854	27628.93
563.217	27772.89
563.579	27982.15
563.941	28115.93
564.304	28219.65
564.666	28507.56
565.028	28548.46
565.39	28507.1
565.753	28746.87
566.115	28970.14
566.477	28902.57
566.839	29071.38
567.201	29373.3
567.563	29267.76
567.925	29581.88
568.287	29705.04
568.648	29763.57
569.01	30014.18
569.372	30241.3
569.734	30280.62
570.095	30400.16
570.457	30593.6
570.819	30692.36
571.18	30798.79
571.542	31094.15
571.903	31157.66
572.265	31345.22
572.626	31520.13
572.987	31558.77
573.349	31765.77
573.71	31869.05
574.071	32137.29
574.432	32341.13
574.794	32548.13
575.155	32752.87
575.516	32700.44
575.877	32893.2
576.238	32999.64
576.599	33271.27
576.96	33418.84
577.32	33423.81
577.681	33532.51
578.042	33898.6
578.403	33907.41
578.763	34194.19
579.124	34222.21
579.485	34557.79
579.845	34728.18
580.206	34718.92
580.566	34988.06
580.927	35111.9
581.287	35475.28
581.648	35413.59
582.008	35809.96
582.368	35945.1
582.728	36095.83
583.089	36312.1
583.449	36421.92
583.809	36757.06
584.169	37087.67
584.529	37124.73
584.889	37795.45
585.249	37612.17
585.609	37636.36
585.969	38167.64
586.329	38458.93
586.688	38763.11
587.048	38905.47
587.408	39075.87
587.768	39344.56
588.127	39830.2
588.487	39874.49
588.846	40580.01
589.206	40453.23
589.565	40768.25
589.925	41399.65
590.284	41457.95
590.643	41828.11
591.003	42308.32
591.362	42778.82
591.721	42942.88
592.08	43212.25
592.44	43729.3
592.799	43930.2
593.158	44176.97
593.517	44517.53
593.876	44974.69
594.235	45240.9
594.593	45489.71
594.952	45917.95
595.311	45995.01
595.67	46621.2
596.029	46998.37
596.387	47287.17
596.746	47654.85
597.104	47797.67
597.463	48023.65
597.822	48511.32
598.18	48586.58
598.538	48960.35
598.897	49388.14
599.255	49404.41
599.613	50119.87
599.972	50149.02
600.33	50378.62
600.688	50537.03
601.046	50877.81
601.404	51322.32
601.762	51358.93
602.12	51745.81
602.478	51900.84
602.836	52093.83
603.194	52177.67
603.552	52422.63
603.91	52522.52
604.268	52868.04
604.625	53014.48
604.983	53300.8
605.341	53286.79
605.698	53682.03
606.056	53949.82
606.413	53988.69
606.771	54330.61
607.128	54479.98
607.485	54490.38
607.843	54661.67
608.2	54898.95
608.557	55125.61
608.914	55212.62
609.272	55420.29
609.629	55593.17
609.986	55774.41
610.343	55897.12
610.7	56136.21
611.057	56119.71
611.414	56261.63
611.771	56420.27
612.127	56565.8
612.484	56703.65
612.841	56886.92
613.198	56828.84
613.554	56916.75
613.911	57236.29
614.267	57223.64
614.624	57346.57
614.98	57446
615.337	57694.58
615.693	57767.58
616.05	57772.77
616.406	57949.27
616.762	57910.62
617.118	58028.36
617.475	58126.44
617.831	58353.1
618.187	58353.55
618.543	58401.23
618.899	58614.79
619.255	58664.28
619.611	58575.24
619.967	58771.17
620.323	58910.82
620.678	58815.23
621.034	58885.06
621.39	58919.64
621.746	59017.04
622.101	59288.44
622.457	59084.83
622.812	59250.25
623.168	59299.97
623.523	59325.5
623.879	59388.1
624.234	59294.77
624.589	59416.8
624.945	59455.67
625.3	59501.99
625.655	59563.91
626.01	59633.74
626.365	59621.31
626.72	59585.61
627.075	59572.28
627.43	59684.59
627.785	59710.8
628.14	59725.94
628.495	59747.86
628.85	59838.26
629.205	59742.21
629.559	59810.46
629.914	59750.8
630.269	59816.79
630.623	59694.98
630.978	59695.21
631.332	59857.92
631.687	59799.39
632.041	59786.51
632.396	59803.46
632.75	59756.68
633.104	59810.01
633.459	59692.5
633.813	59756
634.167	59759.62
634.521	59725.72
634.875	59736.56
635.229	59707.64
635.583	59597.36
635.937	59587.87
636.291	59627.19
636.645	59642.56
636.999	59477.14
637.352	59637.81
637.706	59461.54
638.06	59585.16
638.413	59508.1
638.767	59422.9
639.121	59438.27
639.474	59380.42
639.828	59347.42
640.181	59318.27
640.534	59423.58
640.888	59366.86
641.241	59191.72
641.594	59237.37
641.947	59363.02
642.301	59205.73
642.654	59257.48
643.007	59212.74
643.36	59249.8
643.713	59160.31
644.066	59281.44
644.419	59116.92
644.771	58824.95
645.124	58656.59
645.477	58607.33
645.83	58462.47
646.182	58452.98
646.535	58458.63
646.888	58474.23
647.24	58364.17
647.593	58535.69
647.945	58429.71
648.298	58328.01
648.65	58289.37
649.002	58101.35
649.355	58089.15
649.707	58024.75
650.059	58035.37
650.411	58368.24
650.763	58462.7
651.115	58938.17
651.467	58712.86
651.819	58746.76
652.171	58591.74
652.523	58596.71
652.875	58615.46
653.227	58475.36
653.578	58768.91
653.93	58664.73
654.282	58536.6
654.633	58476.03
654.985	58488.01
655.337	58562.58
655.688	58484.39
656.039	58585.86
656.391	58307.9
656.742	58398.52
657.094	58381.8
657.445	58365.98
657.796	58363.49
658.147	58307.22
658.498	58344.06
658.849	58453.21
659.2	58404.4
659.551	58364.17
659.902	58422.48
660.253	58233.78
660.604	58314
660.955	58260.22
661.306	58365.3
661.656	58242.37
662.007	58262.93
662.358	58325.53
662.708	58273.1
663.059	58226.32
663.409	58090.73
663.76	58172.54
664.11	58209.15
664.461	58260.9
664.811	58262.03
665.161	58150.84
665.511	58166.66
665.862	58162.82
666.212	58238.07
666.562	58254.8
666.912	58141.13
667.262	58086.66
667.612	58104.97
667.962	58185.19
668.312	58089.6
668.662	58222.93
669.011	58167.34
669.361	58127.34
669.711	58193.1
670.06	58102.71
670.41	58012.32
670.76	58007.8
671.109	58097.96
671.459	58077.17
671.808	58057.96
672.157	58050.06
672.507	57879.89
672.856	57836.95
673.205	57928.48
673.554	58022.94
673.904	57877.63
674.253	58041.24
674.602	57952.66
674.951	57617.75
675.3	57521.26
675.649	57927.57
675.998	57901.81
676.346	57936.39
676.695	57961.02
677.044	57769.38
677.393	57837.86
677.741	57855.03
678.09	57814.13
678.438	57739.33
678.787	57783.85
679.135	57769.38
679.484	57630.41
679.832	57748.82
680.181	57635.15
680.529	57717.18
680.877	57549.96
681.225	57542.05
681.573	57694.13
681.922	57518.54
682.27	57520.35
682.618	57538.2
682.966	57504.53
683.314	57519.9
683.661	57425.89
684.009	57406
684.357	57358.32
684.705	57294.14
685.053	57323.97
685.4	57218.44
685.748	57192
686.095	57187.93
686.443	57105
686.79	57062.28
687.138	57125.56
687.485	57118.55
687.832	57022.51
688.18	56961.04
688.527	56892.35
688.874	56934.38
689.221	56911.78
689.568	56765.57
689.915	56704.33
690.262	56700.26
690.609	56691.67
690.956	56607.61
691.303	56540.04
691.65	56444.45
691.997	56438.8
692.344	56352.47
692.69	56266.15
693.037	56310.44
693.383	56038.13
693.73	56184.57
694.077	56039.49
694.423	55957.23
694.769	55921.07
695.116	55904.8
695.462	55818.48
695.808	55701.42
696.155	55804.24
696.501	55510.24
696.847	55668.42
697.193	55447.64
697.539	55458.71
697.885	55245.38
698.231	55238.38
698.577	55195.22
698.923	55197.25
699.269	55035.67
699.614	54903.47
699.96	54776.7
700.306	54830.71
700.651	54686.75
700.997	54614.21
701.342	54575.8
701.688	54505.29
702.033	54434.11
702.379	54440.88
702.724	54303.94
703.069	54407.44
703.415	54083.38
703.76	53970.61
704.105	53996.6
704.45	53877.28
704.795	53807.68
705.14	53675.71
705.485	53604.3
705.83	53528.37
706.175	53643.62
706.52	53506.45
706.865	53514.13
707.209	53254.7
707.554	53135.83
707.899	53243.85
708.243	53080.24
708.588	53099.23
708.932	52794.83
709.277	52965.9
709.621	52741.72
709.966	52612.46
710.31	52649.52
710.654	52377.21
710.998	52468.06
711.342	52480.48
711.687	52376.76
712.031	52309.42
712.375	52169.08
712.719	52045.47
713.063	52028.29
713.407	52097.9
713.75	51917.11
714.094	51933.61
714.438	51817
714.782	51806.15
715.125	51628.76
715.469	51847.96
715.812	51502.66
716.156	51520.28
716.499	51418.82
716.843	51478.25
717.186	51279.39
717.53	51359.16
717.873	51380.63
718.216	51259.27
718.559	51094.31
718.902	50895.67
719.246	50996.91
719.589	50824.71
719.932	50830.13
720.275	50886.18
720.617	50751.49
720.96	50753.52
721.303	50705.39
721.646	50741.32
721.989	50511.72
722.331	50557.37
722.674	50455.23
723.016	50523.93
723.359	50274.44
723.701	50307.66
724.044	50237.38
724.386	50101.56
724.729	50180.66
725.071	50173.43
725.413	50166.2
725.755	50067.89
726.097	49972.75
726.439	49894.56
726.782	49937.73
727.124	49959.42
727.465	49942.02
727.807	49796.49
728.149	49772.53
728.491	49607.34
728.833	49707
729.175	49550.84
729.516	49539.32
729.858	49488.92
730.199	49550.62
730.541	49608.92
730.882	49390.62
731.224	49490.73
731.565	49331.87
731.906	49208.25
732.248	49329.61
732.589	49231.76
732.93	49042.16
733.271	49052.33
733.612	49093.68
733.953	49141.14
734.294	48933.69
734.635	48713.35
734.976	48968.49
735.317	48754.48
735.658	48795.16
735.999	48666.8
736.339	48632.22
736.68	48813.24
737.021	48738.66
737.361	48537.99
737.702	48909.5
738.042	48585.22
738.383	48542.51
738.723	48693.92
739.063	48434.26
739.404	48647.36
739.744	48457.09
740.084	48504.54
740.424	48496.86
740.764	48349.07
741.104	48561.49
741.444	48211.44
741.784	48232.91
742.124	48504.09
742.464	48333.47
742.804	48251.44
743.143	48157.66
743.483	48281.72
743.823	48086.48
744.162	48041.51
744.502	48093.93
744.841	47859.59
745.181	48137.32
745.52	47912.92
745.86	48037.89
746.199	47985.46
746.538	47877.44
746.877	48005.35
747.216	47827.73
747.556	47869.98
747.895	47815.97
748.234	47917.67
748.573	47834.96
748.911	47746.6
749.25	47776.2
749.589	47590.44
749.928	47738.69
750.267	47702.08
750.605	47674.28
750.944	47617.34
751.283	47472.48
751.621	47638.8
751.96	47355.2
752.298	47453.95
752.636	47361.3
752.975	47245.37
753.313	47277.46
753.651	47477.9
753.989	47173.51
754.327	47170.57
754.666	46935.55
755.004	47142.32
755.342	47019.61
755.679	47063.9
756.017	46865.72
756.355	46981.87
756.693	46756.57
757.031	46937.81
757.368	46713.4
757.706	46664.82
758.044	46657.81
758.381	46495.11
758.719	46469.57
759.056	46493.3
759.394	46386.41
759.731	46022.12
760.068	46099.86
760.405	46139.18
760.743	46006.53
761.08	46034.78
761.417	45660.1
761.754	45674.34
762.091	45672.3
762.428	45418.75
762.765	45275.93
763.102	45425.53
763.438	45251.52
763.775	44984.64
764.112	45011.98
764.449	44890.63
764.785	44803.62
765.122	44885.88
765.458	44542.61
765.795	44441.15
766.131	44477.31
766.467	44388.27
766.804	44101.5
767.14	44009.07
767.476	43851.56
767.812	43802.07
768.148	43823.54
768.485	43692.24
768.821	43397.11
769.157	43236.21
769.492	43339.71
769.828	43181.97
770.164	42827.4
770.5	42750.34
770.836	42780.17
771.171	42501.54
771.507	42456.57
771.842	42043.7
772.178	42139.51
772.513	42013.64
772.849	41958.05
773.184	41842.8
773.519	41676.02
773.855	41419.08
774.19	41410.49
774.525	41274.23
774.86	41177.73
775.195	40963.5
775.53	40998.3
775.865	40610.97
776.2	40354.48
776.535	40307.25
776.87	40179.11
777.205	40113.58
777.539	39897.76
777.874	39781.38
778.209	39538.68
778.543	39492.58
778.878	39399.02
779.212	39391.56
779.547	39159.03
779.881	39029.31
780.215	38661.19
780.55	38764.23
780.884	38396.11
781.218	38387.75
781.552	38549.1
781.886	38164.7
782.22	37996.57
782.554	37770.59
782.888	37477.49
783.222	37572.63
783.556	37255.12
783.889	37263.48
784.223	37011.96
784.557	37021.23
784.89	37110.72
785.224	36760.9
785.557	36583.73
785.891	36683.84
786.224	36493.79
786.558	36398.65
786.891	36214.47
787.224	35996.62
787.557	35718.21
787.891	35911.88
788.224	35572.68
788.557	35637.76
788.89	35639.12
789.223	35467.37
789.556	35191.9
789.888	35129.08
790.221	34978.12
790.554	34703.1
790.887	34771.12
791.219	34510.79
791.552	34446.16
791.884	34445.7
792.217	34167.52
792.549	34063.34
792.882	33775.21
793.214	33745.16
793.546	33760.3
793.879	33572.51
794.211	33287.32
794.543	33498.16
794.875	33333.42
795.207	33366.41
795.539	33140.65
795.871	33101.33
796.203	32932.98
796.535	32730.72
796.867	32688.01
797.198	32483.27
797.53	32573.21
797.862	32203.5
798.193	32291.86
798.525	32146.33
798.856	32178.19
799.188	31831.31
799.519	31662.5
799.85	31511.77
800.182	31563.52
800.513	31581.15
800.844	31356.52
801.175	31396.29
801.506	31416.41
801.837	31159.24
802.168	31061.61
802.499	31130.76
802.83	30922.86
803.161	30710.21
803.491	30803.09
803.822	30771
804.153	30385.7
804.483	30332.14
804.814	30259.6
805.145	30295.98
805.475	30282.2
805.805	30209.88
806.136	30165.37
806.466	29905.48
806.796	29963.56
807.126	29718.15
807.457	29696
807.787	29601.76
808.117	29508.43
808.447	29452.16
808.777	29414.42
809.107	29144.6
809.436	29171.72
809.766	29130.82
810.096	29088.78
810.426	28989.12
810.755	28989.35
811.085	28955.45
811.414	28897.6
811.744	28732.18
812.073	28689.02
812.403	28562.47
812.732	28543.94
813.061	28550.04
813.39	28371.51
813.719	28338.29
814.049	28421.23
814.378	28322.48
814.707	28127.68
815.036	28121.35
815.365	27916.38
815.693	27779.21
816.022	27832.09
816.351	27622.16
816.68	27512.55
817.008	27562.27
817.337	27461.03
817.665	27393.01
817.994	27383.07
818.322	27468.94
818.651	27267.14
818.979	27134.48
819.307	27196.18
819.636	27068.72
819.964	27084.09
820.292	27094.49
820.62	27109.85
820.948	27186.46
821.276	27158.89
821.604	26971.55
821.932	27084.77
822.259	27053.36
822.587	27076.86
822.915	26897.65
823.243	26986.24
823.57	26842.51
823.898	27055.84
824.225	26905.79
824.553	26882.51
824.88	26873.93
825.207	27028.05
825.535	26942.17
825.862	27061.49
826.189	26871.89
826.516	27103.98
826.843	27211.32
827.17	27094.94
827.497	27087.03
827.824	27076.18
828.151	27079.57
828.478	26948.95
828.805	27154.82
829.131	27115.95
829.458	27101.72
829.785	26873.25
830.111	26905.79
830.438	27075.5
830.764	27011.78
831.09	27037.31
831.417	26938.78
831.743	26899.24
832.069	26941.72
832.395	27023.07
832.722	26961.38
833.048	26738.11
833.374	26912.8
833.7	26902.63
834.026	26904.66
834.351	26689.07
834.677	26876.64
835.003	26801.39
835.329	26892.68
835.654	26734.27
835.98	26610.2
836.306	26757.77
836.631	26609.75
836.956	26702.86
837.282	26602.52
837.607	26620.15
837.932	26521.39
838.258	26399.14
838.583	26384.45
838.908	26424.9
839.233	26558
839.558	26274.17
839.883	26242.98
840.208	26086.6
840.533	26153.27
840.858	26076.43
841.182	26116.43
841.507	26184.9
841.832	26005.7
842.156	26002.54
842.481	25951.01
842.805	25806.16
843.13	25754.63
843.454	25783.33
843.778	25728.65
844.103	25667.86
844.427	25606.61
844.751	25493.4
845.075	25513.96
845.399	25464.02
845.723	25258.15
846.047	25249.11
846.371	25120.75
846.695	25029.23
847.019	24959.85
847.343	24789.69
847.666	24742
847.99	24612.74
848.313	24609.8
848.637	24485.51
848.96	24448.23
849.284	24362.58
849.607	24252.07
849.931	24046.88
850.254	23974.57
850.577	23752.88
850.9	23522.15
851.223	23714.91
851.546	23685.99
851.869	23397.41
852.192	23594.92
852.515	23390.63
852.838	23227.92
853.161	23216.4
853.483	23090.52
853.806	23018.21
854.129	22917.65
854.451	22963.52
854.774	22814.37
855.096	22766.69
855.419	22612.12
855.741	22547.71
856.063	22444.89
856.385	22349.07
856.708	22299.58
857.03	22262.75
857.352	22316.31
857.674	22217.78
857.996	22089.19
858.318	21959.71
858.64	22003.32
858.961	21852.82
859.283	21931.68
859.605	21809.2
859.926	21771.46
860.248	21667.28
860.57	21536.89
860.891	21639.94
861.212	21458.7
861.534	21402.66
861.855	21356.11
862.176	21427.52
862.498	21367.63
862.819	21254.41
863.14	21306.84
863.461	21202.44
863.782	21135.09
864.103	21039.28
864.424	21109.56
864.745	21068.66
865.065	20921.77
865.386	20820.98
865.707	20922.44
866.027	20915.44
866.348	20809.23
866.668	20841.09
866.989	20758.61
867.309	20640.19
867.63	20619.63
867.95	20805.16
868.27	20593.41
868.59	20600.42
868.91	20563.81
869.23	20442.23
869.55	20340.31
869.87	20453.08
870.19	20420.99
870.51	20378.73
870.83	20435
871.15	20268.68
871.469	20251.28
871.789	20338.73
872.109	20167.44
872.428	20202.92
872.748	20223.25
873.067	20112.3
873.386	20205.85
873.706	20122.69
874.025	19970.83
874.344	19900.78
874.663	19948.68
874.982	19989.81
875.301	19978.74
875.62	19703.49
875.939	19774.23
876.258	19814.22
876.577	19687.67
876.896	19700.56
877.214	19577.62
877.533	19649.48
877.852	19562.71
878.17	19631.4
878.489	19652.2
878.807	19544.63
879.125	19496.72
879.444	19415.82
879.762	19361.36
880.08	19470.5
880.398	19320.23
880.716	19287.68
881.034	19259.44
881.352	19259.89
881.67	19211.98
881.988	19375.59
882.306	19124.07
882.624	19148.48
882.941	18979.67
883.259	18900.58
883.577	18840.47
883.894	18861.26
884.212	18888.6
884.529	18860.13
884.846	18821.48
885.164	18682.73
885.481	18677.31
885.798	18610.87
886.115	18500.59
886.432	18587.36
886.75	18485.45
887.067	18604.99
887.383	18361.61
887.7	18445.45
888.017	18332.91
888.334	18358.9
888.651	18298.78
888.967	18221.27
889.284	18083.65
889.6	18034.84
889.917	17962.75
890.233	18036.19
890.55	17896.99
890.866	17910.32
891.182	17866.71
891.498	17732.47
891.815	17753.04
892.131	17710.33
892.447	17718.01
892.763	17650.44
893.079	17560.05
893.395	17455.64
893.71	17504.68
894.026	17319.6
894.342	17407.51
894.657	17269.21
894.973	17358.47
895.289	17167.29
895.604	17100.62
895.92	16986.5
896.235	17041.64
896.55	16956.22
896.865	16842.78
897.181	16835.09
897.496	16886.62
897.811	16819.73
898.126	16628.55
898.441	16575.67
898.756	16680.52
899.071	16502.45
899.386	16552.16
899.7	16472.62
900.015	16318.72
900.33	16188.11
900.644	16225.17
900.959	16150.37
901.273	16136.58
901.588	16088.45
901.902	15956.02
902.216	15959.86
902.531	15842.13
902.845	15733.2
903.159	15696.59
903.473	15643.49
903.787	15489.59
904.101	15453.44
904.415	15478.29
904.729	15426.77
905.042	15307.9
905.356	15293.89
905.67	15326.43
905.984	15270.84
906.297	15217.06
906.611	15025.88
906.924	15126.44
907.237	14970.96
907.551	15019.32
907.864	14833.56
908.177	14835.15
908.491	14860.23
908.804	14671.54
909.117	14696.85
909.43	14504.76
909.743	14559.45
910.056	14465.66
910.368	14459.34
910.681	14313.58
910.994	14363.75
911.307	14256.86
911.619	14030.65
911.932	14199.23
912.244	14029.74
912.557	13969.18
912.869	13890.54
913.181	13860.26
913.494	13889.18
913.806	13752.46
914.118	13657.55
914.43	13734.38
914.742	13641.51
915.054	13538.23
915.366	13479.7
915.678	13493.49
915.99	13373.49
916.302	13261.63
916.613	13152.03
916.925	13258.46
917.236	13255.75
917.548	13077.9
917.859	13183.89
918.171	12969.88
918.482	12852.37
918.794	12900.28
919.105	12863.45
919.416	12760.62
919.727	12730.8
920.038	12712.72
920.349	12530.12
920.66	12500.07
920.971	12542.55
921.282	12527.18
921.593	12384.36
921.903	12294.65
922.214	12318.38
922.525	12171.49
922.835	12239.73
923.146	12138.49
923.456	12038.61
923.767	12029.57
924.077	12042.9
924.387	11915
924.697	11928.56
925.008	11840.65
925.318	11707.55
925.628	11728.56
925.938	11675.68
926.248	11607.21
926.558	11495.12
926.867	11542.8
927.177	11464.84
927.487	11405.41
927.796	11317.73
928.106	11351.62
928.416	11241.12
928.725	11209.71
929.034	11162.47
929.344	11197.28
929.653	11169.03
929.962	11020.56
930.271	10931.52
930.581	10875.02
930.89	10838.64
931.199	10762.71
931.508	10745.99
931.817	10763.16
932.125	10738.53
932.434	10623.96
932.743	10594.81
933.051	10536.95
933.36	10473
933.669	10415.83
933.977	10399.11
934.286	10375.38
934.594	10345.32
934.902	10218.54
935.21	10249.28
935.519	10175.83
935.827	10133.12
936.135	10058.32
936.443	10006.8
936.751	9983.3
937.059	9984.65
937.367	9880.02
937.674	9928.38
937.982	9860.59
938.29	9824.88
938.597	9827.37
938.905	9681.61
939.213	9731.1
939.52	9605.68
939.827	9629.86
940.135	9566.13
940.442	9509.18
940.749	9443.2
941.056	9426.02
941.363	9412.01
941.67	9366.59
941.977	9238.46
942.284	9313.03
942.591	9205.92
942.898	9201.62
943.205	9141.74
943.511	9128.86
943.818	9125.01
944.125	8962.08
944.431	8965.7
944.738	8905.13
945.044	8927.05
945.35	8857.68
945.657	8855.64
945.963	8804.34
946.269	8752.82
946.575	8659.72
946.881	8645.48
947.187	8636.21
947.493	8576.78
947.799	8595.76
948.105	8502.66
948.41	8434.19
948.716	8435.31
949.022	8380.63
949.327	8398.03
949.633	8255.66
949.938	8264.92
950.244	8247.52
950.549	8189.67
950.854	8157.58
951.16	8123.91
951.465	8128.66
951.77	7975.44
952.075	8019.51
952.38	8021.54
952.685	7957.81
952.99	7838.27
953.294	7880.08
953.599	7791.04
953.904	7751.04
954.209	7723.7
954.513	7789
954.818	7669.01
955.122	7653.19
955.426	7647.09
955.731	7585.17
956.035	7537.26
956.339	7554.21
956.643	7527.32
956.948	7463.14
957.252	7437.83
957.556	7436.7
957.86	7318.73
958.163	7319.41
958.467	7322.58
958.771	7189.25
959.075	7235.35
959.378	7193.77
959.682	7200.55
959.985	7108.8
960.289	7033.77
960.592	7062.24
960.896	7025.18
961.199	6949.93
961.502	6988.8
961.805	6934.79
962.108	6896.82
962.411	6868.58
962.714	6826.54
963.017	6764.17
963.32	6775.7
963.623	6751.74
963.926	6726.66
964.228	6599.21
964.531	6632.65
964.833	6611.18
965.136	6531.41
965.438	6530.96
965.741	6528.02
966.043	6515.82
966.345	6419.55
966.648	6426.78
966.95	6403.28
967.252	6367.57
967.554	6382.49
967.856	6391.75
968.158	6262.04
968.46	6289.83
968.761	6251.19
969.063	6234.69
969.365	6198.31
969.666	6149.5
969.968	6118.77
970.269	6089.84
970.571	6085.09
970.872	6083.06
971.174	6003.06
971.475	6004.42
971.776	5967.58
972.077	5902.05
972.378	5908.38
972.679	5917.19
972.98	5868.83
973.281	5842.39
973.582	5813.91
973.883	5780.47
974.183	5753.8
974.484	5709.74
974.785	5672.68
975.085	5707.25
975.386	5637.65
975.686	5640.13
975.986	5562.4
976.287	5556.75
976.587	5525.33
976.887	5553.58
977.187	5526.24
977.487	5457.77
977.787	5469.97
978.087	5386.13
978.387	5388.84
978.687	5325.57
978.987	5348.16
979.286	5348.62
979.586	5287.6
979.885	5262.07
980.185	5240.6
980.484	5253.7
980.784	5168.51
981.083	5217.55
981.382	5144.78
981.682	5146.36
981.981	5093.26
982.28	5067.72
982.579	5021.39
982.878	5011.22
983.177	4990.89
983.475	4936.42
983.774	4991.56
984.073	4955.86
984.372	4923.54
984.67	4918.57
984.969	4866.82
985.267	4845.58
985.566	4858.46
985.864	4796.54
986.162	4786.15
986.461	4680.16
986.759	4680.84
987.057	4639.71
987.355	4699.37
987.653	4629.77
987.951	4660.95
988.249	4607.62
988.547	4609.88
988.844	4575.76
989.142	4555.87
989.44	4540.5
989.737	4541.18
990.035	4497.79
990.332	4456.44
990.63	4396.33
990.927	4455.53
991.224	4427.06
991.521	4387.51
991.819	4336.21
992.116	4313.84
992.413	4278.36
992.71	4295.99
993.006	4265.71
993.303	4244.69
993.6	4252.37
993.897	4221.41
994.193	4231.13
994.49	4144.35
994.787	4171.47
995.083	4144.35
995.379	4096.67
995.676	4061.42
995.972	4061.42
996.268	4023.91
996.565	3983.23
996.861	3979.84
997.157	3923.57
997.453	3956.11
997.749	3917.02
998.044	3897.36
998.34	3927.41
998.636	3867.98
998.932	3873.4
999.227	3837.47
999.523	3825.04
999.818	3781.65
1000.114	3758.6
1000.409	3717.7
1000.704	3734.42
1001	3691.94
1001.295	3647.42
1001.59	3650.36
1001.885	3639.28
1002.18	3660.07
1002.475	3593.18
1002.77	3606.52
1003.065	3533.75
1003.359	3536.23
1003.654	3486.74
1003.949	3491.72
1004.243	3528.78
1004.538	3447.42
1004.832	3440.87
1005.127	3423.24
1005.421	3418.05
1005.715	3370.59
1006.009	3370.14
1006.304	3326.3
1006.598	3329.23
1006.892	3284.94
1007.186	3258.73
1007.48	3228.45
1007.773	3238.84
1008.067	3210.14
1008.361	3218.95
1008.655	3197.03
1008.948	3154.78
1009.242	3142.57
1009.535	3129.47
1009.829	3100.77
1010.122	3060.99
1010.415	3036.59
1010.708	3044.95
1011.001	3039.3
1011.295	3020.54
1011.588	2988.9
1011.881	2993.2
1012.173	2945.06
1012.466	2910.26
1012.759	2883.37
1013.052	2901.22
1013.344	2879.98
1013.637	2882.24
1013.93	2848.57
1014.222	2780.32
1014.514	2807.67
1014.807	2767.67
1015.099	2758.4
1015.391	2735.35
1015.683	2689.93
1015.976	2718.18
1016.268	2669.36
1016.56	2686.54
1016.851	2698.74
1017.143	2640.44
1017.435	2622.13
1017.727	2587.56
1018.018	2595.92
1018.31	2593.66
1018.602	2551.18
1018.893	2526.32
1019.185	2527.22
1019.476	2528.58
1019.767	2467.56
1020.058	2465.53
1020.35	2456.04
1020.641	2410.84
1020.932	2421.01
1021.223	2365.87
1021.514	2402.25
1021.804	2367.68
1022.095	2335.14
1022.386	2327.45
1022.677	2309.37
1022.967	2293.33
1023.258	2266.44
1023.548	2248.36
1023.839	2294.23
1024.129	2223.95
1024.419	2230.51
1024.709	2201.81
1025	2158.19
1025.29	2169.72
1025.58	2169.26
1025.87	2164.75
1026.16	2104.63
1026.449	2112.09
1026.739	2070.96
1027.029	2065.54
1027.319	2051.53
1027.608	2041.13
1027.898	2030.96
1028.187	2014.69
1028.477	1999.33
1028.766	1975.15
1029.055	1950.06
1029.344	1974.69
1029.634	1958.2
1029.923	1926.56
1030.212	1937.86
1030.501	1931.53
1030.79	1884.75
1031.078	1894.7
1031.367	1847.69
1031.656	1833.23
1031.945	1841.14
1032.233	1809.27
1032.522	1807.24
1032.81	1790.74
1033.099	1769.05
1033.387	1787.58
1033.675	1751.2
1033.963	1747.58
1034.251	1722.05
1034.54	1672.33
1034.828	1677.3
1035.116	1660.13
1035.403	1639.11
1035.691	1654.7
1035.979	1657.87
1036.267	1611.54
1036.554	1668.71
1036.842	1613.35
1037.129	1632.56
1037.417	1599.11
1037.704	1592.78
1037.992	1576.29
1038.279	1537.64
1038.566	1559.11
1038.853	1559.11
1039.14	1559.11
