Data from 16-1255_FLMS001491_007.txt Node
Date: Thu Apr 19 16:17:04 BST 2018
User: hsy
Spectrometer: FLMS00149
Trigger mode: 0
Integration Time (sec): 1.000000E-2
Scans to average: 10
Electric dark correction enabled: true
Nonlinearity correction enabled: false
Boxcar width: 0
XAxis mode: Wavelengths
Number of Pixels in Spectrum: 2048
>>>>>Begin Spectral Data<<<<<
341.393	-9.07
341.776	-9.07
342.16	-9.07
342.543	-65.79
342.927	-65.79
343.31	-84.55
343.693	-74.38
344.077	-59.01
344.46	-60.59
344.843	-52.91
345.226	-40.25
345.61	-21.04
345.993	-28.05
346.376	1.55
346.759	8.11
347.142	13.3
347.525	31.38
347.908	71.83
348.291	89.91
348.674	91.27
349.057	113.42
349.44	136.92
349.823	161.78
350.206	181.89
350.588	241.32
350.971	265.28
351.354	282.45
351.737	288.1
352.119	333.75
352.502	298.04
352.884	304.37
353.267	320.42
353.65	316.8
354.032	329
354.414	354.99
354.797	365.16
355.179	357.02
355.562	360.64
355.944	379.85
356.326	366.29
356.709	380.53
357.091	376.91
357.473	392.05
357.855	388.44
358.238	382.56
358.62	365.61
359.002	386.63
359.384	394.76
359.766	400.41
360.148	390.02
360.53	391.83
360.912	387.76
361.294	395.22
361.676	373.3
362.057	384.14
362.439	383.24
362.821	378.27
363.203	377.14
363.584	383.92
363.966	376.46
364.348	358.83
364.729	382.33
365.111	359.06
365.493	394.54
365.874	365.39
366.256	379.62
366.637	385.5
367.019	385.95
367.4	370.36
367.781	377.59
368.163	372.62
368.544	364.26
368.925	381.88
369.306	357.7
369.688	358.38
370.069	379.85
370.45	372.17
370.831	371.49
371.212	381.66
371.593	399.51
371.974	367.42
372.355	376.23
372.736	394.09
373.117	404.93
373.498	389.11
373.879	377.14
374.26	398.15
374.641	382.79
375.021	373.07
375.402	383.69
375.783	407.64
376.163	424.82
376.544	404.03
376.925	408.1
377.305	397.25
377.686	401.54
378.066	406.97
378.447	414.88
378.827	413.75
379.208	422.33
379.588	413.75
379.968	383.24
380.349	415.1
380.729	421.43
381.109	417.81
381.489	439.06
381.87	439.73
382.25	429.34
382.63	430.02
383.01	429.11
383.39	443.12
383.77	449.9
384.15	441.77
384.53	458.72
384.91	444.48
385.29	426.4
385.67	427.76
386.049	442.45
386.429	444.71
386.809	457.13
387.189	491.48
387.568	457.13
387.948	470.47
388.328	467.3
388.707	471.6
389.087	483.8
389.466	492.16
389.846	500.98
390.225	487.64
390.605	484.03
390.984	471.6
391.363	485.38
391.743	514.76
392.122	490.58
392.501	533.52
392.881	505.27
393.26	498.72
393.639	503.69
394.018	512.05
394.397	518.38
394.776	522.9
395.155	537.58
395.534	539.17
395.913	530.58
396.292	525.61
396.671	535.1
397.05	559.28
397.429	553.63
397.808	543.46
398.186	518.15
398.565	553.18
398.944	549.34
399.323	555.21
399.701	558.83
400.08	567.41
400.458	571.93
400.837	577.13
401.215	575.55
401.594	607.19
401.972	571.48
402.351	589.56
402.729	581.2
403.107	598.37
403.486	609.22
403.864	618.03
404.242	616.23
404.62	616
404.999	630.24
405.377	619.16
405.755	610.35
406.133	638.15
406.511	631.59
406.889	643.34
407.267	650.12
407.645	649.67
408.023	668.88
408.401	665.04
408.779	666.39
409.156	679.73
409.534	704.36
409.912	685.38
410.29	668.43
410.667	716.11
411.045	718.6
411.422	752.04
411.8	720.4
412.178	737.13
412.555	742.1
412.933	754.53
413.31	755.88
413.687	784.13
414.065	755.21
414.442	779.61
414.819	788.65
415.197	803.79
415.574	802.21
415.951	815.54
416.328	823.45
416.705	819.16
417.082	826.39
417.46	830.46
417.837	848.99
418.214	843.11
418.591	833.62
418.967	855.77
419.344	864.58
419.721	862.55
420.098	858.25
420.475	844.02
420.852	883.34
421.228	893.51
421.605	910.23
421.982	871.59
422.358	918.37
422.735	904.35
423.111	915.88
423.488	962.21
423.864	935.77
424.241	936.9
424.617	946.84
424.994	972.6
425.37	940.29
425.746	981.64
426.123	975.54
426.499	952.94
426.875	985.93
427.251	1002.21
427.627	1019.61
428.003	1032.94
428.379	1055.76
428.756	1068.42
429.132	1074.07
429.507	1073.62
429.883	1075.65
430.259	1088.98
430.635	1105.71
431.011	1093.5
431.387	1125.59
431.763	1152.26
432.138	1128.08
432.514	1172.82
432.89	1204.23
433.265	1183.67
433.641	1201.3
434.016	1201.52
434.392	1225.25
434.767	1272.93
435.143	1253.72
435.518	1271.58
435.894	1248.3
436.269	1267.51
436.644	1332.37
437.02	1310.45
437.395	1305.47
437.77	1340.95
438.145	1342.99
438.52	1377.34
438.895	1370.56
439.271	1367.17
439.646	1373.72
440.021	1397.22
440.395	1382.53
440.77	1385.7
441.145	1430.67
441.52	1427.96
441.895	1401.29
442.27	1455.53
442.645	1413.95
443.019	1440.39
443.394	1467.05
443.769	1489.2
444.143	1475.64
444.518	1495.07
444.892	1494.17
445.267	1513.6
445.641	1508.41
446.016	1531.91
446.39	1524.68
446.764	1534.17
447.139	1529.88
447.513	1543.43
447.887	1568.07
448.262	1558.57
448.636	1600.16
449.01	1602.64
449.384	1606.03
449.758	1627.5
450.132	1639.25
450.506	1626.37
450.88	1686.03
451.254	1678.57
451.628	1693.49
452.002	1744.11
452.376	1711.79
452.75	1713.6
453.123	1726.25
453.497	1758.8
453.871	1743.65
454.244	1811.9
454.618	1796.08
454.992	1865.01
455.365	1840.83
455.739	1887.38
456.112	1911.56
456.486	1918.57
456.859	1918.57
457.232	2003.99
457.606	2007.38
457.979	2024.33
458.352	2042.18
458.725	2076.08
459.099	2095.74
459.472	2094.15
459.845	2155.85
460.218	2151.33
460.591	2173.47
460.964	2198.33
461.337	2227.26
461.71	2265.45
462.083	2262.96
462.456	2273.36
462.829	2320.81
463.201	2348.38
463.574	2339.57
463.947	2410.08
464.32	2379.34
464.692	2410.98
465.065	2481.94
465.438	2522.84
465.81	2504.76
466.183	2528.49
466.555	2631.77
466.928	2610.3
467.3	2584.08
467.672	2631.09
468.045	2702.73
468.417	2729.17
468.789	2708.6
469.161	2791.54
469.534	2817.75
469.906	2841.03
470.278	2893.23
470.65	2887.35
471.022	2934.58
471.394	2995.37
471.766	2992.44
472.138	3089.61
472.51	3063.39
472.882	3172.09
473.253	3175.26
473.625	3234.69
473.997	3313.78
474.369	3300.45
474.74	3362.37
475.112	3449.37
475.484	3465.87
475.855	3502.7
476.227	3601.68
476.598	3644.85
476.97	3670.38
477.341	3721.46
477.713	3786.31
478.084	3846.88
478.455	3941.34
478.827	3956.7
479.198	4122.58
479.569	4095.91
479.94	4201.9
480.311	4237.83
480.682	4357.82
481.053	4381.33
481.424	4540.42
481.795	4584.48
482.166	4678.72
482.537	4698.83
482.908	4865.83
483.279	4880.97
483.65	5010.24
484.021	5063.34
484.391	5129.55
484.762	5210.91
485.133	5263.79
485.503	5359.6
485.874	5511.92
486.244	5629.2
486.615	5686.6
486.985	5800.27
487.356	5863.09
487.726	5962.07
488.097	6068.51
488.467	6150.09
488.837	6319.81
489.207	6389.63
489.578	6530.87
489.948	6603.64
490.318	6786.91
490.688	6804.31
491.058	6976.96
491.428	7075.49
491.798	7209.5
492.168	7312.55
492.538	7459.89
492.908	7580.56
493.278	7691.07
493.648	7760.45
494.017	7909.59
494.387	7963.6
494.757	8167.44
495.126	8280.66
495.496	8352.29
495.866	8418.28
496.235	8584.15
496.605	8801.32
496.974	8824.6
497.344	8973.75
497.713	9107.08
498.082	9247.41
498.452	9326.51
498.821	9436.33
499.19	9504.13
499.559	9648.53
499.928	9813.5
500.298	9874.06
500.667	10029.54
501.036	10109.76
501.405	10290.32
501.774	10356.08
502.143	10497.1
502.512	10635.85
502.88	10764.43
503.249	10808.5
503.618	10960.81
503.987	11047.14
504.356	11178.89
504.724	11296.85
505.093	11426.34
505.462	11469.73
505.83	11614.13
506.199	11799.44
506.567	11899.32
506.936	12050.73
507.304	12210.95
507.672	12260.89
508.041	12360.78
508.409	12582.24
508.777	12733.42
509.145	12786.08
509.514	12861.33
509.882	12927.54
510.25	13066.07
510.618	13272.84
510.986	13276.01
511.354	13456.12
511.722	13609.78
512.09	13696.79
512.458	13690.91
512.826	13845.48
513.193	13917.12
513.561	14083.22
513.929	14209.09
514.297	14264.91
514.664	14529.76
515.032	14543.09
515.4	14688.85
515.767	14731.56
516.135	14830.09
516.502	14715.07
516.869	15170.65
517.237	15195.28
517.604	15231.66
517.972	15411.54
518.339	15434.59
518.706	15617.19
519.073	15724.53
519.44	15808.14
519.808	15979.21
520.175	16096.5
520.542	16301.01
520.909	16307.34
521.276	16436.6
521.643	16630.72
522.009	16646.31
522.376	16922.46
522.743	16910.49
523.11	17259.86
523.477	17423.02
523.843	17394.32
524.21	17672.5
524.577	17833.4
524.943	17879.28
525.31	17994.75
525.676	18260.06
526.043	18430.9
526.409	18503.44
526.776	18612.59
527.142	18740.27
527.508	18968.06
527.874	19077.66
528.241	19178
528.607	19343.19
528.973	19473.58
529.339	19523.07
529.705	19792.45
530.071	19787.25
530.437	19940.46
530.803	20100.01
531.169	20234.92
531.535	20357.4
531.901	20393.11
532.267	20468.81
532.632	20717.39
532.998	20775.7
533.364	20958.29
533.73	20986.31
534.095	21123.03
534.461	21153.77
534.826	21405.28
535.192	21443.02
535.557	21606.86
535.923	21611.38
536.288	21710.14
536.653	21780.42
537.019	21867.19
537.384	22021.54
537.749	21950.81
538.114	22047.98
538.479	22110.12
538.845	22245.71
539.21	22270.12
539.575	22375.43
539.94	22522.77
540.305	22597.8
540.67	22673.73
541.034	22738.36
541.399	22791.91
541.764	22925.24
542.129	22971.57
542.494	23085.92
542.858	23248.85
543.223	23091.12
543.587	23345.35
543.952	23258.8
544.316	23270.09
544.681	23369.98
545.045	23667.82
545.41	23617.66
545.774	23630.76
546.138	23689.07
546.503	23699.01
546.867	23728.61
547.231	23961.38
547.595	24072.79
547.959	24102.61
548.324	24146.46
548.688	24306
549.052	24315.49
549.416	24384.87
549.779	24264.64
550.143	24385.55
550.507	24562.49
550.871	24546.44
551.235	24559.33
551.599	24841.58
551.962	24843.84
552.326	24922.48
552.689	24939.43
553.053	24927.45
553.417	25092.42
553.78	25377.61
554.143	25173.77
554.507	25368.12
554.87	25531.96
555.234	25658.96
555.597	25466.19
555.96	25663.03
556.323	25789.12
556.686	25817.82
557.05	26049.23
557.413	26021.89
557.776	26101.88
558.139	26323.57
558.502	26339.84
558.865	26363.57
559.228	26574.64
559.59	26574.64
559.953	26612.38
560.316	27004.01
560.679	26985.02
561.041	27127.62
561.404	27247.84
561.767	27393.6
562.129	27368.07
562.492	27690.77
562.854	27627.72
563.217	27658.45
563.579	27774.83
563.941	27907.71
564.304	28156.29
564.666	28271.54
565.028	28344.09
565.39	28267.48
565.753	28688.93
566.115	28543.18
566.477	28661.82
566.839	28909.27
567.201	29264.74
567.563	29219.99
567.925	29509.25
568.287	29470.16
568.648	29573.21
569.01	29674.9
569.372	30013.65
569.734	29923.93
570.095	30294.09
570.457	30375.44
570.819	30334.77
571.18	30476.91
571.542	30795.32
571.903	30790.12
572.265	30976.78
572.626	31021.75
572.987	31223.11
573.349	31486.38
573.71	31553.49
574.071	31846.82
574.432	31961.17
574.794	32273.47
575.155	32281.61
575.516	32481.6
575.877	32579
576.238	32559.12
576.599	32922.95
576.96	33009.27
577.32	33160.23
577.681	33231.87
578.042	33511.63
578.403	33624.4
578.763	33842.92
579.124	33988.23
579.485	34303.02
579.845	34425.73
580.206	34477.03
580.566	34666.86
580.927	34777.14
581.287	35097.35
581.648	35157.92
582.008	35557.68
582.368	35683.1
582.728	35758.81
583.089	35824.79
583.449	36249.87
583.809	36405.57
584.169	36705.67
584.529	36800.36
584.889	37230.41
585.249	37203.29
585.609	37502.71
585.969	37899.09
586.329	38030.84
586.688	38481.9
587.048	38679.18
587.408	38886.18
587.768	39230.13
588.127	39428.99
588.487	39760.51
588.846	40261.51
589.206	40226.71
589.565	40739.24
589.925	41068.04
590.284	41283.63
590.643	41569.5
591.003	41969.72
591.362	42496.71
591.721	42751.16
592.08	42898.05
592.44	43518.15
592.799	43635.21
593.158	44050.56
593.517	44220.96
593.876	44804.22
594.235	44922.41
594.593	45417.53
594.952	45737.75
595.311	45972.55
595.67	46311.97
596.029	46867.21
596.387	47206.41
596.746	47597.14
597.104	47726.4
597.463	47916.45
597.822	48475.99
598.18	48523.89
598.538	48887.95
598.897	49294.72
599.255	49391.44
599.613	50019.45
599.972	50067.58
600.33	50417.86
600.688	50575.59
601.046	50834.12
601.404	51301.45
601.762	51519.52
602.12	51713.19
602.478	51965.61
602.836	52138.26
603.194	52168.54
603.552	52469.33
603.91	52561.98
604.268	52882.42
604.625	53034.96
604.983	53234.96
605.341	53344.78
605.698	53759.91
606.056	54031.09
606.413	53950.19
606.771	54344.31
607.128	54367.36
607.485	54473.57
607.843	54668.14
608.2	54964.18
608.557	55095.92
608.914	55142.7
609.272	55385.86
609.629	55618.85
609.986	55723.03
610.343	55781.56
610.7	56099.97
611.057	56149
611.414	56214.09
611.771	56411.14
612.127	56559.39
612.484	56671.93
612.841	56777.91
613.198	56816.78
613.554	56923.45
613.911	57230.11
614.267	57259.48
614.624	57329.31
614.98	57489.76
615.337	57634.84
615.693	57627.38
616.05	57753.93
616.406	57957.09
616.762	57954.38
617.118	58014.49
617.475	58038.9
617.831	58213.36
618.187	58364.99
618.543	58451.77
618.899	58628.49
619.255	58592.1
619.611	58573.35
619.967	58734.92
620.323	58821.7
620.678	58811.53
621.034	58848.59
621.39	58909.61
621.746	58976.5
622.101	59264.85
622.457	59082.49
622.812	59273.89
623.168	59367.9
623.523	59331.29
623.879	59420.78
624.234	59345.53
624.589	59444.74
624.945	59459.2
625.3	59529.48
625.655	59602.25
626.01	59603.38
626.365	59669.36
626.72	59646.31
627.075	59588.91
627.43	59667.78
627.785	59734.9
628.14	59697.61
628.495	59708.01
628.85	59792.3
629.205	59757.95
629.559	59882.92
629.914	59774.9
630.269	59809.47
630.623	59692.19
630.978	59620.33
631.332	59835.23
631.687	59799.76
632.041	59806.76
632.396	59814.67
632.75	59738.74
633.104	59803.82
633.459	59627.33
633.813	59705.29
634.167	59699.19
634.521	59701.45
634.875	59715.24
635.229	59724.05
635.583	59572.42
635.937	59620.55
636.291	59609.03
636.645	59586.88
636.999	59541.91
637.352	59610.83
637.706	59404.96
638.06	59578.29
638.413	59423.72
638.767	59494.68
639.121	59496.94
639.474	59352.31
639.828	59378.75
640.181	59365.19
640.534	59475.24
640.888	59307.79
641.241	59178.08
641.594	59308.47
641.947	59367
642.301	59238.41
642.654	59252.43
643.007	59205.42
643.36	59259.88
643.713	59196.16
644.066	59251.3
644.419	59184.63
644.771	58858.31
645.124	58655.83
645.477	58635.72
645.83	58534.48
646.182	58494.03
646.535	58428.72
646.888	58485.89
647.24	58438.44
647.593	58629.84
647.945	58460.81
648.298	58367.02
648.65	58259.91
649.002	58124.32
649.355	58180.36
649.707	58130.65
650.059	58107.37
650.411	58500.81
650.763	58559.34
651.115	58885.2
651.467	58799.33
651.819	58757.75
652.171	58693.57
652.523	58663.29
652.875	58639.79
653.227	58543.52
653.578	58771.31
653.93	58727.69
654.282	58563.63
654.633	58496.51
654.985	58530.18
655.337	58607.92
655.688	58497.42
656.039	58594.82
656.391	58424.2
656.742	58481.6
657.094	58461.03
657.445	58431.66
657.796	58453.12
658.147	58349.85
658.498	58423.29
658.849	58461.49
659.2	58396.18
659.551	58317.76
659.902	58433.46
660.253	58277.99
660.604	58383.75
660.955	58240.02
661.306	58322.73
661.656	58266.46
662.007	58240.7
662.358	58255.84
662.708	58262.62
663.059	58226.92
663.409	58067.82
663.76	58266.24
664.11	58237.54
664.461	58245.45
664.811	58260.81
665.161	58193.7
665.511	58126.58
665.862	58141.04
666.212	58189.18
666.562	58184.66
666.912	58146.69
667.262	58028.73
667.612	58079.12
667.962	58172.91
668.312	58058.78
668.662	58220.59
669.011	58120.25
669.361	58125
669.711	58172.91
670.06	58063.3
670.41	57991.22
670.76	58026.92
671.109	58194.83
671.459	58102.62
671.808	58074.38
672.157	58080.03
672.507	57922.74
672.856	57919.58
673.205	57978.33
673.554	58028.05
673.904	57948.5
674.253	58165.67
674.602	57927.49
674.951	57607.27
675.3	57474.62
675.649	57959.35
675.998	57957.32
676.346	57906.02
676.695	57954.15
677.044	57772.01
677.393	57867.38
677.741	57849.98
678.09	57875.29
678.438	57826.93
678.787	57863.08
679.135	57758.45
679.484	57715.29
679.832	57757.32
680.181	57714.39
680.529	57756.19
680.877	57706.7
681.225	57611.79
681.573	57762.75
681.922	57604.33
682.27	57564.11
682.618	57636.2
682.966	57507.84
683.314	57520.27
683.661	57545.13
684.009	57381.06
684.357	57387.84
684.705	57312.14
685.053	57364.79
685.4	57204.8
685.748	57228.3
686.095	57200.73
686.443	57103.78
686.79	57118.47
687.138	57184.68
687.485	57139.94
687.832	57009.09
688.18	57041.64
688.527	56942.43
688.874	56903.11
689.221	56936.33
689.568	56751.02
689.915	56759.16
690.262	56751.7
690.609	56635.32
690.956	56584.02
691.303	56620.4
691.65	56435.55
691.997	56424.48
692.344	56259.74
692.69	56228.32
693.037	56312.39
693.383	56037.37
693.73	56062.9
694.077	56050.02
694.423	56052.96
694.769	55946.98
695.116	55918.73
695.462	55772.29
695.808	55721.44
696.155	55817.94
696.501	55568.23
696.847	55658.4
697.193	55433.99
697.539	55508.12
697.885	55305.18
698.231	55166.66
698.577	55251.85
698.923	55202.59
699.269	54998.53
699.614	54982.25
699.96	54912.65
700.306	54940.45
700.651	54749.49
700.997	54681.25
701.342	54637.41
701.688	54590.17
702.033	54474.92
702.379	54400.8
702.724	54329.84
703.069	54479.22
703.415	54080.13
703.76	54055.27
704.105	54069.51
704.45	53938.89
704.795	53872
705.14	53765.56
705.485	53784.77
705.83	53564.21
706.175	53779.57
706.52	53584.33
706.865	53436.08
707.209	53419.13
707.554	53321.51
707.899	53338.23
708.243	53160.38
708.588	53162.19
708.932	53011.46
709.277	53050.33
709.621	52804.01
709.966	52671.13
710.31	52704.8
710.654	52500.74
710.998	52602.43
711.342	52564.01
711.687	52409.89
712.031	52344.36
712.375	52229.56
712.719	52212.38
713.063	52127.19
713.407	52133.52
713.75	52043.58
714.094	51972.39
714.438	51890.13
714.782	51884.26
715.125	51717.48
715.469	51877.48
715.812	51613.53
716.156	51535.34
716.499	51643.59
716.843	51514.1
717.186	51322.01
717.53	51496.7
717.873	51481.1
718.216	51344.38
718.559	51207.89
718.902	51033.21
719.246	51001.34
719.589	50932.19
719.932	50843.15
720.275	50781.69
720.617	50861.91
720.96	50748.47
721.303	50776.49
721.646	50796.83
721.989	50482.26
722.331	50661.24
722.674	50558.42
723.016	50654.69
723.359	50453.56
723.701	50453.11
724.044	50296.95
724.386	50120.91
724.729	50320.68
725.071	50302.15
725.413	50229.39
725.755	50157.75
726.097	50014.25
726.439	49947.36
726.782	49944.2
727.124	50200.01
727.465	49943.52
727.807	49835.72
728.149	49849.51
728.491	49775.84
728.833	49797.98
729.175	49621.04
729.516	49623.3
729.858	49695.61
730.199	49620.81
730.541	49656.07
730.882	49475.73
731.224	49430.31
731.565	49366.81
731.906	49341.73
732.248	49307.38
732.589	49115.97
732.93	49145.12
733.271	49159.36
733.612	49122.97
733.953	49211.56
734.294	48992.13
734.635	48959.81
734.976	49146.7
735.317	49002.3
735.658	48909.87
735.999	48799.37
736.339	48784.23
736.68	48859.25
737.021	48893.15
737.361	48683.89
737.702	48902.64
738.042	48795.07
738.383	48821.74
738.723	48797.78
739.063	48506.04
739.404	48732.25
739.744	48533.16
740.084	48506.94
740.424	48678.24
740.764	48510.33
741.104	48611.12
741.444	48482.54
741.784	48196.44
742.124	48472.14
742.464	48368.42
742.804	48327.29
743.143	48197.12
743.483	48339.94
743.823	48087.75
744.162	48156.22
744.502	48177.69
744.841	47946.96
745.181	48169.33
745.52	48118.25
745.86	48180.17
746.199	48109.22
746.538	48005.94
746.877	48075.32
747.216	48111.7
747.556	47842.56
747.895	48022.21
748.234	47957.13
748.573	47890.69
748.911	47799.17
749.25	47863.57
749.589	47689.11
749.928	47839.62
750.267	47854.08
750.605	47714.88
750.944	47621.54
751.283	47579.51
751.621	47719.85
751.96	47391.04
752.298	47426.52
752.636	47619.28
752.975	47373.19
753.313	47264.94
753.651	47552.39
753.989	47303.13
754.327	47285.28
754.666	47129.13
755.004	47145.85
755.342	47255.23
755.679	47179.97
756.017	46907.21
756.355	47157.15
756.693	46965.74
757.031	47100.43
757.368	46674
757.706	46805.29
758.044	46603.27
758.381	46779.76
758.719	46427.68
759.056	46579.31
759.394	46320.34
759.731	46313.33
760.068	46286.66
760.405	46164.18
760.743	45917.41
761.08	46122.37
761.417	45938.88
761.754	45772.1
762.091	45846.45
762.428	45575.95
762.765	45339.8
763.102	45546.8
763.438	45399.68
763.775	45009.18
764.112	45121.72
764.449	44988.62
764.785	44955.4
765.122	44704.56
765.458	44632.7
765.795	44531.46
766.131	44484.68
766.467	44458.24
766.804	44131.69
767.14	43992.71
767.476	44015.99
767.812	43903.45
768.148	43792.94
768.485	43592.05
768.821	43390.02
769.157	43272.05
769.492	43379.62
769.828	43183.7
770.164	42836.81
770.5	42717.72
770.836	42659.87
771.171	42530.38
771.507	42458.52
771.842	42108.24
772.178	42176.26
772.513	42047
772.849	41845.65
773.184	41776.27
773.519	41623.28
773.855	41553.46
774.19	41464.64
774.525	41339.9
774.86	41183.07
775.195	41134.03
775.53	40750.76
775.865	40645.46
776.2	40405.91
776.535	40152.14
776.87	40177.22
777.205	39842.99
777.539	39874.86
777.874	39907.62
778.209	39561.19
778.543	39553.96
778.878	39408.2
779.212	39292.5
779.547	38963.92
779.881	39138.38
780.215	38721.89
780.55	38816.8
780.884	38479.41
781.218	38383.14
781.552	38393.09
781.886	38154.22
782.22	38004.85
782.554	37840.78
782.888	37543.84
783.222	37348.59
783.556	37198.32
783.889	37214.81
784.223	36973.69
784.557	36911.54
784.89	36911.09
785.224	36638.1
785.557	36537.77
785.891	36422.74
786.224	36319.24
786.558	36168.96
786.891	35986.37
787.224	35923.77
787.557	35652.82
787.891	35766.26
788.224	35447.4
788.557	35524.91
788.89	35343.68
789.223	35259.16
789.556	35143.68
789.888	35030.69
790.221	34954.08
790.554	34817.36
790.887	34628.21
791.219	34425.51
791.552	34523.36
791.884	34320.43
792.217	34160.66
792.549	34035.69
792.882	33757.95
793.214	33781.23
793.546	33742.81
793.879	33629.6
794.211	33320.23
794.543	33432.09
794.875	33340.34
795.207	33409.94
795.539	33044.3
795.871	33150.96
796.203	32927.24
796.535	32771.54
796.867	32698.77
797.198	32574.03
797.53	32478.89
797.862	32185.11
798.193	32343.53
798.525	32034.38
798.856	32252.23
799.188	31807.72
799.519	31770.66
799.85	31576.77
800.182	31636.65
800.513	31598.69
800.844	31248.64
801.175	31500.39
801.506	31340.39
801.837	31183.78
802.168	31116.22
802.499	31130
802.83	30821.53
803.161	30636.23
803.491	30640.75
803.822	30791.03
804.153	30518.94
804.483	30335.45
804.814	30139.29
805.145	30288.44
805.475	30296.8
805.805	30112.63
806.136	30117.15
806.466	29931.39
806.796	29915.12
807.126	29553.09
807.457	29675.12
807.787	29694.56
808.117	29534.34
808.447	29450.04
808.777	29485.3
809.107	29116.49
809.436	29121.69
809.766	29165.76
810.096	29139.09
810.426	28970.74
810.755	28941.58
811.085	28885.99
811.414	28830.85
811.744	28631.54
812.073	28691.87
812.403	28625.89
812.732	28368.94
813.061	28600.12
813.39	28361.03
813.719	28346.8
814.049	28422.95
814.378	28262.05
814.707	27955.62
815.036	28168.04
815.365	27850.09
815.693	27862.52
816.022	27796.53
816.351	27689.64
816.68	27704.55
817.008	27620.71
817.337	27417.33
817.665	27455.75
817.994	27493.71
818.322	27462.98
818.651	27415.75
818.979	27321.97
819.307	27377.33
819.636	27262.98
819.964	27108.64
820.292	27020.05
820.62	27058.92
820.948	27020.96
821.276	27248.29
821.604	26999.71
821.932	27197
822.259	27188.18
822.587	26968.3
822.915	27026.83
823.243	26967.62
823.57	26915.2
823.898	27007.62
824.225	26903.9
824.553	26838.14
824.88	26918.59
825.207	27053.95
825.535	26966.27
825.862	27036.1
826.189	26901.64
826.516	27138.24
826.843	27058.47
827.17	27127.62
827.497	27151.8
827.824	27148.18
828.151	27095.53
828.478	26890.34
828.805	27130.78
829.131	27137.34
829.458	27168.75
829.785	26899.6
830.111	27014.85
830.438	27132.59
830.764	27027.96
831.09	27044.68
831.417	26834.29
831.743	27172.59
832.069	26950
832.395	26810.34
832.722	26990.45
833.048	26838.81
833.374	27008.3
833.7	26895.99
834.026	26874.75
834.351	26837.91
834.677	26902.99
835.003	26858.02
835.329	26815.76
835.654	26698.93
835.98	26524.02
836.306	26783
836.631	26631.36
836.956	26803.79
837.282	26627.75
837.607	26588.88
837.932	26501.65
838.258	26526.96
838.583	26498.48
838.908	26344.36
839.233	26409.67
839.558	26268.43
839.883	26228.21
840.208	26050.59
840.533	26274.31
840.858	26245.38
841.182	26239.73
841.507	26143.24
841.832	26005.62
842.156	26040.64
842.481	25986.86
842.805	25838.84
843.13	25763.59
843.454	25818.5
843.778	25687.88
844.103	25661.44
844.427	25585.74
844.751	25591.39
845.075	25381.9
845.399	25469.81
845.723	25304.39
846.047	25324.28
846.371	25174
846.695	24974
847.019	25027.34
847.343	24779.89
847.666	24726.33
847.99	24597.07
848.313	24536.73
848.637	24475.94
848.96	24379.44
849.284	24398.43
849.607	24200.24
849.931	24159.56
850.254	24038.89
850.577	23880.47
850.9	23628.95
851.223	23651.55
851.546	23584.66
851.869	23456.98
852.192	23593.93
852.515	23159.14
852.838	23164.33
853.161	23120.27
853.483	23126.6
853.806	23003.43
854.129	22944.68
854.451	22822.65
854.774	22722.31
855.096	22783.78
855.419	22625.14
855.741	22604.8
856.063	22458.14
856.385	22395.54
856.708	22348.54
857.03	22376.33
857.352	22240.29
857.674	22251.59
857.996	22134.31
858.318	21934.08
858.64	22032.39
858.961	21906.74
859.283	21837.14
859.605	21715.11
859.926	21832.17
860.248	21730.7
860.57	21597.37
860.891	21620.42
861.212	21485.96
861.534	21361.67
861.855	21291.39
862.176	21350.14
862.498	21354.66
862.819	21356.02
863.14	21205.74
863.461	21233.54
863.782	21128.68
864.103	21007.1
864.424	21081.45
864.745	20983.83
865.065	20938.18
865.386	20927.33
865.707	20917.61
866.027	20875.36
866.348	20815.24
866.668	20736.38
866.989	20754.45
867.309	20549.49
867.63	20578.41
867.95	20561.69
868.27	20453.67
868.59	20563.5
868.91	20547
869.23	20476.27
869.55	20348.82
869.87	20427.68
870.19	20304.97
870.51	20429.49
870.83	20281.25
871.15	20228.14
871.469	20160.35
871.789	20342.04
872.109	20303.62
872.428	20080.12
872.748	20166.67
873.067	20094.13
873.386	20103.62
873.706	20043.96
874.025	20016.17
874.344	19907.92
874.663	19991.31
874.982	19810.98
875.301	19908.83
875.62	19711.77
875.939	19693.01
876.258	19778.21
876.577	19626.35
876.896	19691.88
877.214	19670.19
877.533	19602.62
877.852	19581.15
878.17	19706.8
878.489	19665.44
878.807	19525.33
879.125	19450.99
879.444	19427.71
879.762	19352.91
880.08	19387.03
880.398	19288.28
880.716	19293.93
881.034	19219.81
881.352	19160.82
881.67	19209.86
881.988	19181.16
882.306	19132.8
882.624	19072.01
882.941	18902.3
883.259	18923.09
883.577	18801.06
883.894	18782.75
884.212	18819.59
884.529	18831.12
884.846	18785.24
885.164	18692.59
885.481	18660.05
885.798	18650.78
886.115	18503.67
886.432	18616.66
886.75	18498.02
887.067	18484.01
887.383	18328.98
887.7	18351.13
888.017	18215.76
888.334	18304.35
888.651	18186.39
888.967	18119.72
889.284	18093.73
889.6	18050.8
889.917	17896.22
890.233	17958.6
890.55	17921.76
890.866	17894.19
891.182	17853.74
891.498	17747.75
891.815	17655.1
892.131	17665.72
892.447	17611.26
892.763	17519.06
893.079	17473.64
893.395	17536.01
893.71	17345.73
894.026	17281.78
894.342	17326.52
894.657	17103.48
894.973	17133.08
895.289	17091.95
895.604	17086.08
895.92	16960.88
896.235	16924.95
896.55	16907.32
896.865	16787.33
897.181	16751.85
897.496	16832.98
897.811	16663.94
898.126	16562.47
898.441	16600.44
898.756	16633.43
899.071	16456.71
899.386	16481.12
899.7	16275.93
900.015	16240.22
900.33	16094.46
900.644	16156.84
900.959	16049.27
901.273	16006.78
901.588	15853.34
901.902	15871.87
902.216	15781.48
902.531	15755.04
902.845	15783.29
903.159	15627.13
903.473	15659.67
903.787	15516.17
904.101	15580.81
904.415	15517.76
904.729	15396.86
905.042	15291.1
905.356	15332
905.67	15236.18
905.984	15180.82
906.297	15216.97
906.611	15084.09
906.924	15062.4
907.237	15005.68
907.551	14956.41
907.864	14820.37
908.177	14853.14
908.491	14746.7
908.804	14667.16
909.117	14519.36
909.43	14512.58
909.743	14481.62
910.056	14424.45
910.368	14339.71
910.681	14301.29
910.994	14290.67
911.307	14126.83
911.619	14063.1
911.932	14118.24
912.244	13991.69
912.557	14001.41
912.869	13864.69
913.181	13875.31
913.494	13846.39
913.806	13778.82
914.118	13722.1
914.43	13668.31
914.742	13542.67
915.054	13482.1
915.366	13407.3
915.678	13386.51
915.99	13400.3
916.302	13283.92
916.613	13242.11
916.925	13210.7
917.236	13165.28
917.548	13075.56
917.859	13043.92
918.171	12977.48
918.482	12885.28
918.794	12900.42
919.105	12822.01
919.416	12753.08
919.727	12746.53
920.038	12702.46
920.349	12547.21
920.66	12541.34
920.971	12580.66
921.282	12459.08
921.593	12457.5
921.903	12385.41
922.214	12199.88
922.525	12162.36
922.835	12141.8
923.146	12109.71
923.456	12027.68
923.767	11970.73
924.077	11989.71
924.387	11918.75
924.697	11834.91
925.008	11790.4
925.318	11728.25
925.628	11776.39
925.938	11732.32
926.248	11564.41
926.558	11523.28
926.867	11502.95
927.177	11418.43
927.487	11365.32
927.796	11323.97
928.106	11346.79
928.416	11238.55
928.725	11220.69
929.034	11168.04
929.344	11120.36
929.653	11084.65
929.962	11021.6
930.271	11014.15
930.581	10909.06
930.89	10892.79
931.199	10788.61
931.508	10787.94
931.817	10688.28
932.125	10676.75
932.434	10653.25
932.743	10570.09
933.051	10551.11
933.36	10435.63
933.669	10494.16
933.977	10409.42
934.286	10362.64
934.594	10342.98
934.902	10238.35
935.21	10223.88
935.519	10159.7
935.827	10085.13
936.135	10142.08
936.443	9985.92
936.751	9937.11
937.059	9962.42
937.367	9832.48
937.674	9872.48
937.982	9801.07
938.29	9732.37
938.597	9743.9
938.905	9650.79
939.213	9685.37
939.52	9551.36
939.827	9641.53
940.135	9472.72
940.442	9414.64
940.749	9414.87
941.056	9452.38
941.363	9338.48
941.67	9321.31
941.977	9216.68
942.284	9178.94
942.591	9190.46
942.898	9154.31
943.205	9141.88
943.511	9083.57
943.818	9074.08
944.125	8943.01
944.431	8876.35
944.738	8841.1
945.044	8863.02
945.35	8873.41
945.657	8785.73
945.963	8745.73
946.269	8630.03
946.575	8648.33
946.881	8643.81
947.187	8575.57
947.493	8562.91
947.799	8511.16
948.105	8472.52
948.41	8440.2
948.716	8362.24
949.022	8335.8
949.327	8348.23
949.633	8254.44
949.938	8296.48
950.244	8178.74
950.549	8124.96
950.854	8070.95
951.16	8064.39
951.465	8037.27
951.77	7994.11
952.075	8011.06
952.38	7962.7
952.685	7968.12
952.99	7908.46
953.294	7829.6
953.599	7821.69
953.904	7782.37
954.209	7697.17
954.513	7717.28
954.818	7611.3
955.122	7649.94
955.426	7604.74
955.731	7583.95
956.035	7447.46
956.339	7474.13
956.643	7482.03
956.948	7440
957.252	7404.07
957.556	7347.8
957.86	7364.52
958.163	7329.72
958.467	7250.18
958.771	7266.9
959.075	7200.01
959.378	7157.75
959.682	7162.95
959.985	7108.94
960.289	7052.22
960.592	6990.3
960.896	6969.51
961.199	7004.76
961.502	6866.23
961.805	6841.37
962.108	6869.62
962.411	6844.99
962.714	6844.31
963.017	6823.07
963.32	6804.31
963.623	6669.17
963.926	6722.28
964.228	6654.94
964.531	6663.53
964.833	6647.93
965.136	6528.84
965.438	6490.42
965.741	6499.01
966.043	6482.97
966.345	6367.49
966.648	6434.6
966.95	6415.17
967.252	6353.03
967.554	6327.49
967.856	6310.54
968.158	6242.97
968.46	6235.29
968.761	6206.14
969.063	6210.2
969.365	6172.92
969.666	6183.09
969.968	6048.4
970.269	6074.39
970.571	6074.16
970.872	6052.69
971.174	6007.5
971.475	5984.45
971.776	5963.43
972.077	5921.85
972.378	5927.5
972.679	5847.05
972.98	5798.01
973.281	5842.98
973.582	5783.1
973.883	5748.3
974.183	5762.31
974.484	5643.21
974.785	5617.9
975.085	5624.46
975.386	5669.65
975.686	5560.05
975.986	5609.09
976.287	5571.12
976.587	5546.72
976.887	5507.4
977.187	5473.5
977.487	5487.29
977.787	5418.81
978.087	5380.62
978.387	5368.42
978.687	5353.05
978.987	5299.95
979.286	5283.45
979.586	5280.96
979.885	5251.59
980.185	5204.81
980.484	5175.65
980.784	5161.42
981.083	5199.84
981.382	5105.37
981.682	5117.8
981.981	5065.6
982.28	5131.36
982.579	5019.27
982.878	5031.93
983.177	4978.37
983.475	4976.79
983.774	4894.08
984.073	4881.2
984.372	4852.95
984.67	4836.91
984.969	4842.1
985.267	4844.14
985.566	4811.6
985.864	4773.86
986.162	4727.53
986.461	4731.82
986.759	4672.17
987.057	4665.84
987.355	4657.48
987.653	4678.94
987.951	4612.28
988.249	4603.69
988.547	4563.24
988.844	4483.02
989.142	4540.64
989.44	4453.19
989.737	4460.42
990.035	4457.03
990.332	4506.75
990.63	4432.62
990.927	4417.71
991.224	4366.86
991.521	4343.81
991.819	4361.89
992.116	4284.83
992.413	4260.88
992.71	4253.65
993.006	4295
993.303	4203.03
993.6	4191.95
993.897	4163.93
994.193	4223.36
994.49	4141.33
994.787	4106.76
995.083	4099.98
995.379	4076.93
995.676	4098.4
995.972	4043.71
996.268	4038.96
996.565	4011.84
996.861	3989.92
997.157	3918.51
997.453	3949.02
997.749	3893.2
998.044	3923.94
998.34	3886.88
998.636	3834.9
998.932	3805.97
999.227	3779.76
999.523	3799.19
999.818	3772.75
1000.114	3760.32
1000.409	3764.62
1000.704	3690.5
1001	3703.15
1001.295	3674.9
1001.59	3634
1001.885	3643.27
1002.18	3582.7
1002.475	3598.07
1002.77	3564.85
1003.065	3528.47
1003.359	3530.05
1003.654	3490.05
1003.949	3477.62
1004.243	3508.81
1004.538	3428.36
1004.832	3402.37
1005.127	3409.37
1005.421	3375.93
1005.715	3365.53
1006.009	3329.83
1006.304	3314.23
1006.598	3311.3
1006.892	3293.9
1007.186	3249.83
1007.48	3257.74
1007.773	3173.22
1008.067	3202.83
1008.361	3166.44
1008.655	3156.27
1008.948	3136.16
1009.242	3118.99
1009.535	3092.55
1009.829	3091.87
1010.122	3033.56
1010.415	3038.54
1010.708	3051.87
1011.001	3015.03
1011.295	2968.93
1011.588	2928.48
1011.881	2932.1
1012.173	2953.57
1012.466	2897.3
1012.759	2907.47
1013.052	2892.33
1013.344	2882.16
1013.637	2836.51
1013.93	2826.56
1014.222	2822.72
1014.514	2801.48
1014.807	2773.46
1015.099	2765.55
1015.391	2745.21
1015.683	2720.58
1015.976	2724.19
1016.268	2668.15
1016.56	2669.51
1016.851	2670.64
1017.143	2625.89
1017.435	2615.72
1017.727	2580.02
1018.018	2574.14
1018.31	2604.2
1018.602	2580.92
1018.893	2515.39
1019.185	2512
1019.476	2503.41
1019.767	2452.34
1020.058	2413.69
1020.35	2409.85
1020.641	2454.14
1020.932	2389.97
1021.223	2393.13
1021.514	2363.3
1021.804	2336.18
1022.095	2362.17
1022.386	2282.85
1022.677	2313.13
1022.967	2288.05
1023.258	2264.77
1023.548	2251.21
1023.839	2223.42
1024.129	2210.54
1024.419	2206.02
1024.709	2192.91
1025	2168.73
1025.29	2137.99
1025.58	2137.09
1025.87	2107.49
1026.16	2088.05
1026.449	2082.63
1026.739	2056.64
1027.029	2085.11
1027.319	2072.23
1027.608	2020.48
1027.898	2020.03
1028.187	1990.2
1028.477	1976.42
1028.766	1980.71
1029.055	1947.72
1029.344	1930.54
1029.634	1899.81
1029.923	1897.1
1030.212	1899.81
1030.501	1879.02
1030.79	1895.74
1031.078	1876.98
1031.367	1852.58
1031.656	1857.55
1031.945	1824.56
1032.233	1823.2
1032.522	1799.25
1032.81	1798.34
1033.099	1770.77
1033.387	1785.69
1033.675	1755.63
1033.963	1735.29
1034.251	1716.76
1034.54	1698.91
1034.828	1703.43
1035.116	1668.85
1035.403	1650.78
1035.691	1655.52
1035.979	1648.52
1036.267	1634.05
1036.554	1595.64
1036.842	1633.6
1037.129	1623.66
1037.417	1598.12
1037.704	1601.29
1037.992	1609.42
1038.279	1526.94
1038.566	1516.99
1038.853	1516.99
1039.14	1516.99
