Data from 166_FLMS001491_006.txt Node
Date: Thu Apr 19 16:18:25 BST 2018
User: hsy
Spectrometer: FLMS00149
Trigger mode: 0
Integration Time (sec): 1.000000E-2
Scans to average: 10
Electric dark correction enabled: true
Nonlinearity correction enabled: false
Boxcar width: 0
XAxis mode: Wavelengths
Number of Pixels in Spectrum: 2048
>>>>>Begin Spectral Data<<<<<
341.393	-30.79
341.776	-30.79
342.16	-30.79
342.543	-54.29
342.927	-60.62
343.31	-64.01
343.693	-61.3
344.077	-55.65
344.46	-72.82
344.843	-51.13
345.226	-51.81
345.61	-28.08
345.993	-41.19
346.376	-16.33
346.759	7.85
347.142	18.25
347.525	53.5
347.908	59.38
348.291	86.72
348.674	91.69
349.057	124.91
349.44	125.36
349.823	139.37
350.206	175.53
350.588	220.05
350.971	248.75
351.354	282.42
351.737	303.89
352.119	307.73
352.502	300.73
352.884	316.32
353.267	295.53
353.65	308.64
354.032	323.32
354.414	346.38
354.797	354.28
355.179	367.84
355.562	361.97
355.944	398.58
356.326	380.27
356.709	392.25
357.091	392.25
357.473	379.82
357.855	384.11
358.238	384.11
358.62	390.22
359.002	413.49
359.384	380.72
359.766	406.71
360.148	395.87
360.53	398.13
360.912	393.15
361.294	377.33
361.676	396.54
362.057	384.57
362.439	380.95
362.821	369.2
363.203	373.04
363.584	365.13
363.966	382.76
364.348	373.04
364.729	390.44
365.111	383.44
365.493	382.53
365.874	365.36
366.256	368.97
366.637	365.36
367.019	385.24
367.4	368.97
367.781	379.14
368.163	388.18
368.544	376.66
368.925	368.3
369.306	401.97
369.688	384.34
370.069	362.87
370.45	368.52
370.831	364
371.212	366.94
371.593	371.46
371.974	375.3
372.355	385.24
372.736	387.5
373.117	373.49
373.498	397.22
373.879	367.17
374.26	379.14
374.641	373.94
375.021	398.8
375.402	378.46
375.783	419.59
376.163	405.81
376.544	404
376.925	397.9
377.305	400.61
377.686	402.64
378.066	410.1
378.447	419.14
378.827	429.99
379.208	427.73
379.588	401.06
379.968	413.04
380.349	428.63
380.729	417.56
381.109	410.78
381.489	421.4
381.87	425.24
382.25	439.48
382.63	435.64
383.01	432.93
383.39	436.77
383.77	425.24
384.15	421.4
384.53	449.65
384.91	441.97
385.29	452.59
385.67	476.77
386.049	458.91
386.429	472.93
386.809	452.14
387.189	452.36
387.568	462.08
387.948	467.95
388.328	477.22
388.707	482.87
389.087	479.48
389.466	497.78
389.846	476.54
390.225	474.28
390.605	483.09
390.984	494.85
391.363	500.5
391.743	494.17
392.122	475.64
392.501	488.97
392.881	523.77
393.26	530.33
393.639	519.03
394.018	508.63
394.397	515.18
394.776	528.07
395.155	509.76
395.534	535.07
395.913	519.93
396.292	542.53
396.671	540.27
397.05	552.02
397.429	530.55
397.808	547.27
398.186	529.42
398.565	546.37
398.944	561.28
399.323	548.18
399.701	547.95
400.08	550.44
400.458	548.63
400.837	566.71
401.215	570.78
401.594	583.21
401.972	581.62
402.351	583.88
402.729	596.54
403.107	596.31
403.486	598.8
403.864	619.81
404.242	595.41
404.62	608.74
404.999	638.57
405.377	635.63
405.755	608.29
406.133	641.73
406.511	655.52
406.889	639.7
407.267	646.48
407.645	642.19
408.023	656.65
408.401	668.63
408.779	657.78
409.156	682.86
409.534	684.45
409.912	681.06
410.29	711.11
410.667	702.52
411.045	706.82
411.422	705.46
411.8	730.09
412.178	714.5
412.555	721.96
412.933	735.07
413.31	725.8
413.687	740.04
414.065	772.13
414.442	773.03
414.819	788.4
415.197	765.57
415.574	798.11
415.951	793.14
416.328	818.91
416.705	809.19
417.082	782.75
417.46	813.26
417.837	829.53
418.214	838.79
418.591	844.67
418.967	820.49
419.344	853.48
419.721	844.22
420.098	876.08
420.475	869.3
420.852	854.61
421.228	872.01
421.605	883.76
421.982	873.82
422.358	884.21
422.735	898.9
423.111	890.09
423.488	912.01
423.864	925.57
424.241	933.7
424.617	914.95
424.994	948.17
425.37	932.57
425.746	954.04
426.123	969.64
426.499	970.99
426.875	983.87
427.251	966.92
427.627	1002.85
428.003	1008.96
428.379	1015.74
428.756	1022.97
429.132	1012.57
429.507	1044.21
429.883	1052.8
430.259	1081.5
430.635	1105.23
431.011	1098.67
431.387	1128.28
431.763	1128.05
432.138	1143.64
432.514	1152.46
432.89	1135.28
433.265	1181.16
433.641	1175.51
434.016	1176.41
434.392	1203.08
434.767	1231.78
435.143	1229.52
435.518	1217.76
435.894	1257.31
436.269	1274.03
436.644	1282.85
437.02	1298.44
437.395	1318.1
437.77	1337.08
438.145	1326.24
438.52	1302.96
438.895	1343.41
439.271	1341.38
439.646	1376.18
440.021	1396.52
440.395	1395.61
440.77	1381.15
441.145	1386.8
441.52	1390.87
441.895	1407.59
442.27	1445.56
442.645	1429.51
443.019	1414.14
443.394	1464.76
443.769	1435.39
444.143	1456.18
444.518	1452.11
444.892	1454.14
445.267	1483.97
445.641	1478.77
446.016	1503.86
446.39	1497.31
446.764	1494.59
447.139	1489.85
447.513	1506.8
447.887	1550.41
448.262	1513.58
448.636	1567.13
449.01	1574.37
449.384	1575.5
449.758	1589.96
450.132	1591.77
450.506	1610.97
450.88	1631.09
451.254	1628.83
451.628	1626.12
452.002	1654.36
452.376	1680.58
452.75	1673.8
453.123	1726
453.497	1757.64
453.871	1764.64
454.244	1772.78
454.618	1764.87
454.992	1814.36
455.365	1819.33
455.739	1847.35
456.112	1892.78
456.486	1906.33
456.859	1925.32
457.232	1944.98
457.606	1969.38
457.979	1963.73
458.352	1988.59
458.725	2017.07
459.099	2025.43
459.472	2050.74
459.845	2078.53
460.218	2110.17
460.591	2154.92
460.964	2138.64
461.337	2168.93
461.71	2197.85
462.083	2215.7
462.456	2233.56
462.829	2238.3
463.201	2322.82
463.574	2251.41
463.947	2330.73
464.32	2344.74
464.692	2388.13
465.065	2404.4
465.438	2430.61
465.81	2472.19
466.183	2481.91
466.555	2552.19
466.928	2534.57
467.3	2564.85
467.672	2581.57
468.045	2650.95
468.417	2633.09
468.789	2645.75
469.161	2717.84
469.534	2755.8
469.906	2778.4
470.278	2781.34
470.65	2812.3
471.022	2847.33
471.394	2885.07
471.766	2886.65
472.138	2982.92
472.51	3023.59
472.882	3053.42
473.253	3071.28
473.625	3110.14
473.997	3164.83
474.369	3198.05
474.74	3259.29
475.112	3311.27
475.484	3346.75
475.855	3400.31
476.227	3423.58
476.598	3527.76
476.97	3549
477.341	3604.14
477.713	3671.26
478.084	3746.29
478.455	3817.7
478.827	3839.62
479.198	3917.58
479.569	3952.38
479.94	4037.8
480.311	4092.72
480.682	4190.57
481.053	4257.68
481.424	4379.49
481.795	4430.56
482.166	4483.89
482.537	4509.2
482.908	4584
483.279	4670.33
483.65	4756.65
484.021	4860.61
484.391	4924.56
484.762	4962.07
485.133	5050.88
485.503	5072.35
485.874	5273.93
486.244	5314.61
486.615	5412.23
486.985	5441.16
487.356	5524.54
487.726	5591.43
488.097	5747.14
488.467	5787.36
488.837	6007.7
489.207	6042.72
489.578	6115.04
489.948	6198.42
490.318	6276.39
490.688	6324.52
491.058	6502.82
491.428	6578.3
491.798	6601.8
492.168	6768.81
492.538	6808.35
492.908	6905.07
493.278	7024.62
493.648	7071.62
494.017	7163.82
494.387	7308.68
494.757	7334.67
495.126	7468.9
495.496	7544.15
495.866	7675.67
496.235	7765.84
496.605	7821.66
496.974	7837.7
497.344	8007.64
497.713	8054.65
498.082	8072.73
498.452	8217.81
498.821	8369.89
499.19	8328.31
499.559	8475.43
499.928	8565.14
500.298	8606.72
500.667	8697.34
501.036	8718.13
501.405	8877.68
501.774	8922.65
502.143	9011.68
502.512	9016.2
502.88	9142.98
503.249	9182.75
503.618	9273.15
503.987	9345.69
504.356	9459.81
504.724	9548.39
505.093	9531.9
505.462	9648.28
505.83	9678.33
506.199	9928.5
506.567	9885.11
506.936	9904.32
507.304	10022.73
507.672	10130.98
508.041	10214.59
508.409	10330.29
508.777	10457.75
509.145	10539.78
509.514	10482.83
509.882	10527.58
510.25	10599.44
510.618	10719.66
510.986	10777.51
511.354	10828.59
511.722	10896.38
512.09	11061.35
512.458	11016.83
512.826	11247.78
513.193	11168.24
513.561	11229.25
513.929	11346.09
514.297	11454.11
514.664	11606.64
515.032	11595.8
515.4	11738.84
515.767	11785.17
516.135	11852.29
516.502	11836.92
516.869	12001.21
517.237	12134.77
517.604	12039.4
517.972	12296.57
518.339	12332.5
518.706	12444.14
519.073	12478.03
519.44	12571.59
519.808	12674.19
520.175	12677.8
520.542	12804.13
520.909	12918.02
521.276	13038.24
521.643	13104.01
522.009	13236.21
522.376	13341.97
522.743	13475.07
523.11	13559.36
523.477	13631.9
523.843	13753.48
524.21	13864.89
524.577	14025.11
524.943	14200.47
525.31	14095.17
525.676	14398.43
526.043	14440.69
526.409	14487.25
526.776	14740.35
527.142	14809.05
527.508	14815.6
527.874	15068.25
528.241	15117.96
528.607	15112.77
528.973	15369.48
529.339	15342.36
529.705	15534.9
530.071	15724.95
530.437	15775.12
530.803	15932.86
531.169	16043.14
531.535	16096.24
531.901	16175.11
532.267	16231.16
532.632	16420.53
532.998	16471.15
533.364	16549.56
533.73	16552.95
534.095	16795.43
534.461	16861.42
534.826	16840.18
535.192	17061.87
535.557	17114.52
535.923	17063.9
536.288	17211.69
536.653	17365.81
537.019	17263.67
537.384	17338.7
537.749	17486.72
538.114	17613.49
538.479	17481.97
538.845	17678.57
539.21	17642.64
539.575	17797.44
539.94	17851.9
540.305	18029.98
540.67	17929.87
541.034	18159.24
541.399	18101.61
541.764	18125.34
542.129	18265.23
542.494	18349.07
542.858	18438.78
543.223	18417.54
543.587	18508.61
543.952	18532.56
544.316	18601.94
544.681	18636.52
545.045	18788.83
545.41	18882.84
545.774	18783.63
546.138	18817.3
546.503	18979.56
546.867	18975.72
547.231	19144.75
547.595	19077.18
547.959	19192.21
548.324	19261.13
548.688	19359.21
549.052	19347.46
549.416	19418.64
549.779	19389.26
550.143	19551.52
550.507	19585.42
550.871	19666.77
551.235	19620.44
551.599	19883.49
551.962	19860.21
552.326	19944.05
552.689	20001.9
553.053	20017.72
553.417	20078.96
553.78	20277.83
554.143	20236.47
554.507	20349.92
554.87	20477.37
555.234	20603.7
555.597	20538.84
555.96	20606.63
556.323	20638.5
556.686	20711.49
557.05	20858.15
557.413	20916.46
557.776	20953.97
558.139	21154.64
558.502	21202.78
558.865	21246.16
559.228	21373.39
559.59	21454.75
559.953	21430.11
560.316	21686.83
560.679	21642.99
561.041	21980.38
561.404	22058.57
561.767	22035.97
562.129	22078.23
562.492	22304.44
562.854	22246.14
563.217	22370.43
563.579	22443.87
563.941	22715.05
564.304	22702.85
564.666	23005.21
565.028	22964.76
565.39	23101.48
565.753	23244.53
566.115	23280.46
566.477	23425.32
566.839	23708.25
567.201	23822.82
567.563	23727.23
567.925	24023.04
568.287	23994.79
568.648	24109.14
569.01	24296.71
569.372	24433.2
569.734	24637.94
570.095	24647.43
570.457	24866.86
570.819	24919.74
571.18	25023.47
571.542	25236.79
571.903	25343.46
572.265	25429.78
572.626	25609.89
572.987	25602.43
573.349	25771.7
573.71	25870.45
574.071	26004.68
574.432	26252.36
574.794	26411.23
575.155	26523.77
575.516	26476.31
575.877	26663.2
576.238	26717.89
576.599	26925.11
576.96	26974.6
577.32	27187.7
577.681	27239.68
578.042	27496.4
578.403	27688.26
578.763	27753.79
579.124	27874.24
579.485	28100.45
579.845	28290.73
580.206	28371.4
580.566	28391.97
580.927	28503.83
581.287	28773.42
581.648	28799.64
582.008	29229.23
582.368	29237.14
582.728	29456.8
583.089	29490.69
583.449	29791.7
583.809	30017.69
584.169	30236.44
584.529	30370.9
584.889	30840.49
585.249	30936.08
585.609	31082.29
585.969	31506.91
586.329	31644.76
586.688	32210.17
587.048	32325.65
587.408	32529.03
587.768	32751.85
588.127	33103.03
588.487	33460.53
588.846	34067.75
589.206	33914.53
589.565	34493.27
589.925	34868.86
590.284	35204.22
590.643	35647.59
591.003	36045.1
591.362	36571.41
591.721	36914
592.08	37400.77
592.44	37933.86
592.799	38156.68
593.158	38571.81
593.517	38895.42
593.876	39640.48
594.235	39909.18
594.593	40302.16
594.952	40886.55
595.311	41259.88
595.67	41654.89
596.029	42291.49
596.387	42827.52
596.746	43301.4
597.104	43462.76
597.463	44088.05
597.822	44660.46
598.18	44956.95
598.538	45413.66
598.897	46036.7
599.255	46192.85
599.613	47039.84
599.972	47051.36
600.33	47774.51
600.688	47922.75
601.046	48468.05
601.404	48966.79
601.762	49212.43
602.12	49718.64
602.478	50058.29
602.836	50373.53
603.194	50497.6
603.552	50876.12
603.91	51231.59
604.268	51639.26
604.625	51874.96
604.983	52206.03
605.341	52393.37
605.698	52828.16
606.056	53163.97
606.413	53325.77
606.771	53717.18
607.128	53911.29
607.485	54020.9
607.843	54259.53
608.2	54571.62
608.557	54853.64
608.914	54994.66
609.272	55290.02
609.629	55536.56
609.986	55817.46
610.343	55873.95
610.7	56218.35
611.057	56325.24
611.414	56501.96
611.771	56676.42
612.127	56877.32
612.484	57134.49
612.841	57332
613.198	57351.66
613.554	57454.03
613.911	57832.55
614.267	57874.81
614.624	58030.73
614.98	58210.84
615.337	58428.46
615.693	58498.52
616.05	58621.45
616.406	58799.75
616.762	58855.35
617.118	58997.71
617.475	59026.41
617.831	59184.38
618.187	59293.07
618.543	59442.45
618.899	59654.42
619.255	59656.68
619.611	59794.08
619.967	59921.53
620.323	60083.34
620.678	60048.53
621.034	60071.13
621.39	60173.95
621.746	60285.36
622.101	60601.74
622.457	60415.76
622.812	60574.4
623.168	60675.64
623.523	60750.66
623.879	60881.51
624.234	60758.12
624.589	60957.89
624.945	60938.45
625.3	61035.17
625.655	61063.42
626.01	61043.76
626.365	61241.27
626.72	61150.65
627.075	61185.23
627.43	61192.23
627.785	61232.91
628.14	61277.2
628.495	61390.19
628.85	61351.78
629.205	61314.94
629.559	61478.78
629.914	61363.08
630.269	61405.11
630.623	61393.13
630.978	61400.81
631.332	61448.05
631.687	61512.45
632.041	61440.59
632.396	61474.03
632.75	61467.03
633.104	61547.48
633.459	61431.55
633.813	61453.92
634.167	61451.66
634.521	61543.41
634.875	61544.77
635.229	61454.6
635.583	61427.71
635.937	61366.01
636.291	61448.05
636.645	61388.84
636.999	61388.61
637.352	61486.46
637.706	61285.79
638.06	61450.08
638.413	61330.76
638.767	61342.06
639.121	61331.44
639.474	61271.78
639.828	61279.01
640.181	61244.89
640.534	61321.72
640.888	61188.39
641.241	61100.48
641.594	61175.06
641.947	61196.3
642.301	61114.72
642.654	61144.32
643.007	61045.57
643.36	61180.03
643.713	61067.72
644.066	61172.12
644.419	60985.23
644.771	60767.39
645.124	60561.29
645.477	60538.24
645.83	60430.67
646.182	60438.13
646.535	60376.21
646.888	60381.18
647.24	60325.14
647.593	60482.87
647.945	60434.06
648.298	60307.96
648.65	60232.03
649.002	60103.67
649.355	60137.57
649.707	59994.3
650.059	60028.2
650.411	60376.89
650.763	60462.53
651.115	60794.73
651.467	60682.64
651.819	60673.83
652.171	60617.33
652.523	60576.88
652.875	60580.05
653.227	60481.29
653.578	60653.94
653.93	60595.41
654.282	60451.24
654.633	60373.05
654.985	60406.26
655.337	60483.1
655.688	60393.16
656.039	60482.2
656.391	60244.01
656.742	60336.66
657.094	60296.44
657.445	60331.24
657.796	60314.52
658.147	60254.63
658.498	60248.53
658.849	60324.46
659.2	60212.6
659.551	60193.62
659.902	60265.48
660.253	60194.29
660.604	60286.27
660.955	60140.06
661.306	60238.36
661.656	60087.63
662.007	60153.84
662.358	60137.12
662.708	60155.2
663.059	60139.83
663.409	59959.04
663.76	60065.48
664.11	60047.4
664.461	60137.8
664.811	60086.73
665.161	60075.88
665.511	60019.38
665.862	60025.48
666.212	60097.12
666.562	60072.71
666.912	60046.05
667.262	59948.2
667.612	60013.73
667.962	59992.49
668.312	59923.57
668.662	60111.81
669.011	60017.35
669.361	59983.9
669.711	59993.39
670.06	59882.89
670.41	59873.62
670.76	59822.78
671.109	59967.41
671.459	59923.34
671.808	59918.82
672.157	59960.85
672.507	59803.79
672.856	59804.7
673.205	59859.84
673.554	59957.24
673.904	59832.72
674.253	59967.41
674.602	59821.65
674.951	59546.4
675.3	59421.21
675.649	59838.82
675.998	59784.13
676.346	59802.44
676.695	59869.78
677.044	59734.42
677.393	59782.55
677.741	59826.17
678.09	59821.42
678.438	59691.03
678.787	59760.86
679.135	59758.15
679.484	59635.44
679.832	59692.84
680.181	59603.8
680.529	59597.92
680.877	59600.64
681.225	59569
681.573	59717.92
681.922	59523.12
682.27	59519.51
682.618	59533.29
682.966	59446.52
683.314	59494.65
683.661	59438.61
684.009	59375.11
684.357	59289.68
684.705	59240.65
685.053	59324.26
685.4	59172.17
685.748	59227.31
686.095	59158.61
686.443	59064.15
686.79	59092.4
687.138	59142.12
687.485	59113.87
687.832	58974.21
688.18	58955
688.527	58913.42
688.874	58834.33
689.221	58887.43
689.568	58762.69
689.915	58701.22
690.262	58771.28
690.609	58786.65
690.956	58662.58
691.303	58618.97
691.65	58525.18
691.997	58468.91
692.344	58372.42
692.69	58382.14
693.037	58385.98
693.383	58142.6
693.73	58277.73
694.077	58075.93
694.423	58141.69
694.769	58085.2
695.116	58045.2
695.462	57967.68
695.808	57859.44
696.155	57922.94
696.501	57704.64
696.847	57812.66
697.193	57574.02
697.539	57621.48
697.885	57430.07
698.231	57383.07
698.577	57459.68
698.923	57326.12
699.269	57163.19
699.614	57130.64
699.96	57077.76
700.306	57091.32
700.651	57007.71
700.997	56886.13
701.342	56831.22
701.688	56839.35
702.033	56729.07
702.379	56761.61
702.724	56557.78
703.069	56705.57
703.415	56384
703.76	56361.85
704.105	56380.61
704.45	56307.16
704.795	56254.96
705.14	56128.86
705.485	56083.44
705.83	55993.5
706.175	56107.62
706.52	55925.03
706.865	55847.97
707.209	55819.72
707.554	55760.29
707.899	55711.7
708.243	55641.64
708.588	55605.04
708.932	55365.27
709.277	55457.92
709.621	55296.57
709.966	55168.44
710.31	55200.53
710.654	55039.17
710.998	55101.77
711.342	55216.12
711.687	55020.64
712.031	54927.99
712.375	54831.95
712.719	54823.59
713.063	54741.33
713.407	54892.06
713.75	54767.99
714.094	54765.06
714.438	54535.68
714.782	54598.96
715.125	54402.13
715.469	54543.14
715.812	54252.3
716.156	54306.31
716.499	54235.81
716.843	54252.08
717.186	54077.17
717.53	54231.29
717.873	54214.11
718.216	54011.63
718.559	53987.68
718.902	53719.21
719.246	53934.12
719.589	53814.57
719.932	53673.33
720.275	53755.14
720.617	53711.75
720.96	53605.99
721.303	53515.15
721.646	53662.26
721.989	53382.49
722.331	53485.77
722.674	53389.05
723.016	53305.66
723.359	53229.05
723.701	53249.84
724.044	53176.17
724.386	52998.78
724.729	53055.5
725.071	53064.99
725.413	53096.17
725.755	53020.7
726.097	52900.93
726.439	52725.11
726.782	52681.04
727.124	52864.32
727.465	52683.3
727.807	52683.53
728.149	52690.99
728.491	52542.52
728.833	52523.53
729.175	52505.23
729.516	52394.5
729.858	52317.89
730.199	52366.48
730.541	52335.06
730.882	52198.57
731.224	52293.94
731.565	52120.15
731.906	52109.76
732.248	52155.18
732.589	52030.44
732.93	51888.75
733.271	51941.4
733.612	51832.48
733.953	52012.81
734.294	51834.06
734.635	51731.24
734.976	51843.55
735.317	51679.94
735.658	51586.84
735.999	51538.02
736.339	51623.22
736.68	51605.14
737.021	51471.58
737.361	51379.16
737.702	51588.42
738.042	51368.08
738.383	51475.88
738.723	51414.18
739.063	51214.42
739.404	51281.76
739.744	51197.47
740.084	51077.02
740.424	51179.84
740.764	51182.55
741.104	51312.72
741.444	50926.97
741.784	50822.11
742.124	50981.43
742.464	50871.83
742.804	50878.83
743.143	50717.71
743.483	50794.31
743.823	50630.93
744.162	50604.26
744.502	50752.73
744.841	50484.72
745.181	50614.88
745.52	50412.86
745.86	50472.97
746.199	50425.74
746.538	50394.32
746.877	50398.62
747.216	50326.76
747.556	50205.4
747.895	50303.71
748.234	50158.85
748.573	50105.74
748.911	49991.85
749.25	49990.04
749.589	49908.46
749.928	49905.75
750.267	49868.01
750.605	49815.58
750.944	49712.53
751.283	49579.66
751.621	49743.49
751.96	49521.13
752.298	49472.54
752.636	49582.82
752.975	49496.72
753.313	49183.51
753.651	49362.26
753.989	49108.48
754.327	49105.09
754.666	48877.08
755.004	49109.39
755.342	48964.76
755.679	48947.81
756.017	48679.79
756.355	48824.2
756.693	48614.71
757.031	48769.28
757.368	48543.3
757.706	48434.15
758.044	48346.69
758.381	48253.14
758.719	48107.38
759.056	48176.3
759.394	47993.26
759.731	47708.75
760.068	47730.21
760.405	47706.03
760.743	47452.71
761.08	47505.81
761.417	47333.16
761.754	47228.53
762.091	47174.3
762.428	46953.06
762.765	46761.2
763.102	46911.25
763.438	46751.71
763.775	46399.4
764.112	46405.28
764.449	46388.1
764.785	46181.78
765.122	45986.08
765.458	45859.3
765.795	45787.89
766.131	45770.72
766.467	45705.18
766.804	45372.08
767.14	45249.15
767.476	45136.16
767.812	44893.68
768.148	44961.02
768.485	44655.49
768.821	44518.32
769.157	44660.24
769.492	44453.46
769.828	44257.99
770.164	43855.74
770.5	43908.17
770.836	43687.38
771.171	43679.7
771.507	43524.22
771.842	43104.8
772.178	43206.94
772.513	43121.52
772.849	42992.03
773.184	42878.82
773.519	42870.23
773.855	42566.28
774.19	42489.9
774.525	42239.06
774.86	42266.18
775.195	42088.33
775.53	41847.88
775.865	41599.3
776.2	41517.5
776.535	41275.24
776.87	41030.5
777.205	40976.27
777.539	40895.82
777.874	40957.51
778.209	40585.99
778.543	40607.24
778.878	40373.57
779.212	40375.61
779.547	40073.24
779.881	39955.28
780.215	39727.26
780.55	39775.39
780.884	39407.49
781.218	39347.84
781.552	39400.49
781.886	39197.56
782.22	38839.37
782.554	38683.67
782.888	38418.82
783.222	38298.6
783.556	38193.52
783.889	38025.38
784.223	37913.52
784.557	37912.62
784.89	37859.74
785.224	37585.4
785.557	37276.25
785.891	37164.16
786.224	37321.67
786.558	37193.54
786.891	37015.92
787.224	36766.89
787.557	36674.69
787.891	36518.98
788.224	36336.39
788.557	36524.18
788.89	36309.5
789.223	36039.22
789.556	35913.8
789.888	35889.85
790.221	35668.84
790.554	35465.68
790.887	35535.73
791.219	35328.28
791.552	35215.51
791.884	35100.49
792.217	35055.29
792.549	34877.9
792.882	34567.4
793.214	34544.35
793.546	34475.42
793.879	34357.68
794.211	34220.29
794.543	34258.03
794.875	34260.96
795.207	34040.18
795.539	33906.4
795.871	33924.7
796.203	33750.47
796.535	33435.45
796.867	33522.68
797.198	33209.92
797.53	33245.62
797.862	33084.27
798.193	33092.86
798.525	32758.86
798.856	32974.9
799.188	32502.37
799.519	32492.42
799.85	32323.39
800.182	32301.47
800.513	32381.01
800.844	31836.39
801.175	32188.7
801.506	32028.25
801.837	31923.85
802.168	31844.3
802.499	31811.08
802.83	31630.07
803.161	31501.71
803.491	31502.62
803.822	31505.33
804.153	31083.87
804.483	31064.21
804.814	30950.77
805.145	31010.88
805.475	31055.17
805.805	30852.24
806.136	30815.63
806.466	30502.64
806.796	30487.73
807.126	30292.93
807.457	30372.93
807.787	30304.68
808.117	30236.89
808.447	30047.52
808.777	30158.25
809.107	29835.54
809.436	29894.52
809.766	29788.99
810.096	29780.63
810.426	29564.59
810.755	29723
811.085	29444.82
811.414	29525.95
811.744	29299.29
812.073	29389.68
812.403	29142.23
812.732	28987.43
813.061	29210.7
813.39	28868.56
813.719	28778.4
814.049	28931.61
814.378	28708.34
814.707	28642.13
815.036	28633.09
815.365	28558.51
815.693	28408.46
816.022	28421.12
816.351	28369.59
816.68	28100.9
817.008	28248.92
817.337	28055.7
817.665	28005.76
817.994	27996.27
818.322	28104.74
818.651	27920.11
818.979	27778.65
819.307	27843.51
819.636	27773.45
819.964	27594.92
820.292	27680.35
820.62	27704.98
820.948	27630.4
821.276	27862.26
821.604	27635.38
821.932	27662.04
822.259	27692.77
822.587	27630.4
822.915	27485.55
823.243	27550.18
823.57	27556.06
823.898	27644.41
824.225	27390.64
824.553	27488.49
824.88	27587.01
825.207	27660.46
825.535	27442.84
825.862	27566.68
826.189	27324.87
826.516	27614.36
826.843	27605.55
827.17	27654.36
827.497	27717.86
827.824	27603.74
828.151	27635.38
828.478	27526.45
828.805	27580.01
829.131	27469.73
829.458	27540.24
829.785	27431.31
830.111	27566.22
830.438	27679.22
830.764	27477.19
831.09	27497.07
831.417	27297.53
831.743	27651.19
832.069	27471.09
832.395	27396.96
832.722	27384.76
833.048	27438.09
833.374	27436.06
833.7	27296.85
834.026	27382.05
834.351	27391.54
834.677	27391.09
835.003	27253.24
835.329	27282.16
835.654	27210.98
835.98	26980.03
836.306	27215.5
836.631	27085.78
836.956	27191.32
837.282	27079.91
837.607	27074.03
837.932	26991.78
838.258	27024.54
838.583	26959.23
838.908	26842.4
839.233	26912.23
839.558	26719.01
839.883	26655.51
840.208	26521.51
840.533	26690.77
840.858	26588.17
841.182	26672.01
841.507	26463.43
841.832	26511.79
842.156	26390.44
842.481	26402.19
842.805	26325.58
843.13	26296.65
843.454	26269.08
843.778	26061.86
844.103	26080.16
844.427	25990.9
844.751	26075.42
845.075	26010.56
845.399	25844.69
845.723	25718.82
846.047	25775.99
846.371	25706.39
846.695	25516.11
847.019	25418.94
847.343	25415.77
847.666	25295.1
847.99	25111.83
848.313	25063.92
848.637	24983.92
848.96	24917.93
849.284	24856.92
849.607	24629.35
849.931	24583.48
850.254	24473.88
850.577	24298.51
850.9	24229.81
851.223	24159.53
851.546	24113.21
851.869	23891.52
852.192	24054.23
852.515	23802.71
852.838	23718.87
853.161	23748.7
853.483	23488.82
853.806	23427.58
854.129	23390.29
854.451	23387.58
854.774	23225.77
855.096	23041.6
855.419	23004.08
855.741	23019.45
856.063	22918.44
856.385	22779.23
856.708	22719.35
857.03	22701.95
857.352	22598.22
857.674	22555.96
857.996	22453.59
858.318	22355.97
858.64	22389.64
858.961	22292.24
859.283	22204.33
859.605	22077.33
859.926	22248.62
860.248	22028.52
860.57	22001.62
860.891	21893.15
861.212	21902.42
861.534	21856.77
861.855	21710.56
862.176	21757.56
862.498	21845.24
862.819	21742.65
863.14	21606.16
863.461	21594.4
863.782	21542.65
864.103	21569.77
864.424	21431.24
864.745	21534.74
865.065	21306.05
865.386	21335.2
865.707	21239.39
866.027	21316.22
866.348	21207.07
866.668	21181.08
866.989	21156.45
867.309	20931.6
867.63	20956.68
867.95	21088.2
868.27	20899.06
868.59	20995.55
868.91	20899.96
869.23	20899.73
869.55	20740.19
869.87	20825.38
870.19	20826.74
870.51	20765.27
870.83	20718.49
871.15	20567.09
871.469	20517.14
871.789	20611.38
872.109	20524.15
872.428	20377.71
872.748	20561.66
873.067	20489.8
873.386	20419.29
873.706	20355.34
874.025	20385.85
874.344	20262.46
874.663	20317.6
874.982	20291.16
875.301	20352.63
875.62	20122.13
875.939	20197.38
876.258	20140.88
876.577	20014.11
876.896	19974.79
877.214	19993.99
877.533	20079.87
877.852	19980.89
878.17	19989.93
878.489	20010.49
878.807	19889.82
879.125	19956.25
879.444	19886.43
879.762	19793.1
880.08	19854.11
880.398	19569.37
880.716	19664.51
881.034	19615.92
881.352	19645.75
881.67	19526.66
881.988	19537.06
882.306	19406.89
882.624	19463.39
882.941	19338.19
883.259	19303.39
883.577	19342.94
883.894	19329.15
884.212	19184.3
884.529	19136.16
884.846	19120.8
885.164	19021.14
885.481	18999.22
885.798	18968.48
886.115	18836.06
886.432	18936.39
886.75	18799.68
887.067	18867.02
887.383	18732.56
887.7	18773.69
888.017	18616.63
888.334	18609.4
888.651	18572.79
888.967	18548.61
889.284	18465.45
889.6	18498.21
889.917	18371.21
890.233	18417.31
890.55	18209.18
890.866	18288.95
891.182	18248.96
891.498	18149.07
891.815	17960.38
892.131	17975.74
892.447	17883.99
892.763	18025.46
893.079	17989.98
893.395	17845.12
893.71	17859.81
894.026	17804.22
894.342	17648.07
894.657	17492.36
894.973	17529.65
895.289	17483.33
895.604	17374.85
895.92	17321.97
896.235	17298.02
896.55	17349.77
896.865	17243.33
897.181	17193.16
897.496	17211.69
897.811	17149.1
898.126	16950.91
898.441	16909.56
898.756	16935.32
899.071	16733.97
899.386	16807.19
899.7	16637.47
900.015	16571.26
900.33	16543.92
900.644	16430.7
900.959	16378.5
901.273	16315.22
901.588	16274.54
901.902	16293.75
902.216	16182.57
902.531	16110.03
902.845	16051.95
903.159	15964.5
903.473	16006.75
903.787	15858.74
904.101	15748.46
904.415	15879.75
904.729	15716.59
905.042	15639.98
905.356	15568.8
905.67	15583.04
905.984	15557.73
906.297	15413.78
906.611	15277.06
906.924	15352.53
907.237	15289.48
907.551	15175.59
907.864	15082.94
908.177	15062.37
908.491	15054.01
908.804	14945.99
909.117	14918.42
909.43	14816.96
909.743	14796.62
910.056	14753.45
910.368	14633.23
910.681	14621.93
910.994	14514.59
911.307	14494.25
911.619	14427.13
911.932	14326.57
912.244	14183.75
912.557	14264.43
912.869	14153.92
913.181	14113.7
913.494	14069.4
913.806	13996.19
914.118	13919.8
914.43	13834.61
914.742	13808.39
915.054	13736.53
915.366	13729.07
915.678	13640.49
915.99	13608.17
916.302	13464.45
916.613	13446.82
916.925	13399.14
917.236	13353.26
917.548	13258.8
917.859	13295.41
918.171	13189.2
918.482	13069.66
918.794	13130.22
919.105	12976.1
919.416	12993.73
919.727	12914.63
920.038	12833.28
920.349	12867.4
920.66	12806.61
920.971	12735.2
921.282	12667.63
921.593	12580.86
921.903	12476.9
922.214	12496.79
922.525	12414.98
922.835	12414.76
923.146	12403.23
923.456	12217.02
923.767	12200.3
924.077	12154.88
924.387	12198.27
924.697	12076.46
925.008	11968.67
925.318	11936.8
925.628	12013.19
925.938	11916.01
926.248	11811.84
926.558	11672.18
926.867	11685.74
927.177	11614.1
927.487	11582.24
927.796	11529.36
928.106	11532.07
928.416	11415.24
928.725	11409.36
929.034	11332.3
929.344	11299.31
929.653	11314.9
929.962	11151.97
930.271	11208.46
930.581	11043.72
930.89	11030.61
931.199	10957.4
931.508	10846.44
931.817	10911.97
932.125	10871.07
932.434	10843.73
932.743	10633.34
933.051	10711.07
933.36	10671.3
933.669	10637.86
933.977	10572.32
934.286	10555.82
934.594	10534.58
934.902	10474.7
935.21	10419.56
935.519	10344.08
935.827	10373.23
936.135	10229.28
936.443	10224.99
936.751	10109.28
937.059	10119.68
937.367	10010.3
937.674	10078.32
937.982	9970.3
938.29	9959
938.597	9927.82
938.905	9849.85
939.213	9800.14
939.52	9786.8
939.827	9832.23
940.135	9701.38
940.442	9618.9
940.749	9672.23
941.056	9672.01
941.363	9527.38
941.67	9498.68
941.977	9473.59
942.284	9375.97
942.591	9400.83
942.898	9310.66
943.205	9322.18
943.511	9231.11
943.818	9269.3
944.125	9193.6
944.431	9150.44
944.738	9076.77
945.044	9076.32
945.35	8964
945.657	8938.01
945.963	8922.65
946.269	8843.33
946.575	8817.56
946.881	8726.49
947.187	8738.7
947.493	8625.48
947.799	8620.51
948.105	8612.15
948.41	8566.27
948.716	8536.89
949.022	8521.98
949.327	8482.88
949.633	8355.43
949.938	8413.51
950.244	8393.85
950.549	8254.19
950.854	8206.28
951.16	8236.56
951.465	8178.03
951.77	8173.29
952.075	8160.18
952.38	8046.51
952.685	8094.87
952.99	8014.87
953.294	8028.21
953.599	7904.14
953.904	7945.05
954.209	7851.26
954.513	7862.79
954.818	7875.22
955.122	7821.88
955.426	7740.08
955.731	7690.14
956.035	7657.14
956.339	7618.73
956.643	7616.69
956.948	7544.38
957.252	7517.71
957.556	7489.46
957.86	7426.87
958.163	7404.95
958.467	7338.28
958.771	7402.91
959.075	7304.38
959.378	7263.03
959.682	7270.71
959.985	7226.87
960.289	7129.93
960.592	7165.4
960.896	7090.83
961.199	7092.64
961.502	7108.91
961.805	7063.94
962.108	6994.11
962.411	6974.22
962.714	6959.76
963.017	6913.21
963.32	6943.49
963.623	6894.68
963.926	6819.65
964.228	6772.19
964.531	6748.92
964.833	6748.24
965.136	6684.51
965.438	6650.84
965.741	6567.45
966.043	6599.54
966.345	6568.36
966.648	6551.64
966.95	6558.87
967.252	6483.16
967.554	6473.22
967.856	6421.02
968.158	6381.47
968.46	6391.19
968.761	6358.42
969.063	6324.52
969.365	6260.12
969.666	6276.61
969.968	6193
970.269	6211.98
970.571	6191.19
970.872	6087.69
971.174	6110.52
971.475	6089.05
971.776	6006.79
972.077	6071.87
972.378	6004.98
972.679	5990.52
972.98	5965.89
973.281	5929.51
973.582	5918.21
973.883	5803.18
974.183	5809.51
974.484	5760.47
974.785	5715.73
975.085	5722.73
975.386	5751.2
975.686	5711.21
975.986	5661.49
976.287	5624.88
976.587	5615.84
976.887	5598.89
977.187	5601.83
977.487	5515.5
977.787	5519.35
978.087	5471.21
978.387	5446.81
978.687	5418.11
978.987	5429.18
979.286	5375.85
979.586	5365.23
979.885	5355.96
980.185	5304.44
980.484	5219.47
980.784	5329.97
981.083	5244.33
981.382	5279.35
981.682	5216.76
981.981	5249.97
982.28	5198.22
982.579	5121.62
982.878	5074.16
983.177	5022.86
983.475	5127.49
983.774	5013.82
984.073	4998.91
984.372	4981.28
984.67	5007.04
984.969	4960.94
985.267	4905.8
985.566	4870.55
985.864	4852.92
986.162	4796.43
986.461	4802.3
986.759	4789.65
987.057	4766.82
987.355	4726.15
987.653	4722.31
987.951	4689.99
988.249	4678.69
988.547	4637.11
988.844	4651.57
989.142	4594.17
989.44	4564.57
989.737	4550.56
990.035	4513.05
990.332	4521.86
990.63	4527.06
990.927	4503.78
991.224	4440.28
991.521	4408.64
991.819	4428.08
992.116	4387.85
992.413	4406.38
992.71	4355.76
993.006	4347.17
993.303	4306.04
993.6	4256.55
993.897	4254.75
994.193	4255.42
994.49	4231.47
994.787	4185.37
995.083	4202.77
995.379	4102.21
995.676	4142.43
995.972	4105.6
996.268	4097.91
996.565	4037.8
996.861	4064.02
997.157	4059.27
997.453	4001.19
997.749	4035.09
998.044	3932.72
998.34	3935.21
998.636	3947.18
998.932	3900.18
999.227	3876.23
999.523	3901.54
999.818	3848.2
1000.114	3862.89
1000.409	3795.55
1000.704	3719.39
1001	3777.02
1001.295	3725.5
1001.59	3678.04
1001.885	3680.98
1002.18	3668.77
1002.475	3637.59
1002.77	3678.49
1003.065	3628.77
1003.359	3584.71
1003.654	3574.09
1003.949	3527.76
1004.243	3537.25
1004.538	3464.49
1004.832	3471.72
1005.127	3457.48
1005.421	3450.02
1005.715	3436.69
1006.009	3394.43
1006.304	3412.96
1006.598	3348.56
1006.892	3356.69
1007.186	3319.4
1007.48	3319.4
1007.773	3236.24
1008.067	3262.68
1008.361	3227.43
1008.655	3198.05
1008.948	3192.18
1009.242	3143.36
1009.535	3137.49
1009.829	3132.74
1010.122	3120.09
1010.415	3124.83
1010.708	3046.42
1011.001	3065.63
1011.295	3050.48
1011.588	3019.07
1011.881	3010.71
1012.173	2972.52
1012.466	2982.01
1012.759	2964.16
1013.052	2942.01
1013.344	2930.94
1013.637	2904.95
1013.93	2881.22
1014.222	2844.61
1014.514	2870.83
1014.807	2866.76
1015.099	2791.28
1015.391	2788.34
1015.683	2752.19
1015.976	2762.58
1016.268	2701.34
1016.56	2708.12
1016.851	2702.47
1017.143	2655.01
1017.435	2653.43
1017.727	2632.64
1018.018	2599.65
1018.31	2616.82
1018.602	2554.45
1018.893	2564.62
1019.185	2518.52
1019.476	2497.5
1019.767	2552.42
1020.058	2517.62
1020.35	2493.44
1020.641	2449.37
1020.932	2448.69
1021.223	2435.36
1021.514	2418.64
1021.804	2363.72
1022.095	2405.76
1022.386	2342.03
1022.677	2327.11
1022.967	2323.5
1023.258	2302.48
1023.548	2279.21
1023.839	2314.23
1024.129	2242.14
1024.419	2261.58
1024.709	2209.38
1025	2197.17
1025.29	2216.38
1025.58	2204.18
1025.87	2166.44
1026.16	2120.79
1026.449	2099.55
1026.739	2118.53
1027.029	2108.14
1027.319	2080.34
1027.608	2097.97
1027.898	2058.42
1028.187	2046.22
1028.477	2053.22
1028.766	1995.82
1029.055	1992.89
1029.344	1989.72
1029.634	1992.66
1029.923	1933.23
1030.212	1917.18
1030.501	1935.26
1030.79	1884.87
1031.078	1888.93
1031.367	1886.45
1031.656	1842.38
1031.945	1828.14
1032.233	1846
1032.522	1825.43
1032.81	1813.68
1033.099	1782.72
1033.387	1799.9
1033.675	1761.71
1033.963	1768.03
1034.251	1737.07
1034.54	1709.28
1034.828	1727.13
1035.116	1680.8
1035.403	1708.15
1035.691	1677.64
1035.979	1667.92
1036.267	1662.95
1036.554	1663.18
1036.842	1654.82
1037.129	1636.74
1037.417	1635.61
1037.704	1626.79
1037.992	1579.79
1038.279	1589.51
1038.566	1580.01
1038.853	1580.01
1039.14	1580.01
