Data from 166_FLMS001491_007.txt Node
Date: Thu Apr 19 16:18:28 BST 2018
User: hsy
Spectrometer: FLMS00149
Trigger mode: 0
Integration Time (sec): 1.000000E-2
Scans to average: 10
Electric dark correction enabled: true
Nonlinearity correction enabled: false
Boxcar width: 0
XAxis mode: Wavelengths
Number of Pixels in Spectrum: 2048
>>>>>Begin Spectral Data<<<<<
341.393	-7.42
341.776	-7.42
342.16	-7.42
342.543	-71.14
342.927	-64.14
343.31	-69.33
343.693	-60.97
344.077	-76.57
344.46	-58.94
344.843	-64.81
345.226	-41.99
345.61	-29.34
345.993	-13.97
346.376	-6.51
346.759	20.61
347.142	2.98
347.525	39.59
347.908	59.7
348.291	80.27
348.674	92.24
349.057	127.04
349.44	132.69
349.823	144.67
350.206	176.99
350.588	234.61
350.971	225.35
351.354	268.28
351.737	259.24
352.119	301.05
352.502	298.34
352.884	329.3
353.267	346.25
353.65	329.98
354.032	357.1
354.414	350.77
354.797	340.37
355.179	368.39
355.562	354.38
355.944	377.66
356.326	399.13
356.709	385.34
357.091	376.98
357.473	385.34
357.855	405.23
358.238	385.34
358.62	390.54
359.002	383.76
359.384	389.64
359.766	405.23
360.148	399.58
360.53	397.32
360.912	388.28
361.294	396.64
361.676	388.96
362.057	382.18
362.439	381.5
362.821	381.73
363.203	391.22
363.584	393.03
363.966	383.08
364.348	374.72
364.729	393.48
365.111	373.37
365.493	391.9
365.874	394.61
366.256	374.5
366.637	405.91
367.019	395.06
367.4	381.05
367.781	383.31
368.163	387.83
368.544	381.73
368.925	354.61
369.306	369.75
369.688	365.23
370.069	393.25
370.45	372.01
370.831	398.68
371.212	402.07
371.593	389.86
371.974	359.81
372.355	375.4
372.736	398.22
373.117	391.22
373.498	380.6
373.879	394.38
374.26	372.01
374.641	384.67
375.021	377.66
375.402	398
375.783	423.08
376.163	409.75
376.544	426.47
376.925	396.87
377.305	395.06
377.686	397.09
378.066	421.27
378.447	414.04
378.827	407.49
379.208	407.94
379.588	416.3
379.968	427.15
380.349	422.86
380.729	413.36
381.109	434.38
381.489	428.96
381.87	431.67
382.25	421.27
382.63	446.13
383.01	420.14
383.39	431.44
383.77	441.61
384.15	460.82
384.53	437.77
384.91	429.18
385.29	437.77
385.67	454.72
386.049	434.16
386.429	427.83
386.809	481.16
387.189	494.72
387.568	453.36
387.948	463.08
388.328	493.59
388.707	456.75
389.087	467.83
389.466	478.45
389.846	473.25
390.225	484.1
390.605	506.02
390.984	491.1
391.363	518.9
391.743	480.48
392.122	499.69
392.501	487.94
392.881	499.24
393.26	513.02
393.639	513.7
394.018	509.86
394.397	527.71
394.776	539.46
395.155	516.19
395.534	501.05
395.913	560.48
396.292	527.71
396.671	522.06
397.05	555.06
397.429	542.85
397.808	572.23
398.186	527.94
398.565	569.29
398.944	562.51
399.323	548.73
399.701	581.5
400.08	581.72
400.458	576.98
400.837	572.68
401.215	565
401.594	577.65
401.972	591.89
402.351	593.02
402.729	615.17
403.107	581.5
403.486	575.62
403.864	609.97
404.242	598.9
404.62	627.82
404.999	624.21
405.377	620.37
405.755	615.17
406.133	635.28
406.511	627.6
406.889	655.39
407.267	632.34
407.645	632.12
408.023	642.06
408.401	659.46
408.779	646.35
409.156	677.09
409.534	684.54
409.912	702.85
410.29	701.49
410.667	721.15
411.045	699.46
411.422	721.15
411.8	706.01
412.178	710.98
412.555	745.79
412.933	776.97
413.31	753.47
413.687	751.66
414.065	756.86
414.442	767.03
414.819	769.06
415.197	774.49
415.574	791.43
415.951	798.89
416.328	798.21
416.705	778.1
417.082	810.87
417.46	819.91
417.837	833.92
418.214	849.96
418.591	824.2
418.967	827.82
419.344	852.45
419.721	869.17
420.098	859.23
420.475	873.24
420.852	861.04
421.228	860.81
421.605	893.35
421.982	868.95
422.358	894.03
422.735	882.96
423.111	904.43
423.488	936.29
423.864	942.16
424.241	910.98
424.617	954.59
424.994	932
425.37	943.75
425.746	939
426.123	977.19
426.499	967.25
426.875	978.1
427.251	1002.05
427.627	990.75
428.003	1014.7
428.379	1020.58
428.756	1023.07
429.132	1019
429.507	1065.33
429.883	1046.79
430.259	1048.15
430.635	1093.8
431.011	1082.73
431.387	1118.21
431.763	1106.45
432.138	1116.62
432.514	1143.06
432.89	1162.05
433.265	1172.89
433.641	1171.54
434.016	1196.4
434.392	1205.21
434.767	1223.74
435.143	1222.16
435.518	1244.53
435.894	1252.21
436.269	1266.68
436.644	1282.04
437.02	1271.42
437.395	1323.85
437.77	1308.26
438.145	1317.52
438.52	1305.77
438.895	1328.6
439.271	1366.79
439.646	1387.8
440.021	1348.48
440.395	1393.68
440.77	1375.6
441.145	1381.93
441.52	1424.64
441.895	1426.22
442.27	1468.25
442.645	1398.42
443.019	1450.4
443.394	1453.34
443.769	1441.59
444.143	1445.65
444.518	1465.77
444.892	1451.08
445.267	1469.83
445.641	1499.21
446.016	1498.99
446.39	1496.73
446.764	1487.69
447.139	1491.3
447.513	1498.53
447.887	1540.79
448.262	1531.98
448.636	1517.29
449.01	1568.14
449.384	1571.3
449.758	1577.4
450.132	1628.25
450.506	1616.05
450.88	1632.77
451.254	1612.2
451.628	1646.33
452.002	1647.91
452.376	1669.15
452.75	1703.95
453.123	1726.32
453.497	1765.42
453.871	1748.47
454.244	1801.35
454.618	1801.12
454.992	1798.41
455.365	1826.66
455.739	1832.99
456.112	1857.17
456.486	1894
456.859	1913.66
457.232	1955.25
457.606	1942.36
457.979	1974.91
458.352	2004.28
458.725	2033.21
459.099	2028.01
459.472	2068.24
459.845	2093.77
460.218	2113.89
460.591	2129.93
460.964	2148.23
461.337	2163.15
461.71	2227.55
462.083	2260.32
462.456	2233.88
462.829	2246.09
463.201	2261.68
463.574	2303.48
463.947	2365.18
464.32	2410.6
464.692	2381.22
465.065	2386.87
465.438	2413.31
465.81	2472.07
466.183	2424.39
466.555	2495.34
466.928	2534.44
467.3	2545.96
467.672	2563.59
468.045	2629.35
468.417	2636.58
468.789	2624.15
469.161	2689.24
469.534	2756.81
469.906	2778.95
470.278	2807.43
470.65	2788.22
471.022	2850.81
471.394	2914.54
471.766	2922.23
472.138	2984.82
472.51	2986.18
472.882	3062.33
473.253	3074.54
473.625	3100.3
473.997	3202.9
474.369	3205.16
474.74	3222.1
475.112	3254.87
475.484	3346.62
475.855	3414.87
476.227	3462.78
476.598	3495.54
476.97	3538.25
477.341	3623.9
477.713	3718.14
478.084	3699.38
478.455	3776.67
478.827	3816.44
479.198	3908.87
479.569	3946.38
479.94	4048.75
480.311	4112.02
480.682	4179.37
481.053	4261.4
481.424	4329.87
481.795	4317.67
482.166	4483.31
482.537	4513.6
482.908	4625.46
483.279	4673.14
483.65	4737.32
484.021	4814.83
484.391	4921.27
484.762	4940.48
485.133	4993.58
485.503	5123.52
485.874	5229.74
486.244	5244.2
486.615	5395.83
486.985	5438.09
487.356	5566
487.726	5547.02
488.097	5761.92
488.467	5854.35
488.837	5945.65
489.207	6012.09
489.578	6153.78
489.948	6149.26
490.318	6263.61
490.688	6305.87
491.058	6436.71
491.428	6514.9
491.798	6640.09
492.168	6719.19
492.538	6858.85
492.908	6881.22
493.278	7067.43
493.648	7061.55
494.017	7191.04
494.387	7258.61
494.757	7367.53
495.126	7425.61
495.496	7497.02
495.866	7563.23
496.235	7693.4
496.605	7789.44
496.974	7863.11
497.344	8007.06
497.713	8071.24
498.082	8050.9
498.452	8243.89
498.821	8295.42
499.19	8386.94
499.559	8435.75
499.928	8530.44
500.298	8640.95
500.667	8711.9
501.036	8710.77
501.405	8857.66
501.774	8937.21
502.143	9052.46
502.512	9094.72
502.88	9219.01
503.249	9226.69
503.618	9289.74
503.987	9366.35
504.356	9471.88
504.724	9595.04
505.093	9562.28
505.462	9700.8
505.83	9740.8
506.199	9818.54
506.567	9887.92
506.936	9888.37
507.304	10085.65
507.672	10192.32
508.041	10160.91
508.409	10331.75
508.777	10437.96
509.145	10461.46
509.514	10523.16
509.882	10669.59
510.25	10651.74
510.618	10758.18
510.986	10785.75
511.354	10924.95
511.722	11033.42
512.09	11097.83
512.458	11162.69
512.826	11241.78
513.193	11304.6
513.561	11314.1
513.929	11442.45
514.297	11560.64
514.664	11676.8
515.032	11682.45
515.4	11804.7
515.767	11803.12
516.135	11950.24
516.502	11911.59
516.869	12091.48
517.237	12205.6
517.604	12119.95
517.972	12355.88
518.339	12436.55
518.706	12477.23
519.073	12547.28
519.44	12575.53
519.808	12768.29
520.175	12763.55
520.542	12922.87
520.909	13075.63
521.276	13076.31
521.643	13261.84
522.009	13330.54
522.376	13445.56
522.743	13558.56
523.11	13687.59
523.477	13896.85
523.843	13947.7
524.21	14054.36
524.577	14122.61
524.943	14205.09
525.31	14333.9
525.676	14478.08
526.043	14549.49
526.409	14712.2
526.776	14864.28
527.142	14991.29
527.508	14997.61
527.874	15206.65
528.241	15240.77
528.607	15302.24
528.973	15411.39
529.339	15477.83
529.705	15749.91
530.071	15885.05
530.437	15869.23
530.803	16062.9
531.169	16068.55
531.535	16167.3
531.901	16338.82
532.267	16465.6
532.632	16581.3
532.998	16597.57
533.364	16704.24
533.73	16741.75
534.095	16946.26
534.461	16986.94
534.826	17032.81
535.192	17223.09
535.557	17234.84
535.923	17285.92
536.288	17419.47
536.653	17526.59
537.019	17495.4
537.384	17602.29
537.749	17626.7
538.114	17717.32
538.479	17748.05
538.845	17785.79
539.21	17914.37
539.575	18020.81
539.94	18014.48
540.305	18222.84
540.67	18228.49
541.034	18302.39
541.399	18308.94
541.764	18442.72
542.129	18504.41
542.494	18538.31
542.858	18703.05
543.223	18595.71
543.587	18716.84
543.952	18734.24
544.316	18901.24
544.681	18852.43
545.045	18982.14
545.41	19069.82
545.774	18934.23
546.138	19139.65
546.503	19225.3
546.867	19295.13
547.231	19250.38
547.595	19491.06
547.959	19497.61
548.324	19541.22
548.688	19509.13
549.052	19526.53
549.416	19568.34
549.779	19699.64
550.143	19764.72
550.507	19918.61
550.871	19926.98
551.235	19924.72
551.599	20220.75
551.962	20238.38
552.326	20185.5
552.689	20232.5
553.053	20335.78
553.417	20355.89
553.78	20539.84
554.143	20562.67
554.507	20626.17
554.87	20801.76
555.234	20929.89
555.597	20759.5
555.96	20967.85
556.323	21053.05
556.686	21032.03
557.05	21136.44
557.413	21177.56
557.776	21340.5
558.139	21431.57
558.502	21573.03
558.865	21523.32
559.228	21688.74
559.59	21843.99
559.953	21834.27
560.316	22026.36
560.679	22152.91
561.041	22314.48
561.404	22457.98
561.767	22528.04
562.129	22484.2
562.492	22822.27
562.854	22850.97
563.217	22765.09
563.579	22935.71
563.941	23103.16
564.304	23182.26
564.666	23441.01
565.028	23495.24
565.39	23556.49
565.753	23759.87
566.115	23816.59
566.477	23848.68
566.839	24096.13
567.201	24265.39
567.563	24243.92
567.925	24390.59
568.287	24551.94
568.648	24767.75
569.01	24904.25
569.372	25070.8
569.734	25000.74
570.095	25199.83
570.457	25322.54
570.819	25414.97
571.18	25419.94
571.542	25708.07
571.903	25751.91
572.265	25863.09
572.626	26010.43
572.987	26106.47
573.349	26369.74
573.71	26417.88
574.071	26659.91
574.432	26802.95
574.794	26943.29
575.155	27050.86
575.516	27103.51
575.877	27371.53
576.238	27452.2
576.599	27596.83
576.96	27691.97
577.32	27739.65
577.681	27865.98
578.042	28092.19
578.403	28135.57
578.763	28257.83
579.124	28452.4
579.485	28670.25
579.845	28683.58
580.206	28810.13
580.566	29084.7
580.927	29241.76
581.287	29389.78
581.648	29556.78
582.008	29822.99
582.368	29871.35
582.728	30123.09
583.089	30359.7
583.449	30524.21
583.809	30585.9
584.169	30885.33
584.529	31039.23
584.889	31413.68
585.249	31476.05
585.609	31671.07
585.969	32214.34
586.329	32269.25
586.688	32762.34
587.048	32953.98
587.408	33216.12
587.768	33475.09
588.127	33898.81
588.487	34086.15
588.846	34802.97
589.206	34633.26
589.565	35080.7
589.925	35664.87
590.284	36038.87
590.643	36415.13
591.003	36833.42
591.362	37306.63
591.721	37723.57
592.08	37935.99
592.44	38600.61
592.799	38865.46
593.158	39258.9
593.517	39676.97
593.876	40220
594.235	40606.66
594.593	41015.01
594.952	41556.92
595.311	41865.83
595.67	42411.36
596.029	42957.56
596.387	43573.81
596.746	44057.42
597.104	44298.76
597.463	44485.2
597.822	45385.74
598.18	45567.88
598.538	45950.47
598.897	46536.22
599.255	46723.56
599.613	47450.32
599.972	47576.19
600.33	48056.41
600.688	48257.76
601.046	48752.43
601.404	49485.29
601.762	49706.08
602.12	50188.78
602.478	50455.66
602.836	50785.83
603.194	50858.59
603.552	51299.94
603.91	51556.88
604.268	51885.01
604.625	52106.02
604.983	52514.37
605.341	52537.87
605.698	53098.99
606.056	53426.66
606.413	53498.97
606.771	53905.97
607.128	54061.67
607.485	54296.02
607.843	54407.43
608.2	54837.24
608.557	55072.04
608.914	55174.64
609.272	55435.42
609.629	55801.96
609.986	55984.33
610.343	56138.45
610.7	56563.75
611.057	56568.27
611.414	56619.8
611.771	56930.3
612.127	57092.55
612.484	57275.82
612.841	57460.68
613.198	57608.92
613.554	57663.38
613.911	58008.46
614.267	58134.56
614.624	58132.75
614.98	58375.68
615.337	58614.55
615.693	58740.64
616.05	58859.29
616.406	58943.8
616.762	59013.63
617.118	59129.34
617.475	59205.04
617.831	59412.27
618.187	59507.18
618.543	59617.46
618.899	59848.19
619.255	59807.51
619.611	59929.99
619.967	60022.19
620.323	60180.61
620.678	60121.4
621.034	60221.74
621.39	60196.43
621.746	60327.27
622.101	60626.47
622.457	60511.45
622.812	60616.3
623.168	60716.86
623.523	60729.52
623.879	60886.8
624.234	60775.85
624.589	60968.61
624.945	60971.55
625.3	61038.21
625.655	61082.05
626.01	61054.03
626.365	61166.8
626.72	61164.54
627.075	61144.2
627.43	61279.34
627.785	61266.91
628.14	61331.76
628.495	61380.12
628.85	61379.67
629.205	61291.76
629.559	61495.37
629.914	61388.71
630.269	61381.25
630.623	61309.62
630.978	61300.8
631.332	61497.18
631.687	61509.84
632.041	61476.39
632.396	61500.57
632.75	61508.03
633.104	61517.97
633.459	61409.73
633.813	61437.97
634.167	61469.61
634.521	61449.73
634.875	61461.48
635.229	61462.16
635.583	61347.13
635.937	61375.38
636.291	61401.59
636.645	61342.61
636.999	61314.14
637.352	61417.86
637.706	61260.58
638.06	61374.02
638.413	61269.62
638.767	61210.64
639.121	61301.03
639.474	61209.96
639.828	61185.78
640.181	61226
640.534	61227.59
640.888	61146.68
641.241	61078.89
641.594	61122.73
641.947	61114.59
642.301	61053.8
642.654	61148.04
643.007	61027.14
643.36	61125.44
643.713	61079.57
644.066	61113.69
644.419	60988.5
644.771	60710.31
645.124	60585.79
645.477	60488.4
645.83	60454.5
646.182	60400.04
646.535	60360.94
646.888	60414.27
647.24	60348.06
647.593	60388.74
647.945	60347.61
648.298	60344.44
648.65	60148.97
649.002	60078.46
649.355	60056.54
649.707	60010.44
650.059	60028.29
650.411	60322.75
650.763	60393.93
651.115	60681.84
651.467	60595.06
651.819	60623.08
652.171	60625.11
652.523	60457.44
652.875	60560.03
653.227	60413.37
653.578	60659.46
653.93	60521.61
654.282	60450.66
654.633	60373.37
654.985	60440.71
655.337	60437.78
655.688	60421.05
656.039	60507.6
656.391	60224.9
656.742	60259.7
657.094	60279.36
657.445	60316.65
657.796	60336.76
658.147	60233.71
658.498	60300.83
658.849	60343.54
659.2	60223.54
659.551	60171.34
659.902	60315.74
660.253	60157.1
660.604	60249.76
660.955	60083.43
661.306	60244.11
661.656	60172.25
662.007	60187.84
662.358	60131.57
662.708	60133.38
663.059	60094.73
663.409	60039.59
663.76	60079.59
664.11	60085.47
664.461	60124.79
664.811	60113.94
665.161	60081.85
665.511	60069.42
665.862	59986.94
666.212	60057.9
666.562	60046.6
666.912	59982.19
667.262	59968.18
667.612	59958.69
667.962	60023.1
668.312	59934.29
668.662	60023.55
669.011	59993.95
669.361	59912.59
669.711	59996.43
670.06	59966.6
670.41	59899.71
670.76	59809.32
671.109	59879.15
671.459	59851.35
671.808	59917.11
672.157	59932.93
672.507	59751.01
672.856	59785.36
673.205	59804.12
673.554	59891.12
673.904	59768.19
674.253	59923.89
674.602	59807.28
674.951	59543.34
675.3	59422.66
675.649	59790.11
675.998	59740.62
676.346	59805.48
676.695	59857.45
677.044	59725.7
677.393	59764.12
677.741	59759.38
678.09	59692.94
678.438	59665.59
678.787	59720.51
679.135	59702.65
679.484	59555.99
679.832	59679.6
680.181	59586.95
680.529	59592.15
680.877	59496.11
681.225	59454.52
681.573	59697.68
681.922	59484.81
682.27	59449.78
682.618	59438.03
682.966	59389.44
683.314	59437.8
683.661	59362.1
684.009	59252.95
684.357	59329.78
684.705	59184.25
685.053	59242.78
685.4	59146.28
685.748	59144.7
686.095	59109.22
686.443	59046.85
686.79	58996.46
687.138	59045.72
687.485	59019.06
687.832	58927.53
688.18	58932.5
688.527	58844.82
688.874	58856.12
689.221	58854.99
689.568	58778.38
689.915	58638.05
690.262	58757.37
690.609	58665.84
690.956	58666.97
691.303	58521.22
691.65	58465.62
691.997	58462.46
692.344	58304.5
692.69	58253.88
693.037	58324.16
693.383	58173.88
693.73	58246.65
694.077	58082.36
694.423	58042.58
694.769	57987.22
695.116	58078.52
695.462	57896.37
695.808	57806.43
696.155	57847.56
696.501	57724.4
696.847	57735.02
697.193	57558.53
697.539	57599.43
697.885	57376.84
698.231	57358.76
698.577	57376.39
698.923	57349.49
699.269	57188.82
699.614	57079.22
699.96	57053.46
700.306	57076.06
700.651	56890.98
700.997	56862.05
701.342	56768.95
701.688	56790.19
702.033	56640.81
702.379	56716.52
702.724	56580.7
703.069	56568.5
703.415	56339.13
703.76	56369.41
704.105	56416.64
704.45	56212.12
704.795	56206.93
705.14	56024.33
705.485	56056.42
705.83	55901.17
706.175	56003.99
706.52	55940.72
706.865	55812.59
707.209	55759.93
707.554	55679.26
707.899	55662.76
708.243	55506.38
708.588	55565.59
708.932	55417.79
709.277	55413.05
709.621	55373.5
709.966	55108.88
710.31	55181.87
710.654	54967.86
710.998	55067.3
711.342	55069.78
711.687	54887.86
712.031	54849
712.375	54682.45
712.719	54643.35
713.063	54620.53
713.407	54845.61
713.75	54620.75
714.094	54553.86
714.438	54461.66
714.782	54449.01
715.125	54350.25
715.469	54421.66
715.812	54208.56
716.156	54118.85
716.499	54145.74
716.843	54117.04
717.186	53926.08
717.53	54074.1
717.873	54098.51
718.216	53956.59
718.559	53857.84
718.902	53713.66
719.246	53710.04
719.589	53692.87
719.932	53399.09
720.275	53514.79
720.617	53522.25
720.96	53330.39
721.303	53470.5
721.646	53454.91
721.989	53273.22
722.331	53369.71
722.674	53187.8
723.016	53189.6
723.359	52976.05
723.701	53168.59
724.044	53021.93
724.386	52875.94
724.729	52990.74
725.071	52956.84
725.413	52803.85
725.755	52781.48
726.097	52724.53
726.439	52593.46
726.782	52524.76
727.124	52651.09
727.465	52482.05
727.807	52388.95
728.149	52374.71
728.491	52364.09
728.833	52410.19
729.175	52346.46
729.516	52215.17
729.858	52099.69
730.199	52256.07
730.541	52262.85
730.882	52124.55
731.224	52133.36
731.565	52070.76
731.906	52016.3
732.248	52069.63
732.589	51858.79
732.93	51774.95
733.271	51842.07
733.612	51781.05
733.953	51875.74
734.294	51721.39
734.635	51639.36
734.976	51787.61
735.317	51475.3
735.658	51491.57
735.999	51444.34
736.339	51414.06
736.68	51429.2
737.021	51393.04
737.361	51168.64
737.702	51450.21
738.042	51243.44
738.383	51199.83
738.723	51355.08
739.063	51004.13
739.404	51233.95
739.744	51067.4
740.084	51064.24
740.424	51067.85
740.764	50976.78
741.104	51119.83
741.444	50795.32
741.784	50732.04
742.124	50839.38
742.464	50727.97
742.804	50642.78
743.143	50585.6
743.483	50710.57
743.823	50561.42
744.162	50566.62
744.502	50564.14
744.841	50436.91
745.181	50518.49
745.52	50303.58
745.86	50320.3
746.199	50283.92
746.538	50268.1
746.877	50371.15
747.216	50217.93
747.556	50079.86
747.895	50099.52
748.234	50036.24
748.573	50019.74
748.911	49823.59
749.25	49829.69
749.589	49693.2
749.928	49774.78
750.267	49788.11
750.605	49649.81
750.944	49595.57
751.283	49461.57
751.621	49656.36
751.96	49448.46
752.298	49422.02
752.636	49330.72
752.975	49315.36
753.313	49135.25
753.651	49303.38
753.989	49083.5
754.327	49045.98
754.666	48728.03
755.004	48905.42
755.342	48804.41
755.679	48899.77
756.017	48497.07
756.355	48618.88
756.693	48382.73
757.031	48549.73
757.368	48314.03
757.706	48353.35
758.044	48118.78
758.381	48086.46
758.719	47917.88
759.056	47912.45
759.394	47839.24
759.731	47537.32
760.068	47586.14
760.405	47564.89
760.743	47298.69
761.08	47451
761.417	47125.81
761.754	47102.53
762.091	47034.51
762.428	46854.63
762.765	46632.04
763.102	46662.09
763.438	46548.87
763.775	46227.98
764.112	46170.81
764.449	46311.14
764.785	46035.89
765.122	45867.99
765.458	45703.7
765.795	45566.75
766.131	45546.87
766.467	45473.65
766.804	45207.67
767.14	45006.09
767.476	44898.07
767.812	44791.86
768.148	44837.51
768.485	44712.31
768.821	44355.49
769.157	44251.31
769.492	44162.05
769.828	44113.01
770.164	43886.12
770.5	43838.21
770.836	43646.8
771.171	43600.48
771.507	43360.03
771.842	43050.44
772.178	43087.95
772.513	43063.09
772.849	42839.37
773.184	42676.21
773.519	42752.36
773.855	42352.15
774.19	42400.74
774.525	42047.75
774.86	42126.39
775.195	41959.84
775.53	41680.98
775.865	41496.13
776.2	41331.84
776.535	41022.92
776.87	41047.55
777.205	40948.12
777.539	40659.09
777.874	40799.87
778.209	40391.75
778.543	40330.51
778.878	40301.13
779.212	40262.94
779.547	39857.3
779.881	39930.97
780.215	39449.17
780.55	39561.71
780.884	39198.56
781.218	39170.76
781.552	39349.52
781.886	38967.83
782.22	38804.45
782.554	38481.29
782.888	38294.18
783.222	38256.66
783.556	38055.99
783.889	37928.31
784.223	37761.76
784.557	37807.64
784.89	37672.95
785.224	37459.17
785.557	37266.18
785.891	37238.61
786.224	37083.36
786.558	37003.14
786.891	36883.37
787.224	36651.96
787.557	36466.43
787.891	36497.39
788.224	36211.52
788.557	36046.78
788.89	36016.72
789.223	36056.95
789.556	35711.19
789.888	35682.95
790.221	35388.49
790.554	35443.4
790.887	35300.13
791.219	35204.99
791.552	35035.73
791.884	34971.78
792.217	34745.57
792.549	34836.19
792.882	34458.57
793.214	34353.26
793.546	34429.42
793.879	34231.23
794.211	33848.87
794.543	34071.01
794.875	33911.47
795.207	33846.61
795.539	33712.15
795.871	33730.68
796.203	33587.41
796.535	33387.41
796.867	33449.56
797.198	33123.24
797.53	33072.85
797.862	32851.61
798.193	32984.26
798.525	32781.33
798.856	32762.34
799.188	32375.24
799.519	32302.92
799.85	32240.55
800.182	32264.05
800.513	32356.03
800.844	31741.81
801.175	32119.65
801.506	32013.44
801.837	31850.73
802.168	31728.47
802.499	31672.2
802.83	31544.75
803.161	31367.13
803.491	31262.05
803.822	31504.3
804.153	31290.75
804.483	30913.35
804.814	30795.39
805.145	30880.81
805.475	30783.41
805.805	30743.41
806.136	30646.02
806.466	30589.97
806.796	30452.12
807.126	30237.89
807.457	30276.99
807.787	30311.56
808.117	30051.68
808.447	30042.64
808.777	30050.1
809.107	29845.81
809.436	29595.2
809.766	29761.75
810.096	29646.95
810.426	29528.31
810.755	29596.1
811.085	29493.96
811.414	29379.83
811.744	29276.56
812.073	29238.6
812.403	29159.73
812.732	28972.39
813.061	29119.5
813.39	28923.12
813.719	28842
814.049	28934.42
814.378	28788.21
814.707	28630.7
815.036	28629.12
815.365	28455.57
815.693	28306.19
816.022	28268.68
816.351	28160.21
816.68	28029.81
817.008	28264.84
817.337	27989.59
817.665	27907.78
817.994	27894.45
818.322	27953.66
818.651	27838.86
818.979	27737.84
819.307	27754.11
819.636	27665.53
819.964	27488.81
820.292	27701.01
820.62	27455.14
820.948	27556.38
821.276	27655.36
821.604	27450.17
821.932	27705.53
822.259	27575.81
822.587	27517.28
822.915	27442.71
823.243	27540.56
823.57	27341.24
823.898	27464.63
824.225	27472.77
824.553	27446.55
824.88	27469.38
825.207	27481.35
825.535	27290.17
825.862	27365.65
826.189	27330.85
826.516	27544.18
826.843	27445.2
827.17	27628.92
827.497	27484.52
827.824	27537.4
828.151	27444.29
828.478	27438.64
828.805	27611.75
829.131	27464.4
829.458	27517.28
829.785	27218.31
830.111	27305.99
830.438	27564.29
830.764	27409.94
831.09	27398.64
831.417	27354.58
831.743	27559.32
832.069	27328.59
832.395	27316.16
832.722	27328.82
833.048	27271.19
833.374	27347.8
833.7	27232.09
834.026	27352.77
834.351	27262.6
834.677	27376.27
835.003	27183.28
835.329	27272.55
835.654	27198.42
835.98	27047.01
836.306	27155.03
836.631	26992.55
836.956	27221.02
837.282	27136.5
837.607	27043.17
837.932	26864.19
838.258	27100.57
838.583	26894.48
838.908	26860.81
839.233	26822.16
839.558	26692
839.883	26672.56
840.208	26639.57
840.533	26560.02
840.858	26555.5
841.182	26698.55
841.507	26589.63
841.832	26517.09
842.156	26487.71
842.481	26315.96
842.805	26395.73
843.13	26163.87
843.454	26131.11
843.778	26206.36
844.103	26069.64
844.427	25934.05
844.751	25916.42
845.075	25862.41
845.399	25863.32
845.723	25752.81
846.047	25899.93
846.371	25653.83
846.695	25497
847.019	25370.22
847.343	25118.7
847.666	25126.84
847.99	25134.07
848.313	24919.16
848.637	25001.42
848.96	24873.74
849.284	24880.29
849.607	24612.28
849.931	24573.86
850.254	24249.35
850.577	24376.58
850.9	24029.47
851.223	24107.88
851.546	24002.35
851.869	23833.54
852.192	24008.9
852.515	23786.08
852.838	23714
853.161	23596.03
853.483	23453.44
853.806	23425.19
854.129	23345.19
854.451	23263.84
854.774	23149.94
855.096	23057.06
855.419	23037.63
855.741	22949.95
856.063	22891.87
856.385	22791.53
856.708	22709.28
857.03	22642.16
857.352	22581.37
857.674	22606
857.996	22547.7
858.318	22353.13
858.64	22324.2
858.961	22225.45
859.283	22110.87
859.605	22065
859.926	22172.57
860.248	21975.06
860.57	21966.24
860.891	21908.39
861.212	21873.14
861.534	21848.96
861.855	21684.67
862.176	21619.81
862.498	21701.62
862.819	21683.09
863.14	21573.71
863.461	21531.23
863.782	21467.95
864.103	21497.78
864.424	21418.46
864.745	21419.59
865.065	21367.84
865.386	21233.61
865.707	21228.86
866.027	21162.2
866.348	21190.67
866.668	21132.14
866.989	21162.2
867.309	20957.68
867.63	20983.9
867.95	20968.53
868.27	20852.38
868.59	21101.41
868.91	20944.35
869.23	20834.3
869.55	20706.62
869.87	20804.02
870.19	20792.49
870.51	20815.54
870.83	20629.33
871.15	20568.77
871.469	20406.74
871.789	20628.88
872.109	20555.43
872.428	20458.94
872.748	20466.17
873.067	20450.35
873.386	20460.75
873.706	20427.75
874.025	20357.7
874.344	20200.19
874.663	20311.15
874.982	20205.16
875.301	20179.17
875.62	20126.29
875.939	20060.08
876.258	20151.6
876.577	19976.47
876.896	20004.04
877.214	19979.63
877.533	19939.18
877.852	19924.04
878.17	19920.65
878.489	19837.26
878.807	19843.36
879.125	19750.48
879.444	19722.46
879.762	19737.15
880.08	19810.59
880.398	19648.57
880.716	19741.67
881.034	19541
881.352	19635.23
881.67	19465.07
881.988	19483.82
882.306	19380.78
882.624	19287.9
882.941	19271.17
883.259	19216.03
883.577	19250.61
883.894	19225.07
884.212	19203.15
884.529	19124.06
884.846	19056.49
885.164	19017.4
885.481	18914.8
885.798	18917.06
886.115	18888.59
886.432	18930.39
886.75	18808.81
887.067	18884.74
887.383	18699.66
887.7	18746.89
888.017	18597.52
888.334	18619.21
888.651	18514.13
888.967	18482.27
889.284	18444.08
889.6	18329.73
889.917	18308.71
890.233	18282.5
890.55	18146.01
890.866	18129.51
891.182	18077.76
891.498	17977.65
891.815	17998.89
892.131	17932
892.447	17912.57
892.763	17844.09
893.079	17786.92
893.395	17802.06
893.71	17746.02
894.026	17706.7
894.342	17608.62
894.657	17487.27
894.973	17503.31
895.289	17466.48
895.604	17383.31
895.92	17335.86
896.235	17295.86
896.55	17302.86
896.865	17175.86
897.181	17161.17
897.496	17142.64
897.811	17040.5
898.126	16882.08
898.441	16858.36
898.756	16819.71
899.071	16783.78
899.386	16738.81
899.7	16637.35
900.015	16605.48
900.33	16394.19
900.644	16354.64
900.959	16416.33
901.273	16261.54
901.588	16233.29
901.902	16253.85
902.216	16173.63
902.531	16067.19
902.845	15914.2
903.159	15927.31
903.473	15871.94
903.787	15749.46
904.101	15697.03
904.415	15802.11
904.729	15625.39
905.042	15611.84
905.356	15576.81
905.67	15579.75
905.984	15567.99
906.297	15453.2
906.611	15256.59
906.924	15227.66
907.237	15333.42
907.551	15222.69
907.864	15078.97
908.177	15112.41
908.491	15026.99
908.804	14871.97
909.117	14848.47
909.43	14732.76
909.743	14707
910.056	14687.79
910.368	14704.97
910.681	14619.77
910.994	14547.46
911.307	14472.43
911.619	14341.36
911.932	14417.74
912.244	14176.84
912.557	14179.33
912.869	14079.9
913.181	14157.41
913.494	14173
913.806	14016.17
914.118	13924.87
914.43	13815.5
914.742	13793.35
915.054	13778.44
915.366	13700.7
915.678	13658.21
915.99	13580.93
916.302	13486.02
916.613	13421.38
916.925	13389.52
917.236	13360.6
917.548	13317.88
917.859	13352.91
918.171	13168.06
918.482	13132.13
918.794	13071.11
919.105	13019.14
919.416	12872.92
919.727	12937.56
920.038	12877.22
920.349	12801.29
920.66	12724
920.971	12720.61
921.282	12642.2
921.593	12617.34
921.903	12555.87
922.214	12531.92
922.525	12426.61
922.835	12422.09
923.146	12317.23
923.456	12312.71
923.767	12202.21
924.077	12173.28
924.387	12161.3
924.697	12018.48
925.008	12035.66
925.318	11896.45
925.628	11879.96
925.938	11945.04
926.248	11774.65
926.558	11734.88
926.867	11665.05
927.177	11661.66
927.487	11561.32
927.796	11486.29
928.106	11473.86
928.416	11406.97
928.725	11368.33
929.034	11299.86
929.344	11291.72
929.653	11326.52
929.962	11250.14
930.271	11082.01
930.581	11044.72
930.89	10977.38
931.199	10924.27
931.508	10975.12
931.817	10950.26
932.125	10912.52
932.434	10798.85
932.743	10703.94
933.051	10662.81
933.36	10695.58
933.669	10589.59
933.977	10519.31
934.286	10552.31
934.594	10548.47
934.902	10468.92
935.21	10413.33
935.519	10278.42
935.827	10315.93
936.135	10201.58
936.443	10104.18
936.751	10123.39
937.059	10157.29
937.367	9994.36
937.674	10075.71
937.982	9985.99
938.29	9980.12
938.597	9963.4
938.905	9802.95
939.213	9748.71
939.52	9760.46
939.827	9745.77
940.135	9691.09
940.442	9674.14
940.749	9585.78
941.056	9632.56
941.363	9477.99
941.67	9452
941.977	9451.55
942.284	9339.91
942.591	9319.12
942.898	9378.78
943.205	9315.96
943.511	9258.33
943.818	9223.08
944.125	9159.8
944.431	9066.92
944.738	9088.84
945.044	9052.46
945.35	8978.34
945.657	8949.19
945.963	8904.89
946.269	8868.74
946.575	8845.46
946.881	8748.74
947.187	8731.34
947.493	8704.67
947.799	8699.93
948.105	8608.86
948.41	8526.15
948.716	8478.01
949.022	8505.13
949.327	8552.81
949.633	8401.4
949.938	8442.98
950.244	8391.69
950.549	8304.91
950.854	8249.77
951.16	8311.24
951.465	8200.73
951.77	8148.08
952.075	8154.18
952.38	8124.8
952.685	8074.41
952.99	7983.11
953.294	8017.01
953.599	7881.42
953.904	7932.72
954.209	7890.46
954.513	7855.88
954.818	7811.59
955.122	7784.02
955.426	7740.63
955.731	7795.09
956.035	7653.85
956.339	7715.09
956.643	7600.29
956.948	7529.79
957.252	7493.63
957.556	7523.46
957.86	7487.08
958.163	7428.1
958.467	7417.47
958.771	7353.97
959.075	7330.25
959.378	7299.06
959.682	7256.35
959.985	7245.5
960.289	7169.8
960.592	7161.89
960.896	7094.32
961.199	7088.22
961.502	7075.34
961.805	7042.12
962.108	6960.99
962.411	6985.62
962.714	6935.68
963.017	6912.85
963.32	6899.07
963.623	6892.97
963.926	6795.57
964.228	6767.1
964.531	6739.3
964.833	6748.11
965.136	6621.79
965.438	6641.68
965.741	6552.64
966.043	6601.68
966.345	6521.68
966.648	6552.19
966.95	6469.7
967.252	6458.4
967.554	6482.58
967.856	6454.56
968.158	6398.97
968.46	6409.82
968.761	6332.98
969.063	6330.27
969.365	6280.1
969.666	6254.79
969.968	6163.95
970.269	6161.69
970.571	6080.79
970.872	6107.23
971.174	6104.51
971.475	6107.23
971.776	6031.97
972.077	5999.66
972.378	6037.4
972.679	5977.74
972.98	5966.44
973.281	5921.02
973.582	5853.22
973.883	5837.85
974.183	5810.29
974.484	5799.21
974.785	5758.08
975.085	5762.83
975.386	5785.88
975.686	5728.03
975.986	5636.28
976.287	5715.37
976.587	5595.15
976.887	5641.7
977.187	5590.18
977.487	5547.47
977.787	5539.78
978.087	5477.41
978.387	5467.47
978.687	5484.87
978.987	5363.07
979.286	5412.1
979.586	5397.41
979.885	5332.33
980.185	5307.02
980.484	5290.3
980.784	5276.06
981.083	5214.82
981.382	5224.31
981.682	5206.91
981.981	5180.92
982.28	5154.71
982.579	5115.61
982.878	5079.91
983.177	5115.61
983.475	5052.34
983.774	5054.15
984.073	5022.28
984.372	4985.67
984.67	4976.18
984.969	4952.45
985.267	4903.42
985.566	4881.04
985.864	4851.89
986.162	4840.59
986.461	4796.07
986.759	4791.33
987.057	4745
987.355	4728.96
987.653	4745.91
987.951	4722.86
988.249	4669.52
988.547	4676.76
988.844	4646.93
989.142	4600.37
989.44	4635.4
989.737	4572.58
990.035	4555.18
990.332	4503.2
990.63	4514.27
990.927	4506.59
991.224	4493.48
991.521	4444.67
991.819	4428.17
992.116	4442.41
992.413	4394.05
992.71	4339.59
993.006	4340.04
993.303	4336.43
993.6	4307.73
993.897	4269.31
994.193	4279.7
994.49	4247.39
994.787	4200.16
995.083	4208.07
995.379	4181.85
995.676	4159.26
995.972	4110.22
996.268	4104.79
996.565	4095.08
996.861	4039.71
997.157	4010.11
997.453	3990.9
997.749	3968.3
998.044	3996.55
998.34	3981.41
998.636	3926.49
998.932	3905.7
999.227	3888.08
999.523	3904.12
999.818	3840.39
1000.114	3837.23
1000.409	3840.39
1000.704	3750
1001	3779.83
1001.295	3753.39
1001.59	3717.91
1001.885	3695.09
1002.18	3638.82
1002.475	3664.58
1002.77	3641.98
1003.065	3561.76
1003.359	3569.89
1003.654	3574.64
1003.949	3572.83
1004.243	3547.75
1004.538	3470.01
1004.832	3501.65
1005.127	3476.11
1005.421	3490.35
1005.715	3423.68
1006.009	3452.15
1006.304	3411.48
1006.598	3362.21
1006.892	3357.47
1007.186	3300.07
1007.48	3290.13
1007.773	3296.68
1008.067	3261.65
1008.361	3224.36
1008.655	3214.87
1008.948	3201.54
1009.242	3199.51
1009.535	3154.31
1009.829	3138.04
1010.122	3111.15
1010.415	3125.38
1010.708	3122.45
1011.001	3070.7
1011.295	3063.46
1011.588	3009.23
1011.881	3031.15
1012.173	3016.91
1012.466	2976.01
1012.759	2953.64
1013.052	2964.71
1013.344	2927.42
1013.637	2904.37
1013.93	2885.39
1014.222	2855.56
1014.514	2844.49
1014.807	2854.2
1015.099	2791.61
1015.391	2772.17
1015.683	2755.45
1015.976	2731.95
1016.268	2740.31
1016.56	2707.32
1016.851	2707.54
1017.143	2666.64
1017.435	2677.03
1017.727	2619.86
1018.018	2618.73
1018.31	2619.63
1018.602	2589.58
1018.893	2572.18
1019.185	2505.29
1019.476	2555.46
1019.767	2515.23
1020.058	2506.87
1020.35	2493.99
1020.641	2438.62
1020.932	2461.45
1021.223	2422.35
1021.514	2400.88
1021.804	2401.11
1022.095	2398.17
1022.386	2375.8
1022.677	2343.03
1022.967	2329.02
1023.258	2290.38
1023.548	2293.09
1023.839	2289.47
1024.129	2251.51
1024.419	2248.34
1024.709	2214.9
1025	2218.06
1025.29	2235.69
1025.58	2192.3
1025.87	2197.05
1026.16	2122.25
1026.449	2111.63
1026.739	2123.6
1027.029	2106.65
1027.319	2112.98
1027.608	2059.65
1027.898	2106.65
1028.187	2075.92
1028.477	2066.88
1028.766	2012.64
1029.055	1997.73
1029.344	1945.08
1029.634	1998.86
1029.923	1965.19
1030.212	1944.4
1030.501	1974
1030.79	1903.5
1031.078	1899.88
1031.367	1871.41
1031.656	1869.6
1031.945	1848.81
1032.233	1847.68
1032.522	1837.51
1032.81	1830.5
1033.099	1798.41
1033.387	1798.41
1033.675	1818.07
1033.963	1798.41
1034.251	1743.5
1034.54	1734.91
1034.828	1737.17
1035.116	1711.41
1035.403	1696.49
1035.691	1680.45
1035.979	1680.9
1036.267	1647.23
1036.554	1654.24
1036.842	1655.82
1037.129	1657.85
1037.417	1617.17
1037.704	1628.7
1037.992	1590.74
1038.279	1583.05
1038.566	1583.28
1038.853	1583.28
1039.14	1583.28
