Data from 166_FLMS001491_005.txt Node
Date: Thu Apr 19 16:18:23 BST 2018
User: hsy
Spectrometer: FLMS00149
Trigger mode: 0
Integration Time (sec): 1.000000E-2
Scans to average: 10
Electric dark correction enabled: true
Nonlinearity correction enabled: false
Boxcar width: 0
XAxis mode: Wavelengths
Number of Pixels in Spectrum: 2048
>>>>>Begin Spectral Data<<<<<
341.393	-3.25
341.776	-3.25
342.16	-3.25
342.543	-64.72
342.927	-73.76
343.31	-95.9
343.693	-69.01
344.077	-60.42
344.46	-40.99
344.843	-69.24
345.226	-44.38
345.61	-31.04
345.993	-2.12
346.376	-0.31
346.759	7.6
347.142	27.03
347.525	36.3
347.908	50.31
348.291	93.02
348.674	91.44
349.057	107.71
349.44	119.01
349.823	137.54
350.206	173.02
350.588	222.73
350.971	249.17
351.354	260.47
351.737	268.83
352.119	291.43
352.502	304.99
352.884	314.94
353.267	315.84
353.65	326.23
354.032	344.54
354.414	341.15
354.797	367.82
355.179	358.32
355.562	366.01
355.944	364.43
356.326	388.15
356.709	386.12
357.091	396.97
357.473	387.02
357.855	370.98
358.238	394.26
358.62	389.06
359.002	384.54
359.384	395.61
359.766	385.44
360.148	403.75
360.53	387.7
360.912	378.66
361.294	388.38
361.676	385.67
362.057	376.18
362.439	380.92
362.821	378.89
363.203	335.05
363.584	408.49
363.966	390.19
364.348	364.65
364.729	378.44
365.111	385.89
365.493	366.23
365.874	363.75
366.256	369.17
366.637	373.01
367.019	384.09
367.4	360.36
367.781	366.69
368.163	370.75
368.544	361.94
368.925	356.52
369.306	365.33
369.688	379.79
370.069	366.91
370.45	365.1
370.831	366.46
371.212	354.48
371.593	392.45
371.974	366.23
372.355	386.12
372.736	406.68
373.117	393.58
373.498	361.49
373.879	384.99
374.26	391.32
374.641	376.18
375.021	373.92
375.402	391.09
375.783	367.36
376.163	429.06
376.544	415.27
376.925	394.93
377.305	403.97
377.686	401.94
378.066	404.42
378.447	404.65
378.827	402.62
379.208	401.71
379.588	404.88
379.968	401.26
380.349	441.49
380.729	406.91
381.109	431.54
381.489	450.98
381.87	434.71
382.25	414.14
382.63	430.41
383.01	429.28
383.39	420.7
383.77	420.24
384.15	447.36
384.53	457.53
384.91	435.16
385.29	441.71
385.67	441.94
386.049	463.18
386.429	444.42
386.809	458.21
387.189	439.23
387.568	473.35
387.948	455.5
388.328	489.62
388.707	466.12
389.087	483.97
389.466	477.87
389.846	489.17
390.225	495.72
390.605	502.95
390.984	509.73
391.363	502.27
391.743	488.94
392.122	493.46
392.501	516.74
392.881	510.64
393.26	522.16
393.639	521.48
394.018	511.99
394.397	535.72
394.776	512.22
395.155	518.09
395.534	533.46
395.913	532.56
396.292	538.43
396.671	547.25
397.05	514.03
397.429	560.58
397.808	574.14
398.186	551.99
398.565	547.02
398.944	538.66
399.323	563.06
399.701	548.6
400.08	573.23
400.458	566.91
400.837	559.22
401.215	603.97
401.594	582.95
401.972	590.18
402.351	586.34
402.729	586.34
403.107	615.49
403.486	618.66
403.864	597.19
404.242	593.12
404.62	596.28
404.999	613.68
405.377	625.66
405.755	631.54
406.133	635.83
406.511	657.75
406.889	665.43
407.267	637.19
407.645	664.76
408.023	660.24
408.401	670.18
408.779	661.14
409.156	671.99
409.534	704.3
409.912	705.89
410.29	695.94
410.667	709.28
411.045	704.08
411.422	715.6
411.8	723.96
412.178	727.35
412.555	754.7
412.933	766.9
413.31	759.22
413.687	751.31
414.065	764.87
414.442	778.88
414.819	774.81
415.197	774.36
415.574	802.83
415.951	810.29
416.328	802.15
416.705	804.19
417.082	815.94
417.46	814.58
417.837	828.82
418.214	861.14
418.591	830.85
418.967	853
419.344	859.33
419.721	871.76
420.098	876.28
420.475	878.08
420.852	891.19
421.228	861.59
421.605	915.6
421.982	880.8
422.358	915.6
422.735	894.36
423.111	906.78
423.488	956.95
423.864	923.96
424.241	943.62
424.617	953.11
424.994	967.8
425.37	958.08
425.746	946.33
426.123	959.44
426.499	985.88
426.875	988.59
427.251	1005.99
427.627	1018.42
428.003	1040.79
428.379	1073.79
428.756	1030.4
429.132	1042.83
429.507	1053.9
429.883	1069.94
430.259	1107.91
430.635	1112.2
431.011	1104.29
431.387	1116.27
431.763	1139.32
432.138	1148.36
432.514	1156.95
432.89	1195.36
433.265	1180.68
433.641	1193.78
434.016	1235.81
434.392	1241.01
434.767	1255.93
435.143	1240.56
435.518	1250.28
435.894	1255.25
436.269	1280.79
436.644	1290.95
437.02	1290.28
437.395	1308.81
437.77	1319.43
438.145	1340.9
438.52	1328.92
438.895	1386.77
439.271	1361.91
439.646	1382.93
440.021	1395.81
440.395	1408.69
440.77	1399.88
441.145	1426.54
441.52	1433.55
441.895	1432.19
442.27	1434
442.645	1437.62
443.019	1450.27
443.394	1461.12
443.769	1454.79
444.143	1470.16
444.518	1486.66
444.892	1480.78
445.267	1498.63
445.641	1496.6
446.016	1504.28
446.39	1518.29
446.764	1564.17
447.139	1532.3
447.513	1539.31
447.887	1556.48
448.262	1573.43
448.636	1589.48
449.01	1598.07
449.384	1597.39
449.758	1604.17
450.132	1643.71
450.506	1634.22
450.88	1666.54
451.254	1668.35
451.628	1681
452.002	1702.7
452.376	1680.55
452.75	1753.54
453.123	1709.25
453.497	1782.24
453.871	1757.84
454.244	1800.77
454.618	1823.6
454.992	1878.28
455.365	1866.31
455.739	1926.64
456.112	1924.16
456.486	1913.76
456.859	1968
457.232	1985.17
457.606	1949.92
457.979	2017.49
458.352	2046.64
458.725	2052.74
459.099	2107.2
459.472	2107.88
459.845	2151.27
460.218	2156.47
460.591	2170.93
460.964	2195.56
461.337	2207.77
461.71	2255.9
462.083	2300.87
462.456	2271.49
462.829	2309.01
463.201	2318.5
463.574	2365.73
463.947	2381.1
464.32	2396.69
464.692	2417.25
465.065	2439.17
465.438	2500.87
465.81	2499.96
466.183	2511.04
466.555	2550.58
466.928	2590.13
467.3	2574.76
467.672	2601.43
468.045	2648.66
468.417	2699.73
468.789	2689.56
469.161	2736.34
469.534	2760.97
469.906	2787.86
470.278	2849.78
470.65	2880.52
471.022	2934.98
471.394	2944.24
471.766	2989.22
472.138	3045.71
472.51	3084.35
472.882	3100.62
473.253	3140.17
473.625	3187.63
473.997	3251.58
474.369	3294.52
474.74	3361.86
475.112	3385.59
475.484	3401.63
475.855	3483.67
476.227	3551.01
476.598	3594.85
476.97	3609.09
477.341	3691.8
477.713	3770.66
478.084	3769.76
478.455	3862.19
478.827	3907.61
479.198	4039.58
479.569	4031.22
479.94	4126.81
480.311	4218.79
480.682	4293.36
481.053	4365
481.424	4419.46
481.795	4482.96
482.166	4583.07
482.537	4606.8
482.908	4724.31
483.279	4772.67
483.65	4887.24
484.021	4970.63
484.391	5007.47
484.762	5081.36
485.133	5112.55
485.503	5219.21
485.874	5298.53
486.244	5352.54
486.615	5521.35
486.985	5586.89
487.356	5608.58
487.726	5736.49
488.097	5878.4
488.467	5917.95
488.837	6067.33
489.207	6075.91
489.578	6237.27
489.948	6356.36
490.318	6413.76
490.688	6479.29
491.058	6616.46
491.428	6738.27
491.798	6731.94
492.168	6947.76
492.538	6964.7
492.908	7068.2
493.278	7162.44
493.648	7284.24
494.017	7373.28
494.387	7446.27
494.757	7540.96
495.126	7619.83
495.496	7684.23
495.866	7735.53
496.235	7852.59
496.605	7982.53
496.974	8029.76
497.344	8185.24
497.713	8160.15
498.082	8295.29
498.452	8408.73
498.821	8452.12
499.19	8542.97
499.559	8608.73
499.928	8766.01
500.298	8726.24
500.667	8903.41
501.036	8868.61
501.405	8973.01
501.774	9138.88
502.143	9115.38
502.512	9219.79
502.88	9363.06
503.249	9347.47
503.618	9436.5
503.987	9523.28
504.356	9632.43
504.724	9686.67
505.093	9709.72
505.462	9825.87
505.83	9748.59
506.199	10004.62
506.567	10096.37
506.936	10080.78
507.304	10240.78
507.672	10284.84
508.041	10323.26
508.409	10353.99
508.777	10526.42
509.145	10619.52
509.514	10682.35
509.882	10760.99
510.25	10794.43
510.618	10969.8
510.986	10892.06
511.354	11041.43
511.722	11139.96
512.09	11245.72
512.458	11267.87
512.826	11404.36
513.193	11407.98
513.561	11476.45
513.929	11535.66
514.297	11651.59
514.664	11718.93
515.032	11758.02
515.4	11912.82
515.767	11949.21
516.135	12047.51
516.502	12048.41
516.869	12240.05
517.237	12273.94
517.604	12284.79
517.972	12477.1
518.339	12543.09
518.706	12630.32
519.073	12629.41
519.44	12747.6
519.808	12915.28
520.175	12942.85
520.542	13117.99
520.909	13152.34
521.276	13210.64
521.643	13374.03
522.009	13496.96
522.376	13574.93
522.743	13594.59
523.11	13803.62
523.477	13977.17
523.843	14075.48
524.21	14236.83
524.577	14239.77
524.943	14426.2
525.31	14431.4
525.676	14639.76
526.043	14728.57
526.409	14863.25
526.776	15025.96
527.142	15066.41
527.508	15111.38
527.874	15359.96
528.241	15315.67
528.607	15391.15
528.973	15657.36
529.339	15696.23
529.705	15771.7
530.071	15997.23
530.437	16112.71
530.803	16146.16
531.169	16315.87
531.535	16338.69
531.901	16421.86
532.267	16444.68
532.632	16647.84
532.998	16721.51
533.364	16905.23
533.73	16917.66
534.095	17037.43
534.461	17131.67
534.826	17272.68
535.192	17249.63
535.557	17406.24
535.923	17423.86
536.288	17536.18
536.653	17624.08
537.019	17720.35
537.384	17788.15
537.749	17772.78
538.114	17855.49
538.479	17909.95
538.845	18013.9
539.21	18017.29
539.575	18076.05
539.94	18244.63
540.305	18342.71
540.67	18382.03
541.034	18437.17
541.399	18436.72
541.764	18617.05
542.129	18626.54
542.494	18776.14
542.858	18706.77
543.223	18754.68
543.587	18944.5
543.952	18911.51
544.316	19037.38
544.681	18951.06
545.045	19116.93
545.41	19263.14
545.774	19244.83
546.138	19246.19
546.503	19346.75
546.867	19443.92
547.231	19494.77
547.595	19566.41
547.959	19631.49
548.324	19743.35
548.688	19737.93
549.052	19758.72
549.416	19774.54
549.779	19800.75
550.143	19842.33
550.507	20027.64
550.871	20114.64
551.235	20118.26
551.599	20312.15
551.962	20278.48
552.326	20349.21
552.689	20492.48
553.053	20258.37
553.417	20443.22
553.78	20754.4
554.143	20766.15
554.507	20765.7
554.87	20914.17
555.234	21029.64
555.597	20984.45
555.96	21066.71
556.323	21227.15
556.686	21178.57
557.05	21401.39
557.413	21389.86
557.776	21509.18
558.139	21699.01
558.502	21746.01
558.865	21675.28
559.228	22028.71
559.59	21923.41
559.953	22060.8
560.316	22400.91
560.679	22249.05
561.041	22375.37
561.404	22482.71
561.767	22711.18
562.129	22679.09
562.492	23029.82
562.854	22938.07
563.217	23117.27
563.579	23177.84
563.941	23244.5
564.304	23413.31
564.666	23596.58
565.028	23636.81
565.39	23745.96
565.753	23875.9
566.115	23979.4
566.477	24077.25
566.839	24123.12
567.201	24434.53
567.563	24460.29
567.925	24633.62
568.287	24658.25
568.648	24783.9
569.01	24933.72
569.372	25184.56
569.734	25182.53
570.095	25441.28
570.457	25623.65
570.819	25535.29
571.18	25705
571.542	25993.81
571.903	26078.1
572.265	26138.66
572.626	26358.54
572.987	26400.8
573.349	26621.36
573.71	26717.18
574.071	26926.89
574.432	27095.47
574.794	27279.42
575.155	27244.17
575.516	27384.96
575.877	27575.69
576.238	27593.09
576.599	27800.09
576.96	27989.01
577.32	28063.81
577.681	28221.32
578.042	28478.49
578.403	28391.94
578.763	28479.17
579.124	28675.77
579.485	28907.86
579.845	29151.92
580.206	29158.92
580.566	29292.93
580.927	29337.67
581.287	29646.82
581.648	29776.76
582.008	30148.5
582.368	30322.96
582.728	30416.52
583.089	30573.8
583.449	30790.07
583.809	30983.96
584.169	31225.99
584.529	31217.17
584.889	31801.56
585.249	31844.05
585.609	31951.84
585.969	32450.36
586.329	32639.73
586.688	32907.98
587.048	33108.2
587.408	33440.39
587.768	33693.04
588.127	34128.51
588.487	34222.07
588.846	35003.51
589.206	34918.77
589.565	35324.18
589.925	35792.19
590.284	36224.27
590.643	36525.06
591.003	36941.54
591.362	37519.83
591.721	37749.88
592.08	38144.22
592.44	38812.68
592.799	39060.81
593.158	39556.84
593.517	39984.85
593.876	40554.78
594.235	40703.48
594.593	41247.64
594.952	41700.06
595.311	42019.15
595.67	42573.03
596.029	43200.59
596.387	43562.16
596.746	44073.33
597.104	44432.19
597.463	44863.37
597.822	45433.07
598.18	45789.45
598.538	46211.81
598.897	46818.8
599.255	46904.9
599.613	47823.97
599.972	47873.68
600.33	48358.42
600.688	48753.89
601.046	49095.12
601.404	49629.34
601.762	49863.01
602.12	50367.18
602.478	50710.22
602.836	50881.52
603.194	51005.81
603.552	51415.51
603.91	51679.69
604.268	52057.98
604.625	52353.34
604.983	52758.98
605.341	52715.14
605.698	53274.45
606.056	53625.4
606.413	53708.33
606.771	54052.96
607.128	54274.87
607.485	54397.81
607.843	54657.24
608.2	54955.53
608.557	55247.73
608.914	55311
609.272	55757.32
609.629	55905.11
609.986	56097.42
610.343	56284.99
610.7	56651.98
611.057	56732.21
611.414	56794.81
611.771	57123.16
612.127	57261.01
612.484	57476.6
612.841	57623.48
613.198	57715.23
613.554	57806.08
613.911	58079.52
614.267	58250.59
614.624	58340.53
614.98	58499.85
615.337	58767.18
615.693	58880.4
616.05	59001.98
616.406	59126.5
616.762	59135.08
617.118	59366.72
617.475	59349.77
617.831	59541.63
618.187	59640.38
618.543	59785.91
618.899	59990.65
619.255	60014.38
619.611	60061.61
619.967	60274.71
620.323	60435.84
620.678	60380.02
621.034	60367.82
621.39	60460.02
621.746	60535.05
622.101	60802.84
622.457	60688.94
622.812	60883.06
623.168	60886.22
623.523	60984.98
623.879	61093.68
624.234	61010.97
624.589	61138.19
624.945	61244.63
625.3	61184.97
625.655	61310.85
626.01	61389.04
626.365	61445.31
626.72	61377.28
627.075	61456.38
627.43	61538.86
627.785	61500.22
628.14	61543.61
628.495	61598.3
628.85	61635.58
629.205	61553.1
629.559	61703.83
629.914	61659.76
630.269	61746.09
630.623	61679.42
630.978	61641.23
631.332	61791.06
631.687	61809.59
632.041	61736.82
632.396	61744.51
632.75	61717.39
633.104	61846.2
633.459	61683.04
633.813	61742.92
634.167	61731.4
634.521	61765.75
634.875	61769.36
635.229	61753.55
635.583	61602.14
635.937	61659.08
636.291	61646.2
636.645	61651.63
636.999	61540.22
637.352	61627.67
637.706	61524.63
638.06	61615.24
638.413	61568.24
638.767	61584.51
639.121	61605.53
639.474	61459.32
639.828	61509.71
640.181	61490.05
640.534	61557.39
640.888	61469.26
641.241	61318.75
641.594	61380.45
641.947	61423.16
642.301	61333.22
642.654	61342.48
643.007	61343.61
643.36	61369.83
643.713	61308.36
644.066	61398.98
644.419	61231.75
644.771	61015.49
645.124	60838.77
645.477	60796.28
645.83	60699.11
646.182	60604.42
646.535	60585.89
646.888	60696.17
647.24	60650.3
647.593	60723.29
647.945	60638.32
648.298	60567.59
648.65	60481.94
649.002	60345.67
649.355	60341.83
649.707	60234.04
650.059	60303.19
650.411	60635.38
650.763	60687.81
651.115	61060.23
651.467	60939.33
651.819	60903.17
652.171	60865.66
652.523	60812.55
652.875	60787.92
653.227	60719.67
653.578	60949.5
653.93	60792.89
654.282	60643.29
654.633	60636.96
654.985	60675.38
655.337	60731.65
655.688	60620.92
656.039	60768.71
656.391	60518.78
656.742	60609.85
657.094	60536.18
657.445	60562.84
657.796	60565.33
658.147	60511.32
658.498	60548.61
658.849	60605.55
659.2	60543.86
659.551	60443.98
659.902	60639.68
660.253	60396.07
660.604	60508.38
660.955	60356.52
661.306	60550.87
661.656	60419.34
662.007	60402.62
662.358	60405.11
662.708	60396.75
663.059	60337.76
663.409	60238.78
663.76	60349.51
664.11	60389.06
664.461	60390.64
664.811	60330.53
665.161	60314.26
665.511	60284.43
665.862	60297.76
666.212	60386.12
666.562	60342.96
666.912	60279.23
667.262	60239.24
667.612	60213.02
667.962	60243.08
668.312	60178.22
668.662	60312.91
669.011	60326.46
669.361	60183.42
669.711	60260.25
670.06	60169.63
670.41	60180.71
670.76	60116.3
671.109	60190.2
671.459	60174.6
671.808	60166.47
672.157	60182.97
672.507	60027.94
672.856	60114.04
673.205	60130.09
673.554	60145.23
673.904	60102.97
674.253	60227.94
674.602	60121.95
674.951	59752.69
675.3	59675.63
675.649	60120.59
675.998	60153.59
676.346	60095.28
676.695	60119.46
677.044	59965.34
677.393	59978.9
677.741	60104.32
678.09	60012.57
678.438	59981.61
678.787	60010.99
679.135	60009.64
679.484	59822.3
679.832	59935.74
680.181	59880.37
680.529	59914.05
680.877	59856.65
681.225	59865.91
681.573	60034.49
681.922	59818.91
682.27	59769.64
682.618	59778.46
682.966	59665.47
683.314	59737.78
683.661	59700.72
684.009	59703.66
684.357	59641.74
684.705	59549.08
685.053	59586.15
685.4	59468.18
685.748	59503.89
686.095	59435.41
686.443	59343.44
686.79	59402.2
687.138	59434.28
687.485	59389.99
687.832	59221.63
688.18	59254.18
688.527	59234.74
688.874	59136.21
689.221	59111.13
689.568	59032.94
689.915	59025.03
690.262	59060.06
690.609	58950.23
690.956	58887.41
691.303	58870.91
691.65	58771.25
691.997	58708.88
692.344	58749.56
692.69	58632.27
693.037	58691.48
693.383	58413.97
693.73	58536.68
694.077	58368.32
694.423	58411.71
694.769	58325.61
695.116	58342.56
695.462	58196.35
695.808	58118.61
696.155	58147.54
696.501	57956.13
696.847	58032.74
697.193	57814.44
697.539	57896.47
697.885	57747.32
698.231	57735.12
698.577	57713.65
698.923	57636.37
699.269	57520.44
699.614	57440.89
699.96	57344.4
700.306	57363.83
700.651	57305.53
700.997	57211.97
701.342	57104.4
701.688	57101.01
702.033	57064.86
702.379	56909.38
702.724	56919.32
703.069	56976.95
703.415	56649.05
703.76	56611.76
704.105	56593.23
704.45	56532.44
704.795	56542.38
705.14	56379.68
705.485	56427.36
705.83	56260.58
706.175	56340.13
706.52	56257.87
706.865	56169.06
707.209	56111.43
707.554	56000.02
707.899	56026.92
708.243	55865.56
708.588	55783.53
708.932	55716.64
709.277	55764.32
709.621	55681.16
709.966	55485.91
710.31	55520.49
710.654	55374.28
710.998	55411.11
711.342	55365.69
711.687	55330.66
712.031	55176.09
712.375	55118.01
712.719	55127.05
713.063	54998.24
713.407	55182.65
713.75	54934.06
714.094	54910.34
714.438	54837.34
714.782	54803.67
715.125	54643
715.469	54878.92
715.812	54574.98
716.156	54411.82
716.499	54492.49
716.843	54498.6
717.186	54297.7
717.53	54590.12
717.873	54479.84
718.216	54318.71
718.559	54175.21
718.902	53988.1
719.246	54070.81
719.589	53966.63
719.932	53963.47
720.275	53962.34
720.617	53980.42
720.96	53780.87
721.303	53836.01
721.646	53841.66
721.989	53520.99
722.331	53616.58
722.674	53542.46
723.016	53524.16
723.359	53388.57
723.701	53463.82
724.044	53354.22
724.386	53208.69
724.729	53437.61
725.071	53227.22
725.413	53349.47
725.755	53159.65
726.097	53106.54
726.439	53041.46
726.782	52857.73
727.124	53114.9
727.465	52960.78
727.807	52802.37
728.149	52827
728.491	52725.08
728.833	52795.82
729.175	52655.93
729.516	52591.75
729.858	52524.64
730.199	52670.39
730.541	52598.08
730.882	52490.29
731.224	52489.61
731.565	52337.75
731.906	52402.83
732.248	52347.24
732.589	52292.1
732.93	52149.5
733.271	52147.47
733.612	52149.73
733.953	52282.38
734.294	52067.47
734.635	51992.67
734.976	52083.07
735.317	52007.59
735.658	51960.36
735.999	51839
736.339	51773.92
736.68	51782.96
737.021	51717.65
737.361	51654.38
737.702	51910.64
738.042	51661.16
738.383	51670.2
738.723	51696.41
739.063	51462.74
739.404	51599.46
739.744	51470.88
740.084	51454.16
740.424	51448.51
740.764	51366.47
741.104	51421.61
741.444	51223.65
741.784	51149.53
742.124	51253.71
742.464	51233.6
742.804	51094.62
743.143	51051.23
743.483	51118.8
743.823	50952.47
744.162	50926.49
744.502	50966.26
744.841	50751.58
745.181	50900.72
745.52	50842.65
745.86	50825.47
746.199	50782.99
746.538	50685.36
746.877	50799.48
747.216	50647.4
747.556	50533.5
747.895	50622.09
748.234	50426.84
748.573	50250.57
748.911	50334.41
749.25	50327.41
749.589	50110.24
749.928	50282.66
750.267	50259.38
750.605	50109.11
750.944	50101.42
751.283	49956.12
751.621	50002.89
751.96	49812.84
752.298	49844.93
752.636	49724.94
752.975	49686.29
753.313	49616.69
753.651	49694.43
753.989	49490.82
754.327	49455.79
754.666	49173.99
755.004	49354.78
755.342	49229.81
755.679	49171.28
756.017	48970.15
756.355	49098.29
756.693	48877.5
757.031	48979.87
757.368	48766.54
757.706	48637.73
758.044	48540.11
758.381	48446.33
758.719	48369.94
759.056	48340.11
759.394	48254.01
759.731	48003.4
760.068	47940.58
760.405	47985.32
760.743	47680.24
761.08	47719.34
761.417	47617.65
761.754	47589.4
762.091	47484.77
762.428	47201.61
762.765	47152.8
763.102	47178.56
763.438	47012.69
763.775	46733.38
764.112	46821.06
764.449	46797.78
764.785	46704.45
765.122	46397.34
765.458	46308.08
765.795	46228.3
766.131	46176.33
766.467	45977.46
766.804	45573.41
767.14	45560.53
767.476	45636
767.812	45372.73
768.148	45408.66
768.485	45313.07
768.821	44948.79
769.157	44874.89
769.492	44735.24
769.828	44577.27
770.164	44413.44
770.5	44100.45
770.836	44177.96
771.171	44000.79
771.507	43805.54
771.842	43574.81
772.178	43595.38
772.513	43528.71
772.849	43347.48
773.184	43307.25
773.519	43073.81
773.855	42829.07
774.19	42705.91
774.525	42498.68
774.86	42528.06
775.195	42310.89
775.53	42267.96
775.865	41953.16
776.2	41775.77
776.535	41559.27
776.87	41523.34
777.205	41223.92
777.539	41117.7
777.874	41227.76
778.209	40844.94
778.543	40931.49
778.878	40642.01
779.212	40635.68
779.547	40103.49
779.881	40273.66
780.215	39864.4
780.55	40038.18
780.884	39588.48
781.218	39582.38
781.552	39733.56
781.886	39369.28
782.22	39214.03
782.554	39043.63
782.888	38749.63
783.222	38745.79
783.556	38437.1
783.889	38334.05
784.223	38166.37
784.557	38056.54
784.89	38127.05
785.224	37845.93
785.557	37715.99
785.891	37624.46
786.224	37548.53
786.558	37601.86
786.891	37171.59
787.224	37042.78
787.557	36977.02
787.891	36745.62
788.224	36766.63
788.557	36737.25
788.89	36559.63
789.223	36505.85
789.556	36203.48
789.888	36150.83
790.221	35916.03
790.554	35828.8
790.887	35718.98
791.219	35524.86
791.552	35540
791.884	35412.09
792.217	35227.24
792.549	35123.74
792.882	34916.51
793.214	34689.4
793.546	34768.49
793.879	34634.03
794.211	34389.29
794.543	34469.74
794.875	34393.14
795.207	34295.06
795.539	34155.18
795.871	34137.32
796.203	33918.12
796.535	33672.02
796.867	33623.21
797.198	33502.76
797.53	33428.41
797.862	33275.65
798.193	33213.51
798.525	33001.08
798.856	33065.94
799.188	32752.27
799.519	32723.57
799.85	32414.2
800.182	32580.75
800.513	32632.96
800.844	32148
801.175	32469.8
801.506	32204.04
801.837	32125.4
802.168	31975.8
802.499	32045.17
802.83	31819.87
803.161	31728.57
803.491	31607.9
803.822	31828.46
804.153	31388.92
804.483	31263.05
804.814	30983.73
805.145	31117.06
805.475	31136.5
805.805	31062.6
806.136	30933.57
806.466	30910.29
806.796	30737.86
807.126	30570.18
807.457	30641.37
807.787	30560.92
808.117	30361.38
808.447	30336.29
808.777	30476.63
809.107	30068.96
809.436	30017.43
809.766	30033.48
810.096	30050.42
810.426	29847.94
810.755	29872.58
811.085	29753.48
811.414	29771.79
811.744	29543.32
812.073	29513.04
812.403	29428.29
812.732	29195.31
813.061	29357.34
813.39	29087.29
813.719	29015.65
814.049	29243.89
814.378	29205.7
814.707	28871.25
815.036	28972.26
815.365	28706.73
815.693	28594.19
816.022	28620.18
816.351	28588.77
816.68	28471.48
817.008	28556.9
817.337	28259.29
817.665	28266.52
817.994	28247.53
818.322	28374.99
818.651	28170.02
818.979	28076.47
819.307	28092.51
819.636	27982.23
819.964	27832.63
820.292	28012.74
820.62	27816.13
820.948	27871.27
821.276	28070.82
821.604	27781.56
821.932	27971.16
822.259	27735.91
822.587	27784.27
822.915	27724.16
823.243	27809.58
823.57	27761.67
823.898	27829.24
824.225	27678.06
824.553	27692.07
824.88	27734.78
825.207	27805.74
825.535	27661.79
825.862	27780.43
826.189	27736.59
826.516	27789.24
826.843	27920.54
827.17	27908.79
827.497	27892.06
827.824	27843.7
828.151	27908.33
828.478	27695.01
828.805	27912.85
829.131	27854.32
829.458	27789.69
829.785	27673.54
830.111	27645.74
830.438	27816.81
830.764	27845.28
831.09	27864.04
831.417	27544.28
831.743	27737.72
832.069	27711.5
832.395	27700.43
832.722	27713.31
833.048	27636.48
833.374	27733.2
833.7	27625.63
834.026	27595.8
834.351	27457.5
834.677	27622.69
835.003	27501.79
835.329	27534.33
835.654	27481
835.98	27361.23
836.306	27490.72
836.631	27314
836.956	27434.67
837.282	27460.89
837.607	27166.88
837.932	27326.88
838.258	27158.3
838.583	27302.02
838.908	27194
839.233	27139.09
839.558	26989.49
839.883	27010.96
840.208	26783.17
840.533	26864.29
840.858	26995.59
841.182	26897.97
841.507	26881.69
841.832	26656.39
842.156	26629.95
842.481	26828.36
842.805	26514.02
843.13	26461.37
843.454	26476.96
843.778	26457.98
844.103	26334.59
844.427	26317.19
844.751	26409.62
845.075	26268.15
845.399	26180.02
845.723	25940.7
846.047	26052.79
846.371	25817.09
846.695	25762.4
847.019	25656.87
847.343	25476.76
847.666	25462.97
847.99	25301.17
848.313	25255.52
848.637	25217.78
848.96	25118.35
849.284	25118.12
849.607	24838.36
849.931	24771.92
850.254	24751.13
850.577	24513.62
850.9	24410.35
851.223	24322.44
851.546	24230.69
851.869	24164.93
852.192	24239.5
852.515	23940.53
852.838	23842
853.161	23920.19
853.483	23684.04
853.806	23664.83
854.129	23650.59
854.451	23553.42
854.774	23417.15
855.096	23360.88
855.419	23271.62
855.741	23216.93
856.063	23112.98
856.385	23016.49
856.708	22988.69
857.03	22828.24
857.352	22913.89
857.674	22839.09
857.996	22749.37
858.318	22582.37
858.64	22664.4
858.961	22539.66
859.283	22540.79
859.605	22315.49
859.926	22294.47
860.248	22316.16
860.57	22220.35
860.891	22150.97
861.212	22080.24
861.534	22094.48
861.855	22010.41
862.176	22042.5
862.498	21975.38
862.819	21870.75
863.14	21860.58
863.461	21782.39
863.782	21700.81
864.103	21674.15
864.424	21543.98
864.745	21732.9
865.065	21492.23
865.386	21501.72
865.707	21470.99
866.027	21572.91
866.348	21392.57
866.668	21501.5
866.989	21355.74
867.309	21194.61
867.63	21221.5
867.95	21217.44
868.27	21199.13
868.59	21232.8
868.91	21042.75
869.23	21108.06
869.55	20906.03
869.87	21136.31
870.19	20863.55
870.51	20957.78
870.83	20960.95
871.15	20824.68
871.469	20801.63
871.789	20847.95
872.109	20835.98
872.428	20680.95
872.748	20798.92
873.067	20680.05
873.386	20668.75
873.706	20645.25
874.025	20553.05
874.344	20403.22
874.663	20473.05
874.982	20402.77
875.301	20532.93
875.62	20348.08
875.939	20286.39
876.258	20402.99
876.577	20233.28
876.896	20196.22
877.214	20196.67
877.533	20191.93
877.852	20217.91
878.17	20211.59
878.489	20172.49
878.807	20111.7
879.125	20078.26
879.444	20018.6
879.762	19898.6
880.08	20086.84
880.398	19789.45
880.716	19812.05
881.034	19777.7
881.352	19854.31
881.67	19813.86
881.988	19763.92
882.306	19618.16
882.624	19628.78
882.941	19537.03
883.259	19447.09
883.577	19477.14
883.894	19396.47
884.212	19343.14
884.529	19420.42
884.846	19268.79
885.164	19250.71
885.481	19201.44
885.798	19263.82
886.115	19021.56
886.432	19054.78
886.75	19089.13
887.067	19015.69
887.383	18868.8
887.7	18917.84
888.017	18861.57
888.334	18827.89
888.651	18728.24
888.967	18674.23
889.284	18648.92
889.6	18535.93
889.917	18522.59
890.233	18422.48
890.55	18436.49
890.866	18309.72
891.182	18302.94
891.498	18240.79
891.815	18055.03
892.131	18182.94
892.447	18152.21
892.763	18103.62
893.079	18034.47
893.395	17993.57
893.71	17893.68
894.026	17899.33
894.342	17804.19
894.657	17652.56
894.973	17743.4
895.289	17596.74
895.604	17555.61
895.92	17494.6
896.235	17410.76
896.55	17399.23
896.865	17349.06
897.181	17253.92
897.496	17215.96
897.811	17134.61
898.126	17114.95
898.441	17029.3
898.756	17037.21
899.071	16898.91
899.386	16881.96
899.7	16721.74
900.015	16625.01
900.33	16633.38
900.644	16616.43
900.959	16646.94
901.273	16523.55
901.588	16529.65
901.902	16313.84
902.216	16311.58
902.531	16297.79
902.845	16168.08
903.159	16097.12
903.473	16038.59
903.787	15979.83
904.101	16002.43
904.415	15898.71
904.729	15833.62
905.042	15736.9
905.356	15654.87
905.67	15646.51
905.984	15691.93
906.297	15594.31
906.611	15496.23
906.924	15416.69
907.237	15427.53
907.551	15278.38
907.864	15245.16
908.177	15327.2
908.491	15146.41
908.804	15027.99
909.117	15129.23
909.43	14924.49
909.743	14863.71
910.056	14898.51
910.368	14771.96
910.681	14736.25
910.994	14698.29
911.307	14458.74
911.619	14589.36
911.932	14572.19
912.244	14394.11
912.557	14370.38
912.869	14229.15
913.181	14250.61
913.494	14267.11
913.806	14136.27
914.118	14004.74
914.43	13985.76
914.742	13971.07
915.054	13889.49
915.366	13832.55
915.678	13804.3
915.99	13790.51
916.302	13662.61
916.613	13610.4
916.925	13529.05
917.236	13510.97
917.548	13428.04
917.859	13353.01
918.171	13238.21
918.482	13200.7
918.794	13144.65
919.105	13123.86
919.416	13062.62
919.727	12974.26
920.038	13007.93
920.349	12827.15
920.66	12801.39
920.971	12821.95
921.282	12755.74
921.593	12674.84
921.903	12591.9
922.214	12561.62
922.525	12503.77
922.835	12534.5
923.146	12358.69
923.456	12370.44
923.767	12299.7
924.077	12292.93
924.387	12198.92
924.697	12131.57
925.008	12114.4
925.318	12034.18
925.628	11998.92
925.938	11992.14
926.248	11920.05
926.558	11840.73
926.867	11744.24
927.177	11773.39
927.487	11667.86
927.796	11598.71
928.106	11580.4
928.416	11529.78
928.725	11481.42
929.034	11468.99
929.344	11434.19
929.653	11387.86
929.962	11222.9
930.271	11258.15
930.581	11165.27
930.89	11129.57
931.199	10992.17
931.508	11031.72
931.817	11039.4
932.125	10914.88
932.434	10869.23
932.743	10833.08
933.051	10776.58
933.36	10776.81
933.669	10668.11
933.977	10655.45
934.286	10563.71
934.594	10520.09
934.902	10430.15
935.21	10465.63
935.519	10404.16
935.827	10405.52
936.135	10363.03
936.443	10285.52
936.751	10208.46
937.059	10145.64
937.367	10071.51
937.674	10079.65
937.982	10076.03
938.29	10031.74
938.597	10034
938.905	9905.87
939.213	9921.91
939.52	9842.37
939.827	9868.81
940.135	9811.18
940.442	9746.78
940.749	9655.93
941.056	9749.72
941.363	9546.78
941.67	9660.23
941.977	9484.19
942.284	9533.22
942.591	9496.16
942.898	9394.7
943.205	9342.95
943.511	9360.35
943.818	9309.27
944.125	9183.85
944.431	9197.19
944.738	9173.23
945.044	9075.61
945.35	9016.85
945.657	8979.57
945.963	8996.06
946.269	8923.3
946.575	8885.78
946.881	8809.85
947.187	8806.46
947.493	8737.99
947.799	8788.16
948.105	8756.75
948.41	8643.3
948.716	8637.88
949.022	8616.86
949.327	8620.03
949.633	8525.57
949.938	8479.47
950.244	8425.91
950.549	8405.8
950.854	8394.95
951.16	8284.67
951.465	8251.68
951.77	8256.87
952.075	8203.32
952.38	8231.11
952.685	8126.93
952.99	8093.49
953.294	8054.84
953.599	8026.14
953.904	8015.98
954.209	7961.51
954.513	7945.24
954.818	7920.38
955.122	7873.61
955.426	7836.55
955.731	7776.89
956.035	7712.25
956.339	7651.69
956.643	7649.66
956.948	7588.87
957.252	7582.31
957.556	7594.97
957.86	7562.65
958.163	7586.38
958.467	7488.98
958.771	7464.35
959.075	7409.89
959.378	7356.56
959.682	7292.6
959.985	7287.63
960.289	7290.8
960.592	7203.34
960.896	7208.77
961.199	7148.43
961.502	7167.18
961.805	7054.19
962.108	7063.23
962.411	7003.57
962.714	6988.88
963.017	6974.87
963.32	6879.73
963.623	6890.36
963.926	6846.29
964.228	6802.67
964.531	6806.74
964.833	6811.71
965.136	6731.04
965.438	6732.85
965.741	6690.81
966.043	6638.61
966.345	6557.26
966.648	6604.94
966.95	6586.86
967.252	6521.33
967.554	6493.3
967.856	6481.33
968.158	6446.07
968.46	6390.93
968.761	6384.38
969.063	6363.36
969.365	6343.7
969.666	6321.56
969.968	6220.09
970.269	6208.79
970.571	6223.03
970.872	6213.54
971.174	6109.36
971.475	6130.83
971.776	6077.5
972.077	6038.63
972.378	6043.15
972.679	5962.24
972.98	5973.09
973.281	5981.45
973.582	5907.1
973.883	5851.96
974.183	5854
974.484	5851.06
974.785	5799.99
975.085	5783.27
975.386	5759.76
975.686	5711.63
975.986	5726.77
976.287	5723.38
976.587	5623.04
976.887	5628.69
977.187	5632.54
977.487	5625.53
977.787	5571.07
978.087	5509.6
978.387	5444.97
978.687	5484.97
978.987	5463.5
979.286	5424.18
979.586	5452.2
979.885	5408.59
980.185	5356.38
980.484	5307.57
980.784	5308.02
981.083	5271.87
981.382	5273.67
981.682	5253.11
981.981	5209.95
982.28	5199.33
982.579	5195.48
982.878	5175.82
983.177	5111.42
983.475	5126.79
983.774	5065.32
984.073	5066.45
984.372	4989.61
984.67	4989.84
984.969	5008.6
985.267	4949.84
985.566	4979.45
985.864	4887.24
986.162	4890.63
986.461	4820.58
986.759	4818.09
987.057	4762.05
987.355	4752.78
987.653	4773.35
987.951	4702.84
988.249	4716.18
988.547	4684.31
988.844	4653.8
989.142	4719.79
989.44	4600.02
989.737	4581.94
990.035	4600.25
990.332	4550.3
990.63	4561.6
990.927	4535.84
991.224	4471.44
991.521	4488.61
991.819	4512.11
992.116	4390.99
992.413	4369.52
992.71	4375.17
993.006	4384.43
993.303	4349.41
993.6	4336.98
993.897	4285.23
994.193	4292.91
994.49	4236.87
994.787	4238.22
995.083	4180.82
995.379	4187.83
995.676	4179.01
995.972	4152.57
996.268	4154.16
996.565	4115.51
996.861	4070.09
997.157	4063.76
997.453	4044.55
997.749	4025.57
998.044	3967.27
998.34	3972.69
998.636	3959.36
998.932	3960.49
999.227	3942.18
999.523	3913.03
999.818	3896.76
1000.114	3831.68
1000.409	3826.71
1000.704	3777.67
1001	3795.07
1001.295	3757.33
1001.59	3722.98
1001.885	3710.1
1002.18	3706.71
1002.475	3679.82
1002.77	3595.3
1003.065	3588.97
1003.359	3607.05
1003.654	3635.3
1003.949	3558.47
1004.243	3594.4
1004.538	3528.86
1004.832	3513.27
1005.127	3498.58
1005.421	3478.02
1005.715	3457
1006.009	3440.28
1006.304	3407.06
1006.598	3386.04
1006.892	3379.49
1007.186	3364.8
1007.48	3330.22
1007.773	3325.93
1008.067	3297.23
1008.361	3298.59
1008.655	3250.23
1008.948	3222.43
1009.242	3213.62
1009.535	3182.2
1009.829	3147.18
1010.122	3119.83
1010.415	3133.39
1010.708	3058.14
1011.001	3104.92
1011.295	3075.77
1011.588	3053.17
1011.881	3029.89
1012.173	2981.98
1012.466	2985.83
1012.759	2971.36
1013.052	2963.23
1013.344	2960.29
1013.637	2902.89
1013.93	2901.99
1014.222	2839.61
1014.514	2861.31
1014.807	2843.91
1015.099	2836.9
1015.391	2790.35
1015.683	2744.48
1015.976	2795.32
1016.268	2745.61
1016.56	2728.88
1016.851	2718.71
1017.143	2661.31
1017.435	2679.39
1017.727	2635.33
1018.018	2613.41
1018.31	2624.25
1018.602	2565.27
1018.893	2567.76
1019.185	2548.55
1019.476	2559.85
1019.767	2539.06
1020.058	2507.42
1020.35	2516.91
1020.641	2450.7
1020.932	2443.92
1021.223	2428.78
1021.514	2459.29
1021.804	2362.11
1022.095	2398.72
1022.386	2424.03
1022.677	2347.2
1022.967	2345.62
1023.258	2320.31
1023.548	2307.65
1023.839	2298.16
1024.129	2252.96
1024.419	2272.17
1024.709	2218.84
1025	2236.92
1025.29	2177.26
1025.58	2200.54
1025.87	2166.86
1026.16	2146.3
1026.449	2171.84
1026.739	2143.81
1027.029	2109.69
1027.319	2102.91
1027.608	2076.92
1027.898	2057.94
1028.187	2055.68
1028.477	2038.28
1028.766	2020.88
1029.055	2035.34
1029.344	2012.97
1029.634	1984.5
1029.923	1949.24
1030.212	1925.51
1030.501	1974.78
1030.79	1894.1
1031.078	1911.28
1031.367	1903.14
1031.656	1880.32
1031.945	1838.96
1032.233	1834.22
1032.522	1838.51
1032.81	1841.22
1033.099	1822.92
1033.387	1791.28
1033.675	1770.26
1033.963	1798.96
1034.251	1744.5
1034.54	1726.88
1034.828	1725.07
1035.116	1708.12
1035.403	1696.37
1035.691	1694.11
1035.979	1657.72
1036.267	1680.32
1036.554	1641
1036.842	1659.98
1037.129	1649.82
1037.417	1662.7
1037.704	1636.93
1037.992	1601.23
1038.279	1597.39
1038.566	1553.32
1038.853	1553.32
1039.14	1553.32
