Data from 166_FLMS001491_002.txt Node
Date: Thu Apr 19 16:18:13 BST 2018
User: hsy
Spectrometer: FLMS00149
Trigger mode: 0
Integration Time (sec): 1.000000E-2
Scans to average: 10
Electric dark correction enabled: true
Nonlinearity correction enabled: false
Boxcar width: 0
XAxis mode: Wavelengths
Number of Pixels in Spectrum: 2048
>>>>>Begin Spectral Data<<<<<
341.393	-18.67
341.776	-18.67
342.16	-18.67
342.543	-78.11
342.927	-70.65
343.31	-56.86
343.693	-70.2
344.077	-67.94
344.46	-76.07
344.843	-49.63
345.226	-47.37
345.61	-54.83
345.993	-31.1
346.376	10.71
346.759	11.38
347.142	24.26
347.525	62.91
347.908	57.48
348.291	90.25
348.674	87.31
349.057	109.69
349.44	131.61
349.823	129.57
350.206	191.49
350.588	212.73
350.971	250.7
351.354	267.2
351.737	269.91
352.119	287.31
352.502	317.36
352.884	289.12
353.267	336.12
353.65	339.74
354.032	349.45
354.414	343.58
354.797	360.08
355.179	365.95
355.562	376.35
355.944	372.28
356.326	390.58
356.709	357.14
357.091	394.65
357.473	404.37
357.855	385.84
358.238	380.87
358.62	400.98
359.002	375.44
359.384	397.81
359.766	386.29
360.148	366.4
360.53	388.32
360.912	388.32
361.294	377.7
361.676	388.78
362.057	388.55
362.439	383.58
362.821	366.85
363.203	389.68
363.584	378.61
363.966	384.93
364.348	356.69
364.729	376.8
365.111	370.92
365.493	385.84
365.874	378.15
366.256	394.42
366.637	374.09
367.019	374.09
367.4	372.5
367.781	355.56
368.163	399.4
368.544	364.82
368.925	378.83
369.306	372.28
369.688	371.6
370.069	377.48
370.45	372.28
370.831	384.71
371.212	398.04
371.593	374.54
371.974	385.16
372.355	390.58
372.736	378.38
373.117	379.28
373.498	390.58
373.879	392.62
374.26	375.67
374.641	374.76
375.021	372.96
375.402	386.52
375.783	416.12
376.163	410.02
376.544	424.48
376.925	396.46
377.305	405.72
377.686	406.85
378.066	410.92
378.447	418.15
378.827	401.88
379.208	403.24
379.588	398.94
379.968	414.09
380.349	418.6
380.729	439.17
381.109	430.58
381.489	424.93
381.87	444.37
382.25	432.84
382.63	437.14
383.01	420.86
383.39	433.29
383.77	439.85
384.15	443.69
384.53	446.63
384.91	444.82
385.29	454.99
385.67	436.01
386.049	457.93
386.429	447.53
386.809	443.69
387.189	459.28
387.568	447.98
387.948	455.89
388.328	472.84
388.707	470.13
389.087	480.52
389.466	483.01
389.846	473.29
390.225	483.46
390.605	482.78
390.984	480.52
391.363	505.83
391.743	526.17
392.122	486.85
392.501	503.35
392.881	498.83
393.26	497.7
393.639	511.71
394.018	510.13
394.397	517.13
394.776	527.75
395.155	518.49
395.534	503.12
395.913	539.73
396.292	549.67
396.671	519.39
397.05	512.61
397.429	565.72
397.808	554.42
398.186	555.55
398.565	558.49
398.944	552.16
399.323	519.39
399.701	546.29
400.08	580.86
400.458	576.34
400.837	559.84
401.215	580.63
401.594	579.05
401.972	563.01
402.351	590.8
402.729	574.08
403.107	591.03
403.486	588.77
403.864	598.94
404.242	608.66
404.62	598.94
404.999	609.79
405.377	618.37
405.755	622.22
406.133	632.16
406.511	624.25
406.889	630.58
407.267	640.97
407.645	637.81
408.023	640.07
408.401	657.47
408.779	672.16
409.156	658.6
409.534	677.36
409.912	669.9
410.29	663.12
410.667	694.08
411.045	705.15
411.422	693.4
411.8	712.16
412.178	730.01
412.555	741.31
412.933	737.47
413.31	745.38
413.687	751.03
414.065	750.57
414.442	746.05
414.819	766.62
415.197	772.27
415.574	790.35
415.951	798.71
416.328	798.26
416.705	806.62
417.082	822.66
417.46	816.33
417.837	822.21
418.214	808.2
418.591	814.07
418.967	832.15
419.344	850.23
419.721	846.62
420.098	852.49
420.475	852.04
420.852	867.86
421.228	889.1
421.605	885.03
421.982	870.34
422.358	884.58
422.735	878.93
423.111	919.61
423.488	889.1
423.864	918.48
424.241	921.64
424.617	927.74
424.994	932.94
425.37	941.53
425.746	941.53
426.123	960.29
426.499	962.32
426.875	964.58
427.251	948.31
427.627	1000.28
428.003	990.34
428.379	998.93
428.756	1040.06
429.132	1041.87
429.507	1049.1
429.883	1068.08
430.259	1054.75
430.635	1082.99
431.011	1099.94
431.387	1096.55
431.763	1106.5
432.138	1131.58
432.514	1132.94
432.89	1140.17
433.265	1152.14
433.641	1200.51
434.016	1191.24
434.392	1206.61
434.767	1207.74
435.143	1213.61
435.518	1225.59
435.894	1260.16
436.269	1266.04
436.644	1272.82
437.02	1286.38
437.395	1277.79
437.77	1311.69
438.145	1279.15
438.52	1313.27
438.895	1337.9
439.271	1320.95
439.646	1360.27
440.021	1332.03
440.395	1354.17
440.77	1358.02
441.145	1381.07
441.52	1366.15
441.895	1356.66
442.27	1403.89
442.645	1401.4
443.019	1435.98
443.394	1427.62
443.769	1415.64
444.143	1435.53
444.518	1446.83
444.892	1453.38
445.267	1458.13
445.641	1473.94
446.016	1501.51
446.39	1493.38
446.764	1505.36
447.139	1502.87
447.513	1516.2
447.887	1506.94
448.262	1526.82
448.636	1544.22
449.01	1555.75
449.384	1551.91
449.758	1601.62
450.132	1599.14
450.506	1603.88
450.88	1642.08
451.254	1608.86
451.628	1616.99
452.002	1651.34
452.376	1680.94
452.75	1703.32
453.123	1706.93
453.497	1718.01
453.871	1719.36
454.244	1774.73
454.618	1781.73
454.992	1781.05
455.365	1805.24
455.739	1850.21
456.112	1856.53
456.486	1892.01
456.859	1853.6
457.232	1910.54
457.606	1927.94
457.979	1953.03
458.352	2011.78
458.725	2013.59
459.099	2000.71
459.472	2040.94
459.845	2070.99
460.218	2094.27
460.591	2132.23
460.964	2137.43
461.337	2141.95
461.71	2179.46
462.083	2205
462.456	2221.95
462.829	2230.99
463.201	2253.36
463.574	2285.9
463.947	2321.15
464.32	2355.28
464.692	2362.51
465.065	2413.35
465.438	2412.9
465.81	2448.61
466.183	2416.29
466.555	2470.53
466.928	2504.2
467.3	2432.34
467.672	2536.74
468.045	2566.8
468.417	2621.03
468.789	2624.2
469.161	2651.31
469.534	2686.79
469.906	2734.25
470.278	2754.59
470.65	2764.76
471.022	2831.65
471.394	2874.13
471.766	2892.44
472.138	2946.22
472.51	3009.95
472.882	3018.08
473.253	3040.91
473.625	3073.68
473.997	3160.91
474.369	3155.03
474.74	3210.17
475.112	3277.29
475.484	3348.02
475.855	3334.46
476.227	3366.55
476.598	3478.19
476.97	3520.22
477.341	3629.82
477.713	3623.72
478.084	3655.81
478.455	3740.78
478.827	3773.32
479.198	3867.33
479.569	3942.81
479.94	3994.78
480.311	4025.06
480.682	4119.07
481.053	4211.95
481.424	4312.06
481.795	4319.52
482.166	4369.24
482.537	4465.73
482.908	4501.21
483.279	4648.78
483.65	4723.12
484.021	4791.82
484.391	4868.43
484.762	4942.78
485.133	4954.98
485.503	5083.57
485.874	5121.31
486.244	5203.56
486.615	5320.4
486.985	5433.61
487.356	5476.1
487.726	5571.46
488.097	5712.93
488.467	5776.2
488.837	5850.78
489.207	5910.21
489.578	6018.46
489.948	6092.81
490.318	6186.59
490.688	6236.76
491.058	6384.55
491.428	6463.42
491.798	6503.19
492.168	6678.33
492.538	6766.91
492.908	6865.44
493.278	6951.77
493.648	6991.54
494.017	7123.51
494.387	7244.64
494.757	7351.3
495.126	7305.66
495.496	7513.56
495.866	7585.2
496.235	7634.69
496.605	7749.49
496.974	7795.13
497.344	7867.67
497.713	7981.34
498.082	8090.95
498.452	8202.13
498.821	8257.04
499.19	8283.03
499.559	8409.13
499.928	8485.96
500.298	8523.7
500.667	8648.67
501.036	8677.14
501.405	8747.43
501.774	8824.71
502.143	8859.96
502.512	8972.05
502.88	9054.76
503.249	9103.12
503.618	9265.83
503.987	9345.6
504.356	9308.77
504.724	9386.5
505.093	9518.25
505.462	9571.58
505.83	9607.06
506.199	9729.32
506.567	9888.19
506.936	9833.95
507.304	9960.5
507.672	10036.43
508.041	10077.33
508.409	10205.69
508.777	10275.07
509.145	10407.49
509.514	10388.06
509.882	10528.85
510.25	10523.42
510.618	10631.22
510.986	10742.4
511.354	10777.2
511.722	10890.65
512.09	10975.39
512.458	11024.88
512.826	11114.37
513.193	11134.26
513.561	11227.59
513.929	11300.58
514.297	11370.63
514.664	11495.6
515.032	11514.81
515.4	11626.22
515.767	11697.86
516.135	11822.37
516.502	11720.23
516.869	11945.08
517.237	12005.42
517.604	11982.37
517.972	12249.03
518.339	12277.95
518.706	12337.84
519.073	12419.42
519.44	12442.02
519.808	12573.77
520.175	12691.05
520.542	12822.8
520.909	12887.88
521.276	12946.86
521.643	13020.08
522.009	13201.55
522.376	13283.35
522.743	13314.08
523.11	13500.29
523.477	13555.21
523.843	13737.35
524.21	13888.76
524.577	13993.39
524.943	14011.92
525.31	14093.73
525.676	14368.07
526.043	14467.27
526.409	14522.64
526.776	14678.34
527.142	14731.45
527.508	14763.99
527.874	14956.98
528.241	15067.26
528.607	15183.64
528.973	15274.26
529.339	15344.31
529.705	15555.61
530.071	15779.1
530.437	15712.44
530.803	15828.14
531.169	15905.2
531.535	16011.64
531.901	16076.27
532.267	16163.05
532.632	16337.06
532.998	16426.55
533.364	16455.47
533.73	16593.55
534.095	16723.94
534.461	16760.77
534.826	16871.73
535.192	16960.32
535.557	17006.64
535.923	17097.71
536.288	17136.81
536.653	17360.76
537.019	17318.95
537.384	17397.14
537.749	17490.7
538.114	17563.92
538.479	17575.44
538.845	17784.02
539.21	17612.28
539.575	17834.19
539.94	17831.03
540.305	17986.28
540.67	17955.77
541.034	18165.03
541.399	18139.72
541.764	18247.06
542.129	18293.84
542.494	18356.44
542.858	18419.71
543.223	18386.49
543.587	18559.6
543.952	18556.88
544.316	18666.94
544.681	18561.63
545.045	18837.33
545.41	18954.16
545.774	18807.5
546.138	18895.86
546.503	18968.4
546.867	18958.23
547.231	19143.08
547.595	19247.71
547.959	19309.86
548.324	19309.63
548.688	19276.87
549.052	19375.85
549.416	19491.78
549.779	19560.47
550.143	19437.31
550.507	19564.54
550.871	19730.19
551.235	19668.72
551.599	19958.66
551.962	20011.54
552.326	20083.85
552.689	20172.44
553.053	20022.38
553.417	20082.49
553.78	20334.47
554.143	20352.77
554.507	20440.9
554.87	20523.16
555.234	20722.25
555.597	20631.86
555.96	20751.18
556.323	20752.76
556.686	20849.93
557.05	21011.51
557.413	20988.46
557.776	21083.6
558.139	21272.29
558.502	21301.67
558.865	21309.58
559.228	21520.42
559.59	21556.58
559.953	21618.73
560.316	21916.12
560.679	21945.72
561.041	21973.74
561.404	22234.53
561.767	22395.65
562.129	22371.47
562.492	22489.44
562.854	22503.67
563.217	22538.93
563.579	22645.14
563.941	22702.99
564.304	23003.55
564.666	23195.63
565.028	23064.79
565.39	23321.73
565.753	23399.7
566.115	23441.73
566.477	23614.83
566.839	23720.14
567.201	23954.26
567.563	24055.5
567.925	24149.51
568.287	24152.9
568.648	24336.62
569.01	24461.14
569.372	24702.94
569.734	24712.43
570.095	24914.23
570.457	25024.96
570.819	25034.45
571.18	25136.37
571.542	25344.28
571.903	25435.35
572.265	25613.87
572.626	25747.66
572.987	25797.15
573.349	25993.98
573.71	26062.45
574.071	26327.53
574.432	26516.22
574.794	26670.57
575.155	26732.04
575.516	26691.36
575.877	26970.68
576.238	26907.63
576.599	27161.4
576.96	27298.12
577.32	27434.84
577.681	27607.72
578.042	27730.66
578.403	27710.77
578.763	27933.59
579.124	27939.46
579.485	28277.53
579.845	28390.3
580.206	28413.57
580.566	28593.01
580.927	28729.95
581.287	28904.18
581.648	28982.15
582.008	29277.28
582.368	29356.38
582.728	29609.93
583.089	29853.31
583.449	30131.95
583.809	30315.67
584.169	30487.64
584.529	30600.41
584.889	31044.47
585.249	31124.46
585.609	31255.99
585.969	31654.39
586.329	31902.3
586.688	32295.28
587.048	32415.96
587.408	32803.74
587.768	33029.05
588.127	33365.99
588.487	33614.12
588.846	34282.8
589.206	34335.23
589.565	34717.82
589.925	35271.47
590.284	35616.1
590.643	35898.35
591.003	36332.91
591.362	36915.72
591.721	37254.47
592.08	37480.91
592.44	38096.48
592.799	38308.46
593.158	38928.78
593.517	39290.13
593.876	39821.18
594.235	40106.15
594.593	40553.37
594.952	41024.09
595.311	41376.4
595.67	41844.63
596.029	42489.81
596.387	42880.77
596.746	43511.26
597.104	43599.16
597.463	44144.01
597.822	44914.84
598.18	45010.88
598.538	45581.26
598.897	46122.94
599.255	46214.69
599.613	47121.33
599.972	47205.62
600.33	47762.22
600.688	48008.77
601.046	48470.45
601.404	49132.8
601.762	49389.97
602.12	49861.82
602.478	50062.5
602.836	50431.98
603.194	50493.9
603.552	51035.13
603.91	51271.05
604.268	51668.1
604.625	51870.13
604.983	52266.51
605.341	52287.98
605.698	52782.2
606.056	53152.81
606.413	53288.18
606.771	53608.62
607.128	53894.49
607.485	54000.25
607.843	54329.73
608.2	54546.45
608.557	54834.58
608.914	54900.11
609.272	55256.26
609.629	55543.94
609.986	55725.4
610.343	55850.37
610.7	56130.81
611.057	56243.35
611.414	56312.73
611.771	56679.5
612.127	56768.76
612.484	57014.86
612.841	57229.99
613.198	57206.94
613.554	57338.24
613.911	57690.32
614.267	57747.27
614.624	57830.65
614.98	58040.14
615.337	58316.97
615.693	58323.75
616.05	58484.65
616.406	58718.99
616.762	58676.06
617.118	58806
617.475	58933
617.831	59151.07
618.187	59257.51
618.543	59343.38
618.899	59552.87
619.255	59527.56
619.611	59652.75
619.967	59793.99
620.323	59932.29
620.678	59864.73
621.034	59931.39
621.39	59989.24
621.746	60056.13
622.101	60351.27
622.457	60136.13
622.812	60356.92
623.168	60467.87
623.523	60539.51
623.879	60623.35
624.234	60544.71
624.589	60672.16
624.945	60733.86
625.3	60781.09
625.655	60875.77
626.01	60888.88
626.365	60901.99
626.72	60858.15
627.075	60937.47
627.43	60959.16
627.785	60991.25
628.14	61008.88
628.495	61048.88
628.85	61157.8
629.205	61048.88
629.559	61208.64
629.914	61101.75
630.269	61198.48
630.623	61060.85
630.978	61087.74
631.332	61231.7
631.687	61236.67
632.041	61251.81
632.396	61216.78
632.75	61207.29
633.104	61265.37
633.459	61166.61
633.813	61179.49
634.167	61210
634.521	61208.42
634.875	61205.93
635.229	61165.71
635.583	61075.77
635.937	61103.11
636.291	61128.65
636.645	61163.9
636.999	61027.41
637.352	61119.16
637.706	60992.83
638.06	61093.17
638.413	61016.33
638.767	61001.42
639.121	61052.26
639.474	60969.78
639.828	60948.99
640.181	60931.36
640.534	61051.59
640.888	60872.16
641.241	60782.22
641.594	60874.64
641.947	60955.09
642.301	60811.37
642.654	60865.6
643.007	60765.49
643.36	60821.76
643.713	60760.75
644.066	60918.26
644.419	60712.61
644.771	60508.55
645.124	60298.61
645.477	60241.89
645.83	60197.6
646.182	60134.32
646.535	60037.38
646.888	60143.81
647.24	60098.39
647.593	60246.64
647.945	60076.92
648.298	60054.1
648.65	59945.63
649.002	59822.24
649.355	59812.07
649.707	59724.84
650.059	59728.91
650.411	60046.87
650.763	60160.54
651.115	60454.54
651.467	60379.06
651.819	60358.72
652.171	60325.5
652.523	60255.68
652.875	60319.85
653.227	60191.72
653.578	60370.93
653.93	60286.64
654.282	60190.37
654.633	60135.9
654.985	60203.47
655.337	60174.77
655.688	60135.45
656.039	60195.11
656.391	59948.34
656.742	60035.79
657.094	60040.77
657.445	60036.25
657.796	60032.63
658.147	59903.82
658.498	60060.88
658.849	60024.95
659.2	59935.68
659.551	59870.37
659.902	60012.29
660.253	59856.14
660.604	59953.31
660.955	59850.26
661.306	59958.28
661.656	59862.24
662.007	59882.35
662.358	59900.43
662.708	59848
663.059	59806.65
663.409	59693.43
663.76	59828.79
664.11	59826.31
664.461	59817.04
664.811	59804.84
665.161	59817.49
665.511	59682.58
665.862	59783.37
666.212	59782.24
666.562	59863.37
666.912	59785.41
667.262	59671.96
667.612	59699.76
667.962	59808.68
668.312	59667.44
668.662	59817.04
669.011	59730.04
669.361	59657.95
669.711	59762.13
670.06	59641
670.41	59591.96
670.76	59568.91
671.109	59696.14
671.459	59647.56
671.808	59653.43
672.157	59636.26
672.507	59622.92
672.856	59554.45
673.205	59630.83
673.554	59661.11
673.904	59547.9
674.253	59745.86
674.602	59586.99
674.951	59233.78
675.3	59102.26
675.649	59597.84
675.998	59539.31
676.346	59554.9
676.695	59567.78
677.044	59387.45
677.393	59403.49
677.741	59499.09
678.09	59467.45
678.438	59342.03
678.787	59490.5
679.135	59424.06
679.484	59272.65
679.832	59419.31
680.181	59310.84
680.529	59376.6
680.877	59280.79
681.225	59251.18
681.573	59445.98
681.922	59289.6
682.27	59240.11
682.618	59254.57
682.966	59227.45
683.314	59130.28
683.661	59190.39
684.009	59141.81
684.357	59061.81
684.705	59007.8
685.053	59024.07
685.4	58914.69
685.748	58934.13
686.095	58926.44
686.443	58780.46
686.79	58742.04
687.138	58832.66
687.485	58817.75
687.832	58669.05
688.18	58704.53
688.527	58639.67
688.874	58570.3
689.221	58599.9
689.568	58446.23
689.915	58486.46
690.262	58461.6
690.609	58435.38
690.956	58369.62
691.303	58280.13
691.65	58264.09
691.997	58247.37
692.344	58064.55
692.69	57995.17
693.037	58114.04
693.383	57912.23
693.73	57968.73
694.077	57914.49
694.423	57764.89
694.769	57739.36
695.116	57761.96
695.462	57605.58
695.808	57534.62
696.155	57630.21
696.501	57385.92
696.847	57480.83
697.193	57284.91
697.539	57338.46
697.885	57185.47
698.231	57149.32
698.577	57143.22
698.923	57125.14
699.269	56964.01
699.614	56803.79
699.96	56751.59
700.306	56789.55
700.651	56667.07
700.997	56643.57
701.342	56614.87
701.688	56459.39
702.033	56395.89
702.379	56387.53
702.724	56300.75
703.069	56352.28
703.415	56090.36
703.76	56026.41
704.105	56117.03
704.45	55958.84
704.795	55883.81
705.14	55811.95
705.485	55796.81
705.83	55557.95
706.175	55727.88
706.52	55547.78
706.865	55520.43
707.209	55471.17
707.554	55439.31
707.899	55458.51
708.243	55237.28
708.588	55193.21
708.932	55134.23
709.277	55129.26
709.621	55047.68
709.966	54912.54
710.31	55005.64
710.654	54733.33
710.998	54871.64
711.342	54782.83
711.687	54736.5
712.031	54656.27
712.375	54524.07
712.719	54531.08
713.063	54466.68
713.407	54559.55
713.75	54428.48
714.094	54345.77
714.438	54264.87
714.782	54221.48
715.125	54136.06
715.469	54226
715.812	53921.6
716.156	53890.42
716.499	53773.81
716.843	53899.23
717.186	53758.22
717.53	53943.3
717.873	53790.99
718.216	53676.19
718.559	53570.88
718.902	53333.37
719.246	53503.31
719.589	53408.62
719.932	53327.72
720.275	53212.47
720.617	53258.57
720.96	53179.48
721.303	53257.44
721.646	53218.8
721.989	53050.89
722.331	53035.53
722.674	52967.28
723.016	52942.87
723.359	52872.14
723.701	52913.72
724.044	52731.58
724.386	52580.62
724.729	52733.84
725.071	52555.54
725.413	52605.93
725.755	52552.6
726.097	52459.72
726.439	52315.32
726.782	52279.16
727.124	52387.86
727.465	52305.83
727.807	52111.93
728.149	52189.45
728.491	52094.53
728.833	52073.07
729.175	52031.26
729.516	51886.4
729.858	51922.34
730.199	52017.47
730.541	51912.84
730.882	51838.04
731.224	51859.29
731.565	51764.83
731.906	51744.71
732.248	51760.98
732.589	51554.21
732.93	51393.08
733.271	51418.85
733.612	51451.84
733.953	51466.3
734.294	51409.35
734.635	51307.21
734.976	51346.08
735.317	51292.3
735.658	51179.3
735.999	51130.27
736.339	51082.58
736.68	51080.78
737.021	51012.3
737.361	50930.5
737.702	51156.03
738.042	50977.95
738.383	50925.07
738.723	50991.29
739.063	50864.96
739.404	50940.89
739.744	50752.42
740.084	50666.78
740.424	50703.38
740.764	50635.14
741.104	50803.49
741.444	50575.03
741.784	50474.24
742.124	50532.99
742.464	50420.91
742.804	50417.74
743.143	50307.46
743.483	50330.29
743.823	50204.41
744.162	50226.11
744.502	50288.93
744.841	50105.66
745.181	50325.77
745.52	50058.88
745.86	50144.75
746.199	50074.93
746.538	50040.8
746.877	50095.49
747.216	50124.64
747.556	49856.17
747.895	49901.37
748.234	49811.88
748.573	49710.19
748.911	49663.86
749.25	49706.35
749.589	49480.59
749.928	49545
750.267	49458.67
750.605	49447.82
750.944	49378.45
751.283	49302.29
751.621	49395.85
751.96	49131.67
752.298	49104.1
752.636	49196.31
752.975	48872.02
753.313	48690.1
753.651	48980.49
753.989	48796.99
754.327	48676.77
754.666	48569.2
755.004	48590.22
755.342	48559.94
755.679	48616.66
756.017	48344.58
756.355	48268.42
756.693	48048.31
757.031	48259.61
757.368	47903.46
757.706	47998.37
758.044	47786.17
758.381	47953.4
758.719	47665.27
759.056	47611.04
759.394	47506.18
759.731	47244.72
760.068	47179.64
760.405	47303.93
760.743	46898.74
761.08	46997.95
761.417	46937.16
761.754	46742.58
762.091	46684.51
762.428	46384.63
762.765	46275.7
763.102	46360
763.438	46201.13
763.775	45929.72
764.112	45947.13
764.449	45928.82
764.785	45874.36
765.122	45661.48
765.458	45355.5
765.795	45348.72
766.131	45466.01
766.467	45265.56
766.804	44857.44
767.14	44813.6
767.476	44677.1
767.812	44489.54
768.148	44482.3
768.485	44313.04
768.821	44091.35
769.157	43967.06
769.492	43847.29
769.828	43733.4
770.164	43405.05
770.5	43308.32
770.836	43270.81
771.171	43179.74
771.507	42989.91
771.842	42683.93
772.178	42793.31
772.513	42631.73
772.849	42418.63
773.184	42455.92
773.519	42332.31
773.855	42035.59
774.19	42062.26
774.525	41818.87
774.86	41721.47
775.195	41678.54
775.53	41397.41
775.865	41283.29
776.2	40921.04
776.535	40929.18
776.87	40681.73
777.205	40531.45
777.539	40439.47
777.874	40367.16
778.209	40133.49
778.543	40130.78
778.878	39827.06
779.212	39907.96
779.547	39410.12
779.881	39612.38
780.215	39404.7
780.55	39395.43
780.884	39020.3
781.218	38815.11
781.552	38818.05
781.886	38526.53
782.22	38493.54
782.554	38241.34
782.888	38096.94
783.222	37978.52
783.556	37872.99
783.889	37783.05
784.223	37482.04
784.557	37469.83
784.89	37416.28
785.224	37198.65
785.557	37030.3
785.891	36817.65
786.224	36971.77
786.558	36736.29
786.891	36586.92
787.224	36422.18
787.557	36327.94
787.891	36245.23
788.224	35938.12
788.557	36087.5
788.89	35756.66
789.223	35702.42
789.556	35576.78
789.888	35556.66
790.221	35248.65
790.554	35071.93
790.887	35009.33
791.219	34804.82
791.552	34867.64
791.884	34807.31
792.217	34602.34
792.549	34562.79
792.882	34309.01
793.214	34186.08
793.546	34253.2
793.879	34006.65
794.211	33720.55
794.543	33841
794.875	33688.01
795.207	33668.35
795.539	33509.71
795.871	33518.75
796.203	33385.42
796.535	32976.17
796.867	33193.79
797.198	32756.96
797.53	32941.59
797.862	32561.04
798.193	32661.37
798.525	32423.64
798.856	32589.96
799.188	32145.68
799.519	32087.83
799.85	31824.56
800.182	31980.03
800.513	31963.09
800.844	31612.36
801.175	31898
801.506	31836.99
801.837	31498.01
802.168	31480.84
802.499	31534.85
802.83	31093.05
803.161	31100.06
803.491	31133.73
803.822	31103.67
804.153	30744.14
804.483	30744.81
804.814	30532.84
805.145	30621.2
805.475	30654.87
805.805	30444.93
806.136	30431.83
806.466	30291.27
806.796	30256.01
807.126	29925.4
807.457	30051.95
807.787	30004.27
808.117	29926.76
808.447	29818.28
808.777	29830.26
809.107	29514.34
809.436	29433.44
809.766	29443.15
810.096	29440.21
810.426	29154.35
810.755	29330.61
811.085	29212.65
811.414	29163.84
811.744	28932.88
812.073	28929.49
812.403	28765.88
812.732	28601.82
813.061	28789.61
813.39	28615.38
813.719	28517.53
814.049	28700.8
814.378	28621.93
814.707	28342.62
815.036	28361.37
815.365	28241.15
815.693	27917.54
816.022	28043.64
816.351	28002.29
816.68	27929.52
817.008	28028.95
817.337	27760.71
817.665	27707.6
817.994	27624.67
818.322	27716.19
818.651	27522.98
818.979	27514.39
819.307	27496.54
819.636	27445.46
819.964	27357.33
820.292	27318.91
820.62	27297.9
820.948	27295.86
821.276	27490.21
821.604	27271.46
821.932	27298.8
822.259	27331.8
822.587	27234.4
822.915	27247.5
823.243	27296.54
823.57	27148.07
823.898	27341.51
824.225	27216.32
824.553	27187.84
824.88	27238.69
825.207	27267.84
825.535	27191.91
825.862	27247.96
826.189	27169.99
826.516	27419.48
826.843	27389.87
827.17	27297.22
827.497	27339.03
827.824	27361.85
828.151	27424.9
828.478	27193.04
828.805	27431
829.131	27256.09
829.458	27218.13
829.785	27240.95
830.111	27277.79
830.438	27302.87
830.764	27294.28
831.09	27243.66
831.417	26946.49
831.743	27257.22
832.069	27304.45
832.395	27126.6
832.722	27135.64
833.048	27071.24
833.374	27169.31
833.7	26970.9
834.026	27115.3
834.351	27047.74
834.677	27074.18
835.003	27057.9
835.329	27001.63
835.654	27095.42
835.98	26873.95
836.306	26960.96
836.631	26827.18
836.956	27006.15
837.282	26764.13
837.607	26750.79
837.932	26727.07
838.258	26784.24
838.583	26678.03
838.908	26608.2
839.233	26607.07
839.558	26552.38
839.883	26529.1
840.208	26318.04
840.533	26433.06
840.858	26348.09
841.182	26358.04
841.507	26244.37
841.832	26153.75
842.156	26289.11
842.481	26167.53
842.805	26165.72
843.13	25971.83
843.454	26087.99
843.778	25899.74
844.103	25886.18
844.427	25830.59
844.751	25830.37
845.075	25826.07
845.399	25610.48
845.723	25612.07
846.047	25493.2
846.371	25447.55
846.695	25292.98
847.019	25153.77
847.343	25061.35
847.666	24987.45
847.99	24805.99
848.313	24740.45
848.637	24806.44
848.96	24662.49
849.284	24548.82
849.607	24393.57
849.931	24373.91
850.254	24177.08
850.577	24003.97
850.9	23880.36
851.223	23928.27
851.546	23888.95
851.869	23797.65
852.192	23814.15
852.515	23523.99
852.838	23432.69
853.161	23407.15
853.483	23330.77
853.806	23234.73
854.129	23189.53
854.451	23178.01
854.774	22941.4
855.096	22861.63
855.419	22801.75
855.741	22834.96
856.063	22726.04
856.385	22586.61
856.708	22480.62
857.03	22533.96
857.352	22471.13
857.674	22404.47
857.996	22279.27
858.318	22118.15
858.64	22178.26
858.961	22114.31
859.283	21999.73
859.605	21942.78
859.926	22009.68
860.248	21914.76
860.57	21780.98
860.891	21669.57
861.212	21651.72
861.534	21498.28
861.855	21368.56
862.176	21487.2
862.498	21558.61
862.819	21506.64
863.14	21316.59
863.461	21321.11
863.782	21295.8
864.103	21194.1
864.424	21150.49
864.745	21189.81
865.065	21041.57
865.386	21092.86
865.707	21079.98
866.027	21090.15
866.348	21083.37
866.668	21029.14
866.989	20888.35
867.309	20757.96
867.63	20764.28
867.95	20812.42
868.27	20568.13
868.59	20869.37
868.91	20679.32
869.23	20658.98
869.55	20628.47
869.87	20618.53
870.19	20512.31
870.51	20526.78
870.83	20477.96
871.15	20353.9
871.469	20395.25
871.789	20369.04
872.109	20448.59
872.428	20335.14
872.748	20385.09
873.067	20250.17
873.386	20322.71
873.706	20330.17
874.025	20169.72
874.344	20066.45
874.663	20092.21
874.982	20015.83
875.301	20144.64
875.62	20017.41
875.939	19913.01
876.258	19955.27
876.577	19837.76
876.896	19776.06
877.214	19847.02
877.533	19856.74
877.852	19788.49
878.17	19776.97
878.489	19810.64
878.807	19663.75
879.125	19579.91
879.444	19633.01
879.762	19606.12
880.08	19660.58
880.398	19513.92
880.716	19426.24
881.034	19391.67
881.352	19430.08
881.67	19411.33
881.988	19379.24
882.306	19296.3
882.624	19349.41
882.941	19105.35
883.259	19110.99
883.577	19098.57
883.894	18978.12
884.212	19009.98
884.529	19022.41
884.846	18876.65
885.164	18813.6
885.481	18926.59
885.798	18891.79
886.115	18650.44
886.432	18757.56
886.75	18629.88
887.067	18611.8
887.383	18558.92
887.7	18401.86
888.017	18429.43
888.334	18576.55
888.651	18438.02
888.967	18374.52
889.284	18308.3
889.6	18232.83
889.917	18085.94
890.233	18066.5
890.55	18055.2
890.866	18087.52
891.182	17977.69
891.498	17996.67
891.815	17914.42
892.131	17867.41
892.447	17894.76
892.763	17683.46
893.079	17680.52
893.395	17593.29
893.71	17600.75
894.026	17573.18
894.342	17513.97
894.657	17411.83
894.973	17351.27
895.289	17322.12
895.604	17216.81
895.92	17108.11
896.235	17097.26
896.55	17045.51
896.865	16939.53
897.181	17039.18
897.496	17009.81
897.811	16864.95
898.126	16770.04
898.441	16772.75
898.756	16693.43
899.071	16528.01
899.386	16568.01
899.7	16418.18
900.015	16356.04
900.33	16258.19
900.644	16244.18
900.959	16324.4
901.273	16138.19
901.588	16123.05
901.902	16092.77
902.216	15998.08
902.531	15923.06
902.845	15955.82
903.159	15808.71
903.473	15805.77
903.787	15692.78
904.101	15634.25
904.415	15668.37
904.729	15577.53
905.042	15493.24
905.356	15444.42
905.67	15403.75
905.984	15495.04
906.297	15293.24
906.611	15282.85
906.924	15152.45
907.237	15175.96
907.551	15147.26
907.864	14902.74
908.177	14987.49
908.491	14925.79
908.804	14820.26
909.117	14764.89
909.43	14654.39
909.743	14604.45
910.056	14608.97
910.368	14469.08
910.681	14491.46
910.994	14408.29
911.307	14304.34
911.619	14225.25
911.932	14287.62
912.244	14167.62
912.557	14130.11
912.869	13949.55
913.181	14027.06
913.494	13924.92
913.806	13823.9
914.118	13850.34
914.43	13736.22
914.742	13782.1
915.054	13652.61
915.366	13649.44
915.678	13496
915.99	13416.91
916.302	13379.85
916.613	13321.99
916.925	13302.79
917.236	13347.53
917.548	13154.54
917.859	13187.08
918.171	13147.99
918.482	13056.46
918.794	12944.83
919.105	12803.59
919.416	12821.67
919.727	12758.62
920.038	12799.3
920.349	12641.56
920.66	12660.09
920.971	12604.5
921.282	12508.91
921.593	12400.44
921.903	12445.63
922.214	12370.38
922.525	12354.11
922.835	12344.84
923.146	12138.3
923.456	12138.97
923.767	12089.48
924.077	12141.91
924.387	12028.92
924.697	11985.76
925.008	11910.96
925.318	11825.31
925.628	11856.04
925.938	11724.97
926.248	11642.49
926.558	11656.28
926.867	11574.24
927.177	11526.79
927.487	11475.94
927.796	11407.69
928.106	11435.04
928.416	11300.8
928.725	11296.74
929.034	11240.24
929.344	11282.27
929.653	11164.08
929.962	11081.15
930.271	11099
930.581	11012.22
930.89	10974.71
931.199	10847.94
931.508	10870.08
931.817	10764.1
932.125	10850.65
932.434	10703.08
932.743	10659.01
933.051	10616.53
933.36	10604.55
933.669	10541.95
933.977	10513.25
934.286	10509.19
934.594	10410.88
934.902	10319.36
935.21	10313.71
935.519	10285.69
935.827	10236.2
936.135	10177.9
936.443	10070.55
936.751	10084.34
937.059	10087.73
937.367	9952.37
937.674	9962.99
937.982	9875.31
938.29	9946.72
938.597	9764.35
938.905	9768.42
939.213	9742.43
939.52	9710.79
939.827	9697.91
940.135	9697.91
940.442	9640.06
940.749	9554.86
941.056	9561.42
941.363	9409.1
941.67	9443.9
941.977	9356
942.284	9368.88
942.591	9344.47
942.898	9311.7
943.205	9240.97
943.511	9186.28
943.818	9160.3
944.125	9007.98
944.431	8999.85
944.738	9007.76
945.044	8945.16
945.35	8940.19
945.657	8882.79
945.963	8838.27
946.269	8816.35
946.575	8762.34
946.881	8706.52
947.187	8748.1
947.493	8627.43
947.799	8667.88
948.105	8570.25
948.41	8431.73
948.716	8513.53
949.022	8486.19
949.327	8457.72
949.633	8345.63
949.938	8379.98
950.244	8309.92
950.549	8250.26
950.854	8213.43
951.16	8218.4
951.465	8124.39
951.77	8153.54
952.075	8091.62
952.38	8019.08
952.685	7977.5
952.99	7885.98
953.294	7968.01
953.599	7848.69
953.904	7807.79
954.209	7768.24
954.513	7810.73
954.818	7709.94
955.122	7711.97
955.426	7636.72
955.731	7623.39
956.035	7590.62
956.339	7587
956.643	7545.65
956.948	7464.75
957.252	7477.85
957.556	7453.22
957.86	7419.78
958.163	7405.77
958.467	7347.46
958.771	7294.58
959.075	7260.46
959.378	7240.35
959.682	7255.04
959.985	7203.51
960.289	7194.02
960.592	7100.91
960.896	7066.57
961.199	7050.75
961.502	7005.78
961.805	6987.7
962.108	6990.18
962.411	6928.49
962.714	6825.44
963.017	6893.46
963.32	6878.55
963.623	6828.15
963.926	6806.46
964.228	6716.97
964.531	6729.63
964.833	6683.98
965.136	6628.16
965.438	6639.91
965.741	6554.71
966.043	6588.84
966.345	6512.23
966.648	6500.25
966.95	6497.77
967.252	6406.7
967.554	6407.15
967.856	6403.98
968.158	6335.51
968.46	6339.13
968.761	6239.92
969.063	6300.03
969.365	6243.54
969.666	6201.05
969.968	6108.62
970.269	6143.2
970.571	6146.14
970.872	6109.53
971.174	6032.02
971.475	6006.71
971.776	5989.31
972.077	5966.71
972.378	5976.88
972.679	5889.65
972.98	5908.4
973.281	5889.87
973.582	5814.85
973.883	5788.63
974.183	5793.83
974.484	5732.59
974.785	5734.4
975.085	5710.9
975.386	5684.91
975.686	5695.08
975.986	5622.76
976.287	5620.28
976.587	5535.08
976.887	5581.41
977.187	5538.7
977.487	5514.97
977.787	5467.06
978.087	5465.48
978.387	5392.49
978.687	5425.25
978.987	5389.32
979.286	5427.06
979.586	5368.98
979.885	5353.84
980.185	5293.73
980.484	5258.7
980.784	5227.74
981.083	5169.21
981.382	5172.83
981.682	5128.76
981.981	5170.8
982.28	5104.13
982.579	5067.52
982.878	5051.7
983.177	5026.39
983.475	5046.96
983.774	4965.15
984.073	4948.88
984.372	4942.78
984.67	4905.27
984.969	4926.06
985.267	4878.37
985.566	4865.27
985.864	4784.82
986.162	4806.06
986.461	4774.87
986.759	4721.32
987.057	4696.01
987.355	4691.03
987.653	4658.27
987.951	4664.37
988.249	4606.97
988.547	4604.48
988.844	4608.33
989.142	4574.65
989.44	4567.87
989.737	4505.28
990.035	4528.55
990.332	4458.5
990.63	4446.75
990.927	4469.35
991.224	4417.82
991.521	4401.1
991.819	4430.93
992.116	4368.11
992.413	4345.51
992.71	4309.58
993.006	4291.05
993.303	4288.11
993.6	4272.29
993.897	4199.07
994.193	4240.2
994.49	4164.5
994.787	4182.12
995.083	4121.56
995.379	4161.78
995.676	4112.29
995.972	4130.15
996.268	4055.57
996.565	4045.18
996.861	4005.4
997.157	3991.62
997.453	3961.56
997.749	3906.42
998.044	3945.29
998.34	3909.59
998.636	3894.67
998.932	3876.14
999.227	3821.23
999.523	3807.67
999.818	3785.3
1000.114	3749.36
1000.409	3774.22
1000.704	3722.92
1001	3710.04
1001.295	3707.33
1001.59	3691.06
1001.885	3665.98
1002.18	3622.81
1002.475	3603.61
1002.77	3611.29
1003.065	3554.57
1003.359	3594.57
1003.654	3522.93
1003.949	3534
1004.243	3501.01
1004.538	3479.54
1004.832	3451.29
1005.127	3454.91
1005.421	3393.44
1005.715	3379.2
1006.009	3409.49
1006.304	3405.19
1006.598	3340.56
1006.892	3321.58
1007.186	3284.52
1007.48	3242.94
1007.773	3270.96
1008.067	3209.72
1008.361	3243.16
1008.655	3190.51
1008.948	3182.6
1009.242	3161.13
1009.535	3130.85
1009.829	3105.54
1010.122	3069.16
1010.415	3073.68
1010.708	3031.87
1011.001	3052.66
1011.295	3038.2
1011.588	3017.41
1011.881	2974.7
1012.173	2971.98
1012.466	2989.61
1012.759	2903.51
1013.052	2927.69
1013.344	2881.14
1013.637	2863.29
1013.93	2894.02
1014.222	2829.84
1014.514	2845.89
1014.807	2779.45
1015.099	2804.53
1015.391	2754.36
1015.683	2793.91
1015.976	2737.19
1016.268	2691.77
1016.56	2715.27
1016.851	2705.32
1017.143	2657.64
1017.435	2645.21
1017.727	2611.32
1018.018	2584.88
1018.31	2553.46
1018.602	2597.76
1018.893	2544.88
1019.185	2527.25
1019.476	2502.17
1019.767	2515.72
1020.058	2476.86
1020.35	2454.03
1020.641	2426.46
1020.932	2419.23
1021.223	2402.96
1021.514	2382.39
1021.804	2390.3
1022.095	2365.67
1022.386	2349.4
1022.677	2329.74
1022.967	2305.56
1023.258	2286.8
1023.548	2259.69
1023.839	2265.34
1024.129	2245
1024.419	2242.74
1024.709	2235.51
1025	2197.99
1025.29	2170.2
1025.58	2155.96
1025.87	2122.29
1026.16	2147.15
1026.449	2121.38
1026.739	2102.85
1027.029	2104.21
1027.319	2053.59
1027.608	2052.01
1027.898	2068.96
1028.187	2013.14
1028.477	2050.43
1028.766	1976.53
1029.055	1972.91
1029.344	1978.34
1029.634	1960.03
1029.923	1948.96
1030.212	1923.65
1030.501	1911.67
1030.79	1905.35
1031.078	1845.01
1031.367	1839.13
1031.656	1859.24
1031.945	1852.69
1032.233	1823.99
1032.522	1824.22
1032.81	1793.26
1033.099	1800.72
1033.387	1801.62
1033.675	1750.1
1033.963	1732.24
1034.251	1748.74
1034.54	1732.24
1034.828	1737.67
1035.116	1706.93
1035.403	1717.55
1035.691	1681.62
1035.979	1668.06
1036.267	1655.18
1036.554	1638.91
1036.842	1622.19
1037.129	1626.48
1037.417	1599.14
1037.704	1619.7
1037.992	1576.99
1038.279	1565.69
1038.566	1546.03
1038.853	1546.03
1039.14	1546.03
