Data from 166_FLMS001491_009.txt Node
Date: Thu Apr 19 16:18:34 BST 2018
User: hsy
Spectrometer: FLMS00149
Trigger mode: 0
Integration Time (sec): 1.000000E-2
Scans to average: 10
Electric dark correction enabled: true
Nonlinearity correction enabled: false
Boxcar width: 0
XAxis mode: Wavelengths
Number of Pixels in Spectrum: 2048
>>>>>Begin Spectral Data<<<<<
341.393	-28.23
341.776	-28.23
342.16	-28.23
342.543	-68.46
342.927	-70.49
343.31	-76.14
343.693	-70.27
344.077	-65.07
344.46	-52.87
344.843	-63.26
345.226	-54.22
345.61	-36.82
345.993	-5.86
346.376	7.25
346.759	1.82
347.142	37.75
347.525	34.36
347.908	60.58
348.291	79.79
348.674	80.69
349.057	122.27
349.44	122.04
349.823	144.87
350.206	172.89
350.588	231.19
350.971	251.08
351.354	252.21
351.737	265.09
352.119	274.13
352.502	315.71
352.884	317.29
353.267	325.43
353.65	320.23
354.032	342.6
354.414	333.79
354.797	375.37
355.179	349.84
355.562	379.21
355.944	383.96
356.326	386.67
356.709	366.78
357.091	383.73
357.473	374.24
357.855	397.74
358.238	395.71
358.62	378.54
359.002	376.5
359.384	375.82
359.766	376.95
360.148	382.6
360.53	379.89
360.912	386.44
361.294	388.25
361.676	371.98
362.057	388.03
362.439	386.67
362.821	376.95
363.203	385.31
363.584	384.41
363.966	385.54
364.348	392.55
364.729	376.95
365.111	386.44
365.493	382.38
365.874	354.36
366.256	398.65
366.637	343.51
367.019	381.92
367.4	380.34
367.781	381.7
368.163	373.34
368.544	366.56
368.925	370.85
369.306	376.73
369.688	384.64
370.069	393.68
370.45	375.6
370.831	394.13
371.212	400.68
371.593	396.16
371.974	386.22
372.355	395.26
372.736	383.96
373.117	393.22
373.498	380.8
373.879	390.51
374.26	393
374.641	380.34
375.021	396.16
375.402	391.19
375.783	403.17
376.163	400.46
376.544	397.97
376.925	407.69
377.305	426.9
377.686	422.6
378.066	409.72
378.447	405.43
378.827	418.08
379.208	427.35
379.588	412.21
379.968	428.93
380.349	431.19
380.729	417.4
381.109	414.69
381.489	430.29
381.87	439.55
382.25	422.6
382.63	426.22
383.01	420.12
383.39	453.79
383.77	455.37
384.15	463.28
384.53	443.84
384.91	462.15
385.29	454.47
385.67	437.52
386.049	476.39
386.429	452.43
386.809	472.77
387.189	467.12
387.568	470.28
387.948	490.17
388.328	506.44
388.707	496.27
389.087	495.37
389.466	465.09
389.846	479.32
390.225	505.09
390.605	490.4
390.984	510.96
391.363	503.28
391.743	502.83
392.122	523.84
392.501	517.97
392.881	514.58
393.26	517.74
393.639	529.27
394.018	514.12
394.397	502.6
394.776	523.84
395.155	523.16
395.534	536.95
395.913	550.96
396.292	564.97
396.671	568.81
397.05	554.58
397.429	542.82
397.808	555.03
398.186	573.11
398.565	569.49
398.944	562.94
399.323	550.28
399.701	594.12
400.08	576.72
400.458	584.41
400.837	571.3
401.215	576.5
401.594	600.68
401.972	606.33
402.351	605.87
402.729	614.69
403.107	615.37
403.486	610.85
403.864	624.4
404.242	625.76
404.62	644.06
404.999	633.22
405.377	659.66
405.755	647
406.133	638.64
406.511	642.48
406.889	642.48
407.267	659.88
407.645	674.8
408.023	680.22
408.401	696.94
408.779	691.97
409.156	699.66
409.534	671.18
409.912	713.44
410.29	726.77
410.667	728.36
411.045	751.86
411.422	727.9
411.8	751.86
412.178	738.07
412.555	753.67
412.933	757.51
413.31	765.19
413.687	785.76
414.065	794.12
414.442	766.77
414.819	822.82
415.197	807.9
415.574	845.42
415.951	837.51
416.328	846.09
416.705	834.57
417.082	844.96
417.46	848.13
417.837	857.62
418.214	842.93
418.591	882.48
418.967	889.48
419.344	872.53
419.721	886.32
420.098	919.09
420.475	921.12
420.852	906.43
421.228	913.89
421.605	901.01
421.982	934.9
422.358	931.29
422.735	950.5
423.111	950.72
423.488	961.34
423.864	950.72
424.241	973.1
424.617	969.03
424.994	998.18
425.37	1000.67
425.746	1025.98
426.123	1001.8
426.499	996.6
426.875	1036.6
427.251	1045.86
427.627	1051.29
428.003	1066.65
428.379	1078.4
428.756	1093.32
429.132	1088.8
429.507	1104.17
429.883	1121.34
430.259	1109.82
430.635	1161.57
431.011	1152.07
431.387	1185.29
431.763	1172.41
432.138	1223.94
432.514	1217.61
432.89	1211.96
433.265	1235.46
433.641	1250.83
434.016	1273.88
434.392	1306.87
434.767	1286.99
435.143	1310.71
435.518	1297.61
435.894	1313.2
436.269	1324.73
436.644	1359.3
437.02	1362.92
437.395	1361.56
437.77	1368.79
438.145	1378.28
438.52	1424.61
438.895	1421.67
439.271	1419.86
439.646	1469.13
440.021	1443.37
440.395	1459.18
440.77	1456.25
441.145	1503.7
441.52	1478.85
441.895	1514.1
442.27	1530.6
442.645	1522.91
443.019	1545.06
443.394	1529.92
443.769	1519.07
444.143	1521.56
444.518	1551.39
444.892	1544.83
445.267	1547.77
445.641	1554.32
446.016	1572.18
446.39	1588.9
446.764	1617.6
447.139	1617.37
447.513	1623.7
447.887	1584.61
448.262	1645.39
448.636	1646.75
449.01	1675.45
449.384	1654.21
449.758	1717.94
450.132	1735.34
450.506	1706.64
450.88	1737.82
451.254	1755.9
451.628	1780.31
452.002	1787.54
452.376	1817.59
452.75	1816.01
453.123	1830.7
453.497	1846.97
453.871	1879.74
454.244	1894.2
454.618	1907.08
454.992	1931.49
455.365	1933.3
455.739	1966.29
456.112	2004.26
456.486	2018.27
456.859	2029.11
457.232	2069.79
457.606	2078.15
457.979	2126.96
458.352	2177.58
458.725	2166.06
459.099	2149.34
459.472	2201.09
459.845	2255.55
460.218	2259.16
460.591	2273.85
460.964	2286.73
461.337	2318.6
461.71	2369.44
462.083	2438.14
462.456	2401.76
462.829	2421.42
463.201	2467.29
463.574	2488.99
463.947	2508.2
464.32	2538.48
464.692	2575.99
465.065	2596.78
465.438	2631.13
465.81	2647.18
466.183	2638.59
466.555	2708.64
466.928	2775.99
467.3	2715.42
467.672	2775.76
468.045	2858.92
468.417	2853.5
468.789	2859.37
469.161	2902.76
469.534	2968.07
469.906	3004.23
470.278	2976.43
470.65	3049.2
471.022	3092.59
471.394	3126.26
471.766	3173.94
472.138	3220.95
472.51	3267.72
472.882	3284.9
473.253	3334.84
473.625	3375.52
473.997	3463.88
474.369	3484.67
474.74	3495.97
475.112	3569.41
475.484	3619.58
475.855	3664.55
476.227	3750.42
476.598	3838.56
476.97	3811.67
477.341	3942.74
477.713	3998.55
478.084	4020.7
478.455	4131.66
478.827	4148.61
479.198	4255.27
479.569	4348.83
479.94	4400.12
480.311	4397.86
480.682	4542.95
481.053	4594.7
481.424	4726.9
481.795	4791.75
482.166	4832.2
482.537	4881.69
482.908	5078.3
483.279	5111.29
483.65	5183.15
484.021	5287.78
484.391	5295.24
484.762	5381.12
485.133	5477.38
485.503	5504.05
485.874	5620.43
486.244	5665.85
486.615	5880.31
486.985	5945.85
487.356	6017.71
487.726	6111.94
488.097	6198.72
488.467	6316.23
488.837	6433.74
489.207	6469.9
489.578	6640.97
489.948	6727.52
490.318	6804.35
490.688	6914.18
491.058	6994.41
491.428	7144.69
491.798	7118.7
492.168	7293.83
492.538	7419.71
492.908	7436.88
493.278	7568.18
493.648	7672.35
494.017	7757.55
494.387	7891.11
494.757	7963.19
495.126	8104.43
495.496	8095.17
495.866	8241.15
496.235	8317.08
496.605	8476.18
496.974	8497.19
497.344	8629.62
497.713	8698.09
498.082	8741.25
498.452	8862.38
498.821	8900.12
499.19	8977.41
499.559	9077.97
499.928	9215.59
500.298	9256.27
500.667	9304.63
501.036	9331.07
501.405	9493.32
501.774	9522.7
502.143	9630.04
502.512	9691.06
502.88	9831.62
503.249	9861.45
503.618	9947.78
503.987	10022.58
504.356	10059.41
504.724	10159.52
505.093	10224.38
505.462	10268.67
505.83	10286.07
506.199	10540.08
506.567	10639.51
506.936	10628.21
507.304	10778.04
507.672	10772.39
508.041	10845.15
508.409	10973.96
508.777	11078.14
509.145	11176.22
509.514	11150
509.882	11233.17
510.25	11369.66
510.618	11402.65
510.986	11411.24
511.354	11566.04
511.722	11732.36
512.09	11801.74
512.458	11704.34
512.826	11895.29
513.193	11964.45
513.561	11988.63
513.929	12061.84
514.297	12174.61
514.664	12312.46
515.032	12419.8
515.4	12603.52
515.767	12576.63
516.135	12610.08
516.502	12587.71
516.869	12865.66
517.237	12855.72
517.604	12848.04
517.972	13047.13
518.339	13172.78
518.706	13231.53
519.073	13272.21
519.44	13347.91
519.808	13586.55
520.175	13513.56
520.542	13726.88
520.909	13752.42
521.276	13872.87
521.643	14003.94
522.009	14091.4
522.376	14131.85
522.743	14311.95
523.11	14516.47
523.477	14514.21
523.843	14656.35
524.21	14760.53
524.577	14903.8
524.943	15037.36
525.31	15220.86
525.676	15227.86
526.043	15382.66
526.409	15487.06
526.776	15585.14
527.142	15695.65
527.508	15862.65
527.874	15958.92
528.241	16094.28
528.607	16140.15
528.973	16278.23
529.339	16429.19
529.705	16524.1
530.071	16617.2
530.437	16713.92
530.803	16927.03
531.169	17005.67
531.535	17067.36
531.901	17129.28
532.267	17234.14
532.632	17332.67
532.998	17443.85
533.364	17547.58
533.73	17641.81
534.095	17714.12
534.461	17766.55
534.826	17947.11
535.192	18015.81
535.557	18119.54
535.923	18227.56
536.288	18194.56
536.653	18316.14
537.019	18443.82
537.384	18443.15
537.749	18576.25
538.114	18495.57
538.479	18649.69
538.845	18661.22
539.21	18747.54
539.575	18840.42
539.94	18871.83
540.305	19099.62
540.67	18980.08
541.034	19041.1
541.399	19235.67
541.764	19337.13
542.129	19351.14
542.494	19479.73
542.858	19531.25
543.223	19460.75
543.587	19619.61
543.952	19590.91
544.316	19770.79
544.681	19697.35
545.045	19919.04
545.41	19840.17
545.774	19938.92
546.138	19991.8
546.503	20039.04
546.867	20079.71
547.231	20201.97
547.595	20382.08
547.959	20363.55
548.324	20382.98
548.688	20481.06
549.052	20599.25
549.416	20522.64
549.779	20631.11
550.143	20638.34
550.507	20826.36
550.871	20899.8
551.235	20868.17
551.599	20989.29
551.962	21046.47
552.326	21154.49
552.689	21171.66
553.053	21027.03
553.417	21230.19
553.78	21406.46
554.143	21513.35
554.507	21455.95
554.87	21634.7
555.234	21739.78
555.597	21760.12
555.96	21810.74
556.323	21991.3
556.686	22044.86
557.05	22120.56
557.413	22128.47
557.776	22085.08
558.139	22494.34
558.502	22379.31
558.865	22506.09
559.228	22742.47
559.59	22684.16
559.953	22836.93
560.316	23129.8
560.679	23076.92
561.041	23111.5
561.404	23240.98
561.767	23581.31
562.129	23504.25
562.492	23662.67
562.854	23743.34
563.217	23690.92
563.579	23954.41
563.941	24047.29
564.304	24265.59
564.666	24353.05
565.028	24416.1
565.39	24615.41
565.753	24668.97
566.115	24783.77
566.477	24871.9
566.839	25017.21
567.201	25197.77
567.563	25308.28
567.925	25458.1
568.287	25545.78
568.648	25570.19
569.01	25795.49
569.372	26026.67
569.734	25971.99
570.095	26315.48
570.457	26448.81
570.819	26552.08
571.18	26579.88
571.542	26833.66
571.903	26762.25
572.265	27082.69
572.626	27211.73
572.987	27253.31
573.349	27453.53
573.71	27497.37
574.071	27738.95
574.432	27917.02
574.794	28146.17
575.155	28120.18
575.516	28180.06
575.877	28312.49
576.238	28391.81
576.599	28622.99
576.96	28672.25
577.32	28838.35
577.681	28993.38
578.042	29215.07
578.403	29283.99
578.763	29266.59
579.124	29400.15
579.485	29757.42
579.845	30038.77
580.206	30027.25
580.566	29994.71
580.927	30299.33
581.287	30498.65
581.648	30536.39
582.008	30798.75
582.368	31024.28
582.728	31069.93
583.089	31222.7
583.449	31266.31
583.809	31729.12
584.169	31994.88
584.529	32110.13
584.889	32425.15
585.249	32491.59
585.609	32686.61
585.969	33095.87
586.329	33278.91
586.688	33582.86
587.048	33906.92
587.408	34143.3
587.768	34360.69
588.127	34834.8
588.487	34957.97
588.846	35624.39
589.206	35766.53
589.565	36091.27
589.925	36731.48
590.284	36931.25
590.643	37233.39
591.003	37717.67
591.362	38309.06
591.721	38715.83
592.08	38962.15
592.44	39579.76
592.799	39921
593.158	40198.96
593.517	40725.72
593.876	41253.84
594.235	41568.86
594.593	41999.59
594.952	42488.84
595.311	42902.39
595.67	43422.83
596.029	43977.39
596.387	44449.47
596.746	44979.4
597.104	45156.34
597.463	45701.41
597.822	46232.02
598.18	46442.41
598.538	46964.88
598.897	47590.4
599.255	47753.79
599.613	48478.51
599.972	48660.88
600.33	49102
600.688	49365.04
601.046	49772.72
601.404	50232.82
601.762	50545.8
602.12	50888.39
602.478	51327.93
602.836	51600.47
603.194	51627.58
603.552	52083.39
603.91	52340.78
604.268	52647.44
604.625	52892.41
604.983	53187.32
605.341	53272.96
605.698	53731.48
606.056	54211.47
606.413	54244.46
606.771	54622.76
607.128	54778.69
607.485	54928.06
607.843	55174.61
608.2	55450.53
608.557	55718.32
608.914	55809.39
609.272	56177.75
609.629	56382.71
609.986	56638.98
610.343	56678.98
610.7	57072.41
611.057	57183.14
611.414	57270.82
611.771	57527.32
612.127	57742.22
612.484	57898.83
612.841	58073.29
613.198	58085.94
613.554	58295.88
613.911	58554.18
614.267	58715.31
614.624	58773.84
614.98	58992.59
615.337	59229.64
615.693	59262.86
616.05	59363.88
616.406	59553.7
616.762	59602.97
617.118	59722.96
617.475	59760.48
617.831	59982.17
618.187	60119.34
618.543	60179.45
618.899	60333.57
619.255	60416.96
619.611	60444.07
619.967	60639.55
620.323	60783.05
620.678	60775.59
621.034	60821.92
621.39	60946.66
621.746	60927
622.101	61319.08
622.457	61100.78
622.812	61275.47
623.168	61336.48
623.523	61367.21
623.879	61537.83
624.234	61483.37
624.589	61551.84
624.945	61629.13
625.3	61733.53
625.655	61750.03
626.01	61845.85
626.365	61894.66
626.72	61802.68
627.075	61793.19
627.43	61920.19
627.785	61915.45
628.14	61966.97
628.495	61987.54
628.85	62077.48
629.205	62055.11
629.559	62131.49
629.914	62083.13
630.269	62080.42
630.623	62044.71
630.978	62017.37
631.332	62143.46
631.687	62213.97
632.041	62126.97
632.396	62160.64
632.75	62140.53
633.104	62225.27
633.459	62087.42
633.813	62142.11
634.167	62115.89
634.521	62128.1
634.875	62222.11
635.229	62184.14
635.583	62038.16
635.937	62032.73
636.291	62049.68
636.645	62085.16
636.999	62000.87
637.352	62114.54
637.706	61879.52
638.06	62121.09
638.413	61950.25
638.767	61851.04
639.121	62036.8
639.474	61864.6
639.828	61920.65
640.181	61866.18
640.534	61913.41
640.888	61806.3
641.241	61746.41
641.594	61815.79
641.947	61896.47
642.301	61817.37
642.654	61844.49
643.007	61703.48
643.36	61783.93
643.713	61655.12
644.066	61806.3
644.419	61616.7
644.771	61437.04
645.124	61232.75
645.477	61191.85
645.83	61108.69
646.182	61098.97
646.535	61025.08
646.888	61048.8
647.24	61023.49
647.593	61117.73
647.945	61010.39
648.298	60934.68
648.65	60851.97
649.002	60745.31
649.355	60732.65
649.707	60729.26
650.059	60750.28
650.411	60987.79
650.763	61117.73
651.115	61395.24
651.467	61338.74
651.819	61353.88
652.171	61330.6
652.523	61242.25
652.875	61276.37
653.227	61157.05
653.578	61326.76
653.93	61248.8
654.282	61115.02
654.633	61098.07
654.985	61151.63
655.337	61192.76
655.688	61093.32
656.039	61194.34
656.391	60961.8
656.742	61020.33
657.094	60973.1
657.445	61060.1
657.796	61024.62
658.147	60898.3
658.498	60952.08
658.849	60976.72
659.2	60851.75
659.551	60835.93
659.902	61037.28
660.253	60853.56
660.604	60905.98
660.955	60819.43
661.306	60870.96
661.656	60827.57
662.007	60776.04
662.358	60797.29
662.708	60810.39
663.059	60745.76
663.409	60618.08
663.76	60747.8
664.11	60742.6
664.461	60780.79
664.811	60788.92
665.161	60735.59
665.511	60665.09
665.862	60694.01
666.212	60700.11
666.562	60764.29
666.912	60630.06
667.262	60668.93
667.612	60583.51
667.962	60611.98
668.312	60630.96
668.662	60727.68
669.011	60632.09
669.361	60641.13
669.711	60664.41
670.06	60580.79
670.41	60515.71
670.76	60555.48
671.109	60648.36
671.459	60543.51
671.808	60542.38
672.157	60595.26
672.507	60517.97
672.856	60529.04
673.205	60536.05
673.554	60584.86
673.904	60471.64
674.253	60712.09
674.602	60518.2
674.951	60232.33
675.3	60087.7
675.649	60502.6
675.998	60496.28
676.346	60492.21
676.695	60520.46
677.044	60418.76
677.393	60462.38
677.741	60494.69
678.09	60466.67
678.438	60349.39
678.787	60390.74
679.135	60384.87
679.484	60237.75
679.832	60324.76
680.181	60260.12
680.529	60271.88
680.877	60190.75
681.225	60175.83
681.573	60361.59
681.922	60181.03
682.27	60144.87
682.618	60106.91
682.966	60111.43
683.314	60073.46
683.661	60068.27
684.009	60002.73
684.357	60006.12
684.705	59904.88
685.053	59945.78
685.4	59834.6
685.748	59848.16
686.095	59820.14
686.443	59695.85
686.79	59707.6
687.138	59792.11
687.485	59721.61
687.832	59703.98
688.18	59679.8
688.527	59526.58
688.874	59640.48
689.221	59626.02
689.568	59458.79
689.915	59442.07
690.262	59516.64
690.609	59443.65
690.956	59368.62
691.303	59295.18
691.65	59219.7
691.997	59194.62
692.344	59115.3
692.69	59081.62
693.037	59058.8
693.383	58925.47
693.73	58945.58
694.077	58811.8
694.423	58866.94
694.769	58785.59
695.116	58781.97
695.462	58716.89
695.808	58501.07
696.155	58638.47
696.501	58504.24
696.847	58525.25
697.193	58265.83
697.539	58368.42
697.885	58215.21
698.231	58157.13
698.577	58139.95
698.923	58192.61
699.269	57981.77
699.614	57896.12
699.96	57803.92
700.306	57847.08
700.651	57736.8
700.997	57636.24
701.342	57586.52
701.688	57598.95
702.033	57478.73
702.379	57462.68
702.724	57364.16
703.069	57432.85
703.415	57167.78
703.76	57133.88
704.105	57149.7
704.45	57048.46
704.795	56927.78
705.14	56852.76
705.485	56820.44
705.83	56750.16
706.175	56767.34
706.52	56691.63
706.865	56607.57
707.209	56568.47
707.554	56434.46
707.899	56542.03
708.243	56364.18
708.588	56382.49
708.932	56203.73
709.277	56216.62
709.621	56069.05
709.966	55991.99
710.31	55997.64
710.654	55804.65
710.998	55836.29
711.342	55895.95
711.687	55798.32
712.031	55709.51
712.375	55544.99
712.719	55540.02
713.063	55594.48
713.407	55644.43
713.75	55495.73
714.094	55420.25
714.438	55307.49
714.782	55244.44
715.125	55179.81
715.469	55236.75
715.812	54975.07
716.156	54956.08
716.499	54944.11
716.843	54991.11
717.186	54786.82
717.53	55012.8
717.873	54895.75
718.216	54920.83
718.559	54692.36
718.902	54507.73
719.246	54567.84
719.589	54503.89
719.932	54434.29
720.275	54383.67
720.617	54384.57
720.96	54347.74
721.303	54383.44
721.646	54485.81
721.989	54097.12
722.331	54279.49
722.674	54174.63
723.016	54181.64
723.359	53968.54
723.701	54044.02
724.044	53926.28
724.386	53734.19
724.729	53913.62
725.071	53849.67
725.413	53818.49
725.755	53739.17
726.097	53653.97
726.439	53562.45
726.782	53473.18
727.124	53633.18
727.465	53546.63
727.807	53403.36
728.149	53423.47
728.491	53352.28
728.833	53385.28
729.175	53300.53
729.516	53124.49
729.858	53169.46
730.199	53304.83
730.541	53064.61
730.882	53065.06
731.224	53071.84
731.565	52905.97
731.906	53002.46
732.248	53030.03
732.589	52842.01
732.93	52787.33
733.271	52826.87
733.612	52806.99
733.953	52831.17
734.294	52727.67
734.635	52634.79
734.976	52686.76
735.317	52439.77
735.658	52425.08
735.999	52425.53
736.339	52403.38
736.68	52476.15
737.021	52367.68
737.361	52214.69
737.702	52463.27
738.042	52297.85
738.383	52233.89
738.723	52177.17
739.063	52201.81
739.404	52167.23
739.744	52083.62
740.084	52018.08
740.424	52087.46
740.764	51984.64
741.104	52140.56
741.444	51880.01
741.784	51791.65
742.124	51877.75
742.464	51758.65
742.804	51837.52
743.143	51658.09
743.483	51687.02
743.823	51556.62
744.162	51587.58
744.502	51512.56
744.841	51333.81
745.181	51562.05
745.52	51327.03
745.86	51413.35
746.199	51342.62
746.538	51310.76
746.877	51397.98
747.216	51279.8
747.556	51176.52
747.895	51209.52
748.234	51042.97
748.573	51139.23
748.911	51025.34
749.25	51021.27
749.589	50837.1
749.928	50963.19
750.267	50885.46
750.605	50800.71
750.944	50687.95
751.283	50649.08
751.621	50851.78
751.96	50610.89
752.298	50532.7
752.636	50489.99
752.975	50369.31
753.313	50169.32
753.651	50421.74
753.989	50201.86
754.327	50097.45
754.666	49951.02
755.004	50111.92
755.342	49946.5
755.679	50012.03
756.017	49760.51
756.355	49851.36
756.693	49579.95
757.031	49704.47
757.368	49528.66
757.706	49445.04
758.044	49406.17
758.381	49339.96
758.719	49122.56
759.056	49231.94
759.394	48981.78
759.731	48706.98
760.068	48762.57
760.405	48681.22
760.743	48443.71
761.08	48569.36
761.417	48270.84
761.754	48307.67
762.091	48280.33
762.428	47979.54
762.765	47843.95
763.102	47967.34
763.438	47658.42
763.775	47363.74
764.112	47603.06
764.449	47409.62
764.785	47231.54
765.122	47077.65
765.458	46980.7
765.795	46703.87
766.131	46894.6
766.467	46669.52
766.804	46321.96
767.14	46381.62
767.476	46155.18
767.812	46075.41
768.148	46011.01
768.485	45927.39
768.821	45561.53
769.157	45475.2
769.492	45353.85
769.828	45336.22
770.164	44996.57
770.5	44817.82
770.836	44850.81
771.171	44868.89
771.507	44575.79
771.842	44350.94
772.178	44229.36
772.513	44288.12
772.849	44026.2
773.184	43959.08
773.519	43857.62
773.855	43675.7
774.19	43567.46
774.525	43338.76
774.86	43436.84
775.195	42962.05
775.53	42904.87
775.865	42654.49
776.2	42487.71
776.535	42295.4
776.87	42266.25
777.205	42034.16
777.539	41906.03
777.874	41829.65
778.209	41582.88
778.543	41586.27
778.878	41293.39
779.212	41210.91
779.547	40955.1
779.881	41015.88
780.215	40714.42
780.55	40823.12
780.884	40419.74
781.218	40375
781.552	40438.72
781.886	40254.55
782.22	39865.18
782.554	39858.85
782.888	39530.5
783.222	39461.35
783.556	39344.06
783.889	38990.18
784.223	38844.87
784.557	38811.2
784.89	38925.54
785.224	38639.22
785.557	38432.45
785.891	38339.35
786.224	38450.53
786.558	38236.97
786.891	38106.13
787.224	37716.31
787.557	37706.14
787.891	37559.93
788.224	37396.77
788.557	37393.61
788.89	37342.31
789.223	37230.22
789.556	36952.04
789.888	36803.34
790.221	36722.44
790.554	36574.87
790.887	36501.43
791.219	36299.17
791.552	36276.35
791.884	36183.24
792.217	35945.51
792.549	35821.67
792.882	35659.87
793.214	35544.16
793.546	35458.97
793.879	35230.27
794.211	34955.71
794.543	35166.55
794.875	34995.25
795.207	34938.76
795.539	34777.18
795.871	34916.16
796.203	34574.47
796.535	34389.17
796.867	34362.27
797.198	34219.23
797.53	34092.68
797.862	33892
798.193	34017.88
798.525	33783.08
798.856	33839.12
799.188	33385.58
799.519	33318.01
799.85	33323.66
800.182	33161.4
800.513	33198.46
800.844	32645.94
801.175	33102.87
801.506	32986.49
801.837	32734.29
802.168	32778.14
802.499	32759.38
802.83	32336.34
803.161	32352.84
803.491	32294.53
803.822	32446.62
804.153	32048.89
804.483	31762.12
804.814	31723.7
805.145	31731.16
805.475	31732.51
805.805	31690.25
806.136	31591.27
806.466	31452.07
806.796	31415.46
807.126	31314.9
807.457	31168.69
807.787	31120.55
808.117	31148.12
808.447	30867
808.777	31053.89
809.107	30776.61
809.436	30552.88
809.766	30593.11
810.096	30588.14
810.426	30415.26
810.755	30643.73
811.085	30316.28
811.414	30249.61
811.744	30154.93
812.073	30103.63
812.403	30027.02
812.732	29947.7
813.061	30027.93
813.39	29710.87
813.719	29535.51
814.049	29802.39
814.378	29720.81
814.707	29461.16
815.036	29493.93
815.365	29357.66
815.693	29190.21
816.022	29103.43
816.351	29082.87
816.68	28915.64
817.008	29009.87
817.337	28754.29
817.665	28834.96
817.994	28792.25
818.322	28920.38
818.651	28717.45
818.979	28577.79
819.307	28630.67
819.636	28629.77
819.964	28467.97
820.292	28442.2
820.62	28349.55
820.948	28406.72
821.276	28484.01
821.604	28355.65
821.932	28531.69
822.259	28372.6
822.587	28481.98
822.915	28425.03
823.243	28459.6
823.57	28283.79
823.898	28408.76
824.225	28332.15
824.553	28204.24
824.88	28195.43
825.207	28300.29
825.535	28170.12
825.862	28328.08
826.189	28260.51
826.516	28350.23
826.843	28385.93
827.17	28382.32
827.497	28244.02
827.824	28389.1
828.151	28410.11
828.478	28197.24
828.805	28481.07
829.131	28271.81
829.458	28452.15
829.785	28059.39
830.111	28237.69
830.438	28335.99
830.764	28179.61
831.09	28300.96
831.417	28116.56
831.743	28316.78
832.069	28234.53
832.395	28046.28
832.722	28157.47
833.048	27986.17
833.374	28234.53
833.7	28091.48
834.026	28240.85
834.351	28059.84
834.677	28079.05
835.003	28148.2
835.329	27971.71
835.654	27989.33
835.98	27877.25
836.306	27970.13
836.631	27778.04
836.956	28032.5
837.282	27959.96
837.607	27765.84
837.932	27796.57
838.258	27694.88
838.583	27632.28
838.908	27525.17
839.233	27664.15
839.558	27579.4
839.883	27477.26
840.208	27216.93
840.533	27287.88
840.858	27307.54
841.182	27394.1
841.507	27391.84
841.832	27183.03
842.156	27238.85
842.481	27148.9
842.805	27017.16
843.13	26915.92
843.454	26913.66
843.778	26854.9
844.103	26816.94
844.427	26771.29
844.751	26809.93
845.075	26713.66
845.399	26569.26
845.723	26340.56
846.047	26560.67
846.371	26319.55
846.695	26226.44
847.019	26268.48
847.343	25990.74
847.666	25982.38
847.99	25775.61
848.313	25597.76
848.637	25599.12
848.96	25660.81
849.284	25567.7
849.607	25254.04
849.931	25261.5
850.254	25079.13
850.577	24942.18
850.9	24828.97
851.223	24796.88
851.546	24690.21
851.869	24656.54
852.192	24784.9
852.515	24517.56
852.838	24294.52
853.161	24300.39
853.483	24217.23
853.806	24003
854.129	24056.33
854.451	23994.86
854.774	23967.97
855.096	23697.02
855.419	23753.97
855.741	23623.57
856.063	23579.73
856.385	23533.41
856.708	23417.25
857.03	23394.2
857.352	23320.3
857.674	23358.27
857.996	23165.73
858.318	23075.11
858.64	23132.97
858.961	23002.8
859.283	22882.58
859.605	22813.2
859.926	22748.57
860.248	22627.89
860.57	22521.91
860.891	22547.9
861.212	22623.83
861.534	22518.97
861.855	22369.6
862.176	22342.7
862.498	22385.64
862.819	22432.64
863.14	22297.73
863.461	22169.15
863.782	22149.49
864.103	22067.68
864.424	22053.67
864.745	22154.91
865.065	21979.1
865.386	22045.99
865.707	22063.16
866.027	21890.51
866.348	21779.55
866.668	21787.46
866.989	21815.03
867.309	21673.57
867.63	21583.63
867.95	21726.22
868.27	21429.73
868.59	21632.89
868.91	21451.65
869.23	21500.24
869.55	21321.26
869.87	21523.97
870.19	21347.7
870.51	21295.05
870.83	21337.31
871.15	21132.79
871.469	21194.94
871.789	21273.35
872.109	21174.37
872.428	21060.93
872.748	21116.97
873.067	20995.85
873.386	21150.19
873.706	20986.81
874.025	20984.55
874.344	20783.65
874.663	20874.27
874.982	20799.02
875.301	20879.47
875.62	20712.01
875.939	20654.84
876.258	20702.07
876.577	20587.04
876.896	20676.76
877.214	20582.98
877.533	20509.53
877.852	20479.7
878.17	20561.28
878.489	20586.14
878.807	20406.71
879.125	20384.34
879.444	20325.36
879.762	20340.95
880.08	20343.21
880.398	20144.57
880.716	20108.19
881.034	20110.9
881.352	20198.58
881.67	20100.05
881.988	20084.01
882.306	20027.28
882.624	19927.4
882.941	19856.44
883.259	19852.6
883.577	19778.48
883.894	19688.08
884.212	19788.87
884.529	19629.78
884.846	19570.8
885.164	19489.9
885.481	19461.2
885.798	19644.24
886.115	19372.16
886.432	19426.17
886.75	19223.92
887.067	19379.17
887.383	19246.29
887.7	19349.79
888.017	19147.31
888.334	19086.52
888.651	19064.6
888.967	19072.51
889.284	18989.12
889.6	18945.73
889.917	18773.31
890.233	18832.51
890.55	18767.88
890.866	18776.92
891.182	18724.27
891.498	18634.78
891.815	18537.83
892.131	18374.22
892.447	18520.88
892.763	18432.52
893.079	18354.33
893.395	18276.6
893.71	18330.15
894.026	18132.87
894.342	18162.93
894.657	18060.56
894.973	18011.97
895.289	17971.52
895.604	17835.25
895.92	17832.31
896.235	17755.48
896.55	17809.04
896.865	17694.24
897.181	17610.4
897.496	17493.79
897.811	17469.61
898.126	17388.03
898.441	17372.21
898.756	17327.24
899.071	17219.9
899.386	17306
899.7	17198.88
900.015	16992.34
900.33	16920.25
900.644	16915.73
900.959	16965.67
901.273	16835.28
901.588	16715.51
901.902	16602.97
902.216	16668.05
902.531	16567.71
902.845	16477.77
903.159	16399.36
903.473	16271
903.787	16280.72
904.101	16188.74
904.415	16180.38
904.729	16172.92
905.042	16113.26
905.356	16079.37
905.67	16097.9
905.984	16046.37
906.297	15889.31
906.611	15782.88
906.924	15708.08
907.237	15672.82
907.551	15640.28
907.864	15588.98
908.177	15562.32
908.491	15431.7
908.804	15341.53
909.117	15319.16
909.43	15182.21
909.743	15112.16
910.056	15099.28
910.368	15044.59
910.681	15000.07
910.994	14981.54
911.307	14892.28
911.619	14677.59
911.932	14825.61
912.244	14676.69
912.557	14723.92
912.869	14415.68
913.181	14557.82
913.494	14437.37
913.806	14385.17
914.118	14341.11
914.43	14223.82
914.742	14274.44
915.054	14163.26
915.366	14122.13
915.678	14003.26
915.99	13915.35
916.302	13849.37
916.613	13808.46
916.925	13789.03
917.236	13780.89
917.548	13645.53
917.859	13614.57
918.171	13576.38
918.482	13372.32
918.794	13532.54
919.105	13448.02
919.416	13292.77
919.727	13354.01
920.038	13230.63
920.349	13119.9
920.66	13086.22
920.971	13089.84
921.282	13014.81
921.593	12913.8
921.903	12811.43
922.214	12838.77
922.525	12757.87
922.835	12714.71
923.146	12609.4
923.456	12576.18
923.767	12504.09
924.077	12473.36
924.387	12490.53
924.697	12348.84
925.008	12312.01
925.318	12222.52
925.628	12288.96
925.938	12157.21
926.248	12078.57
926.558	11989.08
926.867	12022.52
927.177	11969.87
927.487	11844.67
927.796	11815.3
928.106	11764.22
928.416	11753.83
928.725	11684.9
929.034	11593.83
929.344	11608.07
929.653	11602.19
929.962	11501.63
930.271	11403.33
930.581	11417.79
930.89	11371.69
931.199	11307.29
931.508	11245.37
931.817	11198.59
932.125	11256.44
932.434	11164.92
932.743	11070.91
933.051	10987.3
933.36	11009.89
933.669	10891.71
933.977	10854.42
934.286	10799.73
934.594	10799.28
934.902	10744.36
935.21	10657.59
935.519	10580.07
935.827	10536.01
936.135	10482.45
936.443	10456.01
936.751	10398.61
937.059	10488.55
937.367	10310.48
937.674	10353.19
937.982	10301.21
938.29	10242
938.597	10179.41
938.905	10137.6
939.213	10069.58
939.52	9994.33
939.827	10055.34
940.135	9984.16
940.442	9873.2
940.749	9829.59
941.056	9940.32
941.363	9757.95
941.67	9734.45
941.977	9655.81
942.284	9654.22
942.591	9640.66
942.898	9602.93
943.205	9593.43
943.511	9459.88
943.818	9462.36
944.125	9321.12
944.431	9376.49
944.738	9318.19
945.044	9281.13
945.35	9201.58
945.657	9168.36
945.963	9176.72
946.269	9081.36
946.575	9075.71
946.881	9002.04
947.187	8950.51
947.493	8904.64
947.799	8931.08
948.105	8833
948.41	8747.35
948.716	8749.16
949.022	8713.91
949.327	8675.04
949.633	8620.13
949.938	8583.74
950.244	8585.78
950.549	8567.25
950.854	8467.14
951.16	8452.22
951.465	8335.84
951.77	8377.19
952.075	8322.73
952.38	8328.83
952.685	8343.52
952.99	8289.74
953.294	8247.25
953.599	8125
953.904	8079.8
954.209	8064.89
954.513	8081.84
954.818	8051.55
955.122	8040.71
955.426	7947.83
955.731	7894.95
956.035	7813.37
956.339	7826.7
956.643	7830.99
956.948	7763.43
957.252	7726.14
957.556	7706.25
957.86	7596.65
958.163	7661.06
958.467	7622.19
958.771	7618.34
959.075	7497.22
959.378	7503.55
959.682	7443.66
959.985	7436.2
960.289	7358.46
960.592	7338.58
960.896	7259.03
961.199	7305.58
961.502	7230.11
961.805	7195.31
962.108	7193.95
962.411	7187.17
962.714	7111.92
963.017	7035.54
963.32	7078.25
963.623	6962.54
963.926	7024.91
964.228	6951.47
964.531	6894.97
964.833	6913.05
965.136	6844.81
965.438	6813.62
965.741	6779.04
966.043	6765.03
966.345	6763.23
966.648	6703.34
966.95	6686.62
967.252	6624.92
967.554	6622.89
967.856	6551.03
968.158	6531.59
968.46	6565.49
968.761	6471.48
969.063	6443.01
969.365	6475.32
969.666	6427.87
969.968	6373.41
970.269	6308.1
970.571	6318.04
970.872	6301.32
971.174	6233.52
971.475	6239.4
971.776	6203.01
972.077	6153.75
972.378	6117.82
972.679	6101.55
972.98	6104.26
973.281	6020.19
973.582	6065.39
973.883	6022.23
974.183	5978.39
974.484	5914.66
974.785	5889.12
975.085	5917.37
975.386	5910.14
975.686	5864.94
975.986	5826.75
976.287	5765.29
976.587	5702.69
976.887	5727.1
977.187	5716.25
977.487	5687.1
977.787	5659.3
978.087	5594.67
978.387	5602.13
978.687	5584.05
978.987	5513.32
979.286	5518.06
979.586	5510.38
979.885	5475.35
980.185	5405.3
980.484	5407.78
980.784	5337.73
981.083	5381.57
981.382	5369.36
981.682	5317.16
981.981	5306.32
982.28	5273.55
982.579	5273.1
982.878	5222.93
983.177	5195.58
983.475	5149.71
983.774	5151.97
984.073	5110.39
984.372	5102.48
984.67	5039.2
984.969	5054.57
985.267	5030.84
985.566	4994.46
985.864	4982.26
986.162	4974.57
986.461	4945.19
986.759	4944.06
987.057	4820
987.355	4801.7
987.653	4873.56
987.951	4838.53
988.249	4800.79
988.547	4815.71
988.844	4725.54
989.142	4730.29
989.44	4662.04
989.737	4680.57
990.035	4653.68
990.332	4641.02
990.63	4586.56
990.927	4585.66
991.224	4598.31
991.521	4563.96
991.819	4546.79
992.116	4525.32
992.413	4487.81
992.71	4470.41
993.006	4438.54
993.303	4432.44
993.6	4340.92
993.897	4359.22
994.193	4354.93
994.49	4317.87
994.787	4310.64
995.083	4238.77
995.379	4275.38
995.676	4210.3
995.972	4232.45
996.268	4172.56
996.565	4136.4
996.861	4161.26
997.157	4100.47
997.453	4123.75
997.749	4100.7
998.044	4040.36
998.34	4033.13
998.636	4028.38
998.932	4029.74
999.227	3967.59
999.523	3954.03
999.818	3900.93
1000.114	3933.47
1000.409	3904.09
1000.704	3829.52
1001	3813.93
1001.295	3804.21
1001.59	3848.73
1001.885	3805.34
1002.18	3748.39
1002.475	3744.32
1002.77	3679.01
1003.065	3735.06
1003.359	3664.1
1003.654	3670.43
1003.949	3634.49
1004.243	3601.95
1004.538	3583.87
1004.832	3577.32
1005.127	3517.89
1005.421	3496.87
1005.715	3479.92
1006.009	3494.61
1006.304	3474.95
1006.598	3434.05
1006.892	3424.56
1007.186	3343.88
1007.48	3396.53
1007.773	3369.19
1008.067	3316.99
1008.361	3291
1008.655	3318.34
1008.948	3270.66
1009.242	3298.01
1009.535	3185.92
1009.829	3218.01
1010.122	3147.28
1010.415	3127.62
1010.708	3168.74
1011.001	3126.71
1011.295	3133.49
1011.588	3101.18
1011.881	3041.29
1012.173	3053.04
1012.466	3032.7
1012.759	3005.58
1013.052	3045.36
1013.344	2976.89
1013.637	2965.13
1013.93	2969.2
1014.222	2931.01
1014.514	2873.16
1014.807	2898.02
1015.099	2877.23
1015.391	2854.63
1015.683	2799.94
1015.976	2798.36
1016.268	2800.39
1016.56	2788.64
1016.851	2745.48
1017.143	2741.86
1017.435	2727.63
1017.727	2693.5
1018.018	2662.54
1018.31	2639.27
1018.602	2621.19
1018.893	2625.48
1019.185	2581.42
1019.476	2594.97
1019.767	2586.61
1020.058	2540.06
1020.35	2493.51
1020.641	2523.79
1020.932	2514.75
1021.223	2498.93
1021.514	2434.07
1021.804	2389.78
1022.095	2410.57
1022.386	2412.61
1022.677	2386.62
1022.967	2379.39
1023.258	2379.84
1023.548	2353.4
1023.839	2305.72
1024.129	2292.61
1024.419	2277.92
1024.709	2244.93
1025	2256.45
1025.29	2244.7
1025.58	2243.8
1025.87	2178.71
1026.16	2213.06
1026.449	2214.19
1026.739	2145.04
1027.029	2147.53
1027.319	2130.81
1027.608	2113.18
1027.898	2101.2
1028.187	2073.63
1028.477	2082.67
1028.766	2035.21
1029.055	2038.15
1029.344	2016.91
1029.634	2020.75
1029.923	1997.25
1030.212	1958.15
1030.501	1951.83
1030.79	1942.79
1031.078	1952.05
1031.367	1940.53
1031.656	1908.66
1031.945	1889.23
1032.233	1892.17
1032.522	1857.82
1032.81	1847.2
1033.099	1855.78
1033.387	1821.66
1033.675	1803.81
1033.963	1829.57
1034.251	1777.14
1034.54	1755.45
1034.828	1734.21
1035.116	1707.31
1035.403	1716.13
1035.691	1730.14
1035.979	1696.01
1036.267	1687.65
1036.554	1681.55
1036.842	1656.02
1037.129	1664.15
1037.417	1632.51
1037.704	1633.19
1037.992	1616.24
1038.279	1602.01
1038.566	1583.02
1038.853	1583.02
1039.14	1583.02
