Data from 166_FLMS001491_010.txt Node
Date: Thu Apr 19 16:18:38 BST 2018
User: hsy
Spectrometer: FLMS00149
Trigger mode: 0
Integration Time (sec): 1.000000E-2
Scans to average: 10
Electric dark correction enabled: true
Nonlinearity correction enabled: false
Boxcar width: 0
XAxis mode: Wavelengths
Number of Pixels in Spectrum: 2048
>>>>>Begin Spectral Data<<<<<
341.393	-4.52
341.776	-4.52
342.16	-4.52
342.543	-43.61
342.927	-56.72
343.31	-88.81
343.693	-63.28
344.077	-51.75
344.46	-54.01
344.843	-53.11
345.226	-46.33
345.61	-20.11
345.993	-21.69
346.376	-4.07
346.759	19.43
347.142	28.93
347.525	41.35
347.908	39.1
348.291	71.41
348.674	84.74
349.057	118.19
349.44	132.65
349.823	141.69
350.206	167.91
350.588	223.04
350.971	265.08
351.354	268.24
351.737	281.57
352.119	308.01
352.502	297.39
352.884	307.34
353.267	350.05
353.65	329.03
354.032	334.45
354.414	346.43
354.797	375.36
355.179	371.29
355.562	371.52
355.944	377.62
356.326	366.77
356.709	386.88
357.091	404.96
357.473	404.06
357.855	379.88
358.238	411.29
358.62	377.39
359.002	404.06
359.384	376.49
359.766	383.27
360.148	376.26
360.53	382.81
360.912	386.2
361.294	389.14
361.676	380.1
362.057	384.62
362.439	380.1
362.821	377.39
363.203	396.15
363.584	364.96
363.966	371.29
364.348	376.94
364.729	386.88
365.111	363.38
365.493	386.66
365.874	381.68
366.256	388.92
366.637	381.46
367.019	373.78
367.4	374
367.781	365.64
368.163	376.04
368.544	367.67
368.925	352.53
369.306	380.78
369.688	395.7
370.069	381.91
370.45	369.48
370.831	372.87
371.212	387.33
371.593	387.56
371.974	378.07
372.355	372.65
372.736	386.66
373.117	397.96
373.498	376.71
373.879	378.52
374.26	401.12
374.641	364.51
375.021	368.13
375.402	395.7
375.783	404.51
376.163	412.19
376.544	414.9
376.925	382.81
377.305	390.95
377.686	407.9
378.066	403.15
378.447	416.26
378.827	385.98
379.208	425.07
379.588	401.35
379.968	427.11
380.349	409.71
380.729	421.46
381.109	420.78
381.489	434.79
381.87	413.55
382.25	435.69
382.63	421.23
383.01	436.15
383.39	404.96
383.77	423.49
384.15	466.2
384.53	445.86
384.91	463.04
385.29	422.59
385.67	450.61
386.049	478.41
386.429	453.32
386.809	446.54
387.189	462.59
387.568	436.37
387.948	446.54
388.328	461
388.707	481.8
389.087	489.25
389.466	481.34
389.846	482.93
390.225	484.28
390.605	501.23
390.984	484.96
391.363	503.49
391.743	499.87
392.122	488.12
392.501	491.51
392.881	509.14
393.26	522.7
393.639	532.64
394.018	533.55
394.397	529.7
394.776	524.73
395.155	522.92
395.534	538.74
395.913	528.57
396.292	536.94
396.671	535.81
397.05	538.06
397.429	542.58
397.808	559.53
398.186	534.9
398.565	557.27
398.944	542.81
399.323	563.38
399.701	569.25
400.08	559.08
400.458	543.71
400.837	583.71
401.215	565.18
401.594	544.84
401.972	581.68
402.351	567.22
402.729	598.18
403.107	598.63
403.486	579.19
403.864	594.79
404.242	594.11
404.62	596.14
404.999	600.89
405.377	616.93
405.755	597.72
406.133	597.72
406.511	643.6
406.889	617.16
407.267	657.16
407.645	631.85
408.023	636.14
408.401	662.13
408.779	646.54
409.156	669.36
409.534	662.36
409.912	681.79
410.29	688.12
410.667	690.83
411.045	706.87
411.422	707.55
411.8	705.29
412.178	729.25
412.555	730.83
412.933	730.15
413.31	753.2
413.687	747.78
414.065	759.53
414.442	763.82
414.819	799.53
415.197	790.49
415.574	802.01
415.951	787.78
416.328	795.46
416.705	773.31
417.082	817.38
417.46	811.96
417.837	826.42
418.214	795.46
418.591	828.23
418.967	832.97
419.344	816.93
419.721	839.75
420.098	840.66
420.475	828.68
420.852	847.66
421.228	874.55
421.605	878.17
421.982	867.1
422.358	893.08
422.735	902.8
423.111	894.67
423.488	919.07
423.864	935.79
424.241	936.92
424.617	936.47
424.994	948
425.37	929.02
425.746	937.15
426.123	939.41
426.499	964.72
426.875	966.3
427.251	993.19
427.627	982.35
428.003	1027.09
428.379	1000.65
428.756	1037.26
429.132	1056.47
429.507	1072.51
429.883	1046.07
430.259	1046.75
430.635	1062.57
431.011	1088.56
431.387	1068.9
431.763	1094.89
432.138	1115.45
432.514	1141.89
432.89	1145.51
433.265	1147.54
433.641	1185.73
434.016	1196.13
434.392	1215.79
434.767	1211.27
435.143	1215.56
435.518	1218.95
435.894	1242
436.269	1239.97
436.644	1263.02
437.02	1267.54
437.395	1260.53
437.77	1306.63
438.145	1300.08
438.52	1323.13
438.895	1314.77
439.271	1322.45
439.646	1339.63
440.021	1345.73
440.395	1363.81
440.77	1350.7
441.145	1375.33
441.52	1363.58
441.895	1384.82
442.27	1397.03
442.645	1384.82
443.019	1419.4
443.394	1415.56
443.769	1449
444.143	1431.37
444.518	1443.13
444.892	1446.06
445.267	1438.38
445.641	1474.99
446.016	1479.96
446.39	1480.64
446.764	1517.93
447.139	1498.72
447.513	1505.27
447.887	1489.45
448.262	1499.4
448.636	1531.49
449.01	1522.9
449.384	1556.8
449.758	1556.34
450.132	1571.26
450.506	1598.15
450.88	1609.45
451.254	1595.66
451.628	1618.49
452.002	1647.87
452.376	1673.4
452.75	1705.27
453.123	1664.36
453.497	1691.93
453.871	1719.95
454.244	1772.61
454.618	1760.18
454.992	1773.06
455.365	1801.76
455.739	1834.3
456.112	1837.24
456.486	1900.74
456.859	1897.8
457.232	1898.71
457.606	1906.39
457.979	1970.12
458.352	1980.96
458.725	1959.04
459.099	2027.74
459.472	2052.83
459.845	2049.21
460.218	2086.27
460.591	2097.12
460.964	2131.02
461.337	2157.01
461.71	2186.16
462.083	2191.81
462.456	2222.54
462.829	2204.24
463.201	2286.72
463.574	2269.54
463.947	2287.85
464.32	2327.62
464.692	2368.75
465.065	2324.68
465.438	2390.9
465.81	2420.05
466.183	2446.49
466.555	2474.51
466.928	2473.38
467.3	2510.89
467.672	2531.46
468.045	2590.89
468.417	2573.72
468.789	2586.6
469.161	2635.41
469.534	2660.04
469.906	2742.98
470.278	2702.98
470.65	2761.06
471.022	2824.78
471.394	2860.94
471.766	2932.35
472.138	2919.7
472.51	2967.38
472.882	2969.64
473.253	3042.86
473.625	3076.08
473.997	3130.09
474.369	3134.15
474.74	3190.42
475.112	3275.85
475.484	3306.81
475.855	3372.57
476.227	3405.56
476.598	3489.63
476.97	3547.48
477.341	3526.01
477.713	3630.64
478.084	3645.1
478.455	3714.93
478.827	3776.85
479.198	3903.17
479.569	3864.53
479.94	3969.61
480.311	4038.76
480.682	4098.65
481.053	4231.98
481.424	4284.86
481.795	4351.75
482.166	4386.78
482.537	4454.12
482.908	4544.06
483.279	4576.38
483.65	4686.43
484.021	4776.82
484.391	4859.08
484.762	4895.01
485.133	4946.31
485.503	4987.21
485.874	5176.81
486.244	5234.21
486.615	5318.28
486.985	5416.13
487.356	5481.89
487.726	5533.41
488.097	5685.05
488.467	5745.84
488.837	5861.54
489.207	5932.73
489.578	5993.74
489.948	6142.66
490.318	6203.9
490.688	6260.4
491.058	6373.39
491.428	6458.36
491.798	6512.82
492.168	6680.95
492.538	6744.91
492.908	6855.19
493.278	6992.36
493.648	7017.89
494.017	7115.07
494.387	7259.47
494.757	7270.54
495.126	7376.76
495.496	7411.78
495.866	7548.73
496.235	7572.23
496.605	7769.74
496.974	7781.04
497.344	7895.39
497.713	7988.72
498.082	8028.26
498.452	8114.14
498.821	8203.63
499.19	8273
499.559	8340.12
499.928	8421.7
500.298	8544.18
500.667	8668.7
501.036	8672.99
501.405	8740.56
501.774	8802.48
502.143	8915.47
502.512	8973.78
502.88	9092.64
503.249	9114.79
503.618	9216.93
503.987	9263.71
504.356	9356.82
504.724	9462.8
505.093	9496.7
505.462	9544.16
505.83	9633.42
506.199	9773.3
506.567	9786.41
506.936	9904.6
507.304	9965.16
507.672	10106.85
508.041	10119.73
508.409	10236.57
508.777	10313.4
509.145	10384.81
509.514	10354.76
509.882	10471.59
510.25	10464.58
510.618	10584.13
510.986	10665.03
511.354	10712.03
511.722	10855.76
512.09	10957.23
512.458	10995.19
512.826	11088.07
513.193	11193.15
513.561	11239.25
513.929	11270.44
514.297	11428.85
514.664	11469.98
515.032	11542.75
515.4	11574.61
515.767	11679.24
516.135	11810.31
516.502	11680.37
516.869	11918.78
517.237	11985.9
517.604	11912.23
517.972	12197.65
518.339	12269.28
518.706	12290.98
519.073	12413.68
519.44	12425.66
519.808	12530.29
520.175	12595.15
520.542	12694.13
520.909	12871.53
521.276	12878.31
521.643	13154
522.009	13062.48
522.376	13210.73
522.743	13256.37
523.11	13485.52
523.477	13653.2
523.843	13637.16
524.21	13870.37
524.577	13988.78
524.943	14029.46
525.31	14188.33
525.676	14310.58
526.043	14411.37
526.409	14368.89
526.776	14562.78
527.142	14756.22
527.508	14800.97
527.874	14915.54
528.241	15053.39
528.607	15145.82
528.973	15247.96
529.339	15317.79
529.705	15461.51
530.071	15569.99
530.437	15663.09
530.803	15762.52
531.169	15846.81
531.535	15881.62
531.901	15965.46
532.267	16069.41
532.632	16206.81
532.998	16307.82
533.364	16385.33
533.73	16431.21
534.095	16583.07
534.461	16583.29
534.826	16788.71
535.192	16777.86
535.557	16998.88
535.923	16995.94
536.288	17175.82
536.653	17197.29
537.019	17131.98
537.384	17320.67
537.749	17325.87
538.114	17374.68
538.479	17392.99
538.845	17537.17
539.21	17665.75
539.575	17672.08
539.94	17669.59
540.305	17859.19
540.67	17820.32
541.034	17886.31
541.399	17961.11
541.764	18073.42
542.129	18023.03
542.494	18094.89
542.858	18239.97
543.223	18242.23
543.587	18381.21
543.952	18387.09
544.316	18425.05
544.681	18413.98
545.045	18622.34
545.41	18724.25
545.774	18626.63
546.138	18743.91
546.503	18829.34
546.867	18886.96
547.231	18950.01
547.595	18919.95
547.959	19074.75
548.324	19072.49
548.688	19149.33
549.052	19161.3
549.416	19144.13
549.779	19209.44
550.143	19289.66
550.507	19429.09
550.871	19515.65
551.235	19508.64
551.599	19634.96
551.962	19676.09
552.326	19700.5
552.689	19806.26
553.053	19748.41
553.417	19861.17
553.78	20148.85
554.143	20125.12
554.507	20189.98
554.87	20150.88
555.234	20294.16
555.597	20271.33
555.96	20425.45
556.323	20512.45
556.686	20543.87
557.05	20665.9
557.413	20722.84
557.776	20791.77
558.139	20955.38
558.502	20961.48
558.865	21063.63
559.228	21204.64
559.59	21262.04
559.953	21391.98
560.316	21565.31
560.679	21576.38
561.041	21766.66
561.404	21763.72
561.767	22022.92
562.129	22010.95
562.492	22162.36
562.854	22251.39
563.217	22206.87
563.579	22283.26
563.941	22548.79
564.304	22636.69
564.666	22702.23
565.028	22806.63
565.39	22783.81
565.753	22987.64
566.115	23140.86
566.477	23155.55
566.839	23262.44
567.201	23573.39
567.563	23651.81
567.925	23822.88
568.287	23833.95
568.648	23898.35
569.01	24037.33
569.372	24273.26
569.734	24252.47
570.095	24497.66
570.457	24650.65
570.819	24640.03
571.18	24686.13
571.542	24998.89
571.903	24934.03
572.265	25085.89
572.626	25213.35
572.987	25261.03
573.349	25504.64
573.71	25665.99
574.071	25853.11
574.432	25968.81
574.794	26153.44
575.155	26148.01
575.516	26172.87
575.877	26344.17
576.238	26415.8
576.599	26567.66
576.96	26672.07
577.32	26826.41
577.681	26952.29
578.042	27059.85
578.403	27393.18
578.763	27401.99
579.124	27480.86
579.485	27736.9
579.845	27971.47
580.206	27893.28
580.566	28129.66
580.927	28206.49
581.287	28603.77
581.648	28555.41
582.008	28794.72
582.368	28951.1
582.728	29231.1
583.089	29356.29
583.449	29534.82
583.809	29788.6
584.169	29947.01
584.529	30144.97
584.889	30590.61
585.249	30579.76
585.609	30788.79
585.969	31119.63
586.329	31284.15
586.688	31749.22
587.048	31997.58
587.408	32071.7
587.768	32565.02
588.127	32776.31
588.487	33191.44
588.846	33749.62
589.206	33586.01
589.565	34054.7
589.925	34716.6
590.284	34932.19
590.643	35308.45
591.003	35744.82
591.362	36301.19
591.721	36641.52
592.08	36910.67
592.44	37403.31
592.799	37815.73
593.158	38249.39
593.517	38630.17
593.876	39153.09
594.235	39605.51
594.593	40058.61
594.952	40376.11
595.311	40818.59
595.67	41365.69
596.029	41912.12
596.387	42376.51
596.746	42822.38
597.104	43117.28
597.463	43667.55
597.822	44244.03
598.18	44391.83
598.538	44839.95
598.897	45564.45
599.255	45691.91
599.613	46577.08
599.972	46565.33
600.33	47149.27
600.688	47485.76
601.046	47838.74
601.404	48570.25
601.762	48758.04
602.12	49268.54
602.478	49490
602.836	49771.8
603.194	50053.37
603.552	50459.24
603.91	50639.8
604.268	51102.84
604.625	51304.41
604.983	51877.73
605.341	51773.78
605.698	52298.06
606.056	52642.68
606.413	52777.37
606.771	53146.85
607.128	53378.26
607.485	53525.6
607.843	53770.56
608.2	54105.92
608.557	54468.4
608.914	54500.04
609.272	54783.64
609.629	55086.01
609.986	55287.81
610.343	55496.39
610.7	55794.69
611.057	55877.17
611.414	55971.18
611.771	56264.06
612.127	56491.62
612.484	56572.98
612.841	56799.41
613.198	56850.26
613.554	57007.99
613.911	57327.08
614.267	57428.77
614.624	57560.97
614.98	57701.76
615.337	57969.32
615.693	57978.14
616.05	58200.5
616.406	58290.44
616.762	58333.83
617.118	58511.68
617.475	58532.92
617.831	58798
618.187	58878
618.543	58987.38
618.899	59214.71
619.255	59246.13
619.611	59284.09
619.967	59468.04
620.323	59608.6
620.678	59524.54
621.034	59636.17
621.39	59757.3
621.746	59757.75
622.101	60065.31
622.457	59924.07
622.812	60087.46
623.168	60162.03
623.523	60176.04
623.879	60294.69
624.234	60248.13
624.589	60429.15
624.945	60406.77
625.3	60458.3
625.655	60504.62
626.01	60651.29
626.365	60628.69
626.72	60568.35
627.075	60621.46
627.43	60680.66
627.785	60724.05
628.14	60739.19
628.495	60754.11
628.85	60768.12
629.205	60685.86
629.559	60920.43
629.914	60781
630.269	60886.08
630.623	60836.14
630.978	60847.67
631.332	60995.68
631.687	60930.15
632.041	60964.95
632.396	61022.58
632.75	60921.34
633.104	60979.64
633.459	60836.37
633.813	60943.93
634.167	60863.94
634.521	60855.8
634.875	60883.37
635.229	60890.15
635.583	60795.01
635.937	60825.75
636.291	60906.65
636.645	60868.23
636.999	60802.02
637.352	60872.07
637.706	60700.1
638.06	60833.65
638.413	60807.67
638.767	60682.92
639.121	60787.78
639.474	60698.52
639.828	60696.94
640.181	60696.48
640.534	60743.49
640.888	60568.12
641.241	60541.23
641.594	60567
641.947	60713.43
642.301	60585.07
642.654	60618.97
643.007	60476.6
643.36	60596.6
643.713	60541.91
644.066	60645.86
644.419	60416.49
644.771	60127.91
645.124	59988.25
645.477	60023.73
645.83	59847.92
646.182	59877.97
646.535	59811.76
646.888	59885.21
647.24	59855.83
647.593	59935.6
647.945	59806.79
648.298	59755.94
648.65	59675.27
649.002	59570.64
649.355	59548.94
649.707	59459.91
650.059	59588.94
650.411	59791.42
650.763	59890.4
651.115	60240
651.467	60108.02
651.819	60108.93
652.171	60089.95
652.523	59992.09
652.875	60025.54
653.227	59879.1
653.578	60104.86
653.93	59983.51
654.282	59894.92
654.633	59783.06
654.985	59886.79
655.337	59883.17
655.688	59843.17
656.039	59866
656.391	59647.7
656.742	59785.32
657.094	59746.68
657.445	59757.3
657.796	59796.17
658.147	59701.26
658.498	59701.26
658.849	59734.7
659.2	59666.91
659.551	59641.14
659.902	59762.04
660.253	59608.15
660.604	59722.95
660.955	59591.43
661.306	59702.61
661.656	59524.31
662.007	59588.94
662.358	59628.71
662.708	59611.09
663.059	59566.8
663.409	59417.19
663.76	59590.75
664.11	59605.66
664.461	59588.04
664.811	59498.1
665.161	59501.49
665.511	59422.17
665.862	59454.03
666.212	59531.09
666.562	59556.85
666.912	59496.74
667.262	59349.4
667.612	59436.4
667.962	59441.6
668.312	59338.1
668.662	59470.75
669.011	59421.26
669.361	59350.53
669.711	59449.06
670.06	59367.25
670.41	59318.21
670.76	59307.37
671.109	59408.61
671.459	59389.17
671.808	59295.16
672.157	59320.02
672.507	59212
672.856	59238.44
673.205	59280.7
673.554	59428.72
673.904	59282.28
674.253	59442.05
674.602	59302.17
674.951	58935.85
675.3	58767.49
675.649	59306.01
675.998	59240.02
676.346	59251.32
676.695	59252.68
677.044	59068.96
677.393	59172.23
677.741	59260.59
678.09	59183.75
678.438	59147.6
678.787	59193.25
679.135	59183.53
679.484	59062.85
679.832	59115.73
680.181	59034.83
680.529	59071.22
680.877	58998.67
681.225	58944.21
681.573	59151.89
681.922	59009.97
682.27	58924.1
682.618	58919.81
682.966	58821.28
683.314	58936.08
683.661	58920.03
684.009	58779.7
684.357	58727.5
684.705	58734.5
685.053	58682.3
685.4	58612.02
685.748	58576.54
686.095	58591.68
686.443	58584.67
686.79	58558.69
687.138	58614.28
687.485	58532.92
687.832	58403.89
688.18	58345.81
688.527	58330.67
688.874	58324.57
689.221	58271.69
689.568	58271.91
689.915	58164.57
690.262	58238.24
690.609	58190.79
690.956	58014.07
691.303	58000.06
691.65	57977.68
691.997	57922.77
692.344	57779.5
692.69	57817.01
693.037	57821.08
693.383	57612.72
693.73	57700.4
694.077	57534.98
694.423	57581.54
694.769	57503.12
695.116	57469
695.462	57381.32
695.808	57303.35
696.155	57347.42
696.501	57152.17
696.847	57225.61
697.193	57047.09
697.539	57121.66
697.885	56939.52
698.231	56913.08
698.577	56855
698.923	56857.71
699.269	56671.28
699.614	56674.22
699.96	56488.01
700.306	56565.97
700.651	56431.06
700.997	56382.7
701.342	56377.27
701.688	56233.55
702.033	56237.17
702.379	56227
702.724	56030.17
703.069	56166.21
703.415	55823.62
703.76	55864.29
704.105	55840.34
704.45	55767.12
704.795	55720.34
705.14	55595.6
705.485	55623.85
705.83	55392.67
706.175	55565.09
706.52	55433.57
706.865	55350.86
707.209	55236.97
707.554	55260.47
707.899	55272.22
708.243	55095.95
708.588	54993.36
708.932	54944.77
709.277	54912.45
709.621	54808.95
709.966	54655.06
710.31	54711.78
710.654	54505.69
710.998	54597.66
711.342	54572.12
711.687	54430.21
712.031	54407.16
712.375	54217.11
712.719	54307.5
713.063	54180.72
713.407	54406.71
713.75	54146.15
714.094	54092.14
714.438	53897.11
714.782	54005.36
715.125	53810.56
715.469	53909.99
715.812	53685.82
716.156	53653.28
716.499	53716.78
716.843	53690.34
717.186	53348.2
717.53	53638.82
717.873	53557.46
718.216	53507.75
718.559	53358.6
718.902	53077.47
719.246	53187.3
719.589	53119.73
719.932	53074.99
720.275	53020.3
720.617	53037.25
720.96	52820.08
721.303	53016.91
721.646	52972.17
721.989	52700.76
722.331	52854.88
722.674	52762
723.016	52787.54
723.359	52575.79
723.701	52610.14
724.044	52500.09
724.386	52392.29
724.729	52498.96
725.071	52402.01
725.413	52381.9
725.755	52222.81
726.097	52161.34
726.439	52115.69
726.782	52059.2
727.124	52288.12
727.465	52073.43
727.807	51922.48
728.149	52062.59
728.491	51907.34
728.833	51949.59
729.175	51771.29
729.516	51708.47
729.858	51698.75
730.199	51820.11
730.541	51705.31
730.882	51566.33
731.224	51690.84
731.565	51571.07
731.906	51524.97
732.248	51579.21
732.589	51261.93
732.93	51218.99
733.271	51283.17
733.612	51263.51
733.953	51346.9
734.294	51210.4
734.635	51060.58
734.976	51239.1
735.317	51037.08
735.658	50947.81
735.999	50957.08
736.339	50988.04
736.68	50971.09
737.021	50935.16
737.361	50719.12
737.702	51029.17
738.042	50844.31
738.383	50804.09
738.723	50926.57
739.063	50678.44
739.404	50802.51
739.744	50691.1
740.084	50536.07
740.424	50581.27
740.764	50468.73
741.104	50680.93
741.444	50409.97
741.784	50269.41
742.124	50365.68
742.464	50269.64
742.804	50275.51
743.143	50233.93
743.483	50131.56
743.823	49942.87
744.162	50007.05
744.502	50023.32
744.841	49916.88
745.181	49965.47
745.52	49932.25
745.86	49865.36
746.199	49859.48
746.538	49841.4
746.877	49852.47
747.216	49689.99
747.556	49560.28
747.895	49551.01
748.234	49525.93
748.573	49433.95
748.911	49389.44
749.25	49315.31
749.589	49226.5
749.928	49264.92
750.267	49202.1
750.605	48983.34
750.944	48963.91
751.283	49035.55
751.621	49192.38
751.96	48892.95
752.298	48916
752.636	48904.02
752.975	48653.41
753.313	48515.33
753.651	48769.11
753.989	48512.17
754.327	48590.13
754.666	48255
755.004	48411.38
755.342	48406.41
755.679	48205.74
756.017	48004.39
756.355	48107.89
756.693	48090.94
757.031	47970.26
757.368	47697.5
757.706	47769.82
758.044	47665.19
758.381	47535.02
758.719	47484.18
759.056	47478.3
759.394	47344.74
759.731	47074.24
760.068	46978.65
760.405	47102.49
760.743	46823.85
761.08	46847.81
761.417	46487.59
761.754	46508.38
762.091	46548.61
762.428	46163.76
762.765	46109.3
763.102	46220.25
763.438	45938.45
763.775	45766.71
764.112	45771
764.449	45651
764.785	45439.71
765.122	45364.91
765.458	45017.57
765.795	45091.92
766.131	45134.63
766.467	44745.26
766.804	44589.11
767.14	44502.78
767.476	44312.73
767.812	44206.3
768.148	44374.88
768.485	44140.08
768.821	43686.76
769.157	43761.11
769.492	43700.55
769.828	43497.84
770.164	43239.09
770.5	43057.17
770.836	43082.03
771.171	42934.92
771.507	42797.07
771.842	42581.03
772.178	42583.51
772.513	42464.65
772.849	42214.26
773.184	42105.33
773.519	42074.6
773.855	41710.32
774.19	41680.94
774.525	41519.36
774.86	41540.15
775.195	41488.63
775.53	41173.61
775.865	40972.93
776.2	40655.43
776.535	40445.94
776.87	40555.54
777.205	40254.31
777.539	40171.15
777.874	40213.41
778.209	39746.3
778.543	39815.45
778.878	39517.83
779.212	39695.91
779.547	39259.76
779.881	39274.67
780.215	39083.49
780.55	39118.52
780.884	38695.93
781.218	38624.97
781.552	38700
781.886	38561.92
782.22	38262.27
782.554	38076.06
782.888	37836.29
783.222	37723.75
783.556	37585.23
783.889	37617.99
784.223	37228.17
784.557	37137.33
784.89	37343.2
785.224	36888.52
785.557	36673.39
785.891	36778.69
786.224	36599.26
786.558	36523.11
786.891	36316.56
787.224	36136.45
787.557	36082.67
787.891	36015.1
788.224	35694.2
788.557	35630.48
788.89	35568.33
789.223	35547.31
789.556	35274.78
789.888	35325.85
790.221	34965.18
790.554	34914.56
790.887	34827.11
791.219	34713.66
791.552	34500.11
791.884	34526.1
792.217	34360.68
792.549	34179.67
792.882	34019.67
793.214	33831.88
793.546	33788.49
793.879	33688.83
794.211	33432.57
794.543	33580.59
794.875	33510.31
795.207	33469.4
795.539	33309.63
795.871	33246.81
796.203	33175.4
796.535	32916.2
796.867	32862.41
797.198	32671.91
797.53	32668.52
797.862	32298.36
798.193	32359.6
798.525	32248.87
798.856	32241.41
799.188	31966.62
799.519	31859.05
799.85	31750.58
800.182	31610.69
800.513	31771.37
800.844	31405.5
801.175	31667.42
801.506	31445.27
801.837	31402.11
802.168	31393.52
802.499	31340.87
802.83	30878.96
803.161	30975.46
803.491	30923.25
803.822	30911.96
804.153	30597.39
804.483	30646.88
804.814	30442.59
805.145	30374.34
805.475	30324.17
805.805	30268.36
806.136	30302.93
806.466	30099.32
806.796	29971.42
807.126	29854.13
807.457	29765.77
807.787	29930.51
808.117	29674.02
808.447	29563.74
808.777	29643.29
809.107	29462.95
809.436	29253.47
809.766	29311.77
810.096	29303.86
810.426	29090.31
810.755	29081.72
811.085	29002.63
811.414	28892.57
811.744	28859.58
812.073	28751.11
812.403	28633.15
812.732	28466.6
813.061	28765.12
813.39	28387.95
813.719	28388.63
814.049	28524.45
814.378	28454.85
814.707	28214.4
815.036	28321.74
815.365	28089.88
815.693	27877.69
816.022	28011.69
816.351	27851.92
816.68	27670.91
817.008	27842.66
817.337	27454.19
817.665	27512.95
817.994	27485.38
818.322	27710.68
818.651	27399.73
818.979	27324.25
819.307	27360.41
819.636	27207.42
819.964	27145.27
820.292	27265.72
820.62	27070.7
820.948	27222.56
821.276	27404.7
821.604	27163.58
821.932	27352.73
822.259	27179.62
822.587	27116.8
822.915	27054.2
823.243	27148.66
823.57	26998.84
823.898	27189.12
824.225	27025.28
824.553	27118.38
824.88	27138.95
825.207	27071.15
825.535	26956.35
825.862	27080.64
826.189	26979.86
826.516	27159.06
826.843	27200.41
827.17	27258.94
827.497	27176.46
827.824	27196.8
828.151	27313.18
828.478	27045.84
828.805	27273.18
829.131	27103.47
829.458	27091.27
829.785	26972.62
830.111	27017.37
830.438	27237.02
830.764	27023.92
831.09	27151.15
831.417	26918.61
831.743	27155.22
832.069	27102.11
832.395	27001.55
832.722	26979.4
833.048	26884.26
833.374	26956.58
833.7	26906.64
834.026	27042.45
834.351	26840.2
834.677	27034.09
835.003	27003.58
835.329	26982.79
835.654	26793.87
835.98	26728.79
836.306	26940.76
836.631	26696.47
836.956	26960.2
837.282	26731.73
837.607	26681.11
837.932	26547.32
838.258	26659.64
838.583	26545.06
838.908	26375.13
839.233	26506.65
839.558	26514.78
839.883	26256.94
840.208	26202.7
840.533	26291.96
840.858	26118.18
841.182	26233.43
841.507	26174
841.832	26025.98
842.156	26110.05
842.481	26106.66
842.805	25962.48
843.13	25833.45
843.454	25979.88
843.778	25860.34
844.103	25629.16
844.427	25611.76
844.751	25620.57
845.075	25625.77
845.399	25533.11
845.723	25320.46
846.047	25422.16
846.371	25154.37
846.695	25050.19
847.019	24955.95
847.343	24932
847.666	24897.42
847.99	24744.66
848.313	24662.4
848.637	24594.16
848.96	24529.07
849.284	24450.43
849.607	24270.55
849.931	24188.06
850.254	24084.34
850.577	23874.85
850.9	23756.66
851.223	23782.88
851.546	23669.66
851.869	23534.52
852.192	23715.76
852.515	23384.7
852.838	23365.71
853.161	23325.71
853.483	23085.04
853.806	23190.8
854.129	22994.42
854.451	23005.5
854.774	22754.2
855.096	22846.18
855.419	22750.36
855.741	22636.69
856.063	22568.45
856.385	22477.15
856.708	22448.68
857.03	22359.41
857.352	22371.84
857.674	22215.24
857.996	22203.03
858.318	21992.64
858.64	21979.99
858.961	21956.71
859.283	21849.14
859.605	21722.59
859.926	21764.63
860.248	21740.45
860.57	21642.82
860.891	21644.18
861.212	21564.63
861.534	21410.06
861.855	21389.72
862.176	21518.08
862.498	21451.87
862.819	21426.78
863.14	21277.86
863.461	21206
863.782	21122.16
864.103	21231.31
864.424	21029.05
864.745	21136.85
865.065	21015.49
865.386	20928.26
865.707	21060.01
866.027	20869.51
866.348	20873.8
866.668	20809.17
866.989	20847.36
867.309	20667.25
867.63	20637.88
867.95	20662.28
868.27	20629.51
868.59	20730.75
868.91	20576.18
869.23	20502.96
869.55	20408.28
869.87	20504.32
870.19	20383.87
870.51	20286.47
870.83	20391.33
871.15	20281.5
871.469	20185.46
871.789	20192.69
872.109	20229.3
872.428	20216.42
872.748	20278.34
873.067	20141.84
873.386	20186.36
873.706	20119.24
874.025	20036.54
874.344	19909.53
874.663	19973.26
874.982	19968.51
875.301	19912.92
875.62	19840.61
875.939	19743.44
876.258	19915.41
876.577	19739.82
876.896	19720.16
877.214	19619.6
877.533	19728.97
877.852	19734.17
878.17	19566.27
878.489	19615.08
878.807	19551.35
879.125	19510.67
879.444	19437.46
879.762	19501.63
880.08	19596.09
880.398	19306.84
880.716	19377.12
881.034	19334.63
881.352	19357.91
881.67	19218.48
881.988	19291.92
882.306	19266.16
882.624	19110.23
882.941	19024.13
883.259	19030.69
883.577	18939.16
883.894	18895.1
884.212	18920.86
884.529	18794.53
884.846	18802.22
885.164	18630.02
885.481	18673.41
885.798	18662.79
886.115	18564.03
886.432	18598.38
886.75	18499.4
887.067	18520.64
887.383	18509.34
887.7	18537.14
888.017	18366.3
888.334	18374.21
888.651	18314.55
888.967	18256.02
889.284	18183.02
889.6	18179.18
889.917	18035.91
890.233	18065.97
890.55	18076.13
890.866	17975.35
891.182	17985.52
891.498	17949.81
891.815	17802.24
892.131	17767.89
892.447	17684.96
892.763	17644.96
893.079	17553.44
893.395	17574.68
893.71	17542.82
894.026	17485.64
894.342	17392.99
894.657	17320
894.973	17307.79
895.289	17256.95
895.604	17139.21
895.92	17214.46
896.235	17152.54
896.55	17095.37
896.865	16923.4
897.181	16911.19
897.496	16927.46
897.811	16773.8
898.126	16676.17
898.441	16584.2
898.756	16569.96
899.071	16478.89
899.386	16501.71
899.7	16338.1
900.015	16288.16
900.33	16107.15
900.644	16170.87
900.959	16267.14
901.273	16129.75
901.588	16070.99
901.902	16049.07
902.216	15907.83
902.531	15873.93
902.845	15872.35
903.159	15695.86
903.473	15637.1
903.787	15550.33
904.101	15567.05
904.415	15516.65
904.729	15516.88
905.042	15388.52
905.356	15294.29
905.67	15404.79
905.984	15333.16
906.297	15133.39
906.611	15089.77
906.924	15060.39
907.237	15142.2
907.551	15039.15
907.864	14903.34
908.177	14860.17
908.491	14863.34
908.804	14682.78
909.117	14683
909.43	14548.32
909.743	14513.06
910.056	14466.06
910.368	14372.5
910.681	14361.43
910.994	14270.81
911.307	14327.98
911.619	14142.45
911.932	14139.74
912.244	14061.55
912.557	14091.83
912.869	13945.17
913.181	13916.92
913.494	13812.07
913.806	13715.57
914.118	13731.39
914.43	13611.85
914.742	13612.98
915.054	13553.09
915.366	13563.94
915.678	13424.73
915.99	13363.72
916.302	13333.43
916.613	13235.13
916.925	13290.95
917.236	13230.84
917.548	13064.74
917.859	13092.09
918.171	12989.71
918.482	12902.03
918.794	12862.94
919.105	12829.27
919.416	12818.65
919.727	12743.39
920.038	12715.6
920.349	12638.76
920.66	12600.8
920.971	12621.82
921.282	12501.82
921.593	12349.96
921.903	12292.33
922.214	12264.54
922.525	12255.27
922.835	12182.73
923.146	12175.05
923.456	12132.34
923.767	12015.05
924.077	11864.09
924.387	11969.85
924.697	11896.64
925.008	11777.54
925.318	11769.18
925.628	11797.66
925.938	11701.39
926.248	11574.61
926.558	11559.7
926.867	11535.74
927.177	11442.41
927.487	11423.2
927.796	11327.84
928.106	11329.42
928.416	11229.54
928.725	11205.13
929.034	11178.92
929.344	11126.71
929.653	11155.64
929.962	11020.73
930.271	10986.83
930.581	10984.57
930.89	10889.66
931.199	10756.55
931.508	10762.65
931.817	10773.73
932.125	10733.28
932.434	10707.06
932.743	10518.37
933.051	10588.42
933.36	10519.27
933.669	10455.54
933.977	10401.31
934.286	10315.66
934.594	10367.19
934.902	10321.99
935.21	10284.7
935.519	10174.42
935.827	10184.59
936.135	10082.22
936.443	10013.07
936.751	10009.23
937.059	9985.95
937.367	9962
937.674	9902.56
937.982	9940.3
938.29	9771.04
938.597	9766.75
938.905	9694.43
939.213	9647.66
939.52	9620.09
939.827	9613.08
940.135	9556.58
940.442	9542.35
940.749	9482.24
941.056	9480.65
941.363	9395.23
941.67	9366.31
941.977	9311.62
942.284	9252.41
942.591	9232.3
942.898	9178.06
943.205	9152.3
943.511	9088.57
943.818	9089.93
944.125	8969.71
944.431	8974.68
944.738	8935.36
945.044	8848.81
945.35	8883.61
945.657	8712.99
945.963	8829.6
946.269	8768.81
946.575	8741.47
946.881	8708.7
947.187	8598.19
947.493	8589.38
947.799	8592.77
948.105	8527.91
948.41	8506.67
948.716	8449.95
949.022	8387.58
949.327	8369.72
949.633	8275.71
949.938	8265.32
950.244	8311.65
950.549	8187.36
950.854	8205.89
951.16	8130.86
951.465	8109.17
951.77	8112.56
952.075	8040.69
952.38	8049.51
952.685	7979.68
952.99	7928.38
953.294	7889.51
953.599	7816.97
953.904	7823.75
954.209	7734.71
954.513	7810.64
954.818	7727.93
955.122	7632.79
955.426	7651.32
955.731	7611.33
956.035	7591.21
956.339	7513.25
956.643	7536.75
956.948	7520.48
957.252	7371.78
957.556	7411.1
957.86	7342.18
958.163	7306.93
958.467	7315.29
958.771	7275.51
959.075	7219.25
959.378	7170.43
959.682	7201.39
959.985	7123.43
960.289	7121.62
960.592	7028.74
960.896	7050.44
961.199	7005.47
961.502	6938.12
961.805	6931.12
962.108	6868.75
962.411	6869.88
962.714	6802.53
963.017	6837.56
963.32	6817
963.623	6852.02
963.926	6751.91
964.228	6696.32
964.531	6679.37
964.833	6638.7
965.136	6567.51
965.438	6566.38
965.741	6501.07
966.043	6509.43
966.345	6442.32
966.648	6412.49
966.95	6439.15
967.252	6388.53
967.554	6368.87
967.856	6329.78
968.158	6279.38
968.46	6229.89
968.761	6242.77
969.063	6242.55
969.365	6184.92
969.666	6128.65
969.968	6101.08
970.269	6086.85
970.571	6059.73
970.872	6026.06
971.174	6053.63
971.475	6005.49
971.776	5935.66
972.077	5950.58
972.378	5919.17
972.679	5867.64
972.98	5913.74
973.281	5853.86
973.582	5866.29
973.883	5790.13
974.183	5772.73
974.484	5751.26
974.785	5668.78
975.085	5665.16
975.386	5683.69
975.686	5625.39
975.986	5583.81
976.287	5599.17
976.587	5521.21
976.887	5513.53
977.187	5498.84
977.487	5508.56
977.787	5464.49
978.087	5411.84
978.387	5438.5
978.687	5374.32
978.987	5369.8
979.286	5312.63
979.586	5263.36
979.885	5316.7
980.185	5250.94
980.484	5230.37
980.784	5183.37
981.083	5159.41
981.382	5151.73
981.682	5135.23
981.981	5058.62
982.28	5073.76
982.579	5116.7
982.878	5027.21
983.177	5003.94
983.475	5045.07
983.774	4943.15
984.073	4938.63
984.372	4875.58
984.67	4889.59
984.969	4877.16
985.267	4898.18
985.566	4830.61
985.864	4791.96
986.162	4779.31
986.461	4740.89
986.759	4726.43
987.057	4671.06
987.355	4694.57
987.653	4666.77
987.951	4664.74
988.249	4630.61
988.547	4617.28
988.844	4588.58
989.142	4535.02
989.44	4588.58
989.737	4487.34
990.035	4470.62
990.332	4437.4
990.63	4458.41
990.927	4436.95
991.224	4395.59
991.521	4400.79
991.819	4394.91
992.116	4294.35
992.413	4304.29
992.71	4307.68
993.006	4303.84
993.303	4217.74
993.6	4233.34
993.897	4245.99
994.193	4245.76
994.49	4132.32
994.787	4139.78
995.083	4100.01
995.379	4105.88
995.676	4076.95
995.972	4079.67
996.268	4010.29
996.565	4029.95
996.861	4024.98
997.157	3994.92
997.453	3954.92
997.749	3924.64
998.044	3894.36
998.34	3920.8
998.636	3887.36
998.932	3856.85
999.227	3807.81
999.523	3796.51
999.818	3804.42
1000.114	3785.44
1000.409	3726
1000.704	3719.22
1001	3688.72
1001.295	3642.39
1001.59	3652.56
1001.885	3647.59
1002.18	3628.83
1002.475	3610.75
1002.77	3577.08
1003.065	3564.2
1003.359	3545.67
1003.654	3548.38
1003.949	3493.24
1004.243	3476.97
1004.538	3469.06
1004.832	3455.95
1005.127	3456.86
1005.421	3399.23
1005.715	3373.02
1006.009	3356.75
1006.304	3316.07
1006.598	3298.22
1006.892	3327.37
1007.186	3231.78
1007.48	3247.82
1007.773	3260.03
1008.067	3229.07
1008.361	3187.71
1008.655	3172.35
1008.948	3184.78
1009.242	3162.4
1009.535	3106.81
1009.829	3094.16
1010.122	3065.91
1010.415	3058.9
1010.708	3043.54
1011.001	3050.54
1011.295	3007.15
1011.588	2963.31
1011.881	2961.05
1012.173	2973.71
1012.466	2930.32
1012.759	2950.88
1013.052	2903.65
1013.344	2871.79
1013.637	2873.82
1013.93	2839.47
1014.222	2799.02
1014.514	2823.88
1014.807	2768.74
1015.099	2767.38
1015.391	2761.96
1015.683	2717.22
1015.976	2753.83
1016.268	2707.5
1016.56	2660.5
1016.851	2670.21
1017.143	2633.15
1017.435	2636.77
1017.727	2626.6
1018.018	2575.53
1018.31	2611.46
1018.602	2578.46
1018.893	2533.27
1019.185	2505.92
1019.476	2511.12
1019.767	2480.16
1020.058	2449.88
1020.35	2435.19
1020.641	2426.15
1020.932	2419.6
1021.223	2406.49
1021.514	2384.12
1021.804	2361.97
1022.095	2349.77
1022.386	2326.72
1022.677	2314.29
1022.967	2295.76
1023.258	2303.22
1023.548	2273.16
1023.839	2238.36
1024.129	2225.7
1024.419	2223.9
1024.709	2198.36
1025	2188.64
1025.29	2172.37
1025.58	2159.27
1025.87	2130.11
1026.16	2096.44
1026.449	2111.58
1026.739	2099.83
1027.029	2102.32
1027.319	2060.96
1027.608	2083.34
1027.898	2045.14
1028.187	2022.77
1028.477	2027.74
1028.766	2015.31
1029.055	1979.38
1029.344	1984.35
1029.634	1959.72
1029.923	1938.48
1030.212	1938.93
1030.501	1889.89
1030.79	1872.95
1031.078	1867.3
1031.367	1861.65
1031.656	1869.78
1031.945	1848.76
1032.233	1818.03
1032.522	1829.1
1032.81	1787.75
1033.099	1781.2
1033.387	1752.72
1033.675	1783.46
1033.963	1769.22
1034.251	1746.62
1034.54	1733.97
1034.828	1714.31
1035.116	1707.98
1035.403	1675.89
1035.691	1670.92
1035.979	1670.46
1036.267	1677.92
1036.554	1627.3
1036.842	1633.63
1037.129	1631.14
1037.417	1589.34
1037.704	1591.6
1037.992	1589.11
1038.279	1585.5
1038.566	1554.08
1038.853	1554.08
1039.14	1554.08
