Data from 166_FLMS001491_003.txt Node
Date: Thu Apr 19 16:18:17 BST 2018
User: hsy
Spectrometer: FLMS00149
Trigger mode: 0
Integration Time (sec): 1.000000E-2
Scans to average: 10
Electric dark correction enabled: true
Nonlinearity correction enabled: false
Boxcar width: 0
XAxis mode: Wavelengths
Number of Pixels in Spectrum: 2048
>>>>>Begin Spectral Data<<<<<
341.393	-7.12
341.776	-7.12
342.16	-7.12
342.543	-63.39
342.927	-64.74
343.31	-80.79
343.693	-59.09
344.077	-46.89
344.46	-54.35
344.843	-44.18
345.226	-59.55
345.61	-32.88
345.993	-10.51
346.376	1.47
346.759	-3.73
347.142	29.26
347.525	45.08
347.908	59.55
348.291	64.07
348.674	85.99
349.057	106.55
349.44	149.04
349.823	145.87
350.206	173.89
350.588	230.39
350.971	268.35
351.354	275.36
351.737	280.33
352.119	297.28
352.502	312.2
352.884	327.11
353.267	316.49
353.65	329.14
354.032	331.63
354.414	362.36
354.797	344.51
355.179	362.36
355.562	379.31
355.944	376.83
356.326	368.92
356.709	377.5
357.091	392.19
357.473	387.45
357.855	378.41
358.238	388.58
358.62	373.89
359.002	404.17
359.384	409.59
359.766	408.46
360.148	383.61
360.53	387.9
360.912	395.36
361.294	399.42
361.676	394.9
362.057	388.13
362.439	393.77
362.821	365.53
363.203	363.95
363.584	377.05
363.966	372.31
364.348	379.99
364.729	387.22
365.111	356.26
365.493	389.71
365.874	377.05
366.256	392.87
366.637	360.78
367.019	377.96
367.4	377.5
367.781	384.51
368.163	377.28
368.544	362.36
368.925	373.44
369.306	368.01
369.688	388.35
370.069	383.61
370.45	379.76
370.831	394.9
371.212	375.24
371.593	387.22
371.974	393.32
372.355	371.18
372.736	384.51
373.117	398.97
373.498	382.25
373.879	391.29
374.26	387.67
374.641	382.93
375.021	383.83
375.402	385.19
375.783	409.59
376.163	432.42
376.544	419.31
376.925	399.42
377.305	419.76
377.686	412.08
378.066	401.23
378.447	409.37
378.827	402.81
379.208	409.82
379.588	446.88
379.968	443.72
380.349	421.57
380.729	430.38
381.109	425.86
381.489	447.78
381.87	435.13
382.25	437.62
382.63	445.3
383.01	419.31
383.39	447.33
383.77	435.13
384.15	445.3
384.53	445.98
384.91	449.14
385.29	463.15
385.67	450.72
386.049	488.69
386.429	460.67
386.809	467.9
387.189	454.56
387.568	481
387.948	487.33
388.328	483.49
388.707	488.69
389.087	475.35
389.466	484.85
389.846	500.89
390.225	507.9
390.605	489.59
390.984	493.43
391.363	499.53
391.743	503.83
392.122	520.55
392.501	515.58
392.881	512.64
393.26	519.87
393.639	517.39
394.018	544.05
394.397	530.04
394.776	554.9
395.155	525.3
395.534	540.89
395.913	553.77
396.292	546.99
396.671	550.61
397.05	547.44
397.429	542.25
397.808	571.85
398.186	565.07
398.565	539.76
398.944	546.31
399.323	571.17
399.701	579.31
400.08	579.76
400.458	571.85
400.837	595.58
401.215	573.88
401.594	589.7
401.972	600.78
402.351	602.81
402.729	601.91
403.107	609.36
403.486	605.07
403.864	634.67
404.242	600.1
404.62	627.44
404.999	632.64
405.377	637.38
405.755	635.8
406.133	664.5
406.511	643.71
406.889	660.66
407.267	650.72
407.645	660.21
408.023	665.63
408.401	696.14
408.779	681
409.156	684.39
409.534	702.47
409.912	701.34
410.29	744.27
410.667	712.86
411.045	752.64
411.422	740.88
411.8	745.4
412.178	744.73
412.555	771.39
412.933	757.83
413.31	768.23
413.687	770.04
414.065	778.62
414.442	785.4
414.819	792.86
415.197	801.45
415.574	835.57
415.951	829.24
416.328	847.1
416.705	841.45
417.082	822.24
417.46	826.53
417.837	843.03
418.214	862.01
418.591	859.07
418.967	861.11
419.344	866.76
419.721	915.57
420.098	893.2
420.475	893.42
420.852	906.98
421.228	894.78
421.605	919.41
421.982	923.93
422.358	937.49
422.735	942.01
423.111	933.2
423.488	952.63
423.864	971.84
424.241	976.13
424.617	979.52
424.994	983.59
425.37	991.95
425.746	985.62
426.123	989.69
426.499	1021.1
426.875	1015.68
427.251	1016.13
427.627	1034.44
428.003	1061.78
428.379	1080.31
428.756	1055.9
429.132	1118.73
429.507	1106.75
429.883	1110.37
430.259	1115.79
430.635	1127.99
431.011	1139.52
431.387	1157.82
431.763	1170.03
432.138	1193.75
432.514	1200.08
432.89	1213.87
433.265	1236.24
433.641	1229.46
434.016	1232.85
434.392	1255
434.767	1299.29
435.143	1246.86
435.518	1292.51
435.894	1301.1
436.269	1323.02
436.644	1346.97
437.02	1336.35
437.395	1350.13
437.77	1385.16
438.145	1368.89
438.52	1390.13
438.895	1415.67
439.271	1364.37
439.646	1412.05
440.021	1450.02
440.395	1415.67
440.77	1444.37
441.145	1461.32
441.52	1495.21
441.895	1455.89
442.27	1495.21
442.645	1476.91
443.019	1485.95
443.394	1505.16
443.769	1530.02
444.143	1525.5
444.518	1549.68
444.892	1533.86
445.267	1549
445.641	1565.27
446.016	1569.56
446.39	1565.72
446.764	1620.64
447.139	1598.49
447.513	1600.52
447.887	1626.06
448.262	1621.77
448.636	1640.07
449.01	1665.38
449.384	1656.11
449.758	1672.39
450.132	1697.02
450.506	1726.62
450.88	1719.62
451.254	1730.46
451.628	1753.29
452.002	1743.57
452.376	1775.66
452.75	1778.82
453.123	1810.91
453.497	1827.41
453.871	1819.5
454.244	1842.32
454.618	1888.88
454.992	1932.49
455.365	1924.58
455.739	1956.67
456.112	1976.56
456.486	2018.82
456.859	2009.78
457.232	2088.65
457.606	2050.23
457.979	2060.85
458.352	2085.48
458.725	2118.48
459.099	2171.58
459.472	2164.58
459.845	2209.32
460.218	2249.55
460.591	2272.14
460.964	2266.04
461.337	2320.05
461.71	2330.67
462.083	2332.71
462.456	2361.41
462.829	2382.42
463.201	2478.69
463.574	2433.5
463.947	2463.33
464.32	2510.56
464.692	2532.7
465.065	2535.87
465.438	2600.27
465.81	2643.43
466.183	2618.8
466.555	2668.97
466.928	2687.05
467.3	2664
467.672	2763.43
468.045	2817.21
468.417	2793.94
468.789	2805.46
469.161	2853.15
469.534	2875.07
469.906	2936.31
470.278	2905.57
470.65	2949.41
471.022	3013.59
471.394	3079.81
471.766	3146.02
472.138	3145.34
472.51	3193.93
472.882	3258.56
473.253	3246.36
473.625	3308.73
473.997	3389.85
474.369	3407.26
474.74	3460.36
475.112	3480.93
475.484	3537.65
475.855	3635.72
476.227	3667.36
476.598	3717.3
476.97	3774.48
477.341	3842.95
477.713	3892.21
478.084	3954.59
478.455	4044.75
478.827	4120
479.198	4170.85
479.569	4170.62
479.94	4325.87
480.311	4339.21
480.682	4409.71
481.053	4543.72
481.424	4586.43
481.795	4620.56
482.166	4799.31
482.537	4822.13
482.908	4921.34
483.279	4939.42
483.65	5045.18
484.021	5156.59
484.391	5230.03
484.762	5295.57
485.133	5374.89
485.503	5395
485.874	5595.9
486.244	5624.6
486.615	5761.54
486.985	5757.25
487.356	5999.73
487.726	5986.17
488.097	6132.16
488.467	6193.62
488.837	6308.2
489.207	6385.03
489.578	6501.18
489.948	6621.18
490.318	6667.28
490.688	6707.06
491.058	6871.12
491.428	7028.18
491.798	7062.3
492.168	7223.65
492.538	7277.66
492.908	7327.38
493.278	7478.33
493.648	7551.55
494.017	7672.45
494.387	7755.62
494.757	7837.2
495.126	7960.58
495.496	8026.57
495.866	8100.24
496.235	8176.4
496.605	8263.85
496.974	8373
497.344	8503.17
497.713	8589.04
498.082	8660.9
498.452	8793.33
498.821	8852.99
499.19	8844.63
499.559	8998.52
499.928	9113.55
500.298	9133.43
500.667	9208.91
501.036	9252.53
501.405	9363.71
501.774	9416.36
502.143	9511.05
502.512	9633.53
502.88	9684.83
503.249	9745.62
503.618	9881.66
503.987	9870.59
504.356	9937.7
504.724	10046.4
505.093	10171.37
505.462	10207.75
505.83	10286.62
506.199	10371.82
506.567	10567.07
506.936	10607.29
507.304	10622.43
507.672	10748.76
508.041	10801.86
508.409	10878.92
508.777	11010.22
509.145	11097.45
509.514	11078.92
509.882	11152.36
510.25	11223.77
510.618	11370.66
510.986	11323.21
511.354	11455.18
511.722	11645.91
512.09	11747.6
512.458	11628.28
512.826	11915.51
513.193	11964.77
513.561	11885.68
513.929	11934.94
514.297	12154.6
514.664	12186.46
515.032	12301.94
515.4	12389.17
515.767	12581.93
516.135	12497.64
516.502	12413.57
516.869	12785.09
517.237	12753.68
517.604	12709.61
517.972	12955.93
518.339	13023.73
518.706	13105.53
519.073	13135.13
519.44	13242.7
519.808	13368.8
520.175	13446.54
520.542	13639.53
520.909	13661.45
521.276	13710.71
521.643	13921.78
522.009	13866.87
522.376	14128.56
522.743	14072.74
523.11	14306.63
523.477	14428.66
523.843	14496.91
524.21	14733.28
524.577	14818.25
524.943	14847.41
525.31	14965.37
525.676	15235.42
526.043	15247.17
526.409	15310.67
526.776	15539.59
527.142	15642.87
527.508	15681.28
527.874	15808.74
528.241	15873.14
528.607	16006.92
528.973	16176.64
529.339	16132.34
529.705	16317.65
530.071	16531.43
530.437	16647.58
530.803	16741.37
531.169	16895.04
531.535	16850.29
531.901	16975.26
532.267	17063.62
532.632	17221.81
532.998	17281.69
533.364	17397.4
533.73	17512.42
534.095	17681.23
534.461	17688.24
534.826	17790.38
535.192	17850.72
535.557	18038.51
535.923	18064.95
536.288	18185.17
536.653	18246.64
537.019	18222.91
537.384	18237.6
537.749	18403.47
538.114	18453.87
538.479	18535.22
538.845	18564.82
539.21	18627.65
539.575	18712.62
539.94	18863.12
540.305	18880.07
540.67	18911.25
541.034	18975.89
541.399	19035.32
541.764	19193.73
542.129	19215.43
542.494	19257.69
542.858	19426.95
543.223	19395.76
543.587	19513.27
543.952	19527.51
544.316	19623.55
544.681	19595.3
545.045	19724.57
545.41	19799.37
545.774	19819.25
546.138	19847.27
546.503	19879.14
546.867	19882.08
547.231	20180.6
547.595	20240.26
547.959	20284.33
548.324	20291.78
548.688	20427.37
549.052	20377.66
549.416	20445
549.779	20505.79
550.143	20556.86
550.507	20697.87
550.871	20726.8
551.235	20660.81
551.599	20915.5
551.962	20932.22
552.326	21017.87
552.689	21025.77
553.053	20996.17
553.417	21076.62
553.78	21310.97
554.143	21340.79
554.507	21407.23
554.87	21569.72
555.234	21593.9
555.597	21531.3
555.96	21789.37
556.323	21769.03
556.686	21877.5
557.05	22023.26
557.413	22102.13
557.776	21998.4
558.139	22118.18
558.502	22385.29
558.865	22350.26
559.228	22620.99
559.59	22533.98
559.953	22656.47
560.316	22882.68
560.679	22852.39
561.041	23023.01
561.404	23188.66
561.767	23340.97
562.129	23242.67
562.492	23522.88
562.854	23479.04
563.217	23606.27
563.579	23745.25
563.941	23856.66
564.304	24005.13
564.666	24124.68
565.028	24148.4
565.39	24258.01
565.753	24503.2
566.115	24612.35
566.477	24698.45
566.839	24870.19
567.201	25016.18
567.563	25045.78
567.925	25227.7
568.287	25286.23
568.648	25361.48
569.01	25617.52
569.372	25769.83
569.734	25830.39
570.095	25973.22
570.457	26208.01
570.819	26317.39
571.18	26377.95
571.542	26598.74
571.903	26654.1
572.265	26793.31
572.626	27004.83
572.987	27077.59
573.349	27252.96
573.71	27381.77
574.071	27480.29
574.432	27601.42
574.794	28007.06
575.155	28009.09
575.516	27955.31
575.877	28228.52
576.238	28318.69
576.599	28561.85
576.96	28664.44
577.32	28720.71
577.681	28842.07
578.042	29092.23
578.403	29057.65
578.763	29119.57
579.124	29342.84
579.485	29600.01
579.845	29866.45
580.206	29894.02
580.566	29902.83
580.927	30242.48
581.287	30327.9
581.648	30433.21
582.008	30746.88
582.368	30968.34
582.728	31103.25
583.089	31368.33
583.449	31377.37
583.809	31689.68
584.169	31992.04
584.529	32098.25
584.889	32600.61
585.249	32443.78
585.609	32560.61
585.969	33017.32
586.329	33221.61
586.688	33685.1
587.048	33938.88
587.408	34224.75
587.768	34307.23
588.127	34859.08
588.487	35125.97
588.846	35825.61
589.206	35827.87
589.565	36264.24
589.925	36730.9
590.284	36859.71
590.643	37213.82
591.003	37905.56
591.362	38405.43
591.721	38691.3
592.08	38998.86
592.44	39613.08
592.799	39811.72
593.158	40427.3
593.517	40722.21
593.876	41431.79
594.235	41697.55
594.593	42200.13
594.952	42677.86
595.311	43252.54
595.67	43538.63
596.029	44142.68
596.387	44643.91
596.746	45179.26
597.104	45275.08
597.463	45700.38
597.822	46373.58
598.18	46557.08
598.538	46990.97
598.897	47589.37
599.255	47729.93
599.613	48493.3
599.972	48755.89
600.33	49074.98
600.688	49366.5
601.046	49792.02
601.404	50399.24
601.762	50498.9
602.12	51000.58
602.478	51216.39
602.836	51638.08
603.194	51686.66
603.552	52075.81
603.91	52280.32
604.268	52723.47
604.625	52919.4
604.983	53331.82
605.341	53440.74
605.698	53788.3
606.056	54163.43
606.413	54311.68
606.771	54627.38
607.128	54846.58
607.485	54927.03
607.843	55148.95
608.2	55375.83
608.557	55733.79
608.914	55837.06
609.272	56119.32
609.629	56387.56
609.986	56710.03
610.343	56720.88
610.7	57041.55
611.057	57146.18
611.414	57196.12
611.771	57498.26
612.127	57694.87
612.484	57805.82
612.841	57964.92
613.198	58022.54
613.554	58169.2
613.911	58389.54
614.267	58492.13
614.624	58679.02
614.98	58890.99
615.337	59106.58
615.693	59144.77
616.05	59253.24
616.406	59422.73
616.762	59459.57
617.118	59580.47
617.475	59685.55
617.831	59855.94
618.187	60003.51
618.543	60072.66
618.899	60254.35
619.255	60309.71
619.611	60420.9
619.967	60522.36
620.323	60697.73
620.678	60569.14
621.034	60668.8
621.39	60765.52
621.746	60806.88
622.101	61132.06
622.457	60952.18
622.812	61134.1
623.168	61207.32
623.523	61249.8
623.879	61309.46
624.234	61236.69
624.589	61405.73
624.945	61386.07
625.3	61475.78
625.655	61531.6
626.01	61561.88
626.365	61650.24
626.72	61616.35
627.075	61671.49
627.43	61751.48
627.785	61652.73
628.14	61730.24
628.495	61795.55
628.85	61849.33
629.205	61792.39
629.559	61942.44
629.914	61834.42
630.269	61826.74
630.623	61780.18
630.978	61792.16
631.332	61961.2
631.687	61974.53
632.041	61849.79
632.396	61967.75
632.75	61908.32
633.104	61940.18
633.459	61859.96
633.813	61949.22
634.167	61899.05
634.521	61884.81
634.875	61891.14
635.229	61807.3
635.583	61770.47
635.937	61810.47
636.291	61800.3
636.645	61788.77
636.999	61676.01
637.352	61780.18
637.706	61694.31
638.06	61737.25
638.413	61652.73
638.767	61623.13
639.121	61707.64
639.474	61691.15
639.828	61619.51
640.181	61653.41
640.534	61690.92
640.888	61618.83
641.241	61547.65
641.594	61492.96
641.947	61594.88
642.301	61494.54
642.654	61549.46
643.007	61389.69
643.36	61491.83
643.713	61463.58
644.066	61470.81
644.419	61356.01
644.771	61112.86
645.124	60932.07
645.477	60864.05
645.83	60773.88
646.182	60794.9
646.535	60734.56
646.888	60800.1
647.24	60712.19
647.593	60801.23
647.945	60734.34
648.298	60683.49
648.65	60620.21
649.002	60462.7
649.355	60505.64
649.707	60394.91
650.059	60419.54
650.411	60644.39
650.763	60832.86
651.115	61151.5
651.467	61033.08
651.819	61085.29
652.171	61063.14
652.523	60976.14
652.875	60991.96
653.227	60863.82
653.578	61039.86
653.93	60960.54
654.282	60823.6
654.633	60877.16
654.985	60882.58
655.337	60894.11
655.688	60776.14
656.039	60903.14
656.391	60647.78
656.742	60719.42
657.094	60686.65
657.445	60770.72
657.796	60767.1
658.147	60619.54
658.498	60741.11
658.849	60801.45
659.2	60648.01
659.551	60603.49
659.902	60782.47
660.253	60597.39
660.604	60707.44
660.955	60536.37
661.306	60637.16
661.656	60590.38
662.007	60590.61
662.358	60583.38
662.708	60629.25
663.059	60564.4
663.409	60418.19
663.76	60537.5
664.11	60600.55
664.461	60623.38
664.811	60521.01
665.161	60534.11
665.511	60434.46
665.862	60454.34
666.212	60535.7
666.562	60518.75
666.912	60512.87
667.262	60461.12
667.612	60521.01
667.962	60451.86
668.312	60331.63
668.662	60583.6
669.011	60497.51
669.361	60389.49
669.711	60480.78
670.06	60393.1
670.41	60320.33
670.76	60313.56
671.109	60437.62
671.459	60372.76
671.808	60432.42
672.157	60407.11
672.507	60250.05
672.856	60258.42
673.205	60306.32
673.554	60318.75
673.904	60244.63
674.253	60443.95
674.602	60243.73
674.951	59952.43
675.3	59821.36
675.649	60290.51
675.998	60291.18
676.346	60295.25
676.695	60285.08
677.044	60119.66
677.393	60114.92
677.741	60214.57
678.09	60142.26
678.438	60057.74
678.787	60150.17
679.135	60090.74
679.484	59962.38
679.832	60122.6
680.181	59997.41
680.529	60106.56
680.877	59964.19
681.225	59945.2
681.573	60121.24
681.922	59922.83
682.27	59869.27
682.618	59901.59
682.966	59813.91
683.314	59817.98
683.661	59838.31
684.009	59780.46
684.357	59741.37
684.705	59717.19
685.053	59687.58
685.4	59634.25
685.748	59556.06
686.095	59589.28
686.443	59474.48
686.79	59498.21
687.138	59532.56
687.485	59578.66
687.832	59380.02
688.18	59419.12
688.527	59280.59
688.874	59267.93
689.221	59260.7
689.568	59244.43
689.915	59159.24
690.262	59147.03
690.609	59058.9
690.956	58997.66
691.303	58994.27
691.65	58929.18
691.997	58859.81
692.344	58748.85
692.69	58719.7
693.037	58753.82
693.383	58580.04
693.73	58683.09
694.077	58466.15
694.423	58549.53
694.769	58385.24
695.116	58404.23
695.462	58308.41
695.808	58223.67
696.155	58285.81
696.501	58082.65
696.847	58185.02
697.193	57943
697.539	58017.8
697.885	57823.45
698.231	57836.11
698.577	57752.49
698.923	57711.14
699.269	57582.78
699.614	57503.69
699.96	57468.88
700.306	57405.38
700.651	57370.58
700.997	57235.9
701.342	57151.15
701.688	57220.08
702.033	57134.2
702.379	57093.75
702.724	57033.64
703.069	57063.7
703.415	56777.6
703.76	56766.08
704.105	56745.97
704.45	56623.48
704.795	56613.99
705.14	56514.56
705.485	56528.34
705.83	56242.02
706.175	56451.06
706.52	56313.89
706.865	56225.3
707.209	56127.68
707.554	56119.77
707.899	56092.42
708.243	55936.95
708.588	56038.19
708.932	55786.44
709.277	55868.93
709.621	55730.17
709.966	55637.07
710.31	55584.87
710.654	55530.86
710.998	55433.91
711.342	55545.32
711.687	55363.18
712.031	55349.17
712.375	55287.92
712.719	55232.56
713.063	55159.57
713.407	55232.56
713.75	55130.64
714.094	55084.09
714.438	54892.23
714.782	54904.21
715.125	54777.66
715.469	54947.82
715.812	54644.55
716.156	54588.28
716.499	54535.18
716.843	54671.44
717.186	54398.46
717.53	54589.64
717.873	54553.93
718.216	54413.6
718.559	54257.9
718.902	54038.24
719.246	54183.1
719.589	54113.72
719.932	53993.95
720.275	54052.93
720.617	54054.06
720.96	53955.08
721.303	53939.26
721.646	53957.56
721.989	53778.59
722.331	53821.07
722.674	53728.42
723.016	53716.67
723.359	53615.2
723.701	53684.58
724.044	53516.9
724.386	53372.49
724.729	53513.28
725.071	53431.7
725.413	53374.98
725.755	53287.98
726.097	53127.76
726.439	53191.03
726.782	53046.4
727.124	53244.36
727.465	53114.65
727.807	52970.02
728.149	52997.14
728.491	52909.46
728.833	52910.59
729.175	52925.05
729.516	52746.97
729.858	52740.2
730.199	52874.2
730.541	52786.52
730.882	52643.93
731.224	52635.57
731.565	52509.01
731.906	52546.98
732.248	52538.39
732.589	52520.54
732.93	52253.88
733.271	52374.56
733.612	52214.56
733.953	52383.37
734.294	52193.77
734.635	52194.9
734.976	52253.65
735.317	52155.58
735.658	52113.54
735.999	52068.35
736.339	52074.45
736.68	51967.33
737.021	51865.64
737.361	51825.19
737.702	52047.33
738.042	51855.25
738.383	51806.21
738.723	51831.52
739.063	51623.61
739.404	51760.79
739.744	51704.06
740.084	51551.07
740.424	51551.98
740.764	51453.9
741.104	51624.97
741.444	51417.29
741.784	51268.37
742.124	51426.78
742.464	51292.32
742.804	51179.56
743.143	51195.15
743.483	51223.17
743.823	51051.65
744.162	51109.5
744.502	51136.17
744.841	50968.04
745.181	51061.37
745.52	50904.09
745.86	50977.3
746.199	50952.67
746.538	50902.05
746.877	50955.38
747.216	50890.98
747.556	50702.28
747.895	50745.45
748.234	50633.13
748.573	50512.01
748.911	50599.46
749.25	50636.75
749.589	50344.78
749.928	50355.17
750.267	50479.01
750.605	50371.9
750.944	50197.66
751.283	50266.36
751.621	50234.05
751.96	50010.78
752.298	49989.76
752.636	49908.18
752.975	49793.38
753.313	49795.19
753.651	49957.44
753.989	49626.6
754.327	49623.89
754.666	49481.52
755.004	49438.81
755.342	49567.85
755.679	49449.43
756.017	49100.29
756.355	49278.37
756.693	49139.61
757.031	49277.46
757.368	49005.6
757.706	48917.24
758.044	48841.77
758.381	48712.73
758.719	48748.44
759.056	48674.54
759.394	48571.72
759.731	48232.97
760.068	48198.17
760.405	48303.93
760.743	47937.61
761.08	47926.54
761.417	47780.55
761.754	47742.13
762.091	47537.85
762.428	47451.29
762.765	47320.9
763.102	47257.63
763.438	47179.44
763.775	46908.03
764.112	46917.07
764.449	46922.27
764.785	46837.98
765.122	46558.89
765.458	46483.41
765.795	46397.54
766.131	46281.16
766.467	46104.66
766.804	45899.47
767.14	45862.18
767.476	45677.1
767.812	45586.48
768.148	45658.35
768.485	45298.36
768.821	45141.52
769.157	44977.69
769.492	44947.63
769.828	44798.71
770.164	44440.07
770.5	44240.76
770.836	44362.11
771.171	44135.68
771.507	44041.21
771.842	43743.6
772.178	43817.27
772.513	43610.49
772.849	43443.49
773.184	43370.95
773.519	43286.88
773.855	43040.34
774.19	42927.8
774.525	42718.99
774.86	42591.54
775.195	42509.5
775.53	42368.72
775.865	42119.68
776.2	41950.87
776.535	41658.23
776.87	41689.41
777.205	41451
777.539	41389.53
777.874	41534.84
778.209	40960.39
778.543	41056.89
778.878	40684.92
779.212	40737.35
779.547	40410.58
779.881	40467.3
780.215	40152.28
780.55	40269.11
780.884	39872.51
781.218	39767.2
781.552	39776.92
781.886	39452.41
782.22	39392.52
782.554	39262.58
782.888	38915.25
783.222	38677.97
783.556	38756.16
783.889	38477.75
784.223	38339.9
784.557	38328.14
784.89	38345.09
785.224	38001.83
785.557	37847.48
785.891	37849.97
786.224	37746.69
786.558	37682.51
786.891	37487.49
787.224	37161.4
787.557	37100.38
787.891	37087.95
788.224	36817.22
788.557	36820.84
788.89	36644.57
789.223	36521.41
789.556	36337.24
789.888	36282.55
790.221	36107.86
790.554	36074.64
790.887	35913.52
791.219	35689.57
791.552	35733.41
791.884	35623.58
792.217	35408.67
792.549	35299.98
792.882	35119.42
793.214	35122.58
793.546	35077.38
793.879	34854.34
794.211	34460.22
794.543	34781.57
794.875	34489.15
795.207	34343.16
795.539	34243.05
795.871	34376.84
796.203	34175.03
796.535	33681.26
796.867	33930.07
797.198	33685.1
797.53	33597.87
797.862	33417.99
798.193	33477.42
798.525	33265.45
798.856	33456.86
799.188	33011.9
799.519	32817.1
799.85	32773.49
800.182	32779.59
800.513	32799.7
800.844	32331.69
801.175	32649.88
801.506	32473.16
801.837	32278.81
802.168	32165.14
802.499	32265.48
802.83	32005.37
803.161	31866.62
803.491	31964.47
803.822	31942.78
804.153	31595.44
804.483	31310.48
804.814	31354.99
805.145	31364.71
805.475	31366.75
805.805	31275.9
806.136	31155.45
806.466	31072.74
806.796	30960.65
807.126	30715.69
807.457	30756.82
807.787	30652.19
808.117	30633.66
808.447	30566.99
808.777	30583.49
809.107	30424.62
809.436	30200.67
809.766	30098.53
810.096	30094.24
810.426	29950.29
810.755	30034.58
811.085	29736.51
811.414	29988.48
811.744	29755.71
812.073	29675.04
812.403	29491.99
812.732	29411.54
813.061	29555.04
813.39	29432.56
813.719	29280.93
814.049	29409.28
814.378	29423.97
814.707	29141.49
815.036	29047.71
815.365	28805.46
815.693	28784.44
816.022	28761.39
816.351	28571.79
816.68	28390.55
817.008	28572.47
817.337	28305.81
817.665	28293.61
817.994	28252.7
818.322	28448.86
818.651	28269.43
818.979	28259.26
819.307	28169.77
819.636	28137.9
819.964	27962.09
820.292	28097.68
820.62	27941.75
820.948	28019.72
821.276	28001.41
821.604	27978.59
821.932	28147.85
822.259	27833.05
822.587	27908.31
822.915	27744.02
823.243	27944.91
823.57	27665.37
823.898	28016.78
824.225	27840.74
824.553	27836.44
824.88	27781.3
825.207	27998.7
825.535	27889.32
825.862	28035.76
826.189	27800.74
826.516	28014.97
826.843	27972.71
827.17	27990.11
827.497	27948.08
827.824	27903.56
828.151	28070.11
828.478	27872.83
828.805	28104.91
829.131	27939.49
829.458	28008.19
829.785	27702.66
830.111	27944.01
830.438	28062.88
830.764	27889.78
831.09	27929.1
831.417	27674.19
831.743	27871.24
832.069	27722.77
832.395	27863.11
832.722	27845.71
833.048	27627.86
833.374	27836.67
833.7	27616.56
834.026	27782.66
834.351	27698.37
834.677	27887.74
835.003	27562.78
835.329	27612.95
835.654	27511.93
835.98	27426.06
836.306	27704.24
836.631	27514.19
836.956	27663.11
837.282	27579.5
837.607	27490.92
837.932	27337.7
838.258	27405.04
838.583	27339.06
838.908	27168.21
839.233	27289.11
839.558	27185.39
839.883	27152.62
840.208	27016.8
840.533	27064.94
840.858	27159.17
841.182	27037.37
841.507	26967.99
841.832	26697.26
842.156	26890.03
842.481	26693.2
842.805	26734.1
843.13	26580.88
843.454	26685.96
843.778	26502.47
844.103	26483.26
844.427	26401.68
844.751	26390.15
845.075	26482.58
845.399	26333.43
845.723	26079.88
846.047	26231.74
846.371	25961.69
846.695	25927.57
847.019	25812.99
847.343	25605.09
847.666	25577.97
847.99	25487.58
848.313	25209.62
848.637	25298.2
848.96	25203.52
849.284	25091.88
849.607	24938.67
849.931	24951.55
850.254	24824.32
850.577	24606.92
850.9	24411.9
851.223	24391.34
851.546	24256.65
851.869	24242.41
852.192	24424.1
852.515	24018.46
852.838	23945.02
853.161	24004.45
853.483	23811.69
853.806	23861.18
854.129	23720.85
854.451	23716.1
854.774	23601.07
855.096	23406.96
855.419	23382.55
855.741	23315.21
856.063	23212.38
856.385	23236.79
856.708	23145.04
857.03	23035.67
857.352	22929.68
857.674	22952.28
857.996	22844.71
858.318	22777.82
858.64	22733.53
858.961	22714.09
859.283	22689.46
859.605	22511.61
859.926	22471.84
860.248	22367.21
860.57	22329.7
860.891	22334.22
861.212	22217.16
861.534	22106.88
861.855	21982.13
862.176	22117.72
862.498	22168.57
862.819	22046.31
863.14	22050.83
863.461	21992.53
863.782	21836.6
864.103	21831.86
864.424	21714.57
864.745	21964.51
865.065	21671.63
865.386	21541.69
865.707	21608.13
866.027	21593.22
866.348	21494.46
866.668	21510.06
866.989	21431.41
867.309	21243.4
867.63	21271.64
867.95	21390.96
868.27	21203.17
868.59	21332.89
868.91	21193.23
869.23	21258.76
869.55	21092.21
869.87	21172.44
870.19	20994.36
870.51	21026.23
870.83	21032.78
871.15	20835.95
871.469	20878.21
871.789	20998.43
872.109	20847.7
872.428	20833.69
872.748	20959.34
873.067	20778.55
873.386	20758.21
873.706	20729.06
874.025	20633.24
874.344	20625.79
874.663	20662.39
874.982	20583.3
875.301	20554.6
875.62	20422.85
875.939	20411.55
876.258	20455.17
876.577	20260.15
876.896	20359.35
877.214	20331.33
877.533	20286.59
877.852	20279.81
878.17	20260.15
878.489	20232.12
878.807	20088.17
879.125	20149.64
879.444	20104.22
879.762	20058.12
880.08	20088.17
880.398	19853.15
880.716	19939.7
881.034	19925.24
881.352	19821.51
881.67	19760.72
881.988	19787.39
882.306	19705.13
882.624	19728.41
882.941	19680.05
883.259	19521.86
883.577	19527.74
883.894	19488.19
884.212	19494.74
884.529	19408.19
884.846	19322.54
885.164	19285.26
885.481	19302.88
885.798	19258.36
886.115	19193.51
886.432	19151.25
886.75	19143.34
887.067	19018.82
887.383	19045.26
887.7	19018.37
888.017	18855.89
888.334	18895.89
888.651	18872.84
888.967	18836.23
889.284	18678.27
889.6	18632.17
889.917	18471.72
890.233	18570.25
890.55	18523.92
890.866	18457.71
891.182	18372.06
891.498	18434.2
891.815	18288.67
892.131	18146.3
892.447	18128
892.763	18164.16
893.079	18060.66
893.395	17932.07
893.71	17954.67
894.026	17924.84
894.342	17873.77
894.657	17735.47
894.973	17724.17
895.289	17666.32
895.604	17608.24
895.92	17627.9
896.235	17495.92
896.55	17424.06
896.865	17459.77
897.181	17401.24
897.496	17354.91
897.811	17278.75
898.126	17139.32
898.441	17214.35
898.756	17060
899.071	17027.24
899.386	16988.82
899.7	16852.33
900.015	16803.51
900.33	16714.02
900.644	16629.51
900.959	16618.21
901.273	16636.51
901.588	16548.83
901.902	16486.91
902.216	16349.97
902.531	16374.6
902.845	16251.44
903.159	16102.74
903.473	16142.74
903.787	16039.92
904.101	15925.8
904.415	15989.3
904.729	15963.31
905.042	15854.84
905.356	15843.76
905.67	15759.7
905.984	15762.86
906.297	15687.38
906.611	15556.09
906.924	15546.82
907.237	15547.73
907.551	15477.67
907.864	15337.11
908.177	15304.8
908.491	15273.61
908.804	15231.12
909.117	15119.72
909.43	14940.96
909.743	14944.35
910.056	14860.74
910.368	14895.99
910.681	14783
910.994	14714.53
911.307	14612.38
911.619	14498.04
911.932	14596.79
912.244	14466.63
912.557	14354.31
912.869	14438.83
913.181	14340.07
913.494	14288.78
913.806	14168.78
914.118	14160.64
914.43	14053.3
914.742	13979.41
915.054	13914.55
915.366	13851.27
915.678	13811.95
915.99	13761.33
916.302	13616.93
916.613	13554.78
916.925	13627.78
917.236	13566.54
917.548	13484.96
917.859	13539.42
918.171	13354.11
918.482	13357.73
918.794	13300.78
919.105	13289.48
919.416	13174.91
919.727	13163.38
920.038	13034.8
920.349	12949.83
920.66	12883.62
920.971	12869.38
921.282	12821.47
921.593	12815.14
921.903	12719.55
922.214	12623.06
922.525	12560.46
922.835	12594.13
923.146	12461.48
923.456	12463.51
923.767	12303.29
924.077	12325.44
924.387	12348.49
924.697	12249.96
925.008	12162.05
925.318	12170.87
925.628	12118.21
925.938	12048.61
926.248	11983.3
926.558	11873.25
926.867	11896.52
927.177	11823.08
927.487	11733.59
927.796	11661.28
928.106	11630.54
928.416	11607.72
928.725	11555.74
929.034	11494.5
929.344	11575.63
929.653	11445.46
929.962	11371.34
930.271	11366.82
930.581	11218.12
930.89	11172.7
931.199	11117.79
931.508	11094.96
931.817	11053.16
932.125	11074.17
932.434	11000.73
932.743	10850
933.051	10813.84
933.36	10852.26
933.669	10767.51
933.977	10682.54
934.286	10653.84
934.594	10613.39
934.902	10518.71
935.21	10509.89
935.519	10428.09
935.827	10425.15
936.135	10344.25
936.443	10338.82
936.751	10232.84
937.059	10262.44
937.367	10124.59
937.674	10222.9
937.982	10106.51
938.29	10066.06
938.597	10026.74
938.905	9911.49
939.213	9920.53
939.52	9879.4
939.827	9936.57
940.135	9840.98
940.442	9783.58
940.749	9823.81
941.056	9776.13
941.363	9632.85
941.67	9620.88
941.977	9591.95
942.284	9473.31
942.591	9540.65
942.898	9451.84
943.205	9370.04
943.511	9403.48
943.818	9316.93
944.125	9249.59
944.431	9179.08
944.738	9184.5
945.044	9108.8
945.35	9160.1
945.657	9067.22
945.963	8983.83
946.269	8980.22
946.575	8976.37
946.881	8910.16
947.187	8886.66
947.493	8831.75
947.799	8849.37
948.105	8673.11
948.41	8629.04
948.716	8714.23
949.022	8658.42
949.327	8602.6
949.633	8547.68
949.938	8563.28
950.244	8535.26
950.549	8483.28
950.854	8433.11
951.16	8334.58
951.465	8318.54
951.77	8219.33
952.075	8271.99
952.38	8213
952.685	8235.15
952.99	8105.21
953.294	8132.33
953.599	8042.84
953.904	8003.97
954.209	8045.1
954.513	8003.29
954.818	7937.31
955.122	7883.07
955.426	7801.04
955.731	7798.55
956.035	7795.39
956.339	7768.27
956.643	7686.46
956.948	7631.1
957.252	7608.73
957.556	7637.43
957.86	7541.61
958.163	7552.23
958.467	7420.93
958.771	7472.68
959.075	7426.13
959.378	7365.34
959.682	7330.09
959.985	7322.18
960.289	7286.48
960.592	7270.88
960.896	7259.58
961.199	7186.59
961.502	7171.22
961.805	7155.86
962.108	7091.23
962.411	7060.72
962.714	7006.93
963.017	6993.15
963.32	7025.01
963.623	6933.49
963.926	6898.91
964.228	6872.02
964.531	6828.41
964.833	6841.52
965.136	6770.1
965.438	6750.44
965.741	6708.19
966.043	6717.68
966.345	6698.92
966.648	6624.12
966.95	6604.91
967.252	6555.42
967.554	6592.71
967.856	6484.46
968.158	6483.78
968.46	6440.85
968.761	6422.99
969.063	6393.84
969.365	6397.46
969.666	6323.11
969.968	6281.53
970.269	6284.02
970.571	6223
970.872	6234.3
971.174	6136.67
971.475	6185.71
971.776	6134.41
972.077	6107.75
972.378	6070.01
972.679	6055.1
972.98	6038.37
973.281	6004.02
973.582	6001.54
973.883	5894.42
974.183	5911.14
974.484	5910.69
974.785	5819.85
975.085	5836.8
975.386	5815.55
975.686	5760.41
975.986	5783.01
976.287	5726.06
976.587	5707.31
976.887	5665.5
977.187	5689.23
977.487	5606.52
977.787	5562.45
978.087	5583.47
978.387	5533.98
978.687	5510.02
978.987	5465.73
979.286	5492.17
979.586	5456.92
979.885	5424.15
980.185	5377.37
980.484	5323.14
980.784	5291.5
981.083	5342.35
981.382	5286.3
981.682	5282.01
981.981	5257.6
982.28	5214.21
982.579	5172.86
982.878	5218.05
983.177	5131.5
983.475	5160.66
983.774	5077.72
984.073	5035.46
984.372	4991.17
984.67	5038.17
984.969	5043.37
985.267	4983.48
985.566	4949.36
985.864	4939.42
986.162	4896.93
986.461	4851.06
986.759	4893.09
987.057	4811.74
987.355	4812.87
987.653	4804.28
987.951	4744.17
988.249	4743.94
988.547	4695.81
988.844	4674.11
989.142	4703.49
989.44	4652.87
989.737	4664.85
990.035	4572.2
990.332	4594.57
990.63	4602.7
990.927	4559.99
991.224	4567.9
991.521	4493.33
991.819	4475.48
992.116	4412.43
992.413	4464.63
992.71	4358.19
993.006	4362.71
993.303	4336.5
993.6	4376.72
993.897	4320.68
994.193	4302.6
994.49	4312.09
994.787	4235.26
995.083	4199.78
995.379	4224.63
995.676	4171.08
995.972	4193.45
996.268	4217.63
996.565	4093.79
996.861	4084.98
997.157	4103.73
997.453	4070.97
997.749	4044.3
998.044	3981.48
998.34	3999.56
998.636	3987.35
998.932	3977.64
999.227	3926.56
999.523	3894.25
999.818	3890.86
1000.114	3909.16
1000.409	3827.81
1000.704	3826
1001	3764.99
1001.295	3766.34
1001.59	3789.62
1001.885	3745.33
1002.18	3703.52
1002.475	3724.31
1002.77	3684.76
1003.065	3655.16
1003.359	3640.24
1003.654	3619
1003.949	3570.87
1004.243	3581.49
1004.538	3530.19
1004.832	3559.34
1005.127	3520.02
1005.421	3473.69
1005.715	3473.24
1006.009	3484.77
1006.304	3412.45
1006.598	3379.69
1006.892	3384.88
1007.186	3348.5
1007.48	3383.53
1007.773	3317.09
1008.067	3322.29
1008.361	3285.22
1008.655	3275.06
1008.948	3209.75
1009.242	3245.68
1009.535	3181.95
1009.829	3199.12
1010.122	3141.95
1010.415	3176.75
1010.708	3111.9
1011.001	3066.93
1011.295	3083.2
1011.588	3056.76
1011.881	3052.69
1012.173	3049.3
1012.466	3003.42
1012.759	2970.66
1013.052	2947.83
1013.344	2963.65
1013.637	2923.2
1013.93	2887.49
1014.222	2894.05
1014.514	2874.61
1014.807	2879.81
1015.099	2824.45
1015.391	2828.06
1015.683	2802.53
1015.976	2817.21
1016.268	2769.98
1016.56	2701.28
1016.851	2753.71
1017.143	2678.01
1017.435	2717.33
1017.727	2708.29
1018.018	2657.67
1018.31	2655.64
1018.602	2652.25
1018.893	2607.5
1019.185	2604.56
1019.476	2585.58
1019.767	2568.18
1020.058	2546.94
1020.35	2471.23
1020.641	2493.15
1020.932	2461.29
1021.223	2456.09
1021.514	2480.5
1021.804	2427.17
1022.095	2433.5
1022.386	2401.86
1022.677	2387.17
1022.967	2334.06
1023.258	2321.18
1023.548	2296.78
1023.839	2299.49
1024.129	2262.88
1024.419	2245.03
1024.709	2208.19
1025	2260.39
1025.29	2203.9
1025.58	2203.44
1025.87	2175.65
1026.16	2178.59
1026.449	2132.26
1026.739	2121.19
1027.029	2080.51
1027.319	2093.84
1027.608	2102.43
1027.898	2071.02
1028.187	2075.76
1028.477	2044.35
1028.766	2053.39
1029.055	2020.62
1029.344	1976.56
1029.634	2004.81
1029.923	1994.18
1030.212	1995.31
1030.501	1970.23
1030.79	1930.68
1031.078	1902.44
1031.367	1888.2
1031.656	1892.49
1031.945	1882.78
1032.233	1848.88
1032.522	1850.01
1032.81	1841.65
1033.099	1838.48
1033.387	1797.13
1033.675	1808.43
1033.963	1790.57
1034.251	1728.88
1034.54	1771.82
1034.828	1754.42
1035.116	1743.8
1035.403	1696.79
1035.691	1696.79
1035.979	1706.51
1036.267	1704.7
1036.554	1662.22
1036.842	1634.65
1037.129	1631.48
1037.417	1619.73
1037.704	1640.07
1037.992	1626.51
1038.279	1632.39
1038.566	1600.97
1038.853	1600.97
1039.14	1600.97
