Data from 17-1436_FLMS001491_006.txt Node
Date: Thu Apr 19 16:29:07 BST 2018
User: hsy
Spectrometer: FLMS00149
Trigger mode: 0
Integration Time (sec): 1.000000E-2
Scans to average: 10
Electric dark correction enabled: true
Nonlinearity correction enabled: false
Boxcar width: 0
XAxis mode: Wavelengths
Number of Pixels in Spectrum: 2048
>>>>>Begin Spectral Data<<<<<
341.393	-10.85
341.776	-10.85
342.16	-10.85
342.543	-50.85
342.927	-65.76
343.31	-73.22
343.693	-74.35
344.077	-68.25
344.46	-73.22
344.843	-43.39
345.226	-37.29
345.61	-16.5
345.993	-25.08
346.376	-15.37
346.759	17.85
347.142	37.06
347.525	54.01
347.908	72.99
348.291	71.41
348.674	68.7
349.057	104.63
349.44	135.59
349.823	126.32
350.206	146.66
350.588	230.73
350.971	237.96
351.354	248.58
351.737	299.2
352.119	296.04
352.502	303.49
352.884	301.46
353.267	321.12
353.65	354.11
354.032	355.92
354.414	334.68
354.797	337.39
355.179	351.18
355.562	344.62
355.944	376.26
356.326	367.45
356.709	378.3
357.091	369.93
357.473	371.52
357.855	374.68
358.238	385.75
358.62	378.75
359.002	385.75
359.384	386.88
359.766	396.6
360.148	389.37
360.53	376.71
360.912	384.85
361.294	369.26
361.676	368.13
362.057	350.27
362.439	392.08
362.821	379.2
363.203	372.42
363.584	369.93
363.966	372.42
364.348	367.45
364.729	369.71
365.111	374
365.493	376.04
365.874	370.16
366.256	366.09
366.637	356.6
367.019	364.28
367.4	373.55
367.781	377.17
368.163	375.81
368.544	375.58
368.925	387.11
369.306	366.54
369.688	371.29
370.069	378.3
370.45	374.45
370.831	358.63
371.212	353.66
371.593	393.21
371.974	366.54
372.355	391.85
372.736	368.8
373.117	374.91
373.498	393.44
373.879	402.25
374.26	379.2
374.641	380.33
375.021	352.08
375.402	382.81
375.783	375.36
376.163	429.14
376.544	395.24
376.925	405.19
377.305	390.5
377.686	400.67
378.066	397.96
378.447	418.75
378.827	398.41
379.208	400.89
379.588	400.22
379.968	403.38
380.349	432.31
380.729	404.74
381.109	421.23
381.489	420.1
381.87	441.34
382.25	415.81
382.63	443.6
383.01	436.15
383.39	443.83
383.77	446.99
384.15	455.13
384.53	434.11
384.91	422.36
385.29	437.5
385.67	454.9
386.049	452.42
386.429	479.54
386.809	475.24
387.189	466.43
387.568	466.2
387.948	475.47
388.328	483.6
388.707	473.43
389.087	442.93
389.466	497.84
389.846	482.7
390.225	494
390.605	511.62
390.984	499.42
391.363	505.07
391.743	502.13
392.122	512.75
392.501	522.92
392.881	509.14
393.26	543.94
393.639	517.05
394.018	538.74
394.397	530.38
394.776	511.17
395.155	525.18
395.534	529.7
395.913	526.77
396.292	540.78
396.671	547.33
397.05	529.25
397.429	569.48
397.808	552.98
398.186	579.19
398.565	591.62
398.944	589.14
399.323	574
399.701	608.12
400.08	607.89
400.458	581.45
400.837	589.14
401.215	590.49
401.594	611.51
401.972	620.1
402.351	608.57
402.729	588.91
403.107	598.85
403.486	611.96
403.864	606.31
404.242	619.87
404.62	641.57
404.999	631.4
405.377	639.31
405.755	650.6
406.133	632.98
406.511	641.57
406.889	677.04
407.267	667.55
407.645	676.37
408.023	678.17
408.401	689.47
408.779	708.46
409.156	682.47
409.534	703.03
409.912	737.38
410.29	730.6
410.667	730.83
411.045	758.4
411.422	751.17
411.8	771.73
412.178	772.64
412.555	785.74
412.933	764.05
413.31	785.74
413.687	810.83
414.065	796.36
414.442	820.54
414.819	819.41
415.197	818.28
415.574	882.01
415.951	849.24
416.328	863.48
416.705	840.43
417.082	851.5
417.46	872.52
417.837	905.74
418.214	894.89
418.591	896.93
418.967	934.89
419.344	949.81
419.721	932.18
420.098	930.82
420.475	941.67
420.852	957.04
421.228	963.14
421.605	972.18
421.982	976.92
422.358	993.19
422.735	972.63
423.111	977.15
423.488	988.22
423.864	1012.4
424.241	1020.09
424.617	1015.57
424.994	1025.96
425.37	1043.59
425.746	1053.08
426.123	1069.12
426.499	1065.73
426.875	1077.03
427.251	1086.75
427.627	1105.73
428.003	1146.64
428.379	1129.01
428.756	1166.52
429.132	1175.11
429.507	1173.08
429.883	1175.79
430.259	1196.35
430.635	1216.01
431.011	1200.42
431.387	1243.13
431.763	1269.57
432.138	1242.91
432.514	1286.75
432.89	1296.46
433.265	1308.89
433.641	1330.13
434.016	1329.23
434.392	1344.37
434.767	1381.66
435.143	1357.7
435.518	1371.26
435.894	1394.99
436.269	1430.47
436.644	1453.3
437.02	1473.18
437.395	1458.04
437.77	1483.58
438.145	1479.96
438.52	1498.72
438.895	1527.64
439.271	1523.35
439.646	1546.85
440.021	1556.34
440.395	1557.47
440.77	1550.47
441.145	1575.78
441.52	1599.51
441.895	1603.57
442.27	1635.44
442.645	1631.82
443.019	1653.74
443.394	1669.56
443.769	1663.91
444.143	1636.79
444.518	1695.32
444.892	1658.49
445.267	1677.24
445.641	1684.02
446.016	1680.41
446.39	1743.23
446.764	1716.57
447.139	1742.55
447.513	1729.67
447.887	1745.26
448.262	1760.18
448.636	1791.82
449.01	1816.45
449.384	1821.87
449.758	1830.46
450.132	1815.77
450.506	1878.82
450.88	1869.56
451.254	1859.84
451.628	1909.78
452.002	1926.28
452.376	1944.58
452.75	1947.97
453.123	1962.43
453.497	1993.39
453.871	2032.49
454.244	2021.87
454.618	2089.44
454.992	2118.81
455.365	2113.16
455.739	2169.89
456.112	2150.68
456.486	2183.45
456.859	2182.32
457.232	2283.1
457.606	2232.03
457.979	2270
458.352	2322.88
458.725	2345.7
459.099	2353.61
459.472	2418.24
459.845	2417.79
460.218	2423.21
460.591	2476.09
460.964	2507.28
461.337	2513.83
461.71	2557.67
462.083	2600.16
462.456	2616.65
462.829	2627.05
463.201	2651.68
463.574	2691.45
463.947	2706.82
464.32	2764.9
464.692	2783.88
465.065	2817.78
465.438	2860.49
465.81	2824.56
466.183	2866.37
466.555	2950.43
466.928	2987.27
467.3	2955.4
467.672	2990.2
468.045	3068.62
468.417	3060.71
468.789	3100.94
469.161	3114.95
469.534	3159.92
469.906	3256.64
470.278	3269.74
470.65	3305.9
471.022	3363.3
471.394	3401.49
471.766	3440.14
472.138	3433.36
472.51	3535.5
472.882	3596.52
473.253	3589.28
473.625	3671.54
473.997	3749.05
474.369	3742.05
474.74	3744.53
475.112	3849.39
475.484	3909.05
475.855	3980.46
476.227	4061.36
476.598	4099.78
476.97	4159.44
477.341	4280.34
477.713	4324.63
478.084	4367.57
478.455	4442.14
478.827	4516.94
479.198	4595.13
479.569	4606.66
479.94	4768.24
480.311	4828.35
480.682	4894.56
481.053	5008.23
481.424	5080.09
481.795	5126.64
482.166	5186.53
482.537	5269.01
482.908	5399.41
483.279	5446.64
483.65	5525.05
484.021	5688.44
484.391	5781.54
484.762	5825.38
485.133	5815.89
485.503	5974.31
485.874	6096.34
486.244	6169.1
486.615	6283.22
486.985	6352.6
487.356	6486.84
487.726	6507.4
488.097	6708.07
488.467	6717.11
488.837	6901.06
489.207	7016.31
489.578	7075.07
489.948	7185.57
490.318	7361.84
490.688	7356.19
491.058	7527.71
491.428	7579.24
491.798	7680.93
492.168	7855.39
492.538	7982.61
492.908	8020.35
493.278	8202.72
493.648	8212.44
494.017	8327.24
494.387	8432.55
494.757	8524.75
495.126	8559.77
495.496	8656.04
495.866	8729.26
496.235	8883.16
496.605	9017.84
496.974	9063.72
497.344	9147.33
497.713	9187.56
498.082	9356.36
498.452	9392.07
498.821	9536.47
499.19	9541.9
499.559	9657.15
499.928	9665.96
500.298	9833.41
500.667	10046.97
501.036	10044.48
501.405	10109.79
501.774	10184.36
502.143	10302.1
502.512	10296.9
502.88	10468.88
503.249	10453.74
503.618	10531.02
503.987	10561.3
504.356	10685.14
504.724	10820.28
505.093	10836.33
505.462	10919.71
505.83	11031.35
506.199	11052.59
506.567	11211.23
506.936	11286.93
507.304	11439.47
507.672	11482.86
508.041	11554.72
508.409	11714.49
508.777	11694.83
509.145	11869.29
509.514	11897.31
509.882	11952.68
510.25	12085.11
510.618	12233.8
510.986	12234.48
511.354	12429.28
511.722	12452.1
512.09	12596.05
512.458	12589.95
512.826	12731.42
513.193	12817.52
513.561	12906.33
513.929	13020.22
514.297	13128.02
514.664	13291.85
515.032	13366.65
515.4	13469.93
515.767	13550.38
516.135	13603.94
516.502	13583.6
516.869	13904.27
517.237	13918.28
517.604	13824.5
517.972	14105.62
518.339	14214.09
518.706	14309.45
519.073	14353.29
519.44	14397.14
519.808	14677.13
520.175	14671.25
520.542	14930
520.909	14998.02
521.276	14986.72
521.643	15230.33
522.009	15311.69
522.376	15472.59
522.743	15463.55
523.11	15767.5
523.477	15860.15
523.843	15848.17
524.21	16133.81
524.577	16289.06
524.943	16416.29
525.31	16417.42
525.676	16703.29
526.043	16896.96
526.409	16948.03
526.776	17065.77
527.142	17204.52
527.508	17320.67
527.874	17598.86
528.241	17621.91
528.607	17764.96
528.973	17905.52
529.339	17921.34
529.705	18195.45
530.071	18387.31
530.437	18391.83
530.803	18659.4
531.169	18669.11
531.535	18721.99
531.901	18845.61
532.267	18886.06
532.632	19155.65
532.998	19199.5
533.364	19394.07
533.73	19338.93
534.095	19672.93
534.461	19668.64
534.826	19815.52
535.192	19867.27
535.557	20049.87
535.923	20100.49
536.288	20160.15
536.653	20255.29
537.019	20254.61
537.384	20416.41
537.749	20523.53
538.114	20588.39
538.479	20564.88
538.845	20654.15
539.21	20745.44
539.575	20881.48
539.94	20929.62
540.305	21017.75
540.67	21131.42
541.034	21062.5
541.399	21140.69
541.764	21264.3
542.129	21419.78
542.494	21470.85
542.858	21588.36
543.223	21522.6
543.587	21816.15
543.952	21623.61
544.316	21847.11
544.681	21830.61
545.045	21956.48
545.41	22006.65
545.774	22012.3
546.138	22128.46
546.503	22269.47
546.867	22230.83
547.231	22445.74
547.595	22519.86
547.959	22579.52
548.324	22630.59
548.688	22727.54
549.052	22818.84
549.416	22783.58
549.779	22902.9
550.143	23008.89
550.507	23040.07
550.871	23238.26
551.235	23173.4
551.599	23563.22
551.962	23540.17
552.326	23494.07
552.689	23586.72
553.053	23547.63
553.417	23665.82
553.78	23963.21
554.143	23894.74
554.507	24053.83
554.87	24098.58
555.234	24338.34
555.597	24284.11
555.96	24360.26
556.323	24542.63
556.686	24493.14
557.05	24785.11
557.413	24774.72
557.776	24897.42
558.139	25024.2
558.502	25179.22
558.865	25164.08
559.228	25395.04
559.59	25381.25
559.953	25682.04
560.316	25810.62
560.679	25940.56
561.041	25912.76
561.404	26149.37
561.767	26298.07
562.129	26350.04
562.492	26601.56
562.854	26672.07
563.217	26705.96
563.579	26934.21
563.941	27044.71
564.304	27214.65
564.666	27376.68
565.028	27443.8
565.39	27513.63
565.753	27887.85
566.115	27887.18
566.477	28072.48
566.839	28119.94
567.201	28626.82
567.563	28404.68
567.925	28712.47
568.287	28804.89
568.648	29020.03
569.01	29088.27
569.372	29475.16
569.734	29434.71
570.095	29672.21
570.457	30007.12
570.819	29875.15
571.18	30038.76
571.542	30196.27
571.903	30359.65
572.265	30437.39
572.626	30697.95
572.987	30767.1
573.349	31091.39
573.71	31214.09
574.071	31328.44
574.432	31616.12
574.794	31875.09
575.155	31869.67
575.516	31991.48
575.877	32216.55
576.238	32289.77
576.599	32417
576.96	32597.33
577.32	32718.24
577.681	32841.85
578.042	33093.37
578.403	33079.81
578.763	33134.27
579.124	33298.56
579.485	33621.94
579.845	33777.19
580.206	33779.45
580.566	33893.35
580.927	33914.36
581.287	34301.02
581.648	34166.33
582.008	34334.92
582.368	34610.16
582.728	34636.6
583.089	34688.58
583.449	34963.83
583.809	35088.57
584.169	35305.96
584.529	35215.12
584.889	35694.65
585.249	35528.56
585.609	35528.56
585.969	35961.77
586.329	35838.15
586.688	36130.12
587.048	36338.48
587.408	36402.88
587.768	36525.82
588.127	36833.38
588.487	36817.34
588.846	37230.43
589.206	37142.98
589.565	37358.11
589.925	37788.61
590.284	37731.89
590.643	38009.62
591.003	38248.26
591.362	38665.42
591.721	38715.82
592.08	38960.78
592.44	39200.33
592.799	39397.83
593.158	39461.34
593.517	39688.67
593.876	39953.3
594.235	40046.86
594.593	40322.56
594.952	40474.19
595.311	40658.59
595.67	40850.23
596.029	41207.96
596.387	41453.83
596.746	41878.67
597.104	41807.26
597.463	41927.71
597.822	42324.76
598.18	42477.08
598.538	42639.1
598.897	42965.65
599.255	42888.14
599.613	43548.01
599.972	43367.22
600.33	43717.49
600.688	43879.07
601.046	44052.4
601.404	44569
601.762	44679.05
602.12	44812.16
602.478	45023.67
602.836	45246.49
603.194	45166.5
603.552	45523.55
603.91	45619.82
604.268	45789.3
604.625	45920.83
604.983	46174.61
605.341	46157.66
605.698	46420.93
606.056	46922.16
606.413	46783.4
606.771	47129.61
607.128	47246.44
607.485	47357.85
607.843	47418.19
608.2	47801.68
608.557	47883.26
608.914	47983.37
609.272	48222.91
609.629	48503.58
609.986	48655.9
610.343	48622
610.7	48941.31
611.057	48976.79
611.414	49035.55
611.771	49282.32
612.127	49456.78
612.484	49555.76
612.841	49576.32
613.198	49550.34
613.554	49778.8
613.911	49920.95
614.267	50004.33
614.624	50035.29
614.98	50219.92
615.337	50602.51
615.693	50554.38
616.05	50702.62
616.406	50822.39
616.762	50741.04
617.118	50861.04
617.475	50803.86
617.831	51066.68
618.187	51185.09
618.543	51241.36
618.899	51407.46
619.255	51381.7
619.611	51375.6
619.967	51618.98
620.323	51736.49
620.678	51686.55
621.034	51637.51
621.39	51767.9
621.746	51696.49
622.101	52147.56
622.457	51781.01
622.812	51992.08
623.168	52069.37
623.523	52025.98
623.879	52151.4
624.234	51994.79
624.589	52229.14
624.945	52141.68
625.3	52258.96
625.655	52314.78
626.01	52269.36
626.365	52442.91
626.72	52346.65
627.075	52265.74
627.43	52229.14
627.785	52355.69
628.14	52377.38
628.495	52358.85
628.85	52442.91
629.205	52360.43
629.559	52501.67
629.914	52335.57
630.269	52509.35
630.623	52225.97
630.978	52242.24
631.332	52443.82
631.687	52474.33
632.041	52320.88
632.396	52397.49
632.75	52323.82
633.104	52383.93
633.459	52263.71
633.813	52186.42
634.167	52188.01
634.521	52171.51
634.875	52186.2
635.229	52107.56
635.583	51971.06
635.937	51985.98
636.291	52018.52
636.645	51948.46
636.999	51882.7
637.352	51891.06
637.706	51785.53
638.06	51865.53
638.413	51874.34
638.767	51758.41
639.121	51654.69
639.474	51685.19
639.828	51708.47
640.181	51486.78
640.534	51678.64
640.888	51557.29
641.241	51374.92
641.594	51427.8
641.947	51586.21
642.301	51411.08
642.654	51358.88
643.007	51256.96
643.36	51312.32
643.713	51305.32
644.066	51324.3
644.419	51016.06
644.771	50864.43
645.124	50428.05
645.477	50488.39
645.83	50365.23
646.182	50393.25
646.535	50349.41
646.888	50370.88
647.24	50255.18
647.593	50397.09
647.945	50148.51
648.298	50029.64
648.65	49879.14
649.002	49653.16
649.355	49718.92
649.707	49489.32
650.059	49438.25
650.411	50016.09
650.763	50152.13
651.115	50736.97
651.467	50580.14
651.819	50532
652.171	50453.14
652.523	50298.56
652.875	50427.6
653.227	50141.73
653.578	50555.73
653.93	50309.64
654.282	50196.87
654.633	50166.59
654.985	50303.54
655.337	50167.95
655.688	50157.33
656.039	50200.71
656.391	49878.91
656.742	49987.84
657.094	50042.3
657.445	49974.96
657.796	50025.58
658.147	49895.41
658.498	49899.03
658.849	49891.8
659.2	49836.88
659.551	49803.66
659.902	49963.88
660.253	49786.26
660.604	49982.87
660.955	49800.72
661.306	49809.31
661.656	49764.12
662.007	49728.41
662.358	49748.75
662.708	49772.02
663.059	49694.06
663.409	49534.74
663.76	49758.47
664.11	49737.68
664.461	49786.71
664.811	49721.86
665.161	49787.39
665.511	49531.13
665.862	49613.61
666.212	49722.08
666.562	49742.42
666.912	49641.41
667.262	49575.65
667.612	49664.91
667.962	49608.64
668.312	49500.39
668.662	49735.64
669.011	49608.64
669.361	49570.67
669.711	49485.7
670.06	49437.8
670.41	49507.17
670.76	49464.46
671.109	49633.27
671.459	49464.91
671.808	49462.88
672.157	49540.17
672.507	49312.6
672.856	49261.98
673.205	49301.53
673.554	49485.48
673.904	49268.08
674.253	49633.72
674.602	49235.54
674.951	48938.83
675.3	48689.57
675.649	49202.55
675.998	49304.69
676.346	49364.8
676.695	49374.07
677.044	49239.61
677.393	49140.85
677.741	49355.09
678.09	49194.86
678.438	49128.65
678.787	49160.97
679.135	49158.26
679.484	48989.22
679.832	49247.07
680.181	49051.37
680.529	49062.44
680.877	49022.89
681.225	48933.18
681.573	49071.93
681.922	48880.97
682.27	48826.74
682.618	48748.32
682.966	48634.2
683.314	48631.49
683.661	48608.21
684.009	48591.72
684.357	48433.3
684.705	48421.33
685.053	48410.7
685.4	48328.22
685.748	48217.49
686.095	48212.07
686.443	47931.62
686.79	48042.13
687.138	48146.3
687.485	47942.47
687.832	47897.27
688.18	47977.5
688.527	47708.58
688.874	47699.31
689.221	47622.7
689.568	47599.2
689.915	47450.28
690.262	47530.05
690.609	47316.27
690.956	47279.21
691.303	47281.47
691.65	47056.39
691.997	46902.95
692.344	46744.76
692.69	46745.66
693.037	46780.92
693.383	46510.42
693.73	46490.75
694.077	46226.36
694.423	46340.48
694.769	46220.48
695.116	46132.57
695.462	45821.39
695.808	45811.45
696.155	45939.81
696.501	45570.78
696.847	45682.87
697.193	45443.32
697.539	45538.24
697.885	45101.64
698.231	45120.17
698.577	45146.61
698.923	45159.49
699.269	44814.64
699.614	44733.97
699.96	44609.67
700.306	44698.71
700.651	44473.86
700.997	44298.27
701.342	44156.13
701.688	44084.26
702.033	43819.41
702.379	43913.42
702.724	43772.63
703.069	43902.8
703.415	43427.56
703.76	43359.09
704.105	43447.67
704.45	43247.45
704.795	43059.88
705.14	42968.81
705.485	42856.73
705.83	42774.02
706.175	42857.86
706.52	42720.23
706.865	42450.41
707.209	42527.24
707.554	42400.02
707.899	42430.3
708.243	42150.98
708.588	41971.78
708.932	41889.29
709.277	41894.49
709.621	41766.81
709.966	41505.35
710.31	41548.06
710.654	41334.28
710.998	41485.01
711.342	41401.4
711.687	41234.17
712.031	41153.04
712.375	41038.47
712.719	40934.29
713.063	40878.7
713.407	40963.67
713.75	40670.34
714.094	40635.77
714.438	40515.09
714.782	40482.78
715.125	40175.44
715.469	40532.95
715.812	40155.55
716.156	40088.66
716.499	40219.06
716.843	40117.59
717.186	39852.74
717.53	40065.61
717.873	40110.81
718.216	39823.13
718.559	39626.98
718.902	39451.84
719.246	39475.35
719.589	39447.78
719.932	39484.61
720.275	39389.02
720.617	39413.65
720.96	39076.26
721.303	39349.02
721.646	39214.11
721.989	38975.47
722.331	39015.02
722.674	38940.67
723.016	38929.82
723.359	38756.5
723.701	38697.74
724.044	38603.96
724.386	38491.19
724.729	38607.35
725.071	38556.05
725.413	38587.46
725.755	38382.49
726.097	38385.21
726.439	38262.04
726.782	38161.93
727.124	38311.54
727.465	38132.56
727.807	38024.31
728.149	37910.19
728.491	37934.14
728.833	37906.57
729.175	37897.53
729.516	37790.64
729.858	37728.73
730.199	37878.78
730.541	37708.84
730.882	37626.13
731.224	37690.08
731.565	37453.03
731.906	37499.13
732.248	37520.82
732.589	37439.02
732.93	37225.24
733.271	37308.17
733.612	37244.22
733.953	37283.09
734.294	37260.04
734.635	36995.19
734.976	37320.37
735.317	37031.12
735.658	36918.8
735.999	36978.91
736.339	37004.45
736.68	36994.28
737.021	37076.31
737.361	36753.16
737.702	36984.56
738.042	36727.62
738.383	36956.77
738.723	36892.82
739.063	36619.6
739.404	36634.97
739.744	36560.62
740.084	36454.18
740.424	36681.52
740.764	36487.85
741.104	36539.15
741.444	36288.31
741.784	36286.28
742.124	36436.56
742.464	36312.94
742.804	36179.61
743.143	36139.61
743.483	36099.16
743.823	36132.84
744.162	36048.77
744.502	36094.19
744.841	35969.68
745.181	36030.92
745.52	35842.9
745.86	35918.38
746.199	35798.83
746.538	35679.97
746.877	35917.25
747.216	35780.3
747.556	35612.62
747.895	35657.82
748.234	35524.49
748.573	35336.92
748.911	35388
749.25	35322.01
749.589	35140.77
749.928	35289.24
750.267	35265.51
750.605	35126.31
750.944	35106.42
751.283	35072.3
751.621	35024.62
751.96	34798.63
752.298	34795.92
752.636	34754.57
752.975	34633.21
753.313	34568.81
753.651	34636.6
753.989	34607.68
754.327	34649.26
754.666	34258.53
755.004	34493.1
755.342	34352.54
755.679	34446.1
756.017	34244.52
756.355	34428.47
756.693	34007.24
757.031	34153.68
757.368	33893.12
757.706	33875.72
758.044	33733.35
758.381	33699.68
758.719	33637.31
759.056	33540.36
759.394	33466.24
759.731	33139.69
760.068	33358.9
760.405	33223.99
760.743	33005.46
761.08	33105.57
761.417	32951.22
761.754	32852.92
762.091	32735.18
762.428	32624.45
762.765	32445.93
763.102	32566.83
763.438	32424.01
763.775	32205.71
764.112	32283.9
764.449	32257.68
764.785	32223.56
765.122	31863.12
765.458	31724.82
765.795	31703.12
766.131	31644.59
766.467	31526.4
766.804	31369.8
767.14	31305.39
767.476	31204.83
767.812	31137.26
768.148	31097.49
768.485	30925.97
768.821	30766.87
769.157	30821.11
769.492	30513.77
769.828	30483.27
770.164	30388.58
770.5	30321.69
770.836	30169.38
771.171	30085.76
771.507	29935.94
771.842	29800.8
772.178	29746.79
772.513	29784.08
772.849	29521.48
773.184	29515.83
773.519	29429.96
773.855	29305.9
774.19	29226.58
774.525	29124.43
774.86	29063.87
775.195	28869.07
775.53	28749.53
775.865	28664.56
776.2	28530.55
776.535	28241.74
776.87	28218.47
777.205	28234.06
777.539	28039.04
777.874	28106.83
778.209	27747.29
778.543	27823.9
778.878	27631.14
779.212	27686.73
779.547	27396.79
779.881	27381.43
780.215	27116.58
780.55	27249.45
780.884	27090.14
781.218	26922.68
781.552	26819.63
781.886	26753.19
782.22	26618.28
782.554	26369.48
782.888	26270.27
783.222	26282.47
783.556	26107.79
783.889	26114.34
784.223	25922.48
784.557	25927.91
784.89	25962.48
785.224	25753
785.557	25529.27
785.891	25545.54
786.224	25478.43
786.558	25402.72
786.891	25176.74
787.224	25141.26
787.557	24977.65
787.891	25098.55
788.224	24827.14
788.557	24844.09
788.89	24844.09
789.223	24640.93
789.556	24574.04
789.888	24541.28
790.221	24461.96
790.554	24321.17
790.887	24331.56
791.219	24184.22
791.552	24134.28
791.884	24036.43
792.217	23906.26
792.549	23877.34
792.882	23652.71
793.214	23558.02
793.546	23560.74
793.879	23435.32
794.211	23276.68
794.543	23443
794.875	23335.21
795.207	23240.97
795.539	23152.84
795.871	23142.22
796.203	22959.4
796.535	22817.03
796.867	22850.7
797.198	22642.12
797.53	22706.3
797.862	22543.81
798.193	22615.45
798.525	22389.24
798.856	22519.86
799.188	22192.41
799.519	22162.13
799.85	22099.98
800.182	22096.14
800.513	22043.49
800.844	21761.46
801.175	21974.56
801.506	21902.93
801.837	21775.02
802.168	21679.66
802.499	21697.06
802.83	21509.49
803.161	21433.11
803.491	21448.93
803.822	21471.07
804.153	21204.41
804.483	21161.48
804.814	21066.11
805.145	21059.79
805.475	20997.41
805.805	20867.02
806.136	20950.86
806.466	20822.96
806.796	20803.29
807.126	20647.14
807.457	20649.4
807.787	20609.85
808.117	20574.37
808.447	20478.11
808.777	20580.25
809.107	20354.27
809.436	20333.25
809.766	20298.45
810.096	20291.67
810.426	20108.62
810.755	20193.37
811.085	20031.11
811.414	20141.84
811.744	19954.28
812.073	19913.15
812.403	19866.14
812.732	19811.46
813.061	19866.82
813.39	19767.62
813.719	19637
814.049	19712.02
814.378	19662.31
814.707	19476.55
815.036	19457.12
815.365	19438.13
815.693	19284.01
816.022	19340.73
816.351	19197.69
816.68	19097.12
817.008	19187.07
817.337	18976.45
817.665	19035.43
817.994	18938.03
818.322	19032.95
818.651	18928.54
818.979	18967.64
819.307	18928.77
819.636	18868.2
819.964	18783.23
820.292	18809.22
820.62	18691.94
820.948	18816.23
821.276	18892.84
821.604	18789.56
821.932	18814.87
822.259	18785.95
822.587	18819.39
822.915	18743.46
823.243	18787.98
823.57	18670.7
823.898	18734.65
824.225	18685.16
824.553	18715.67
824.88	18685.84
825.207	18746.17
825.535	18717.25
825.862	18769.45
826.189	18611.71
826.516	18809.22
826.843	18904.14
827.17	18818.04
827.497	18791.14
827.824	18729.9
828.151	18810.8
828.478	18712.28
828.805	18886.28
829.131	18830.24
829.458	18679.96
829.785	18678.38
830.111	18690.13
830.438	18831.82
830.764	18780.07
831.09	18793.4
831.417	18727.42
831.743	18817.81
832.069	18761.54
832.395	18700.07
832.722	18768.09
833.048	18679.28
833.374	18807.42
833.7	18583.69
834.026	18736.23
834.351	18636.57
834.677	18708.66
835.003	18631.15
835.329	18625.5
835.654	18535.78
835.98	18505.28
836.306	18602.45
836.631	18453.07
836.956	18733.52
837.282	18589.34
837.607	18488.55
837.932	18467.31
838.258	18460.31
838.583	18366.97
838.908	18384.38
839.233	18337.37
839.558	18303.47
839.883	18242.68
840.208	18217.37
840.533	18203.59
840.858	18230.93
841.182	18178.05
841.507	18282.46
841.832	18105.96
842.156	18136.25
842.481	18101.9
842.805	17998.85
843.13	18018.28
843.454	17934.9
843.778	17989.13
844.103	17894.67
844.427	17805.63
844.751	17879.53
845.075	17769.93
845.399	17734.9
845.723	17669.14
846.047	17677.5
846.371	17581.91
846.695	17440.67
847.019	17350.73
847.343	17268.92
847.666	17214.46
847.99	17138.98
848.313	17082.04
848.637	17053.34
848.96	16971.08
849.284	16979.21
849.607	16844.08
849.931	16750.29
850.254	16705.55
850.577	16568.83
850.9	16495.61
851.223	16498.32
851.546	16462.84
851.869	16372.22
852.192	16395.05
852.515	16196.86
852.838	16165.22
853.161	16234.38
853.483	16071.22
853.806	16040.48
854.129	16040.71
854.451	15865.57
854.774	15904.44
855.096	15788.29
855.419	15799.13
855.741	15706.03
856.063	15673.03
856.385	15584.45
856.708	15561.62
857.03	15547.84
857.352	15485.92
857.674	15471.68
857.996	15368.41
858.318	15215.19
858.64	15272.59
858.961	15180.17
859.283	15191.24
859.605	15125.25
859.926	15097.91
860.248	15098.59
860.57	14992.6
860.891	14984.46
861.212	14847.75
861.534	14978.14
861.855	14818.59
862.176	14845.94
862.498	14836.22
862.819	14927.07
863.14	14802.32
863.461	14756.22
863.782	14698.14
864.103	14715.09
864.424	14723.23
864.745	14696.56
865.065	14513.06
865.386	14471.48
865.707	14637.58
866.027	14582.89
866.348	14527.08
866.668	14513.52
866.989	14512.16
867.309	14409.56
867.63	14353.29
867.95	14414.54
868.27	14343.13
868.59	14269.91
868.91	14318.72
869.23	14311.94
869.55	14239.17
869.87	14291.15
870.19	14166.63
870.51	14148.78
870.83	14084.83
871.15	13964.83
871.469	14025.39
871.789	14140.87
872.109	14041.21
872.428	14035.79
872.748	14086.18
873.067	14029.69
873.386	13973.87
873.706	13923.02
874.025	13930.26
874.344	13844.61
874.663	13892.74
874.982	13774.1
875.301	13781.78
875.62	13775.23
875.939	13704.95
876.258	13822.01
876.577	13715.35
876.896	13670.6
877.214	13693.88
877.533	13676.93
877.852	13702.01
878.17	13664.05
878.489	13629.92
878.807	13548.12
879.125	13620.88
879.444	13551.28
879.762	13521.9
880.08	13616.14
880.398	13493.43
880.716	13408.01
881.034	13534.56
881.352	13389.93
881.67	13399.87
881.988	13260.44
882.306	13288.24
882.624	13300.89
882.941	13226.32
883.259	13172.53
883.577	13148.35
883.894	13109.71
884.212	13118.98
884.529	13008.92
884.846	12988.36
885.164	12976.38
885.481	13024.29
885.798	12978.42
886.115	12954.46
886.432	12941.13
886.75	12812.32
887.067	12951.75
887.383	12787.46
887.7	12740
888.017	12688.71
888.334	12767.12
888.651	12734.13
888.967	12643.51
889.284	12633.79
889.6	12502.72
889.917	12566.22
890.233	12511.31
890.55	12447.36
890.866	12417.75
891.182	12453.68
891.498	12384.08
891.815	12310.86
892.131	12283.74
892.447	12231.09
892.763	12213.01
893.079	12198.32
893.395	12183.18
893.71	12084.88
894.026	12151.54
894.342	12109.51
894.657	11956.75
894.973	11912.46
895.289	11934.15
895.604	12043.98
895.92	11837.88
896.235	11761.95
896.55	11731.22
896.865	11749.75
897.181	11806.24
897.496	11729.64
897.811	11645.57
898.126	11585.91
898.441	11575.74
898.756	11598.11
899.071	11494.39
899.386	11490.09
899.7	11371.68
900.015	11374.62
900.33	11258.01
900.644	11254.17
900.959	11307.95
901.273	11266.6
901.588	11209.87
901.902	11159.48
902.216	11121.97
902.531	11097.11
902.845	11004
903.159	10905.48
903.473	10877
903.787	10873.84
904.101	10817.79
904.415	10822.09
904.729	10778.25
905.042	10769.21
905.356	10724.92
905.67	10693.5
905.984	10637.69
906.297	10679.72
906.611	10533.51
906.924	10506.39
907.237	10530.12
907.551	10424.13
907.864	10428.43
908.177	10363.12
908.491	10329.22
908.804	10274.76
909.117	10238.83
909.43	10203.35
909.743	10135.78
910.056	10124.03
910.368	10117.7
910.681	10078.83
910.994	9952.28
911.307	10035.22
911.619	9869.35
911.932	9911.38
912.244	9884.03
912.557	9784.83
912.869	9766.52
913.181	9787.77
913.494	9714.09
913.806	9675.45
914.118	9575.79
914.43	9494.89
914.742	9531.27
915.054	9461.22
915.366	9482.69
915.678	9438.85
915.99	9360.21
916.302	9328.79
916.613	9321.56
916.925	9275.69
917.236	9256.48
917.548	9200.66
917.859	9146.43
918.171	9031.85
918.482	9000.22
918.794	9030.95
919.105	8989.37
919.416	8951.63
919.727	8891.74
920.038	8884.29
920.349	8821.69
920.66	8785.08
920.971	8786.21
921.282	8758.64
921.593	8675.93
921.903	8631.41
922.214	8622.6
922.525	8603.84
922.835	8583.05
923.146	8425.32
923.456	8487.69
923.767	8411.08
924.077	8375.37
924.387	8384.19
924.697	8328.37
925.008	8352.77
925.318	8254.47
925.628	8327.24
925.938	8206.34
926.248	8131.09
926.558	8124.53
926.867	8111.65
927.177	8062.39
927.487	8054.48
927.796	7950.53
928.106	7971.09
928.416	7937.64
928.725	7896.52
929.034	7913.46
929.344	7893.35
929.653	7743.98
929.962	7749.17
930.271	7695.16
930.581	7694.94
930.89	7656.07
931.199	7611.55
931.508	7576.3
931.817	7575.85
932.125	7561.38
932.434	7454.95
932.743	7423.99
933.051	7343.99
933.36	7372.69
933.669	7347.83
933.977	7307.38
934.286	7286.59
934.594	7288.17
934.902	7185.8
935.21	7194.16
935.519	7154.84
935.827	7114.62
936.135	7089.08
936.443	7057.67
936.751	7059.02
937.059	6994.39
937.367	6939.25
937.674	6978.35
937.982	6902.87
938.29	6926.15
938.597	6862.42
938.905	6842.31
939.213	6817.22
939.52	6741.97
939.827	6785.81
940.135	6771.8
940.442	6698.81
940.749	6706.72
941.056	6685.7
941.363	6622.65
941.67	6638.47
941.977	6559.15
942.284	6428.31
942.591	6520.28
942.898	6504.91
943.205	6466.72
943.511	6385.37
943.818	6394.18
944.125	6273.73
944.431	6324.13
944.738	6294.75
945.044	6260.63
945.35	6269.44
945.657	6180.63
945.963	6182.89
946.269	6185.83
946.575	6174.75
946.881	6106.28
947.187	6116.68
947.493	6095.21
947.799	6061.08
948.105	5988.32
948.41	5920.3
948.716	5944.7
949.022	5937.02
949.327	5907.42
949.633	5846.63
949.938	5866.51
950.244	5880.75
950.549	5796.46
950.854	5760.75
951.16	5738.83
951.465	5702.45
951.77	5782.45
952.075	5672.62
952.38	5622.23
952.685	5623.81
952.99	5594.43
953.294	5575.45
953.599	5536.35
953.904	5523.47
954.209	5491.38
954.513	5520.76
954.818	5444.38
955.122	5418.61
955.426	5382.68
955.731	5389.91
956.035	5361.44
956.339	5390.14
956.643	5339.97
956.948	5271.73
957.252	5264.95
957.556	5259.97
957.86	5221.56
958.163	5226.08
958.467	5192.63
958.771	5109.7
959.075	5151.28
959.378	5085.06
959.682	5143.82
959.985	5062.24
960.289	5038.74
960.592	5056.59
960.896	4995.57
961.199	5003.94
961.502	4928.68
961.805	4923.26
962.108	4901.34
962.411	4934.79
962.714	4828.12
963.017	4840.32
963.32	4832.64
963.623	4798.29
963.926	4794
964.228	4747.9
964.531	4726.2
964.833	4730.27
965.136	4680.1
965.438	4682.59
965.741	4627.9
966.043	4688.69
966.345	4616.15
966.648	4604.17
966.95	4629.26
967.252	4533.67
967.554	4559.2
967.856	4528.69
968.158	4529.15
968.46	4492.54
968.761	4439.21
969.063	4463.84
969.365	4396.95
969.666	4393.1
969.968	4370.96
970.269	4347
970.571	4382.03
970.872	4300.68
971.174	4329.15
971.475	4323.95
971.776	4273.33
972.077	4302.49
972.378	4244.63
972.679	4238.08
972.98	4217.74
973.281	4170.06
973.582	4156.05
973.883	4183.62
974.183	4139.33
974.484	4131.64
974.785	4060.91
975.085	4066.56
975.386	4052.32
975.686	4044.87
975.986	4006
976.287	4001.7
976.587	3935.49
976.887	3973
977.187	3978.43
977.487	3923.29
977.787	3893
978.087	3893
978.387	3916.96
978.687	3856.62
978.987	3848.71
979.286	3811.88
979.586	3834.25
979.885	3823.18
980.185	3742.05
980.484	3750.64
980.784	3733.69
981.083	3724.65
981.382	3675.61
981.682	3713.8
981.981	3696.4
982.28	3643.97
982.579	3667.25
982.878	3626.12
983.177	3647.36
983.475	3560.13
983.774	3593.8
984.073	3562.39
984.372	3541.15
984.67	3531.21
984.969	3547.48
985.267	3523.75
985.566	3470.64
985.864	3478.1
986.162	3466.8
986.461	3432.45
986.759	3465.9
987.057	3395.16
987.355	3366.24
987.653	3346.13
987.951	3320.59
988.249	3317.88
988.547	3330.31
988.844	3245.11
989.142	3292.12
989.44	3297.77
989.737	3273.81
990.035	3246.47
990.332	3239.91
990.63	3205.79
990.927	3211.22
991.224	3163.98
991.521	3187.71
991.819	3116.98
992.116	3129.86
992.413	3163.98
992.71	3075.63
993.006	3102.52
993.303	3147.94
993.6	3079.92
993.897	3096.64
994.193	3058.45
994.49	3055.74
994.787	3016.42
995.083	3001.5
995.379	2983.42
995.676	2963.09
995.972	2958.11
996.268	2960.15
996.565	2916.99
996.861	2909.75
997.157	2906.36
997.453	2898
997.749	2846.03
998.044	2845.57
998.34	2841.28
998.636	2820.94
998.932	2799.25
999.227	2752.24
999.523	2773.03
999.818	2759.93
1000.114	2743.66
1000.409	2738.91
1000.704	2706.37
1001	2729.65
1001.295	2713.37
1001.59	2730.32
1001.885	2652.13
1002.18	2652.13
1002.475	2686.03
1002.77	2636.99
1003.065	2562.19
1003.359	2586.15
1003.654	2596.99
1003.949	2554.06
1004.243	2564.45
1004.538	2560.61
1004.832	2528.97
1005.127	2486.04
1005.421	2509.99
1005.715	2469.54
1006.009	2479.93
1006.304	2471.35
1006.598	2450.11
1006.892	2455.75
1007.186	2393.84
1007.48	2380.95
1007.773	2372.14
1008.067	2373.27
1008.361	2356.77
1008.655	2321.52
1008.948	2345.25
1009.242	2325.14
1009.535	2342.09
1009.829	2284.23
1010.122	2258.7
1010.415	2277
1010.708	2271.13
1011.001	2236.1
1011.295	2203.56
1011.588	2203.11
1011.881	2203.33
1012.173	2181.41
1012.466	2199.49
1012.759	2193.16
1013.052	2165.82
1013.344	2148.87
1013.637	2152.03
1013.93	2071.81
1014.222	2090.79
1014.514	2111.36
1014.807	2082.43
1015.099	2048.76
1015.391	2046.5
1015.683	2042.43
1015.976	1996.11
1016.268	1999.04
1016.56	1990.91
1016.851	1986.39
1017.143	1960.17
1017.435	1943.9
1017.727	1952.27
1018.018	1964.02
1018.31	1920.18
1018.602	1879.27
1018.893	1897.35
1019.185	1895.77
1019.476	1908.88
1019.767	1854.41
1020.058	1842.66
1020.35	1850.35
1020.641	1790.01
1020.932	1802.89
1021.223	1780.07
1021.514	1760.41
1021.804	1758.37
1022.095	1741.2
1022.386	1754.3
1022.677	1736.45
1022.967	1730.12
1023.258	1704.14
1023.548	1678.15
1023.839	1679.05
1024.129	1687.87
1024.419	1665.27
1024.709	1661.65
1025	1649.9
1025.29	1645.83
1025.58	1600.86
1025.87	1599.28
1026.16	1599.96
1026.449	1592.95
1026.739	1599.73
1027.029	1588.43
1027.319	1544.82
1027.608	1565.83
1027.898	1545.5
1028.187	1540.07
1028.477	1538.04
1028.766	1531.03
1029.055	1467.31
1029.344	1485.38
1029.634	1459.85
1029.923	1469.79
1030.212	1453.52
1030.501	1489.23
1030.79	1455.55
1031.078	1440.64
1031.367	1436.8
1031.656	1429.11
1031.945	1421.66
1032.233	1378.95
1032.522	1391.83
1032.81	1376.46
1033.099	1383.47
1033.387	1349.8
1033.675	1342.56
1033.963	1334.65
1034.251	1358.61
1034.54	1298.72
1034.828	1310.47
1035.116	1283.58
1035.403	1286.29
1035.691	1277.93
1035.979	1300.98
1036.267	1277.03
1036.554	1258.5
1036.842	1238.84
1037.129	1238.61
1037.417	1247.2
1037.704	1206.3
1037.992	1220.98
1038.279	1217.6
1038.566	1210.82
1038.853	1210.82
1039.14	1210.82
