Data from 17-1564_FLMS001491_005.txt Node
Date: Thu Apr 19 16:31:31 BST 2018
User: hsy
Spectrometer: FLMS00149
Trigger mode: 0
Integration Time (sec): 1.000000E-2
Scans to average: 10
Electric dark correction enabled: true
Nonlinearity correction enabled: false
Boxcar width: 0
XAxis mode: Wavelengths
Number of Pixels in Spectrum: 2048
>>>>>Begin Spectral Data<<<<<
341.393	-22.67
341.776	-22.67
342.16	-22.67
342.543	-58.15
342.927	-47.75
343.31	-63.35
343.693	-50.01
344.077	-69.22
344.46	-58.83
344.843	-62.44
345.226	-25.83
345.61	-43.01
345.993	-24.25
346.376	15.97
346.759	9.42
347.142	15.07
347.525	42.41
347.908	40.38
348.291	62.53
348.674	86.93
349.057	124.22
349.44	140.94
349.823	165.35
350.206	181.85
350.588	222.3
350.971	263.2
351.354	262.52
351.737	294.61
352.119	281.96
352.502	299.36
352.884	310.88
353.267	324.21
353.65	336.19
354.032	365.12
354.414	338.68
354.797	348.17
355.179	358.34
355.562	339.81
355.944	371.67
356.326	379.35
356.709	387.26
357.091	379.81
357.473	385.68
357.855	397.43
358.238	383.87
358.62	380.71
359.002	423.87
359.384	392.46
359.766	399.24
360.148	389.98
360.53	400.14
360.912	382.07
361.294	399.01
361.676	386.13
362.057	406.47
362.439	394.95
362.821	402.18
363.203	385.23
363.584	392.69
363.966	371.67
364.348	378.22
364.729	394.72
365.111	368.28
365.493	376.87
365.874	367.83
366.256	368.06
366.637	383.65
367.019	393.59
367.4	379.35
367.781	387.72
368.163	391.33
368.544	387.72
368.925	391.33
369.306	392.69
369.688	357.89
370.069	361.95
370.45	394.04
370.831	380.94
371.212	378.45
371.593	383.65
371.974	382.74
372.355	392.46
372.736	408.28
373.117	388.85
373.498	413.7
373.879	385
374.26	382.52
374.641	383.87
375.021	388.62
375.402	406.7
375.783	404.44
376.163	425.23
376.544	388.62
376.925	406.47
377.305	427.04
377.686	413.93
378.066	416.19
378.447	413.93
378.827	416.19
379.208	392.69
379.588	400.6
379.968	425.23
380.349	436.53
380.729	436.53
381.109	440.37
381.489	437.66
381.87	442.86
382.25	415.96
382.63	441.05
383.01	424.78
383.39	448.73
383.77	454.38
384.15	454.83
384.53	463.65
384.91	449.18
385.29	452.12
385.67	465.91
386.049	479.01
386.429	443.08
386.809	453.25
387.189	465
387.568	465.91
387.948	488.73
388.328	477.2
388.707	486.7
389.087	478.33
389.466	502.74
389.846	504.55
390.225	496.64
390.605	492.57
390.984	487.37
391.363	481.72
391.743	502.29
392.122	501.84
392.501	503.19
392.881	543.19
393.26	520.82
393.639	514.72
394.018	530.54
394.397	528.28
394.776	528.28
395.155	514.27
395.534	536.86
395.913	552.01
396.292	534.38
396.671	555.85
397.05	542.29
397.429	556.3
397.808	556.52
398.186	541.61
398.565	557.43
398.944	571.44
399.323	554.04
399.701	557.2
400.08	564.21
400.458	576.64
400.837	576.86
401.215	575.51
401.594	567.15
401.972	581.38
402.351	590.2
402.729	588.16
403.107	641.72
403.486	615.51
403.864	613.25
404.242	604.43
404.62	616.18
404.999	618.22
405.377	617.99
405.755	616.18
406.133	622.51
406.511	658.22
406.889	632
407.267	647.14
407.645	654.15
408.023	639.23
408.401	686.92
408.779	671.55
409.156	676.3
409.534	702.74
409.912	704.54
410.29	708.16
410.667	726.01
411.045	718.78
411.422	731.44
411.8	732.57
412.178	745.9
412.555	747.25
412.933	746.8
413.31	773.24
413.687	777.76
414.065	771.89
414.442	773.92
414.819	804.88
415.197	798.1
415.574	801.94
415.951	792.22
416.328	834.26
416.705	835.16
417.082	825.44
417.46	836.52
417.837	841.49
418.214	838.78
418.591	860.25
418.967	863.86
419.344	873.35
419.721	885.1
420.098	870.19
420.475	896.63
420.852	869.96
421.228	911.77
421.605	923.52
421.982	923.52
422.358	887.82
422.735	930.3
423.111	917.87
423.488	947.25
423.864	949.06
424.241	932.33
424.617	951.77
424.994	954.25
425.37	986.8
425.746	987.93
426.123	993.8
426.499	1008.94
426.875	1018.43
427.251	1032.44
427.627	1051.43
428.003	1025.89
428.379	1026.8
428.756	1079
429.132	1034.7
429.507	1080.58
429.883	1088.94
430.259	1120.13
430.635	1137.53
431.011	1123.52
431.387	1141.82
431.763	1158.09
432.138	1177.98
432.514	1187.69
432.89	1158.32
433.265	1232.67
433.641	1228.15
434.016	1217.07
434.392	1260.69
434.767	1275.83
435.143	1267.92
435.518	1294.13
435.894	1318.31
436.269	1319.89
436.644	1322.15
437.02	1316.05
437.395	1341.14
437.77	1373.9
438.145	1390.18
438.52	1361.7
438.895	1404.64
439.271	1378.65
439.646	1431.3
440.021	1430.17
440.395	1449.61
440.77	1426.11
441.145	1433.79
441.52	1480.57
441.895	1449.61
442.27	1467.46
442.645	1456.61
443.019	1524.64
443.394	1533.67
443.769	1509.04
444.143	1508.59
444.518	1513.11
444.892	1504.52
445.267	1546.1
445.641	1571.41
446.016	1560.34
446.39	1592.66
446.764	1575.26
447.139	1570.51
447.513	1583.84
447.887	1589.94
448.262	1583.84
448.636	1639.21
449.01	1638.08
449.384	1683.05
449.758	1662.03
450.132	1703.39
450.506	1645.31
450.88	1709.71
451.254	1705.2
451.628	1700.9
452.002	1750.84
452.376	1789.94
452.75	1782.71
453.123	1793.33
453.497	1832.2
453.871	1839.88
454.244	1838.3
454.618	1879.65
454.992	1910.16
455.365	1927.34
455.739	1921.91
456.112	1948.58
456.486	1988.35
456.859	1975.24
457.232	2041.68
457.606	2029.48
457.979	2077.39
458.352	2087.33
458.725	2110.38
459.099	2103.15
459.472	2165.75
459.845	2192.87
460.218	2212.75
460.591	2201.68
460.964	2243.03
461.337	2256.59
461.71	2297.04
462.083	2314.67
462.456	2332.3
462.829	2327.55
463.201	2407.32
463.574	2389.47
463.947	2443.03
464.32	2452.75
464.692	2488.45
465.065	2505.63
465.438	2530.48
465.81	2574.32
466.183	2580.2
466.555	2631.27
466.928	2662.01
467.3	2670.59
467.672	2688.45
468.045	2748.56
468.417	2768.44
468.789	2753.98
469.161	2834.21
469.534	2825.17
469.906	2893.86
470.278	2905.84
470.65	2932.06
471.022	3002.11
471.394	3021.32
471.766	3054.54
472.138	3112.84
472.51	3100.19
472.882	3185.83
473.253	3229.45
473.625	3207.98
473.997	3330.46
474.369	3341.31
474.74	3352.16
475.112	3435.32
475.484	3444.81
475.855	3546.28
476.227	3564.81
476.598	3668.76
476.97	3745.37
477.341	3759.15
477.713	3819.26
478.084	3838.7
478.455	3973.38
478.827	4014.97
479.198	4110.78
479.569	4099.03
479.94	4181.06
480.311	4244.34
480.682	4364.79
481.053	4385.12
481.424	4520.49
481.795	4574.95
482.166	4578.34
482.537	4649.07
482.908	4813.81
483.279	4777.2
483.65	4932.68
484.021	5002.96
484.391	5077.54
484.762	5141.26
485.133	5164.31
485.503	5275.72
485.874	5362.05
486.244	5444.08
486.615	5575.83
486.985	5630.06
487.356	5744.41
487.726	5843.39
488.097	5936.72
488.467	5960.22
488.837	6060.34
489.207	6155.02
489.578	6306.2
489.948	6318.86
490.318	6456.93
490.688	6479.98
491.058	6619.64
491.428	6702.13
491.798	6759.75
492.168	6881.33
492.538	6984.83
492.908	7043.13
493.278	7143.7
493.648	7214.88
494.017	7278.61
494.387	7397.7
494.757	7455.1
495.126	7566.28
495.496	7624.36
495.866	7694.64
496.235	7810.57
496.605	7841.76
496.974	7967.63
497.344	8042.2
497.713	8100.73
498.082	8133.95
498.452	8207.62
498.821	8333.04
499.19	8413.04
499.559	8515.19
499.928	8610.32
500.298	8641.51
500.667	8688.74
501.036	8767.16
501.405	8794.5
501.774	8790.66
502.143	8904.1
502.512	9028.39
502.88	9077.43
503.249	9090.54
503.618	9149.75
503.987	9247.6
504.356	9313.81
504.724	9433.81
505.093	9492.56
505.462	9468.83
505.83	9507.48
506.199	9641.26
506.567	9786.79
506.936	9735.72
507.304	9834.02
507.672	9897.3
508.041	9950.18
508.409	10097.52
508.777	10136.16
509.145	10202.6
509.514	10223.16
509.882	10374.12
510.25	10407.34
510.618	10413.44
510.986	10473.1
511.354	10560.78
511.722	10670.61
512.09	10779.08
512.458	10794.22
512.826	10895.69
513.193	10900.43
513.561	11048.23
513.929	11149.01
514.297	11173.87
514.664	11212.06
515.032	11278.73
515.4	11396.47
515.767	11403.7
516.135	11507.2
516.502	11512.4
516.869	11641.88
517.237	11755.78
517.604	11711.26
517.972	11904.48
518.339	11877.58
518.706	12028.54
519.073	11980.18
519.44	12094.75
519.808	12304.69
520.175	12278.93
520.542	12468.53
520.909	12567.28
521.276	12556.66
521.643	12721.4
522.009	12868.97
522.376	12923.43
522.743	13050.21
523.11	13134.05
523.477	13297.88
523.843	13374.49
524.21	13591.21
524.577	13663.07
524.943	13775.84
525.31	13771.77
525.676	14080.46
526.043	14052.89
526.409	14198.2
526.776	14261.25
527.142	14324.75
527.508	14503.28
527.874	14655.82
528.241	14705.98
528.607	14816.26
528.973	14981.68
529.339	15006.31
529.705	15187.1
530.071	15301
530.437	15377.83
530.803	15585.28
531.169	15537.37
531.535	15659.86
531.901	15697.82
532.267	15762.9
532.632	15939.4
532.998	15970.13
533.364	16141.2
533.73	16190.92
534.095	16276.11
534.461	16334.19
534.826	16414.41
535.192	16552.94
535.557	16713.61
535.923	16751.13
536.288	16930.33
536.653	16829.54
537.019	16944.12
537.384	17027.5
537.749	17075.86
538.114	17110.67
538.479	17117.22
538.845	17197.22
539.21	17238.35
539.575	17417.78
539.94	17539.81
540.305	17658.67
540.67	17591.11
541.034	17717.66
541.399	17713.36
541.764	17794.49
542.129	17907.26
542.494	17959.23
542.858	18023.18
543.223	18032.68
543.587	18065.22
543.952	18237.64
544.316	18185.67
544.681	18155.61
545.045	18396.73
545.41	18423.4
545.774	18516.5
546.138	18425.89
546.503	18643.28
546.867	18678.53
547.231	18795.14
547.595	18859.09
547.959	18875.82
548.324	18932.31
548.688	18987.23
549.052	19028.81
549.416	18973.44
549.779	19077.85
550.143	19132.31
550.507	19324.62
550.871	19399.19
551.235	19391.28
551.599	19596.02
551.962	19613.2
552.326	19644.38
552.689	19753.99
553.053	19589.47
553.417	19839.86
553.78	19986.52
554.143	20041.21
554.507	20105.39
554.87	20062.45
555.234	20327.98
555.597	20224.26
555.96	20380.18
556.323	20439.39
556.686	20584.92
557.05	20598.94
557.413	20675.54
557.776	20748.08
558.139	20883.9
558.502	20987.85
558.865	21153.27
559.228	21204.34
559.59	21282.76
559.953	21292.7
560.316	21675.29
560.679	21675.97
561.041	21665.12
561.404	21849.07
561.767	22008.62
562.129	21915.51
562.492	22185.33
562.854	22317.08
563.217	22285.67
563.579	22333.81
563.941	22653.35
564.304	22716.39
564.666	22905.54
565.028	22995.93
565.39	23000.23
565.753	23284.74
566.115	23197.29
566.477	23518.41
566.839	23598.18
567.201	23904.84
567.563	23799.76
567.925	24026.19
568.287	24082.01
568.648	24239.29
569.01	24360.87
569.372	24667.53
569.734	24692.61
570.095	24824.59
570.457	24969.67
570.819	25110
571.18	25142.32
571.542	25366.27
571.903	25305.48
572.265	25554.06
572.626	25699.59
572.987	25822.53
573.349	25943.2
573.71	26134.38
574.071	26342.97
574.432	26567.59
574.794	26696.4
575.155	26714.03
575.516	26750.64
575.877	26881.93
576.238	26884.65
576.599	27164.64
576.96	27316.5
577.32	27445.31
577.681	27584.29
578.042	27728.01
578.403	27937.05
578.763	27908.12
579.124	28008.68
579.485	28344.27
579.845	28367.32
580.206	28443.48
580.566	28534.09
580.927	28617.03
581.287	28791.04
581.648	28908.55
582.008	29223.79
582.368	29436.67
582.728	29493.62
583.089	29751.46
583.449	29927.73
583.809	30004.79
584.169	30322.97
584.529	30343.54
584.889	30773.58
585.249	30668.28
585.609	30871.21
585.969	31362.04
586.329	31500.57
586.688	31899.43
587.048	32128.35
587.408	32302.81
587.768	32628.68
588.127	32961.32
588.487	33129
588.846	33774.63
589.206	33825.03
589.565	34240.16
589.925	34837.21
590.284	35192
590.643	35438.77
591.003	35901.58
591.362	36491.85
591.721	36737.95
592.08	37127.31
592.44	37693.4
592.799	38150.34
593.158	38581.97
593.517	38813.15
593.876	39363.87
594.235	39697.64
594.593	40115.03
594.952	40753.89
595.311	41119.3
595.67	41742.79
596.029	42294.86
596.387	42708.86
596.746	43234.27
597.104	43460.93
597.463	43939.79
597.822	44644.18
598.18	44800.79
598.538	45332.97
598.897	45972.96
599.255	46119.39
599.613	47201.63
599.972	47163.44
600.33	47660.82
600.688	47915.05
601.046	48417.87
601.404	49014.91
601.762	49299.42
602.12	49746.64
602.478	50065.73
602.836	50376.68
603.194	50547.07
603.552	50907.74
603.91	51193.39
604.268	51651
604.625	51862.97
604.983	52306.8
605.341	52415.95
605.698	52899.56
606.056	53270.17
606.413	53310.39
606.771	53728.23
607.128	53922.81
607.485	54090.03
607.843	54275.56
608.2	54641.43
608.557	54897.24
608.914	55082.1
609.272	55393.73
609.629	55680.73
609.986	55816.77
610.343	55904.45
610.7	56349.86
611.057	56348.73
611.414	56543.53
611.771	56795.27
612.127	56997.07
612.484	57096.06
612.841	57291.76
613.198	57328.82
613.554	57435.03
613.911	57816.94
614.267	57929.25
614.624	57999.99
614.98	58158.4
615.337	58430.03
615.693	58467.54
616.05	58611.27
616.406	58779.4
616.762	58812.17
617.118	58987.08
617.475	59005.16
617.831	59258.26
618.187	59316.79
618.543	59425.94
618.899	59643.11
619.255	59678.36
619.611	59796.1
619.967	59913.61
620.323	60052.81
620.678	60019.82
621.034	60094.17
621.39	60118.57
621.746	60206.26
622.101	60524.21
622.457	60349.08
622.812	60501.16
623.168	60627.49
623.523	60687.83
623.879	60803.3
624.234	60665.9
624.589	60818.9
624.945	60904.32
625.3	60961.72
625.655	61040.13
626.01	61039.45
626.365	61128.72
626.72	61053.01
627.075	61098.89
627.43	61105.67
627.785	61155.16
628.14	61218.43
628.495	61272.89
628.85	61321.48
629.205	61278.09
629.559	61430.86
629.914	61331.42
630.269	61378.2
630.623	61281.71
630.978	61315.61
631.332	61429.05
631.687	61433.57
632.041	61419.33
632.396	61511.08
632.75	61428.14
633.104	61509.5
633.459	61391.54
633.813	61423.85
634.167	61428.6
634.521	61424.08
634.875	61443.96
635.229	61391.31
635.583	61328.94
635.937	61358.09
636.291	61329.84
636.645	61422.5
636.999	61259.79
637.352	61396.96
637.706	61200.13
638.06	61316.96
638.413	61230.86
638.767	61193.8
639.121	61217.53
639.474	61122.39
639.828	61160.58
640.181	61068.83
640.534	61161.26
640.888	61058.89
641.241	60971.21
641.594	61037.65
641.947	61106.12
642.301	61058.66
642.654	61067.48
643.007	60963.52
643.36	61016.4
643.713	60985.44
644.066	61044.2
644.419	60893.24
644.771	60673.36
645.124	60396.31
645.477	60406.02
645.83	60304.11
646.182	60305.91
646.535	60279.47
646.888	60324.22
647.24	60241.51
647.593	60371.9
647.945	60210.32
648.298	60177.78
648.65	60093.72
649.002	59948.64
649.355	59955.64
649.707	59846.72
650.059	59901.86
650.411	60167.39
650.763	60256.2
651.115	60664.77
651.467	60556.3
651.819	60647.6
652.171	60562.63
652.523	60454.61
652.875	60488.51
653.227	60346.37
653.578	60636.08
653.93	60472.01
654.282	60307.95
654.633	60304.11
654.985	60380.49
655.337	60375.97
655.688	60276.31
656.039	60392.01
656.391	60153.6
656.742	60205.35
657.094	60230.44
657.445	60263.88
657.796	60285.12
658.147	60227.27
658.498	60258.23
658.849	60279.47
659.2	60170.32
659.551	60126.26
659.902	60301.62
660.253	60117.67
660.604	60187.27
660.955	60100.27
661.306	60178.46
661.656	60065.92
662.007	60106.82
662.358	60138.69
662.708	60124.22
663.059	60071.34
663.409	60025.7
663.76	60126.03
664.11	60131.68
664.461	60168.29
664.811	60102.08
665.161	60067.5
665.511	60044.23
665.862	60061.18
666.212	60116.09
666.562	60091.68
666.912	60128.52
667.262	60025.92
667.612	60017.33
667.962	60103.43
668.312	59972.59
668.662	60064.11
669.011	60021.18
669.361	60029.31
669.711	59984.11
670.06	59964.91
670.41	59896.21
670.76	59895.08
671.109	59942.76
671.459	59903.44
671.808	59961.97
672.157	59989.99
672.507	59857.34
672.856	59833.84
673.205	59871.58
673.554	59903.21
673.904	59789.77
674.253	59986.6
674.602	59900.28
674.951	59633.84
675.3	59436.78
675.649	59819.15
675.998	59801.75
676.346	59816.89
676.695	59889.88
677.044	59681.3
677.393	59744.35
677.741	59819.6
678.09	59750.45
678.438	59706.83
678.787	59737.57
679.135	59736.66
679.484	59563.11
679.832	59706.61
680.181	59571.7
680.529	59693.5
680.877	59521.08
681.225	59537.57
681.573	59679.04
681.922	59517.23
682.27	59510.46
682.618	59528.31
682.966	59407.86
683.314	59412.83
683.661	59397.01
684.009	59346.62
684.357	59293.51
684.705	59208.99
685.053	59263.68
685.4	59167.87
685.748	59143.69
686.095	59133.74
686.443	59005.61
686.79	59031.82
687.138	59140.52
687.485	59048.09
687.832	58958.38
688.18	58968.1
688.527	58858.27
688.874	58844.26
689.221	58806.52
689.568	58732.62
689.915	58660.99
690.262	58712.28
690.609	58628.44
690.956	58533.08
691.303	58596.58
691.65	58442.46
691.997	58397.49
692.344	58274.1
692.69	58220.09
693.037	58212.64
693.383	58075.92
693.73	58192.52
694.077	58019.65
694.423	58011.29
694.769	57998.86
695.116	57929.71
695.462	57781.69
695.808	57699.43
696.155	57758.41
696.501	57552.09
696.847	57624.4
697.193	57490.85
697.539	57590.05
697.885	57344.18
698.231	57331.53
698.577	57276.62
698.923	57307.8
699.269	57091.54
699.614	56923.18
699.96	56927.02
700.306	56896.96
700.651	56853.58
700.997	56722.73
701.342	56632.11
701.688	56627.59
702.033	56526.35
702.379	56583.07
702.724	56327.94
703.069	56486.58
703.415	56131.56
703.76	56125.46
704.105	56147.61
704.45	56052.69
704.795	55961.4
705.14	55932.02
705.485	55896.76
705.83	55655.64
706.175	55746.03
706.52	55678.69
706.865	55515.76
707.209	55561.41
707.554	55520.05
707.899	55489.32
708.243	55399.15
708.588	55290.23
708.932	55124.36
709.277	55183.11
709.621	55042.32
709.966	54786.51
710.31	54953.06
710.654	54767.3
710.998	54770.01
711.342	54778.15
711.687	54671.94
712.031	54622
712.375	54474.43
712.719	54454.09
713.063	54407.99
713.407	54557.82
713.75	54318.28
714.094	54253.19
714.438	54170.03
714.782	54095.46
715.125	54041.9
715.469	54216.58
715.812	53815.01
716.156	53873.54
716.499	53872.19
716.843	53852.98
717.186	53682.81
717.53	53896.14
717.873	53896.82
718.216	53714.45
718.559	53543.61
718.902	53427.68
719.246	53396.04
719.589	53390.39
719.932	53292.99
720.275	53290.73
720.617	53322.14
720.96	53235.37
721.303	53267.91
721.646	53321.24
721.989	53126.22
722.331	53138.87
722.674	53034.69
723.016	52895.26
723.359	52801.48
723.701	52893.23
724.044	52832.89
724.386	52716.28
724.729	52803.06
725.071	52788.15
725.413	52714.02
725.755	52769.16
726.097	52563.07
726.439	52572.11
726.782	52398.33
727.124	52610.98
727.465	52472.67
727.807	52335.73
728.149	52394.03
728.491	52240.14
728.833	52288.95
729.175	52304.09
729.516	52114.49
729.858	52090.09
730.199	52256.63
730.541	52143.19
730.882	52009.64
731.224	52090.76
731.565	51921.28
731.906	51945.91
732.248	51916.53
732.589	51783.88
732.93	51687.16
733.271	51822.75
733.612	51709.76
733.953	51789.3
734.294	51719.02
734.635	51532.13
734.976	51749.08
735.317	51488.97
735.658	51522.19
735.999	51448.29
736.339	51437.9
736.68	51547.95
737.021	51434.96
737.361	51263.67
737.702	51503.66
738.042	51288.75
738.383	51281.74
738.723	51356.32
739.063	51185.02
739.404	51324.23
739.744	51247.62
740.084	51193.16
740.424	51282.87
740.764	51156.78
741.104	51177.79
741.444	51014.18
741.784	50919.04
742.124	51033.62
742.464	50943.22
742.804	50946.84
743.143	51005.14
743.483	50962.43
743.823	50882.66
744.162	50841.98
744.502	50847.63
744.841	50844.47
745.181	50964.01
745.52	50726.96
745.86	50771.93
746.199	50735.32
746.538	50740.52
746.877	50942.32
747.216	50762.66
747.556	50605.6
747.895	50655.55
748.234	50636.79
748.573	50599.73
748.911	50592.27
749.25	50569.45
749.589	50359.28
749.928	50483.57
750.267	50401.54
750.605	50479.05
750.944	50329.68
751.283	50262.11
751.621	50420.3
751.96	50229.57
752.298	50316.12
752.636	50242.68
752.975	50095.79
753.313	50084.26
753.651	50257.59
753.989	49996.35
754.327	50046.52
754.666	49715.46
755.004	50053.08
755.342	49858.28
755.679	49926.53
756.017	49732.86
756.355	49777.6
756.693	49624.84
757.031	49742.35
757.368	49471.4
757.706	49564.05
758.044	49408.35
758.381	49333.1
758.719	49234.57
759.056	49378.52
759.394	49146.89
759.731	48838.65
760.068	48981.69
760.405	48936.04
760.743	48809.95
761.08	48875.93
761.417	48727.24
761.754	48618.09
762.091	48571.08
762.428	48352.78
762.765	48150.3
763.102	48428.94
763.438	48172
763.775	47816.3
764.112	47913.47
764.449	47822.4
764.785	47645.46
765.122	47512.58
765.458	47478
765.795	47365.46
766.131	47340.15
766.467	47317.1
766.804	46922.09
767.14	46908.98
767.476	46678.93
767.812	46666.05
768.148	46704.01
768.485	46527.07
768.821	46228.32
769.157	46164.37
769.492	45947.87
769.828	46042.33
770.164	45754.66
770.5	45563.7
770.836	45634.89
771.171	45479.41
771.507	45294.33
771.842	45021.8
772.178	45082.13
772.513	44917.17
772.849	44708.36
773.184	44656.61
773.519	44629.94
773.855	44315.15
774.19	44330.06
774.525	44059.34
774.86	43900.24
775.195	43822.73
775.53	43679.01
775.865	43489.41
776.2	43284.89
776.535	43100.72
776.87	43008.29
777.205	42910.67
777.539	42788.18
777.874	42771.69
778.209	42404.92
778.543	42400.17
778.878	42124.02
779.212	42159.05
779.547	41743.46
779.881	41843.12
780.215	41566.52
780.55	41523.13
780.884	41121.79
781.218	41216.47
781.552	41166.08
781.886	41001.11
782.22	40864.84
782.554	40721.8
782.888	40294.69
783.222	40264.18
783.556	40101.93
783.889	39892.89
784.223	39731.99
784.557	39647.7
784.89	39760.92
785.224	39440.93
785.557	39194.38
785.891	39093.82
786.224	39035.74
786.558	39098.56
786.891	38940.37
787.224	38569.08
787.557	38506.04
787.891	38416.77
788.224	38257.91
788.557	38203.9
788.89	38168.87
789.223	38033.28
789.556	37737.24
789.888	37623.8
790.221	37516.68
790.554	37414.09
790.887	37278.72
791.219	37039.86
791.552	37036.92
791.884	36868.56
792.217	36723.48
792.549	36560.78
792.882	36335.25
793.214	36287.79
793.546	36281.69
793.879	36155.81
794.211	35690.97
794.543	36061.13
794.875	35830.4
795.207	35747.46
795.539	35579.78
795.871	35487.13
796.203	35304.09
796.535	35116.75
796.867	35167.59
797.198	34975.28
797.53	34773.25
797.862	34563.54
798.193	34723.76
798.525	34500.72
798.856	34602.18
799.188	34073.38
799.519	33946.61
799.85	33945.03
800.182	33977.34
800.513	34017.57
800.844	33554.08
801.175	33658.71
801.506	33735.77
801.837	33463.46
802.168	33414.64
802.499	33446.28
802.83	33066.63
803.161	32961.55
803.491	33026.86
803.822	33029.8
804.153	32784.6
804.483	32588.23
804.814	32521.11
805.145	32534.44
805.475	32448.12
805.805	32384.61
806.136	32473.88
806.466	32288.35
806.796	32145.98
807.126	31933.1
807.457	31911.18
807.787	31999.99
808.117	31819.66
808.447	31614.47
808.777	31776.49
809.107	31417.18
809.436	31458.99
809.766	31371.08
810.096	31247.92
810.426	31165.44
810.755	31138.09
811.085	30960.7
811.414	31123.4
811.744	30723.87
812.073	30787.59
812.403	30749.63
812.732	30575.85
813.061	30718.22
813.39	30325.01
813.719	30352.35
814.049	30474.61
814.378	30318.45
814.707	30055.86
815.036	30107.61
815.365	29923.21
815.693	29775.19
816.022	29869.2
816.351	29702.43
816.68	29628.98
817.008	29754.63
817.337	29431.25
817.665	29442.09
817.994	29424.47
818.322	29549.66
818.651	29249.78
818.979	29235.09
819.307	29266.05
819.636	29201.42
819.964	28936.34
820.292	29122.55
820.62	29063.35
820.948	29179.05
821.276	29199.61
821.604	29011.82
821.932	29248.43
822.259	29064.48
822.587	29069.67
822.915	28988.55
823.243	29111.71
823.57	28974.76
823.898	29112.16
824.225	28817.93
824.553	28999.84
824.88	28901.99
825.207	28994.2
825.535	28862
825.862	28993.74
826.189	28963.24
826.516	29082.78
826.843	29183.79
827.17	29138.6
827.497	29024.02
827.824	29108.09
828.151	29140.86
828.478	28896.57
828.805	29166.17
829.131	28993.74
829.458	29040.97
829.785	28787.87
830.111	29030.58
830.438	29155.09
830.764	28973.63
831.09	28978.38
831.417	28838.49
831.743	29050.24
832.069	28902.22
832.395	28947.87
832.722	29039.62
833.048	28776.57
833.374	28927.76
833.7	28735.67
834.026	28873.52
834.351	28846.63
834.677	28794.2
835.003	28854.09
835.329	28761.21
835.654	28623.36
835.98	28542.23
836.306	28591.04
836.631	28546.3
836.956	28812.28
837.282	28610.02
837.607	28517.82
837.932	28552.85
838.258	28532.74
838.583	28449.58
838.908	28313.54
839.233	28351.95
839.558	28196.25
839.883	28235.35
840.208	28168.68
840.533	28223.59
840.858	28027.89
841.182	28207.32
841.507	28066.31
841.832	27829.48
842.156	27942.25
842.481	27844.62
842.805	27828.35
843.13	27667
843.454	27780.67
843.778	27622.93
844.103	27545.65
844.427	27469.49
844.751	27496.61
845.075	27371.87
845.399	27297.29
845.723	27190.17
846.047	27177.29
846.371	26939.79
846.695	26732.56
847.019	26749.51
847.343	26651.21
847.666	26537.76
847.99	26417.31
848.313	26395.85
848.637	26339.12
848.96	26293.02
849.284	26215.96
849.607	25963.77
849.931	25850.78
850.254	25751.57
850.577	25522.65
850.9	25508.64
851.223	25377.57
851.546	25441.29
851.869	25175.99
852.192	25315.65
852.515	24953.85
852.838	24951.14
853.161	24929.22
853.483	24838.6
853.806	24692.84
854.129	24713.18
854.451	24511.15
854.774	24408.33
855.096	24273.19
855.419	24289.91
855.741	24246.3
856.063	24148.9
856.385	23994.78
856.708	23957.04
857.03	23944.84
857.352	23876.59
857.674	23907.1
857.996	23668.01
858.318	23595.47
858.64	23662.58
858.961	23474.11
859.283	23324.06
859.605	23300.79
859.926	23387.56
860.248	23214.23
860.57	23207
860.891	23217.62
861.212	23082.26
861.534	23063.96
861.855	22993.45
862.176	23058.08
862.498	22965.88
862.819	22864.19
863.14	22743.74
863.461	22847.69
863.782	22705.32
864.103	22705.1
864.424	22595.27
864.745	22664.87
865.065	22564.08
865.386	22451.77
865.707	22471.2
866.027	22543.52
866.348	22486.34
866.668	22373.35
866.989	22353.47
867.309	22136.3
867.63	22122.06
867.95	22243.41
868.27	22066.24
868.59	22177.65
868.91	22206.35
869.23	22028.05
869.55	21869.64
869.87	22116.41
870.19	21884.33
870.51	21867.15
870.83	21845
871.15	21785.8
871.469	21727.49
871.789	21871.22
872.109	21773.37
872.428	21596.42
872.748	21723.43
873.067	21606.82
873.386	21642.98
873.706	21608.17
874.025	21451.79
874.344	21486.14
874.663	21518.91
874.982	21392.14
875.301	21286.15
875.62	21213.38
875.939	21127.96
876.258	21268.3
876.577	21126.83
876.896	21127.51
877.214	21168.64
877.533	21155.76
877.852	21042.77
878.17	21031.69
878.489	20978.81
878.807	20954.86
879.125	20885.03
879.444	20910.11
879.762	20798.48
880.08	20822.21
880.398	20725.26
880.716	20820.62
881.034	20694.07
881.352	20613.62
881.67	20507.64
881.988	20570.24
882.306	20490.01
882.624	20603.23
882.941	20415.89
883.259	20384.25
883.577	20334.54
883.894	20281.43
884.212	20219.28
884.529	20133.64
884.846	20087.31
885.164	20050.93
885.481	20017.26
885.798	20056.58
886.115	19918.73
886.432	19910.82
886.75	19889.58
887.067	19882.34
887.383	19713.76
887.7	19769.35
888.017	19605.06
888.334	19656.36
888.651	19600.09
888.967	19529.81
889.284	19405.29
889.6	19459.98
889.917	19287.33
890.233	19335.47
890.55	19270.61
890.866	19235.81
891.182	19206.66
891.498	19028.81
891.815	18999.43
892.131	18996.27
892.447	19012.08
892.763	18892.09
893.079	18900.45
893.395	18883.27
893.71	18837.17
894.026	18648.25
894.342	18663.39
894.657	18494.81
894.973	18464.75
895.289	18503.85
895.604	18424.53
895.92	18308.83
896.235	18308.37
896.55	18194.71
896.865	18182.73
897.181	18239.68
897.496	18102.05
897.811	17951.55
898.126	17810.99
898.441	17884.66
898.756	17794.26
899.071	17605.12
899.386	17660.03
899.7	17512.46
900.015	17488.28
900.33	17355.86
900.644	17372.81
900.959	17319.7
901.273	17258.01
901.588	17224.11
901.902	17159.25
902.216	17033.15
902.531	16949.31
902.845	16909.32
903.159	16839.49
903.473	16739.6
903.787	16718.13
904.101	16700.06
904.415	16807.62
904.729	16564.69
905.042	16441.76
905.356	16547.74
905.67	16483.56
905.984	16370.8
906.297	16361.08
906.611	16196.79
906.924	16203.57
907.237	16144.59
907.551	16009.45
907.864	15897.82
908.177	16007.42
908.491	15809.23
908.804	15748.22
909.117	15674.77
909.43	15615.79
909.743	15475.68
910.056	15564.49
910.368	15468
910.681	15410.15
910.994	15353.42
911.307	15313.2
911.619	15095.35
911.932	15167.67
912.244	14979.42
912.557	15098.97
912.869	14890.39
913.181	14808.58
913.494	14820.56
913.806	14771.97
914.118	14737.17
914.43	14541.69
914.742	14522.26
915.054	14512.77
915.366	14431.19
915.678	14347.57
915.99	14345.31
916.302	14223.28
916.613	14230.97
916.925	14216.96
917.236	14162.27
917.548	14061.03
917.859	14075.04
918.171	14005.21
918.482	13900.81
918.794	13930.86
919.105	13726.35
919.416	13693.58
919.727	13670.76
920.038	13631.66
920.349	13551.66
920.66	13445
920.971	13431.44
921.282	13414.72
921.593	13295.17
921.903	13267.15
922.214	13142.86
922.525	13215.18
922.835	13060.15
923.146	12965.92
923.456	12967.27
923.767	12911.23
924.077	12857.9
924.387	12804.11
924.697	12732.25
925.008	12660.61
925.318	12668.3
925.628	12614.29
925.938	12527.06
926.248	12388.08
926.558	12315.31
926.867	12337.91
927.177	12280.74
927.487	12240.74
927.796	12135.66
928.106	12183.11
928.416	12079.39
928.725	12052.72
929.034	12013.85
929.344	11993.74
929.653	11970.24
929.962	11796.91
930.271	11840.3
930.581	11728.66
930.89	11677.36
931.199	11581.09
931.508	11589.23
931.817	11626.06
932.125	11561.89
932.434	11458.61
932.743	11340.42
933.051	11327.99
933.36	11248.67
933.669	11243.7
933.977	11145.17
934.286	11186.08
934.594	11010.94
934.902	11067.66
935.21	10962.8
935.519	10843.71
935.827	10913.31
936.135	10749.25
936.443	10703.6
936.751	10717.84
937.059	10608.69
937.367	10567.11
937.674	10532.31
937.982	10570.27
938.29	10383.16
938.597	10425.19
938.905	10335.7
939.213	10335.48
939.52	10275.37
939.827	10251.19
940.135	10235.82
940.442	10220.23
940.749	10128.7
941.056	10124.63
941.363	9972.55
941.67	9969.61
941.977	9866.34
942.284	9840.57
942.591	9861.14
942.898	9847.13
943.205	9821.14
943.511	9745.89
943.818	9775.04
944.125	9663.86
944.431	9599.45
944.738	9598.77
945.044	9575.27
945.35	9521.03
945.657	9408.5
945.963	9448.04
946.269	9352.23
946.575	9358.78
946.881	9213.92
947.187	9245.34
947.493	9208.73
947.799	9173.02
948.105	9118.33
948.41	9013.48
948.716	9062.97
949.022	8948.85
949.327	9050.54
949.633	8852.8
949.938	8921.73
950.244	8855.29
950.549	8785.46
950.854	8636.99
951.16	8734.16
951.465	8675.41
951.77	8625.69
952.075	8547.28
952.38	8555.18
952.685	8538.69
952.99	8493.94
953.294	8464.34
953.599	8373.04
953.904	8340.28
954.209	8297.56
954.513	8291.01
954.818	8252.37
955.122	8269.99
955.426	8252.14
955.731	8156.1
956.035	8104.58
956.339	8023.22
956.643	8011.47
956.948	7946.39
957.252	7934.18
957.556	7907.07
957.86	7862.77
958.163	7868.88
958.467	7808.09
958.771	7806.96
959.075	7773.74
959.378	7653.29
959.682	7664.36
959.985	7583.46
960.289	7538.04
960.592	7587.07
960.896	7575.78
961.199	7487.42
961.502	7465.72
961.805	7421.66
962.108	7359.28
962.411	7371.49
962.714	7309.12
963.017	7300.3
963.32	7230.47
963.623	7216.01
963.926	7234.54
964.228	7112.51
964.531	7151.38
964.833	7149.8
965.136	7010.82
965.438	7020.54
965.741	6932.4
966.043	6952.74
966.345	6874.1
966.648	6912.29
966.95	6903.25
967.252	6808.34
967.554	6783.93
967.856	6801.11
968.158	6755.68
968.46	6750.03
968.761	6721.79
969.063	6678.85
969.365	6626.2
969.666	6570.83
969.968	6541.23
970.269	6483.83
970.571	6535.12
970.872	6492.41
971.174	6396.15
971.475	6433.88
971.776	6388.01
972.077	6362.02
972.378	6341.91
972.679	6299.65
972.98	6241.57
973.281	6242.7
973.582	6188.47
973.883	6164.51
974.183	6150.28
974.484	6124.06
974.785	6087.68
975.085	6006.55
975.386	6056.49
975.686	5973.56
975.986	6039.09
976.287	5993.44
976.587	5904.18
976.887	5897.63
977.187	5914.8
977.487	5840.68
977.787	5858.76
978.087	5792.32
978.387	5756.16
978.687	5784.86
978.987	5698.08
979.286	5679.55
979.586	5636.62
979.885	5647.92
980.185	5598.43
980.484	5549.84
980.784	5539.44
981.083	5506
981.382	5532.89
981.682	5494.47
981.981	5466.23
982.28	5444.53
982.579	5383.74
982.878	5377.64
983.177	5380.35
983.475	5334.03
983.774	5282.05
984.073	5258.77
984.372	5268.49
984.67	5212
984.969	5217.87
985.267	5195.5
985.566	5158.89
985.864	5099.23
986.162	5108.04
986.461	5054.26
986.759	5062.62
987.057	5041.15
987.355	4995.05
987.653	5004.77
987.951	4908.05
988.249	4896.75
988.547	4930.87
988.844	4897.2
989.142	4868.05
989.44	4869.41
989.737	4804.77
990.035	4750.99
990.332	4788.73
990.63	4778.11
990.927	4672.35
991.224	4701.73
991.521	4670.77
991.819	4668.06
992.116	4634.61
992.413	4620.15
992.71	4581.73
993.006	4579.47
993.303	4542.63
993.6	4521.39
993.897	4479.81
994.193	4493.82
994.49	4453.82
994.787	4439.36
995.083	4343.54
995.379	4407.5
995.676	4363.43
995.972	4358.23
996.268	4323.21
996.565	4295.86
996.861	4255.86
997.157	4199.14
997.453	4176.09
997.749	4200.72
998.044	4147.84
998.34	4166.83
998.636	4119.37
998.932	4152.14
999.227	4049.09
999.523	4077.56
999.818	4046.15
1000.114	4011.8
1000.409	4012.25
1000.704	3935.65
1001	3985.14
1001.295	3913.27
1001.59	3929.09
1001.885	3958.02
1002.18	3836.66
1002.475	3865.36
1002.77	3816.55
1003.065	3808.42
1003.359	3805.25
1003.654	3779.49
1003.949	3754.41
1004.243	3705.59
1004.538	3682.77
1004.832	3664.24
1005.127	3626.5
1005.421	3624.92
1005.715	3634.41
1006.009	3600.06
1006.304	3591.93
1006.598	3559.38
1006.892	3560.74
1007.186	3467.18
1007.48	3487.3
1007.773	3459.73
1008.067	3412.95
1008.361	3377.47
1008.655	3354.64
1008.948	3349.9
1009.242	3370.69
1009.535	3285.04
1009.829	3317.81
1010.122	3298.37
1010.415	3280.07
1010.708	3266.96
1011.001	3242.33
1011.295	3204.14
1011.588	3195.78
1011.881	3148.77
1012.173	3150.13
1012.466	3149.9
1012.759	3113.52
1013.052	3091.83
1013.344	3052.05
1013.637	3039.4
1013.93	2994.43
1014.222	3002.56
1014.514	2996.46
1014.807	2971.15
1015.099	2946.97
1015.391	2951.94
1015.683	2897.03
1015.976	2878.05
1016.268	2879.85
1016.56	2858.16
1016.851	2820.19
1017.143	2810.02
1017.435	2814.77
1017.727	2750.14
1018.018	2770.7
1018.31	2735.22
1018.602	2723.25
1018.893	2700.65
1019.185	2685.96
1019.476	2662.46
1019.767	2636.47
1020.058	2628.11
1020.35	2584.04
1020.641	2571.39
1020.932	2570.71
1021.223	2548.79
1021.514	2533.65
1021.804	2481.45
1022.095	2503.37
1022.386	2494.55
1022.677	2453.88
1022.967	2440.54
1023.258	2390.83
1023.548	2400.54
1023.839	2372.75
1024.129	2364.16
1024.419	2368.68
1024.709	2339.3
1025	2339.08
1025.29	2315.35
1025.58	2290.49
1025.87	2277.61
1026.16	2260.66
1026.449	2260.21
1026.739	2251.85
1027.029	2188.35
1027.319	2200.1
1027.608	2175.69
1027.898	2186.31
1028.187	2181.34
1028.477	2128.91
1028.766	2088.24
1029.055	2077.61
1029.344	2083.49
1029.634	2089.59
1029.923	2071.29
1030.212	2070.84
1030.501	2017.96
1030.79	2009.14
1031.078	1989.03
1031.367	1996.04
1031.656	1947.45
1031.945	1888.24
1032.233	1956.94
1032.522	1921.23
1032.81	1895.02
1033.099	1868.81
1033.387	1901.35
1033.675	1858.86
1033.963	1844.17
1034.251	1833.78
1034.54	1820.67
1034.828	1791.29
1035.116	1814.12
1035.403	1761.46
1035.691	1771.86
1035.979	1754.46
1036.267	1751.3
1036.554	1716.04
1036.842	1727.12
1037.129	1731.64
1037.417	1677.17
1037.704	1664.74
1037.992	1661.58
1038.279	1664.07
1038.566	1642.15
1038.853	1642.15
1039.14	1642.15
