Data from 17-1436_FLMS001491_003.txt Node
Date: Thu Apr 19 16:29:00 BST 2018
User: hsy
Spectrometer: FLMS00149
Trigger mode: 0
Integration Time (sec): 1.000000E-2
Scans to average: 10
Electric dark correction enabled: true
Nonlinearity correction enabled: false
Boxcar width: 0
XAxis mode: Wavelengths
Number of Pixels in Spectrum: 2048
>>>>>Begin Spectral Data<<<<<
341.393	-2.27
341.776	-2.27
342.16	-2.27
342.543	-56.06
342.927	-48.37
343.31	-66.45
343.693	-70.29
344.077	-80.46
344.46	-76.4
344.843	-72.55
345.226	-47.24
345.61	-20.13
345.993	4.28
346.376	-4.08
346.759	18.06
347.142	25.75
347.525	56.03
347.908	51.06
348.291	92.41
348.674	89.7
349.057	100.32
349.44	127.67
349.823	144.61
350.206	155.69
350.588	226.19
350.971	237.27
351.354	272.07
351.737	266.42
352.119	280.43
352.502	282.46
352.884	319.53
353.267	332.63
353.65	326.53
354.032	310.26
354.414	341.67
354.797	350.94
355.179	369.02
355.562	367.21
355.944	351.62
356.326	374.67
356.709	369.02
357.091	376.25
357.473	384.61
357.855	379.18
358.238	372.18
358.62	369.47
359.002	351.62
359.384	380.09
359.766	362.69
360.148	368.79
360.53	383.93
360.912	368.34
361.294	393.42
361.676	372.18
362.057	362.69
362.439	377.6
362.821	383.25
363.203	374.67
363.584	377.38
363.966	372.63
364.348	365.85
364.729	364.04
365.111	360.65
365.493	378.06
365.874	353.42
366.256	357.72
366.637	351.62
367.019	340.09
367.4	366.98
367.781	369.47
368.163	360.2
368.544	371.05
368.925	360.88
369.306	379.41
369.688	357.72
370.069	361.11
370.45	364.04
370.831	365.63
371.212	360.88
371.593	355.91
371.974	363.59
372.355	391.16
372.736	360.43
373.117	387.55
373.498	375.8
373.879	376.93
374.26	372.18
374.641	364.95
375.021	388.9
375.402	386.64
375.783	403.37
376.163	385.29
376.544	401.56
376.925	385.96
377.305	391.84
377.686	379.86
378.066	406.98
378.447	402.01
378.827	402.69
379.208	403.37
379.588	392.97
379.968	411.73
380.349	421.44
380.729	392.74
381.109	415.79
381.489	402.69
381.87	418.05
382.25	416.02
382.63	446.98
383.01	411.27
383.39	429.13
383.77	439.75
384.15	419.86
384.53	432.06
384.91	461.89
385.29	427.77
385.67	442.69
386.049	439.3
386.429	458.96
386.809	437.71
387.189	459.41
387.568	456.47
387.948	453.31
388.328	432.52
388.707	462.35
389.087	484.72
389.466	470.93
389.846	478.84
390.225	501.67
390.605	454.89
390.984	485.4
391.363	470.48
391.743	489.01
392.122	474.1
392.501	502.12
392.881	492.85
393.26	487.66
393.639	486.53
394.018	497.37
394.397	509.8
394.776	509.8
395.155	507.54
395.534	523.59
395.913	534.89
396.292	529.92
396.671	525.4
397.05	535.57
397.429	510.03
397.808	529.24
398.186	536.69
398.565	562
398.944	541.21
399.323	543.93
399.701	567.2
400.08	556.58
400.458	562.68
400.837	564.94
401.215	596.81
401.594	565.85
401.972	588.22
402.351	571.72
402.729	601.1
403.107	606.75
403.486	618.95
403.864	594.09
404.242	613.53
404.62	634.32
404.999	618.73
405.377	632.96
405.755	602.46
406.133	623.02
406.511	625.28
406.889	646.3
407.267	651.95
407.645	664.38
408.023	663.7
408.401	685.17
408.779	685.39
409.156	688.33
409.534	685.62
409.912	693.75
410.29	699.85
410.667	714.77
411.045	737.14
411.422	729.91
411.8	770.81
412.178	748.21
412.555	727.2
412.933	771.49
413.31	765.39
413.687	779.63
414.065	774.88
414.442	795.22
414.819	779.17
415.197	795.9
415.574	828.44
415.951	835.9
416.328	819.17
416.705	843.13
417.082	856.69
417.46	863.01
417.837	851.04
418.214	867.99
418.591	854.88
418.967	885.61
419.344	892.17
419.721	900.08
420.098	876.8
420.475	924.48
420.852	911.15
421.228	897.36
421.605	922.9
421.982	962.67
422.358	914.54
422.735	958.6
423.111	950.47
423.488	972.39
423.864	964.25
424.241	986.85
424.617	984.14
424.994	974.65
425.37	1009.22
425.746	996.12
426.123	1010.35
426.499	1041.77
426.875	1019.62
427.251	1018.49
427.627	1073.63
428.003	1072.5
428.379	1089
428.756	1087.19
429.132	1109.34
429.507	1138.71
429.883	1121.99
430.259	1124.93
430.635	1174.19
431.011	1147.53
431.387	1194.53
431.763	1215.77
432.138	1226.39
432.514	1224.13
432.89	1207.19
433.265	1283.57
433.641	1287.41
434.016	1254.42
434.392	1308.88
434.767	1312.95
435.143	1325.15
435.518	1333.74
435.894	1350.23
436.269	1365.83
436.644	1372.15
437.02	1398.37
437.395	1398.14
437.77	1414.19
438.145	1432.72
438.52	1449.21
438.895	1476.78
439.271	1465.48
439.646	1457.57
440.021	1489.66
440.395	1471.81
440.77	1488.53
441.145	1513.62
441.52	1535.99
441.895	1552.94
442.27	1549.1
442.645	1539.83
443.019	1592.03
443.394	1544.58
443.769	1571.92
444.143	1555.88
444.518	1589.1
444.892	1590.9
445.267	1576.67
445.641	1602.43
446.016	1638.36
446.39	1659.15
446.764	1637
447.139	1657.12
447.513	1626.84
447.887	1648.53
448.262	1679.26
448.636	1697.57
449.01	1693.27
449.384	1722.43
449.758	1761.3
450.132	1729.43
450.506	1766.49
450.88	1775.98
451.254	1787.28
451.628	1824.12
452.002	1827.73
452.376	1831.35
452.75	1855.98
453.123	1866.15
453.497	1871.58
453.871	1909.77
454.244	1952.02
454.618	1956.77
454.992	1998.8
455.365	1998.35
455.739	2020.5
456.112	2044.9
456.486	2077.67
456.859	2077.45
457.232	2159.03
457.606	2140.27
457.979	2129.2
458.352	2213.71
458.725	2242.86
459.099	2250.55
459.472	2279.25
459.845	2322.41
460.218	2311.11
460.591	2313.37
460.964	2350.88
461.337	2415.74
461.71	2428.4
462.083	2478.56
462.456	2480.37
462.829	2495.97
463.201	2565.34
463.574	2495.06
463.947	2582.97
464.32	2612.8
464.692	2640.14
465.065	2643.98
465.438	2675.85
465.81	2712.91
466.183	2700.71
466.555	2763.76
466.928	2813.02
467.3	2804.66
467.672	2821.61
468.045	2887.59
468.417	2868.61
468.789	2914.94
469.161	2975.27
469.534	3022.51
469.906	3050.08
470.278	3087.59
470.65	3104.09
471.022	3178.43
471.394	3191.31
471.766	3231.77
472.138	3264.76
472.51	3320.12
472.882	3389.73
473.253	3397.86
473.625	3434.7
473.997	3534.36
474.369	3511.98
474.74	3581.59
475.112	3634.92
475.484	3669.49
475.855	3744.52
476.227	3799.21
476.598	3882.14
476.97	3923.72
477.341	3959.66
477.713	3998.75
478.084	4042.82
478.455	4198.07
478.827	4217.95
479.198	4364.62
479.569	4337.27
479.94	4461.11
480.311	4501.56
480.682	4611.84
481.053	4717.83
481.424	4761.67
481.795	4832.18
482.166	4931.38
482.537	4968.22
482.908	5090.02
483.279	5121.89
483.65	5274.65
484.021	5312.16
484.391	5431.48
484.762	5458.15
485.133	5514.64
485.503	5622.89
485.874	5696.56
486.244	5799.38
486.615	5876.67
486.985	5978.59
487.356	6104.23
487.726	6142.2
488.097	6347.84
488.467	6336.54
488.837	6486.37
489.207	6618.57
489.578	6676.65
489.948	6735.4
490.318	6858.34
490.688	6900.14
491.058	7045
491.428	7166.58
491.798	7228.72
492.168	7351.88
492.538	7470.07
492.908	7495.83
493.278	7648.15
493.648	7682.72
494.017	7808.82
494.387	7931.08
494.757	8034.8
495.126	8105.99
495.496	8162.71
495.866	8291.07
496.235	8361.35
496.605	8520.89
496.974	8517.05
497.344	8626.2
497.713	8694.22
498.082	8794.33
498.452	8874.55
498.821	8972.18
499.19	9042.46
499.559	9169.01
499.928	9161.78
500.298	9211.5
500.667	9361.32
501.036	9429.79
501.405	9529.9
501.774	9542.56
502.143	9701.65
502.512	9736.23
502.88	9899.84
503.249	9876.11
503.618	9939.84
503.987	9968.54
504.356	10136.67
504.724	10183.9
505.093	10257.8
505.462	10384.8
505.83	10360.62
506.199	10496.21
506.567	10663.89
506.936	10616.2
507.304	10794.28
507.672	10887.16
508.041	10912.02
508.409	11051.45
508.777	11184.55
509.145	11250.31
509.514	11222.06
509.882	11362.85
510.25	11410.53
510.618	11544.77
510.986	11544.77
511.354	11690.07
511.722	11797.87
512.09	11878.09
512.458	11942.04
512.826	12097.75
513.193	12100.01
513.561	12177.29
513.929	12222.94
514.297	12457.29
514.664	12530.05
515.032	12567.11
515.4	12664.74
515.767	12783.38
516.135	12799.42
516.502	12816.37
516.869	12965.07
517.237	13090.49
517.604	13096.82
517.972	13333.19
518.339	13323.7
518.706	13402.12
519.073	13515.34
519.44	13606.63
519.808	13765.05
520.175	13794.65
520.542	14021.09
520.909	14108.32
521.276	14168.65
521.643	14299.95
522.009	14409.1
522.376	14554.86
522.743	14619.49
523.11	14807.05
523.477	14970.89
523.843	14996.43
524.21	15237.1
524.577	15373.82
524.943	15398
525.31	15595.06
525.676	15721.83
526.043	15805.45
526.409	16017.64
526.776	16096.96
527.142	16210.18
527.508	16351.19
527.874	16536.05
528.241	16668.93
528.607	16607.01
528.973	16937.17
529.339	16918.19
529.705	17185.07
530.071	17313.2
530.437	17299.64
530.803	17464.84
531.169	17678.84
531.535	17606.08
531.901	17755.45
532.267	17901.66
532.632	17944.6
532.998	18105.95
533.364	18246.29
533.73	18221.88
534.095	18484.7
534.461	18364.25
534.826	18617.8
535.192	18690.79
535.557	18908.42
535.923	18859.38
536.288	19003.78
536.653	19185.02
537.019	19130.56
537.384	19174.85
537.749	19308.86
538.114	19376.65
538.479	19338.23
538.845	19545.69
539.21	19454.39
539.575	19616.19
539.94	19648.73
540.305	19770.31
540.67	19910.87
541.034	20009.63
541.399	19940.48
541.764	20047.59
542.129	20077.65
542.494	20143.19
542.858	20334.37
543.223	20265.22
543.587	20452.78
543.952	20436.28
544.316	20394.25
544.681	20569.39
545.045	20769.61
545.41	20652.78
545.774	20770.97
546.138	20810.06
546.503	20952.43
546.867	20879.44
547.231	21076.49
547.595	21095.02
547.959	21278.97
548.324	21237.39
548.688	21233.33
549.052	21474.9
549.416	21422.93
549.779	21517.84
550.143	21480.78
550.507	21706.31
550.871	21762.8
551.235	21730.04
551.599	21957.37
551.962	21887.09
552.326	22000.54
552.689	22073.98
553.053	22024.94
553.417	22164.37
553.78	22419.28
554.143	22485.95
554.507	22511.03
554.87	22566.62
555.234	22728.65
555.597	22752.16
555.96	22813.4
556.323	22909.67
556.686	22975.2
557.05	23238.92
557.413	23231.69
557.776	23286.38
558.139	23469.2
558.502	23566.82
558.865	23623.77
559.228	23885.69
559.59	23846.36
559.953	23936.08
560.316	24238.22
560.679	24230.31
561.041	24355.5
561.404	24600.24
561.767	24684.08
562.129	24665.55
562.492	24983.74
562.854	24967.01
563.217	25086.33
563.579	25184.63
563.941	25385.08
564.304	25516.38
564.666	25647.9
565.028	25703.94
565.39	25838.18
565.753	26093.99
566.115	26071.84
566.477	26281.1
566.839	26282.91
567.201	26669.34
567.563	26704.14
567.925	26926.74
568.287	27023.46
568.648	27077.47
569.01	27294.64
569.372	27519.71
569.734	27569.88
570.095	27752.48
570.457	27996.31
570.819	27972.13
571.18	28067.5
571.542	28429.29
571.903	28382.06
572.265	28633.58
572.626	28829.06
572.987	28891.66
573.349	29110.18
573.71	29277.86
574.071	29402.15
574.432	29606.44
574.794	29699.09
575.155	29770.05
575.516	29830.16
575.877	30023.83
576.238	30129.14
576.599	30267.66
576.96	30444.38
577.32	30687.54
577.681	30639.41
578.042	30965.5
578.403	30962.56
578.763	31068.1
579.124	31282.78
579.485	31489.33
579.845	31588.76
580.206	31654.07
580.566	31734.52
580.927	31797.34
581.287	32046.83
581.648	32122.53
582.008	32259.7
582.368	32480.94
582.728	32682.06
583.089	32686.13
583.449	32775.62
583.809	32899.69
584.169	33232.33
584.529	33199.11
584.889	33697.86
585.249	33498.99
585.609	33456.06
585.969	33922.71
586.329	33945.53
586.688	34297.16
587.048	34294.68
587.408	34527.21
587.768	34620.54
588.127	34880.2
588.487	34993.64
588.846	35441.99
589.206	35353.63
589.565	35568.54
589.925	36014.41
590.284	36019.15
590.643	36347.96
591.003	36595.41
591.362	37010.99
591.721	37163.53
592.08	37305.9
592.44	37566.91
592.799	37607.58
593.158	37940.23
593.517	38068.82
593.876	38426.77
594.235	38586.99
594.593	38828.34
594.952	39118.05
595.311	39349.91
595.67	39544.93
596.029	39906.06
596.387	40112.83
596.746	40555.98
597.104	40447.96
597.463	40720.27
597.822	41127.72
598.18	41199.13
598.538	41308.05
598.897	41845.44
599.255	41687.7
599.613	42337.18
599.972	42388.48
600.33	42652.42
600.688	42758.41
601.046	43060.77
601.404	43401.56
601.762	43572.85
602.12	43835.67
602.478	44002.22
602.836	44317.24
603.194	44218.48
603.552	44573.5
603.91	44780.96
604.268	44943.89
604.625	45138.69
604.983	45557.66
605.341	45403.09
605.698	45785.9
606.056	46178.66
606.413	46093.92
606.771	46474.24
607.128	46514.02
607.485	46656.39
607.843	46729.38
608.2	47059.77
608.557	47351.51
608.914	47335.92
609.272	47713.31
609.629	47984.71
609.986	48113.75
610.343	48042.11
610.7	48410.92
611.057	48406.85
611.414	48486.39
611.771	48753.05
612.127	48833.05
612.484	49081.41
612.841	49229.65
613.198	49331.12
613.554	49300.84
613.911	49653.37
614.267	49720.94
614.624	49730.2
614.98	49788.51
615.337	50236.63
615.693	50343.75
616.05	50171.1
616.406	50517.98
616.762	50528.83
617.118	50595.27
617.475	50573.57
617.831	50811.31
618.187	50886.11
618.543	50972.2
618.899	51208.36
619.255	51172.43
619.611	51136.72
619.967	51327.9
620.323	51504.39
620.678	51392.31
621.034	51392.53
621.39	51426.66
621.746	51580.32
622.101	51812.18
622.457	51490.61
622.812	51673.66
623.168	51870.71
623.523	51874.1
623.879	51947.77
624.234	51833.88
624.589	51950.03
624.945	51979.86
625.3	52088.56
625.655	52029.35
626.01	52074.32
626.365	52006.75
626.72	52083.81
627.075	52108.67
627.43	52126.52
627.785	52088.33
628.14	52078.39
628.495	52148.9
628.85	52241.32
629.205	52170.82
629.559	52183.47
629.914	52114.55
630.269	52184.15
630.623	52043.59
630.978	51978.96
631.332	52147.09
631.687	52266.41
632.041	52144.38
632.396	52072.74
632.75	52065.51
633.104	52045.85
633.459	51907.1
633.813	52009.92
634.167	51935.8
634.521	51886.31
634.875	51909.13
635.229	51889.24
635.583	51796.14
635.937	51722.47
636.291	51731.73
636.645	51766.99
636.999	51600.66
637.352	51769.7
637.706	51550.04
638.06	51618.74
638.413	51590.27
638.767	51438.18
639.121	51510.5
639.474	51431.4
639.828	51484.28
640.181	51342.14
640.534	51496.71
640.888	51289.03
641.241	51172.2
641.594	51245.19
641.947	51307.34
642.301	51182.37
642.654	51248.36
643.007	51146.66
643.36	51150.05
643.713	51030.51
644.066	51265.76
644.419	50985.99
644.771	50643.85
645.124	50356.63
645.477	50221.94
645.83	50194.82
646.182	50068.73
646.535	49878.67
646.888	50029.63
647.24	49959.12
647.593	50086.8
647.945	49939.24
648.298	49873.7
648.65	49699.02
649.002	49483.88
649.355	49419.03
649.707	49330.44
650.059	49462.41
650.411	49896.98
650.763	49964.55
651.115	50428.26
651.467	50250.87
651.819	50288.61
652.171	50211.55
652.523	50142.17
652.875	50137.65
653.227	49968.62
653.578	50227.59
653.93	49999.12
654.282	49930.65
654.633	50018.33
654.985	49991.67
655.337	49943.31
655.688	49849.07
656.039	50079.57
656.391	49630.32
656.742	49697.44
657.094	49826.92
657.445	49752.12
657.796	49810.88
658.147	49776.53
658.498	49798.45
658.849	49873.02
659.2	49789.41
659.551	49553.03
659.902	49804.1
660.253	49607.5
660.604	49761.39
660.955	49567.72
661.306	49763.65
661.656	49491.34
662.007	49642.97
662.358	49556.2
662.708	49635.97
663.059	49545.8
663.409	49217
663.76	49643.2
664.11	49572.69
664.461	49687.49
664.811	49668.28
665.161	49475.97
665.511	49409.31
665.862	49490.89
666.212	49597.55
666.562	49565.46
666.912	49484.56
667.262	49294.96
667.612	49352.59
667.962	49414.05
668.312	49240.27
668.662	49516.88
669.011	49385.58
669.361	49259.93
669.711	49357.11
670.06	49259.71
670.41	49273.27
670.76	49223.1
671.109	49346.71
671.459	49346.94
671.808	49345.81
672.157	49385.81
672.507	49101.29
672.856	49107.4
673.205	49191.23
673.554	49305.58
673.904	48963.22
674.253	49402.75
674.602	49198.24
674.951	48839.15
675.3	48451.14
675.649	49207.28
675.998	49021.07
676.346	49092.71
676.695	49220.39
677.044	48920.96
677.393	48979.71
677.741	49108.07
678.09	49022.65
678.438	48884.8
678.787	49051.58
679.135	48927.96
679.484	48591.93
679.832	48869.89
680.181	48784.92
680.529	48786.27
680.877	48666.5
681.225	48601.65
681.573	48860.17
681.922	48588.54
682.27	48546.73
682.618	48413.4
682.966	48380.86
683.314	48487.75
683.661	48334.31
684.009	48317.13
684.357	48226.06
684.705	48025.62
685.053	48039.4
685.4	47960.53
685.748	47826.07
686.095	47801.67
686.443	47671.5
686.79	47584.05
687.138	47622.69
687.485	47576.14
687.832	47504.5
688.18	47512.86
688.527	47430.15
688.874	47374.33
689.221	47363.03
689.568	47087.34
689.915	47051.63
690.262	47008.24
690.609	47016.38
690.956	46747.01
691.303	46858.87
691.65	46575.03
691.997	46541.14
692.344	46379.78
692.69	46197.42
693.037	46334.36
693.383	46078.55
693.73	46244.65
694.077	45953.35
694.423	45848.05
694.769	45802.17
695.116	45580.26
695.462	45549.52
695.808	45490.32
696.155	45517.89
696.501	45163.54
696.847	45186.82
697.193	45101.85
697.539	45109.31
697.885	44627.96
698.231	44734.63
698.577	44665.93
698.923	44629.55
699.269	44287.41
699.614	44395.88
699.96	44177.81
700.306	44195.21
700.651	44032.05
700.997	43830.02
701.342	43775.78
701.688	43590.25
702.033	43469.58
702.379	43649.01
702.724	43403.82
703.069	43431.84
703.415	42964.73
703.76	43061.45
704.105	43036.14
704.45	42868.24
704.795	42804.96
705.14	42584.18
705.485	42721.35
705.83	42313.68
706.175	42585.08
706.52	42453.78
706.865	42198.42
707.209	42042.04
707.554	41977.87
707.899	42026.45
708.243	41726.35
708.588	41746.46
708.932	41504.43
709.277	41697.19
709.621	41308.05
709.966	41329.29
710.31	41291.33
710.654	40955.52
710.998	40949.87
711.342	41209.98
711.687	40899.02
712.031	40861.51
712.375	40755.3
712.719	40617.22
713.063	40476.21
713.407	40652.48
713.75	40436.89
714.094	40400.28
714.438	40249.78
714.782	40207.06
715.125	40069.89
715.469	40178.59
715.812	39652.05
716.156	39858.37
716.499	39730.01
716.843	39903.34
717.186	39640.98
717.53	39619.96
717.873	39769.34
718.216	39622.9
718.559	39544.48
718.902	39240.54
719.246	39295.68
719.589	39073.08
719.932	39090.48
720.275	39070.82
720.617	39051.84
720.96	38866.53
721.303	38794.45
721.646	38937.72
721.989	38674.22
722.331	38715.13
722.674	38556.26
723.016	38662.7
723.359	38366.43
723.701	38487.56
724.044	38443.49
724.386	38210.05
724.729	38369.15
725.071	38387.45
725.413	38328.7
725.755	38100.68
726.097	37983.17
726.439	37857.52
726.782	37800.12
727.124	38029.27
727.465	37843.06
727.807	37675.61
728.149	37833.12
728.491	37655.27
728.833	37740.69
729.175	37583.86
729.516	37448.72
729.858	37363.75
730.199	37567.81
730.541	37423.86
730.882	37234.49
731.224	37274.94
731.565	37090.08
731.906	37114.04
732.248	37205.34
732.589	37066.58
732.93	36949.75
733.271	37007.37
733.612	36956.53
733.953	37013.93
734.294	36838.79
734.635	36795.4
734.976	36872.69
735.317	36679.47
735.658	36777.32
735.999	36703.88
736.339	36689.64
736.68	36526.26
737.021	36568.52
737.361	36372.81
737.702	36668.17
738.042	36459.14
738.383	36387.28
738.723	36446.94
739.063	36234.29
739.404	36407.39
739.744	36240.84
740.084	36051.47
740.424	36183.22
740.764	35983.67
741.104	36217.11
741.444	35867.52
741.784	35921.3
742.124	35965.82
742.464	35843.34
742.804	35763.34
743.143	35795.65
743.483	35756.11
743.823	35527.87
744.162	35654.87
744.502	35774.64
744.841	35570.58
745.181	35680.86
745.52	35671.82
745.86	35519.5
746.199	35504.82
746.538	35526.96
746.877	35501.65
747.216	35439.51
747.556	35253.97
747.895	35417.36
748.234	35239.74
748.573	35199.29
748.911	35064.15
749.25	35083.36
749.589	34763.82
749.928	34946.64
750.267	34834.1
750.605	34759.52
750.944	34731.28
751.283	34681.11
751.621	34816.02
751.96	34631.39
752.298	34475.24
752.636	34413.32
752.975	34364.96
753.313	34348.91
753.651	34519.98
753.989	34298.07
754.327	34376.26
754.666	34093.33
755.004	34077.73
755.342	33967.68
755.679	34072.31
756.017	33840.9
756.355	33835.71
756.693	33783.05
757.031	33763.84
757.368	33506.45
757.706	33518.88
758.044	33382.38
758.381	33424.87
758.719	33325.89
759.056	33200.02
759.394	33249.73
759.731	33172.22
760.068	32982.62
760.405	32901.95
760.743	32790.76
761.08	32800.48
761.417	32689.75
761.754	32637.55
762.091	32463.77
762.428	32354.16
762.765	32086.83
763.102	32264.22
763.438	32166.82
763.775	31982.42
764.112	31888.86
764.449	31946.94
764.785	31700.62
765.122	31634.63
765.458	31501.53
765.795	31477.35
766.131	31301.31
766.467	31236
766.804	31039.4
767.14	30978.15
767.476	30910.81
767.812	30743.36
768.148	30722.79
768.485	30605.28
768.821	30407.55
769.157	30284.84
769.492	30372.52
769.828	30291.84
770.164	29970.05
770.5	29860.22
770.836	29945.64
771.171	29810.73
771.507	29641.01
771.842	29453
772.178	29539.77
772.513	29276.73
772.849	29244.64
773.184	29255.71
773.519	29149.28
773.855	28971.65
774.19	28799.23
774.525	28721.04
774.86	28605.11
775.195	28541.16
775.53	28382.97
775.865	28214.84
776.2	28141.62
776.535	27965.35
776.87	27863.21
777.205	27857.78
777.539	27826.37
777.874	27751.35
778.209	27564.46
778.543	27547.06
778.878	27307.29
779.212	27277.91
779.547	27008.32
779.881	27212.38
780.215	26925.38
780.55	26858.26
780.884	26656.91
781.218	26584.15
781.552	26625.73
781.886	26476.8
782.22	26367.2
782.554	26261.89
782.888	26016.93
783.222	25987.33
783.556	25806.31
783.889	25815.8
784.223	25650.84
784.557	25593.44
784.89	25604.51
785.224	25421.92
785.557	25260.34
785.891	25177.18
786.224	25197.74
786.558	25157.29
786.891	24991.42
787.224	24886.56
787.557	24633.01
787.891	24734.25
788.224	24545.78
788.557	24630.3
788.89	24575.84
789.223	24336.75
789.556	24153.93
789.888	24239.8
790.221	24089.52
790.554	24013.59
790.887	23970.88
791.219	23820.38
791.552	23673.71
791.884	23673.94
792.217	23528.18
792.549	23524.11
792.882	23316.89
793.214	23226.72
793.546	23248.64
793.879	23188.53
794.211	23001.87
794.543	23068.08
794.875	22961.19
795.207	23024.47
795.539	22832.38
795.871	22763.23
796.203	22692.5
796.535	22566.4
796.867	22578.83
797.198	22412.73
797.53	22464.93
797.862	22279.85
798.193	22320.75
798.525	22043.47
798.856	22193.3
799.188	21898.17
799.519	21873.08
799.85	21749.92
800.182	21745.4
800.513	21720.54
800.844	21506.99
801.175	21726.87
801.506	21612.75
801.837	21530.95
802.168	21439.42
802.499	21448.01
802.83	21215.02
803.161	21170.95
803.491	21144.06
803.822	21210.95
804.153	20976.61
804.483	20909.72
804.814	20780.68
805.145	20931.19
805.475	20824.07
805.805	20719.22
806.136	20723.73
806.466	20590.18
806.796	20561.25
807.126	20428.83
807.457	20428.83
807.787	20483.29
808.117	20336.4
808.447	20317.19
808.777	20293.01
809.107	20175.73
809.436	20042.4
809.766	20057.09
810.096	20017.09
810.426	19947.94
810.755	20001.95
811.085	19880.14
811.414	19917.2
811.744	19723.08
812.073	19735.96
812.403	19622.29
812.732	19439.25
813.061	19695.74
813.39	19383.88
813.719	19445.12
814.049	19493.03
814.378	19400.38
814.707	19311.57
815.036	19331.68
815.365	19256.2
815.693	19119.94
816.022	19172.82
816.351	19029.32
816.68	18938.24
817.008	19020.05
817.337	18815.76
817.665	18774.63
817.994	18810.34
818.322	18914.74
818.651	18700.96
818.979	18696.44
819.307	18732.6
819.636	18671.36
819.964	18674.3
820.292	18611.02
820.62	18623.9
820.948	18508.43
821.276	18703.9
821.604	18566.96
821.932	18627.07
822.259	18601.98
822.587	18559.95
822.915	18570.35
823.243	18550.23
823.57	18451.48
823.898	18626.84
824.225	18529.67
824.553	18499.61
824.88	18455.55
825.207	18562.66
825.535	18437.47
825.862	18553.17
826.189	18472.72
826.516	18672.49
826.843	18567.86
827.17	18549.55
827.497	18574.41
827.824	18531.93
828.151	18650.34
828.478	18539.84
828.805	18634.98
829.131	18606.73
829.458	18507.75
829.785	18405.6
830.111	18467.07
830.438	18535.32
830.764	18547.75
831.09	18511.59
831.417	18417.81
831.743	18575.99
832.069	18542.78
832.395	18501.65
832.722	18497.8
833.048	18372.38
833.374	18456
833.7	18378.71
834.026	18522.21
834.351	18343.46
834.677	18441.99
835.003	18424.59
835.329	18430.24
835.654	18296.68
835.98	18247.19
836.306	18320.18
836.631	18267.98
836.956	18432.27
837.282	18346.62
837.607	18226.85
837.932	18209
838.258	18181.88
838.583	18129.68
838.908	18025.5
839.233	18136.91
839.558	17994.31
839.883	17977.37
840.208	18015.33
840.533	18007.2
840.858	17936.01
841.182	18052.62
841.507	17958.84
841.832	17830.03
842.156	17805.62
842.481	17831.83
842.805	17722.68
843.13	17624.16
843.454	17699.18
843.778	17625.06
844.103	17579.41
844.427	17633.65
844.751	17519.98
845.075	17567.89
845.399	17498.06
845.723	17369.47
846.047	17433.65
846.371	17320.43
846.695	17207.44
847.019	17154.56
847.343	17000.22
847.666	17039.76
847.99	16857.17
848.313	16804.29
848.637	16814.91
848.96	16736.49
849.284	16804.29
849.607	16687.91
849.931	16600.91
850.254	16555.71
850.577	16388.93
850.9	16283.85
851.223	16263.06
851.546	16288.37
851.869	16118.66
852.192	16215.83
852.515	16009.96
852.838	15879.34
853.161	15967.48
853.483	15849.06
853.806	15832.56
854.129	15757.09
854.451	15773.81
854.774	15580.59
855.096	15592.8
855.419	15510.31
855.741	15520.71
856.063	15436.42
856.385	15429.18
856.708	15359.13
857.03	15298.11
857.352	15247.49
857.674	15285.69
857.996	15167.72
858.318	15032.13
858.64	15069.65
858.961	15026.71
859.283	14990.1
859.605	14998.46
859.926	14937.22
860.248	14826.94
860.57	14800.95
860.891	14834.62
861.212	14673.72
861.534	14790.78
861.855	14683.67
862.176	14730.67
862.498	14625.59
862.819	14742.88
863.14	14657.23
863.461	14626.27
863.782	14470.34
864.103	14532.94
864.424	14508.08
864.745	14506.05
865.065	14409.32
865.386	14280.51
865.707	14302.89
866.027	14318.25
866.348	14263.57
866.668	14323.45
866.989	14253.17
867.309	14142.44
867.63	14207.97
867.95	14222.89
868.27	14122.55
868.59	14191.93
868.91	14078.26
869.23	14072.38
869.55	14067.19
869.87	14028.54
870.19	14083.46
870.51	13960.97
870.83	13963.01
871.15	13892.5
871.469	13874.65
871.789	14000.52
872.109	13898.6
872.428	13842.56
872.748	13853.86
873.067	13871.03
873.386	13833.97
873.706	13797.36
874.025	13785.39
874.344	13706.29
874.663	13725.05
874.982	13715.33
875.301	13616.8
875.62	13673.98
875.939	13552.17
876.258	13658.38
876.577	13503.81
876.896	13526.41
877.214	13346.3
877.533	13497.94
877.852	13415.68
878.17	13400.54
878.489	13479.41
878.807	13371.84
879.125	13375.23
879.444	13340.2
879.762	13368.45
880.08	13366.41
880.398	13282.35
880.716	13293.2
881.034	13221.11
881.352	13239.64
881.67	13229.02
881.988	13215.91
882.306	13086.2
882.624	13144.5
882.941	13059.53
883.259	13039.64
883.577	13007.78
883.894	12990.83
884.212	12968.91
884.529	12904.05
884.846	12850.27
885.164	12818.18
885.481	12825.41
885.798	12804.17
886.115	12704.74
886.432	12763.04
886.75	12719.88
887.067	12778.18
887.383	12715.13
887.7	12714.91
888.017	12557.62
888.334	12607.34
888.651	12540.67
888.967	12530.5
889.284	12407.12
889.6	12440.34
889.917	12437.17
890.233	12382.94
890.55	12349.27
890.866	12344.07
891.182	12346.55
891.498	12189.27
891.815	12153.79
892.131	12108.82
892.447	12062.95
892.763	12114.47
893.079	12054.81
893.395	12003.74
893.71	11996.28
894.026	11981.82
894.342	11947.69
894.657	11874.02
894.973	11841.93
895.289	11843.52
895.604	11852.1
895.92	11710.86
896.235	11705.89
896.55	11740.69
896.865	11623.86
897.181	11619.34
897.496	11569.17
897.811	11460.48
898.126	11481.49
898.441	11495.73
898.756	11423.87
899.071	11358.33
899.386	11396.52
899.7	11281.05
900.015	11185.45
900.33	11159.92
900.644	11114.04
900.959	11164.66
901.273	11008.51
901.588	11009.64
901.902	10983.88
902.216	10955.86
902.531	10908.85
902.845	10859.81
903.159	10805.8
903.473	10780.49
903.787	10761.96
904.101	10672.47
904.415	10749.31
904.729	10665.24
905.042	10555.64
905.356	10595.64
905.67	10549.31
905.984	10573.95
906.297	10437.9
906.611	10437.68
906.924	10402.65
907.237	10382.31
907.551	10283.33
907.864	10262.31
908.177	10240.62
908.491	10201.75
908.804	10131.7
909.117	10009.89
909.43	10006.05
909.743	9948.42
910.056	9999.27
910.368	9945.94
910.681	9961.53
910.994	9747.98
911.307	9816.68
911.619	9697.81
911.932	9745.04
912.244	9701.88
912.557	9658.71
912.869	9568.32
913.181	9634.53
913.494	9569.9
913.806	9481.32
914.118	9460.98
914.43	9380.3
914.742	9471.6
915.054	9369.01
915.366	9290.82
915.678	9207.43
915.99	9238.84
916.302	9187.54
916.613	9131.27
916.925	9125.85
917.236	9125.62
917.548	9072.29
917.859	9102.12
918.171	9027.09
918.482	8920.66
918.794	8940.54
919.105	8799.3
919.416	8807.21
919.727	8758.17
920.038	8793.43
920.349	8668.91
920.66	8710.49
920.971	8666.88
921.282	8604.28
921.593	8569.93
921.903	8488.12
922.214	8468.01
922.525	8383.27
922.835	8387.56
923.146	8394.57
923.456	8310.5
923.767	8299.88
924.077	8284.51
924.387	8253.1
924.697	8211.52
925.008	8197.28
925.318	8147.79
925.628	8101.69
925.938	8049.94
926.248	8011.07
926.558	8003.17
926.867	8001.13
927.177	7983.5
927.487	7865.77
927.796	7816.28
928.106	7812.21
928.416	7823.51
928.725	7783.06
929.034	7760.46
929.344	7699.22
929.653	7704.87
929.962	7656.06
930.271	7588.94
930.581	7584.87
930.89	7536.74
931.199	7471.88
931.508	7424.65
931.817	7445.21
932.125	7438.89
932.434	7410.41
932.743	7286.12
933.051	7363.63
933.36	7268.95
933.669	7292.45
933.977	7258.55
934.286	7230.98
934.594	7167.71
934.902	7091.32
935.21	7057.2
935.519	7073.92
935.827	7064.88
936.135	7014.04
936.443	6951.22
936.751	6896.98
937.059	6897.43
937.367	6929.3
937.674	6895.17
937.982	6833.7
938.29	6795.51
938.597	6732.69
938.905	6678.68
939.213	6712.35
939.52	6742.41
939.827	6697.89
940.135	6614.95
940.442	6586.48
940.749	6630.09
941.056	6566.14
941.363	6458.57
941.67	6468.06
941.977	6484.56
942.284	6408.18
942.591	6406.37
942.898	6369.76
943.205	6414.05
943.511	6303.32
943.818	6364.11
944.125	6263.55
944.431	6268.3
944.738	6250.22
945.044	6242.53
945.35	6181.29
945.657	6117.79
945.963	6122.31
946.269	6087.74
946.575	6108.98
946.881	6018.13
947.187	6056.32
947.493	5971.35
947.799	5949.66
948.105	5985.82
948.41	5869.89
948.716	5958.93
949.022	5895.65
949.327	5810.68
949.633	5818.59
949.938	5818.59
950.244	5797.8
950.549	5770
950.854	5729.1
951.16	5736.56
951.465	5679.84
951.77	5639.84
952.075	5607.75
952.38	5635.54
952.685	5562.78
952.99	5517.58
953.294	5533.17
953.599	5439.62
953.904	5451.82
954.209	5399.84
954.513	5445.49
954.818	5411.82
955.122	5397.58
955.426	5406.17
955.731	5339.28
956.035	5330.02
956.339	5285.5
956.643	5252.5
956.948	5287.76
957.252	5186.97
957.556	5179.96
957.86	5175.22
958.163	5201.88
958.467	5182.9
958.771	5120.3
959.075	5093.19
959.378	5050.93
959.682	5043.7
959.985	5046.41
960.289	4973.64
960.592	4975
960.896	4964.38
961.199	4914.66
961.502	4891.83
961.805	4916.01
962.108	4877.15
962.411	4817.71
962.714	4750.82
963.017	4793.53
963.32	4797.15
963.623	4777.49
963.926	4726.19
964.228	4674.89
964.531	4722.57
964.833	4706.3
965.136	4668.11
965.438	4628.79
965.741	4612.52
966.043	4572.52
966.345	4556.02
966.648	4594.44
966.95	4519.64
967.252	4506.99
967.554	4473.31
967.856	4496.36
968.158	4410.72
968.46	4457.72
968.761	4431.51
969.063	4425.63
969.365	4356.71
969.666	4352.41
969.968	4302.02
970.269	4295.01
970.571	4239.42
970.872	4293.43
971.174	4298.86
971.475	4256.6
971.776	4231.74
972.077	4201.68
972.378	4164.62
972.679	4164.17
972.98	4176.15
973.281	4111.97
973.582	4092.53
973.883	4120.33
974.183	4067.68
974.484	4072.87
974.785	4002.14
975.085	4011.41
975.386	4028.58
975.686	3960.56
975.986	3948.13
976.287	3967.79
976.587	3920.56
976.887	3959.88
977.187	3959.66
977.487	3894.12
977.787	3855.48
978.087	3813.67
978.387	3814.8
978.687	3814.57
978.987	3756.5
979.286	3847.79
979.586	3773.22
979.885	3712.66
980.185	3693.22
980.484	3720.34
980.784	3704.75
981.083	3731.64
981.382	3670.62
981.682	3671.98
981.981	3642.83
982.28	3631.98
982.579	3594.92
982.878	3639.89
983.177	3527.8
983.475	3556.95
983.774	3575.03
984.073	3535.94
984.372	3476.96
984.67	3515.37
984.969	3465.43
985.267	3479.89
985.566	3428.82
985.864	3464.3
986.162	3422.04
986.461	3358.54
986.759	3391.99
987.057	3400.12
987.355	3364.19
987.653	3319.22
987.951	3330.07
988.249	3307.7
988.547	3296.85
988.844	3296.4
989.142	3251.65
989.44	3211.88
989.737	3231.31
990.035	3169.17
990.332	3225.89
990.63	3130.3
990.927	3152.45
991.224	3153.35
991.521	3159.22
991.819	3123.29
992.116	3099.34
992.413	3114.25
992.71	3075.61
993.006	3066.8
993.303	3071.09
993.6	3039.68
993.897	3038.78
994.193	3033.58
994.49	2987.93
994.787	2976.18
995.083	2970.53
995.379	2964.65
995.676	2956.29
995.972	2926.91
996.268	2928.72
996.565	2904.54
996.861	2870.87
997.157	2896.86
997.453	2855.96
997.749	2837.65
998.044	2823.41
998.34	2798.78
998.636	2821.83
998.932	2811.44
999.227	2731.44
999.523	2759.69
999.818	2716.98
1000.114	2706.13
1000.409	2687.37
1000.704	2678.33
1001	2673.14
1001.295	2615.74
1001.59	2680.82
1001.885	2688.05
1002.18	2606.47
1002.475	2623.87
1002.77	2592.69
1003.065	2593.14
1003.359	2587.94
1003.654	2561.95
1003.949	2577.77
1004.243	2549.75
1004.538	2473.37
1004.832	2487.83
1005.127	2481.73
1005.421	2480.15
1005.715	2455.06
1006.009	2462.97
1006.304	2448.28
1006.598	2404.89
1006.892	2375.52
1007.186	2356.76
1007.48	2349.3
1007.773	2344.56
1008.067	2392.01
1008.361	2324.44
1008.655	2303.88
1008.948	2272.92
1009.242	2291
1009.535	2320.15
1009.829	2260.04
1010.122	2256.65
1010.415	2223.66
1010.708	2213.04
1011.001	2203.77
1011.295	2182.08
1011.588	2184.56
1011.881	2174.39
1012.173	2154.28
1012.466	2159.7
1012.759	2166.48
1013.052	2135.97
1013.344	2125.81
1013.637	2091.91
1013.93	2109.76
1014.222	2072.93
1014.514	2084.9
1014.807	2027.5
1015.099	2051.91
1015.391	2048.07
1015.683	2016.66
1015.976	1984.57
1016.268	1945.02
1016.56	1993.61
1016.851	1966.26
1017.143	1981.4
1017.435	1941.18
1017.727	1918.13
1018.018	1895.98
1018.31	1919.03
1018.602	1883.55
1018.893	1905.92
1019.185	1892.14
1019.476	1865.93
1019.767	1860.28
1020.058	1839.49
1020.35	1811.01
1020.641	1815.08
1020.932	1793.61
1021.223	1782.54
1021.514	1759.26
1021.804	1729.88
1022.095	1720.17
1022.386	1747.74
1022.677	1727.85
1022.967	1694.4
1023.258	1686.95
1023.548	1695.53
1023.839	1643.78
1024.129	1653.05
1024.419	1649.21
1024.709	1634.29
1025	1609.21
1025.29	1623.9
1025.58	1606.5
1025.87	1606.27
1026.16	1620.28
1026.449	1564.46
1026.739	1572.6
1027.029	1547.52
1027.319	1559.49
1027.608	1543.45
1027.898	1525.6
1028.187	1505.03
1028.477	1491.02
1028.766	1494.86
1029.055	1488.08
1029.344	1453.96
1029.634	1434.75
1029.923	1457.8
1030.212	1417.8
1030.501	1452.6
1030.79	1427.97
1031.078	1424.58
1031.367	1398.82
1031.656	1411.47
1031.945	1391.36
1032.233	1384.13
1032.522	1355.88
1032.81	1350.91
1033.099	1343
1033.387	1336
1033.675	1317.92
1033.963	1347.52
1034.251	1342.55
1034.54	1317.69
1034.828	1319.73
1035.116	1277.24
1035.403	1280.63
1035.691	1263.68
1035.979	1248.31
1036.267	1253.29
1036.554	1240.63
1036.842	1254.87
1037.129	1245.6
1037.417	1203.57
1037.704	1208.54
1037.992	1214.64
1038.279	1187.07
1038.566	1200.18
1038.853	1200.18
1039.14	1200.18
