Data from 17-1456_FLMS001491_003.txt Node
Date: Thu Apr 19 16:30:33 BST 2018
User: hsy
Spectrometer: FLMS00149
Trigger mode: 0
Integration Time (sec): 1.000000E-2
Scans to average: 10
Electric dark correction enabled: true
Nonlinearity correction enabled: false
Boxcar width: 0
XAxis mode: Wavelengths
Number of Pixels in Spectrum: 2048
>>>>>Begin Spectral Data<<<<<
341.393	-3.56
341.776	-3.56
342.16	-3.56
342.543	-76.78
342.927	-76.1
343.31	-76.33
343.693	-70.68
344.077	-59.38
344.46	-62.09
344.843	-65.25
345.226	-31.36
345.61	-39.04
345.993	-6.05
346.376	3.67
346.759	4.8
347.142	13.84
347.525	38.47
347.908	54.52
348.291	71.24
348.674	97.46
349.057	126.15
349.44	119.38
349.823	133.84
350.206	179.03
350.588	242.54
350.971	250.22
351.354	259.94
351.737	275.76
352.119	304.23
352.502	315.75
352.884	326.83
353.267	319.37
353.65	332.48
354.032	368.18
354.414	363.21
354.797	374.74
355.179	361.4
355.562	363.66
355.944	359.14
356.326	373.15
356.709	391.23
357.091	404.11
357.473	365.7
357.855	389.65
358.238	382.42
358.62	384
359.002	411.35
359.384	385.58
359.766	413.38
360.148	379.71
360.53	404.11
360.912	402.76
361.294	382.19
361.676	367.5
362.057	394.4
362.439	385.58
362.821	376.32
363.203	397.79
363.584	379.03
363.966	382.19
364.348	394.62
364.729	395.3
365.111	373.15
365.493	397.33
365.874	390.1
366.256	367.05
366.637	383.55
367.019	395.53
367.4	374.51
367.781	384
368.163	392.14
368.544	365.02
368.925	407.5
369.306	394.17
369.688	386.94
370.069	367.73
370.45	375.64
370.831	399.14
371.212	405.47
371.593	402.31
371.974	378.8
372.355	405.24
372.736	398.92
373.117	409.76
373.498	371.8
373.879	374.96
374.26	409.09
374.641	398.24
375.021	394.17
375.402	392.59
375.783	405.92
376.163	418.35
376.544	410.44
376.925	415.19
377.305	421.97
377.686	420.38
378.066	421.29
378.447	412.02
378.827	439.59
379.208	425.58
379.588	438.46
379.968	429.2
380.349	417.9
380.729	423.1
381.109	417.67
381.489	454.28
381.87	450.89
382.25	449.54
382.63	461.51
383.01	441.17
383.39	446.6
383.77	477.33
384.15	442.76
384.53	466.03
384.91	443.89
385.29	454.73
385.67	479.82
386.049	475.3
386.429	465.13
386.809	467.61
387.189	475.98
387.568	486.82
387.948	491.79
388.328	494.73
388.707	496.54
389.087	482.53
389.466	495.41
389.846	508.07
390.225	487.73
390.605	503.09
390.984	517.78
391.363	514.85
391.743	519.82
392.122	511
392.501	548.74
392.881	537.22
393.26	520.95
393.639	555.07
394.018	530.66
394.397	518.01
394.776	566.14
395.155	548.97
395.534	550.55
395.913	541.29
396.292	553.26
396.671	569.53
397.05	566.37
397.429	564.11
397.808	563.66
398.186	574.05
398.565	579.48
398.944	570.21
399.323	569.08
399.701	585.58
400.08	600.49
400.458	576.54
400.837	591.45
401.215	597.1
401.594	610.44
401.972	621.28
402.351	645.92
402.729	635.97
403.107	615.18
403.486	621.96
403.864	618.57
404.242	618.57
404.62	627.38
404.999	642.98
405.377	660.83
405.755	664.67
406.133	667.38
406.511	672.36
406.889	656.54
407.267	680.26
407.645	704.44
408.023	702.86
408.401	690.43
408.779	718.68
409.156	728.4
409.534	759.36
409.912	719.81
410.29	748.29
410.667	734.73
411.045	755.29
411.422	782.86
411.8	769.98
412.178	776.08
412.555	793.26
412.933	798.45
413.31	793.93
413.687	846.14
414.065	826.25
414.442	826.02
414.819	847.94
415.197	851.33
415.574	862.41
415.951	861.28
416.328	892.24
416.705	865.57
417.082	902.18
417.46	903.99
417.837	922.97
418.214	882.75
418.591	907.38
418.967	935.17
419.344	929.75
419.721	933.37
420.098	934.04
420.475	959.35
420.852	954.83
421.228	966.13
421.605	962.29
421.982	972.01
422.358	976.75
422.735	973.36
423.111	999.58
423.488	1010.2
423.864	1046.36
424.241	1021.5
424.617	1033.25
424.994	1077.77
425.37	1059.46
425.746	1060.59
426.123	1053.36
426.499	1089.52
426.875	1107.37
427.251	1130.2
427.627	1138.78
428.003	1120.03
428.379	1141.72
428.756	1130.42
429.132	1161.16
429.507	1146.47
429.883	1181.95
430.259	1211.1
430.635	1238.44
431.011	1222.62
431.387	1265.79
431.763	1270.31
432.138	1293.13
432.514	1275.96
432.89	1296.07
433.265	1334.26
433.641	1348.04
434.016	1343.3
434.392	1385.56
434.767	1398.44
435.143	1369.51
435.518	1419.91
435.894	1418.1
436.269	1419.45
436.644	1433.69
437.02	1473.01
437.395	1468.72
437.77	1474.37
438.145	1517.98
438.52	1492.9
438.895	1529.51
439.271	1539.23
439.646	1558.21
440.021	1562.95
440.395	1581.26
440.77	1550.75
441.145	1593.91
441.52	1616.51
441.895	1599.56
442.27	1616.74
442.645	1628.04
443.019	1633.91
443.394	1636.4
443.769	1672.55
444.143	1657.87
444.518	1671.42
444.892	1656.51
445.267	1692.22
445.641	1705.1
446.016	1710.07
446.39	1730.63
446.764	1740.12
447.139	1746.68
447.513	1747.58
447.887	1767.69
448.262	1748.94
448.636	1787.81
449.01	1794.36
449.384	1827.81
449.758	1824.42
450.132	1860.12
450.506	1830.52
450.88	1885.66
451.254	1861.48
451.628	1900.57
452.002	1924.53
452.376	1925.66
452.75	1940.8
453.123	1971.53
453.497	1984.86
453.871	2012.66
454.244	2015.82
454.618	2073
454.992	2049.27
455.365	2081.58
455.739	2128.36
456.112	2152.09
456.486	2187.34
456.859	2175.14
457.232	2218.53
457.606	2289.71
457.979	2254.23
458.352	2318.19
458.725	2344.18
459.099	2320.45
459.472	2375.36
459.845	2393.89
460.218	2396.6
460.591	2464.85
460.964	2491.52
461.337	2518.18
461.71	2504.62
462.083	2579.2
462.456	2575.13
462.829	2606.77
463.201	2639.76
463.574	2649.03
463.947	2667.56
464.32	2700.55
464.692	2740.55
465.065	2760.21
465.438	2821.45
465.81	2823.94
466.183	2853.99
466.555	2888.57
466.928	2894.44
467.3	2936.48
467.672	2946.87
468.045	3000.43
468.417	2997.04
468.789	3052.86
469.161	3091.73
469.534	3122.46
469.906	3161.33
470.278	3200.2
470.65	3249.46
471.022	3290.59
471.394	3329.01
471.766	3338.73
472.138	3395.22
472.51	3460.76
472.882	3496.46
473.253	3532.39
473.625	3586.85
473.997	3665.95
474.369	3725.16
474.74	3708.89
475.112	3800.41
475.484	3820.52
475.855	3890.35
476.227	3976.45
476.598	4020.52
476.97	4056
477.341	4168.31
477.713	4220.96
478.084	4225.26
478.455	4363.11
478.827	4403.33
479.198	4491.01
479.569	4530.78
479.94	4712.25
480.311	4709.09
480.682	4821.17
481.053	4887.84
481.424	5000.15
481.795	5027.95
482.166	5048.74
482.537	5152.46
482.908	5288.28
483.279	5371.21
483.65	5443.76
484.021	5529.4
484.391	5580.02
484.762	5643.75
485.133	5735.95
485.503	5850.3
485.874	5975.94
486.244	6036.96
486.615	6156.05
486.985	6260.68
487.356	6369.38
487.726	6408.25
488.097	6571.18
488.467	6652.99
488.837	6802.59
489.207	6832.42
489.578	6965.52
489.948	7035.35
490.318	7201.9
490.688	7215.46
491.058	7349.69
491.428	7430.82
491.798	7523.47
492.168	7680.31
492.538	7826.52
492.908	7865.16
493.278	7988.32
493.648	8020.41
494.017	8165.94
494.387	8287.97
494.757	8370.91
495.126	8538.82
495.496	8577.01
495.866	8636.89
496.235	8715.08
496.605	8852.71
496.974	8911.01
497.344	9059.93
497.713	9169.53
498.082	9178.8
498.452	9272.58
498.821	9320.72
499.19	9389.19
499.559	9573.59
499.928	9565.45
500.298	9708.28
500.667	9830.76
501.036	9781.72
501.405	9879.57
501.774	9891.55
502.143	10062.62
502.512	10204.31
502.88	10187.81
503.249	10259.45
503.618	10397.07
503.987	10420.57
504.356	10511.64
504.724	10641.36
505.093	10698.53
505.462	10776.5
505.83	10726.33
506.199	10989.15
506.567	11097.62
506.936	11140.55
507.304	11233.66
507.672	11310.72
508.041	11359.31
508.409	11457.61
508.777	11585.06
509.145	11690.6
509.514	11710.26
509.882	11825.73
510.25	11873.19
510.618	11939.18
510.986	11877.71
511.354	12090.13
511.722	12198.61
512.09	12322.67
512.458	12369.67
512.826	12439.05
513.193	12479.5
513.561	12659.84
513.929	12724.02
514.297	12722.66
514.664	12810.12
515.032	13000.84
515.4	13027.74
515.767	13116.55
516.135	13160.61
516.502	13156.32
516.869	13343.66
517.237	13456.65
517.604	13443.09
517.972	13665.69
518.339	13734.61
518.706	13762.86
519.073	13817.77
519.44	14084.88
519.808	14054.15
520.175	14257.76
520.542	14299.34
520.909	14329.4
521.276	14415.72
521.643	14615.94
522.009	14758.99
522.376	14796.28
522.743	14945.2
523.11	15116.04
523.477	15274.01
523.843	15212.09
524.21	15565.75
524.577	15646.2
524.943	15702.24
525.31	15851.62
525.676	16054.78
526.043	16043.48
526.409	16252.06
526.776	16339.51
527.142	16514.88
527.508	16597.36
527.874	16732.72
528.241	16923.91
528.607	17002.1
528.973	17203.9
529.339	17153.05
529.705	17329.77
530.071	17525.02
530.437	17704.22
530.803	17733.38
531.169	17970.88
531.535	17908.51
531.901	17979.7
532.267	18214.49
532.632	18243.19
532.998	18382.85
533.364	18493.58
533.73	18567.48
534.095	18691.32
534.461	18776.74
534.826	18912.78
535.192	19081.36
535.557	19235.03
535.923	19267.57
536.288	19360.68
536.653	19447.68
537.019	19331.07
537.384	19522.03
537.749	19622.37
538.114	19627.11
538.479	19604.06
538.845	19794.11
539.21	19798.41
539.575	19858.74
539.94	20019.64
540.305	20157.94
540.67	20200.66
541.034	20195.91
541.399	20327.21
541.764	20402.68
542.129	20353.87
542.494	20576.24
542.858	20615.79
543.223	20614.43
543.587	20742.79
543.952	20777.14
544.316	20854.42
544.681	20832.05
545.045	21042.22
545.41	21192.95
545.774	21185.04
546.138	21184.36
546.503	21196.34
546.867	21324.92
547.231	21432.94
547.595	21435.88
547.959	21628.64
548.324	21621.63
548.688	21745.47
549.052	21771.91
549.416	21880.16
549.779	21834.74
550.143	22028.4
550.507	22061.17
550.871	22113.37
551.235	22095.75
551.599	22314.95
551.962	22359.02
552.326	22481.05
552.689	22461.84
553.053	22548.62
553.417	22492.8
553.78	22746.8
554.143	22726.24
554.507	22878.1
554.87	23007.36
555.234	23160.35
555.597	23092.56
555.96	23192.89
556.323	23344.53
556.686	23361.48
557.05	23562.15
557.413	23516.05
557.776	23662.71
558.139	23846.66
558.502	23889.15
558.865	23913.1
559.228	24039.42
559.59	24121.91
559.953	24206.43
560.316	24497.04
560.679	24471.05
561.041	24595.57
561.404	24746.3
561.767	24917.37
562.129	24876.92
562.492	25275.32
562.854	25342.67
563.217	25266.28
563.579	25316
563.941	25470.57
564.304	25730
564.666	25923.67
565.028	25983.33
565.39	26225.36
565.753	26259.71
566.115	26374.96
566.477	26441.4
566.839	26688.85
567.201	26822.85
567.563	26930.2
567.925	27168.38
568.287	27236.85
568.648	27418.54
569.01	27562.5
569.372	27876.84
569.734	27922.49
570.095	28002.48
570.457	28186.43
570.819	28420.78
571.18	28367.67
571.542	28664.39
571.903	28764.27
572.265	28953.19
572.626	29128.33
572.987	29198.84
573.349	29394.76
573.71	29629.11
574.071	29748.43
574.432	29924.02
574.794	30260.5
575.155	30193.39
575.516	30308.86
575.877	30472.25
576.238	30643.54
576.599	30802.86
576.96	30877.21
577.32	31109.07
577.681	31204.43
578.042	31464.54
578.403	31489.62
578.763	31770.97
579.124	31796.96
579.485	32111.75
579.845	32354.69
580.206	32340.9
580.566	32603.04
580.927	32681.23
581.287	32968
581.648	32944.05
582.008	33374.32
582.368	33459.29
582.728	33723.69
583.089	33957.58
583.449	33985.15
583.809	34240.96
584.169	34714.4
584.529	34780.84
584.889	35168.17
585.249	35308.73
585.609	35432.8
585.969	35964.31
586.329	36075.27
586.688	36526.1
587.048	36772.87
587.408	36919.31
587.768	37355.46
588.127	37742.79
588.487	38131.71
588.846	38668.87
589.206	38577.12
589.565	39066.6
589.925	39618.45
590.284	39977.08
590.643	40260.01
591.003	40766.44
591.362	41353.55
591.721	41698.4
592.08	42102.9
592.44	42707.63
592.799	43042.54
593.158	43413.83
593.517	43734.95
593.876	44360.47
594.235	44682.5
594.593	45293.55
594.952	45636.6
595.311	46073.87
595.67	46467.76
596.029	47120.85
596.387	47552.7
596.746	48068.62
597.104	48231.33
597.463	48618.89
597.822	49346.33
598.18	49446.44
598.538	49958.52
598.897	50412.06
599.255	50410.48
599.613	51292.72
599.972	51406.84
600.33	51755.76
600.688	51916.66
601.046	52336.31
601.404	52845.45
601.762	52978.78
602.12	53362.5
602.478	53632.54
602.836	53919.99
603.194	54060.56
603.552	54397.95
603.91	54530.37
604.268	54913.64
604.625	55085.39
604.983	55433.4
605.341	55431.14
605.698	55909.77
606.056	56310.89
606.413	56274.51
606.771	56656.42
607.128	56784.78
607.485	56998.11
607.843	57065.45
608.2	57371.2
608.557	57631.54
608.914	57753.57
609.272	58041.69
609.629	58309.26
609.986	58421.12
610.343	58491.63
610.7	58855.46
611.057	58938.17
611.414	59043.02
611.771	59285.73
612.127	59469.23
612.484	59612.73
612.841	59778.6
613.198	59805.72
613.554	59938.14
613.911	60170.68
614.267	60328.64
614.624	60403.21
614.98	60615.41
615.337	60792.36
615.693	60777.89
616.05	60949.87
616.406	61188.05
616.762	61171.78
617.118	61305.11
617.475	61364.32
617.831	61545.78
618.187	61608.38
618.543	61678.43
618.899	61971.99
619.255	61961.14
619.611	62027.58
619.967	62241.36
620.323	62325.65
620.678	62259.66
621.034	62296.27
621.39	62391.41
621.746	62510.05
622.101	62775.13
622.457	62630.95
622.812	62804.51
623.168	62831.17
623.523	62912.98
623.879	62956.37
624.234	62886.09
624.589	63002.24
624.945	63081.11
625.3	63196.36
625.655	63239.07
626.01	63272.29
626.365	63298.96
626.72	63266.87
627.075	63315
627.43	63330.82
627.785	63371.27
628.14	63362.91
628.495	63425.51
628.85	63488.56
629.205	63424.15
629.559	63500.08
629.914	63460.53
630.269	63487.43
630.623	63430.48
630.978	63403.14
631.332	63514.54
631.687	63519.06
632.041	63506.41
632.396	63520.42
632.75	63510.25
633.104	63512.51
633.459	63480.65
633.813	63507.54
634.167	63477.26
634.521	63494.88
634.875	63501.21
635.229	63497.14
635.583	63481.55
635.937	63400.65
636.291	63467.54
636.645	63478.39
636.999	63361.33
637.352	63430.48
637.706	63335.11
638.06	63469.57
638.413	63389.35
638.767	63299.64
639.121	63392.06
639.474	63327.2
639.828	63266.64
640.181	63360.65
640.534	63357.26
640.888	63265.06
641.241	63134.67
641.594	63188.68
641.947	63276.58
642.301	63141.9
642.654	63237.72
643.007	63179.86
643.36	63211.05
643.713	63107.55
644.066	63239.52
644.419	63091.28
644.771	62907.55
645.124	62626.21
645.477	62614.46
645.83	62521.8
646.182	62517.96
646.535	62457.62
646.888	62485.19
647.24	62455.59
647.593	62487.23
647.945	62382.15
648.298	62346.44
648.65	62263.73
649.002	62159.55
649.355	62151.42
649.707	62110.97
650.059	62108.93
650.411	62479.32
650.763	62528.81
651.115	62870.49
651.467	62691.97
651.819	62762.02
652.171	62642.7
652.523	62615.36
652.875	62637.73
653.227	62537.4
653.578	62688.58
653.93	62582.82
654.282	62489.94
654.633	62490.84
654.985	62507.11
655.337	62496.04
655.688	62406.78
656.039	62546.66
656.391	62281.36
656.742	62359.09
657.094	62365.42
657.445	62376.04
657.796	62379.66
658.147	62354.12
658.498	62360.45
658.849	62393.22
659.2	62343.73
659.551	62225.54
659.902	62322.26
660.253	62253.33
660.604	62348.02
660.955	62197.07
661.306	62270.28
661.656	62144.41
662.007	62243.62
662.358	62207.23
662.708	62195.48
663.059	62147.57
663.409	62052.89
663.76	62160.23
664.11	62214.24
664.461	62196.84
664.811	62172.66
665.161	62172.89
665.511	62034.58
665.862	62091.76
666.212	62114.58
666.562	62164.98
666.912	62051.08
667.262	62004.75
667.612	62023.51
667.962	62051.08
668.312	62028.93
668.662	62120.23
669.011	62095.15
669.361	62035.94
669.711	62045.2
670.06	62038.2
670.41	61939.44
670.76	61943.29
671.109	62082.04
671.459	61982.83
671.808	61989.39
672.157	61978.99
672.507	61873.68
672.856	61868.71
673.205	61938.54
673.554	61930.41
673.904	61905.55
674.253	62106.9
674.602	61897.41
674.951	61647.02
675.3	61538.55
675.649	61888.82
675.998	61889.05
676.346	61886.56
676.695	61974.92
677.044	61729.51
677.393	61828.71
677.741	61847.7
678.09	61786.91
678.438	61769.73
678.787	61866.23
679.135	61834.59
679.484	61703.52
679.832	61768.6
680.181	61683.86
680.529	61722.95
680.877	61652.22
681.225	61683.41
681.573	61813.57
681.922	61634.14
682.27	61621.26
682.618	61569.29
682.966	61594.37
683.314	61522.28
683.661	61558.21
684.009	61509.63
684.357	61378.78
684.705	61397.54
685.053	61395.28
685.4	61300.14
685.748	61277.32
686.095	61244.1
686.443	61165.68
686.79	61127.49
687.138	61235.06
687.485	61208.16
687.832	61103.53
688.18	61132.23
688.527	61016.31
688.874	61038.68
689.221	61045.23
689.568	60918.45
689.915	60826.03
690.262	60894.27
690.609	60800.94
690.956	60730.44
691.303	60691.34
691.65	60636.2
691.997	60614.51
692.344	60486.6
692.69	60490.9
693.037	60538.8
693.383	60275.76
693.73	60445.02
694.077	60285.03
694.423	60276.44
694.769	60184.01
695.116	60164.58
695.462	60077.35
695.808	60016.56
696.155	60047.74
696.501	59826.73
696.847	59926.16
697.193	59705.15
697.539	59774.76
697.885	59651.6
698.231	59586.51
698.577	59557.36
698.923	59516.01
699.269	59372.51
699.614	59292.51
699.96	59276.46
700.306	59300.64
700.651	59192.17
700.997	59015.91
701.342	59001.89
701.688	58982.46
702.033	58879.86
702.379	58913.76
702.724	58813.43
703.069	58842.35
703.415	58630.38
703.76	58569.82
704.105	58574.34
704.45	58500.44
704.795	58434.45
705.14	58373.44
705.485	58350.61
705.83	58172.09
706.175	58358.97
706.52	58179.54
706.865	58131.41
707.209	58033.11
707.554	57900.68
707.899	57981.58
708.243	57853.22
708.588	57824.52
708.932	57695.04
709.277	57728.48
709.621	57627.69
709.966	57452.78
710.31	57457.3
710.654	57374.59
710.998	57438.32
711.342	57418.89
711.687	57233.13
712.031	57271.77
712.375	57111.78
712.719	57102.74
713.063	57101.38
713.407	57132.57
713.75	56997.2
714.094	56966.24
714.438	56858.45
714.782	56802.4
715.125	56700.71
715.469	56843.76
715.812	56593.14
716.156	56563.09
716.499	56575.07
716.843	56614.39
717.186	56438.35
717.53	56584.56
717.873	56518.57
718.216	56388.4
718.559	56330.1
718.902	56099.15
719.246	56203.1
719.589	56072.25
719.932	55976.44
720.275	56067.28
720.617	55944.57
720.96	55895.31
721.303	55962.43
721.646	55943.67
721.989	55770.34
722.331	55769.66
722.674	55751.36
723.016	55702.09
723.359	55578.93
723.701	55637.46
724.044	55521.76
724.386	55355.66
724.729	55523.79
725.071	55545.04
725.413	55402.22
725.755	55377.13
726.097	55206.51
726.439	55242.22
726.782	55182.11
727.124	55291.71
727.465	55165.61
727.807	55075.22
728.149	55118.16
728.491	55034.99
728.833	55093.98
729.175	55004.49
729.516	54856.47
729.858	54850.14
730.199	54976.69
730.541	54872.96
730.882	54737.83
731.224	54753.19
731.565	54637.94
731.906	54712.52
732.248	54779.63
732.589	54510.71
732.93	54472.52
733.271	54493.09
733.612	54391.17
733.953	54534.44
734.294	54368.8
734.635	54291.06
734.976	54421.22
735.317	54305.97
735.658	54261.91
735.999	54231.62
736.339	54197.5
736.68	54213.77
737.021	54164.28
737.361	53999.99
737.702	54206.09
738.042	53942.59
738.383	54053.32
738.723	54021.23
739.063	53936.49
739.404	54070.73
739.744	53878.41
740.084	53881.58
740.424	53837.96
740.764	53704.63
741.104	53731.98
741.444	53613.79
741.784	53636.39
742.124	53677.74
742.464	53585.09
742.804	53570.4
743.143	53443.17
743.483	53594.13
743.823	53418.09
744.162	53417.41
744.502	53459.67
744.841	53318.2
745.181	53363.4
745.52	53268.26
745.86	53340.35
746.199	53246.34
746.538	53204.53
746.877	53294.47
747.216	53160.01
747.556	53133.12
747.895	53132.44
748.234	53030.07
748.573	53011.77
748.911	52834.15
749.25	52918.67
749.589	52728.84
749.928	52869.17
750.267	52811.1
750.605	52701.72
750.944	52697.65
751.283	52543.99
751.621	52663.76
751.96	52402.29
752.298	52471.22
752.636	52438.9
752.975	52331.79
753.313	52211.34
753.651	52359.13
753.989	52138.57
754.327	52101.29
754.666	51977.22
755.004	51904.45
755.342	51983.77
755.679	51940.84
756.017	51778.58
756.355	51901.74
756.693	51602.32
757.031	51718.24
757.368	51461.75
757.706	51472.38
758.044	51252.72
758.381	51331.59
758.719	51218.37
759.056	51201.2
759.394	50960.07
759.731	50752.85
760.068	50805.5
760.405	50843.69
760.743	50675.56
761.08	50628.33
761.417	50396.02
761.754	50478.73
762.091	50301.33
762.428	50189.25
762.765	49948.8
763.102	50079.64
763.438	49918.29
763.775	49709.03
764.112	49700.22
764.449	49654.8
764.785	49587
765.122	49421.13
765.458	49125.77
765.795	49119.89
766.131	49096.39
766.467	48908.83
766.804	48657.99
767.14	48538.22
767.476	48519.01
767.812	48370.76
768.148	48531.44
768.485	48066.82
768.821	48020.94
769.157	47846.93
769.492	47848.74
769.828	47745.69
770.164	47399.04
770.5	47258.47
770.836	47320.39
771.171	47121.53
771.507	46983.68
771.842	46767.87
772.178	46598.38
772.513	46520.42
772.849	46314.77
773.184	46294.43
773.519	46166.53
773.855	45874.33
774.19	45863.94
774.525	45728.8
774.86	45566.77
775.195	45371.97
775.53	45308.47
775.865	45028.03
776.2	44691.54
776.535	44597.3
776.87	44460.36
777.205	44333.13
777.539	44317.31
777.874	44212.45
778.209	43873.93
778.543	43957.54
778.878	43581.06
779.212	43648.63
779.547	43261.74
779.881	43377.22
780.215	43021.75
780.55	43217
780.884	42831.25
781.218	42584.25
781.552	42766.39
781.886	42450.01
782.22	42221.32
782.554	42093.86
782.888	41716.7
783.222	41711.73
783.556	41437.61
783.889	41407.78
784.223	41055.47
784.557	41079.88
784.89	41180.44
785.224	40836.5
785.557	40672.21
785.891	40627.01
786.224	40519.9
786.558	40506.11
786.891	40194.25
787.224	39956.29
787.557	39881.27
787.891	39812.12
788.224	39591.11
788.557	39552.24
788.89	39453.26
789.223	39345.91
789.556	39015.3
789.888	38980.5
790.221	38869.54
790.554	38665.71
790.887	38590
791.219	38409.44
791.552	38227.53
791.884	38195.21
792.217	38044.03
792.549	37815.11
792.882	37605.17
793.214	37555.23
793.546	37450.37
793.879	37245.63
794.211	37011.06
794.543	37130.61
794.875	36972.64
795.207	36953.66
795.539	36755.47
795.871	36927.67
796.203	36636.61
796.535	36541.02
796.867	36391.64
797.198	36096.51
797.53	36019.67
797.862	35793.47
798.193	35862.84
798.525	35748.04
798.856	35772.22
799.188	35275.51
799.519	35297.21
799.85	35188.28
800.182	35226.25
800.513	35271.9
800.844	34778.13
801.175	34982.64
801.506	35014.96
801.837	34617.9
802.168	34592.37
802.499	34631.24
802.83	34366.38
803.161	34180.85
803.491	34140.18
803.822	34255.88
804.153	33831.26
804.483	33780.64
804.814	33606.4
805.145	33633.52
805.475	33642.79
805.805	33475.11
806.136	33424.04
806.466	33326.19
806.796	33209.58
807.126	33010.94
807.457	32943.15
807.787	32959.42
808.117	32940.21
808.447	32756.94
808.777	32913.54
809.107	32645.07
809.436	32446.21
809.766	32459.54
810.096	32428.58
810.426	32265.87
810.755	32368.02
811.085	32026.79
811.414	32184.07
811.744	31970.74
812.073	32002.6
812.403	31828.37
812.732	31640.58
813.061	31784.08
813.39	31515.16
813.719	31417.08
814.049	31567.59
814.378	31591.77
814.707	31334.83
815.036	31315.39
815.365	31133.25
815.693	30914.27
816.022	30927.15
816.351	30806.25
816.68	30652.36
817.008	30787.95
817.337	30443.78
817.665	30484
817.994	30352.7
818.322	30548.63
818.651	30387.73
818.979	30282.88
819.307	30320.62
819.636	30133.73
819.964	30094.18
820.292	30147.96
820.62	30048.31
820.948	29941.87
821.276	30155.87
821.604	30000.17
821.932	30237.23
822.259	30048.31
822.587	30015.54
822.915	29977.12
823.243	30035.2
823.57	29848.76
823.898	30129.89
824.225	29825.03
824.553	29825.49
824.88	29931.47
825.207	29989.55
825.535	29923.56
825.862	30016.67
826.189	29877.24
826.516	30200.39
826.843	30079.04
827.17	30027.74
827.497	30124.69
827.824	30072.26
828.151	30067.29
828.478	29998.82
828.805	30145.7
829.131	30044.01
829.458	30027.06
829.785	29766.28
830.111	29963.56
830.438	30088.53
830.764	30023.9
831.09	29897.35
831.417	29919.95
831.743	30109.1
832.069	29994.07
832.395	29901.42
832.722	29953.85
833.048	29807.18
833.374	29974.41
833.7	29804.02
834.026	29834.98
834.351	29816.9
834.677	29957.23
835.003	29806.96
835.329	29810.8
835.654	29757.92
835.98	29497.59
836.306	29757.47
836.631	29511.6
836.956	29697.81
837.282	29680.86
837.607	29554.76
837.932	29482.9
838.258	29403.13
838.583	29394.76
838.908	29243.58
839.233	29298.5
839.558	29277.25
839.883	29142.79
840.208	29101.21
840.533	29131.04
840.858	29046.07
841.182	29182.11
841.507	28922.23
841.832	28845.17
842.156	28930.6
842.481	28739.64
842.805	28724.05
843.13	28628.91
843.454	28759.75
843.778	28619.19
844.103	28535.58
844.427	28486.54
844.751	28526.76
845.075	28305.75
845.399	28302.14
845.723	28059.21
846.047	28152.08
846.371	27889.04
846.695	27882.94
847.019	27814.24
847.343	27533.8
847.666	27603.4
847.99	27289.96
848.313	27237.08
848.637	27180.13
848.96	27134.71
849.284	27112.11
849.607	26848.84
849.931	26819.46
850.254	26734.72
850.577	26547.16
850.9	26462.86
851.223	26331.57
851.546	26274.62
851.869	26002.54
852.192	26267.84
852.515	25956.21
852.838	25836.21
853.161	25768.19
853.483	25597.35
853.806	25599.16
854.129	25590.8
854.451	25457.69
854.774	25303.8
855.096	25193.29
855.419	25053.41
855.741	25105.39
856.063	25004.6
856.385	24861.78
856.708	24760.31
857.03	24776.81
857.352	24761.67
857.674	24621.78
857.996	24550.6
858.318	24439.87
858.64	24461.11
858.961	24355.57
859.283	24241.45
859.605	24106.54
859.926	24124.39
860.248	24064.51
860.57	23984.28
860.891	23886.43
861.212	23869.26
861.534	23820.67
861.855	23617.97
862.176	23813.67
862.498	23824.97
862.819	23814.8
863.14	23567.8
863.461	23509.27
863.782	23472.89
864.103	23496.61
864.424	23445.77
864.745	23450.74
865.065	23303.4
865.386	23131.88
865.707	23295.26
866.027	23285.77
866.348	23300.01
866.668	23070.18
866.989	23024.99
867.309	22898.89
867.63	23009.62
867.95	23028.15
868.27	22819.12
868.59	22932.56
868.91	22822.73
869.23	22818.21
869.55	22635.39
869.87	22840.13
870.19	22682.17
870.51	22677.88
870.83	22628.61
871.15	22509.75
871.469	22504.32
871.789	22551.1
872.109	22493.02
872.428	22372.8
872.748	22461.16
873.067	22428.17
873.386	22414.16
873.706	22338.23
874.025	22192.24
874.344	22149.53
874.663	22135.75
874.982	22038.12
875.301	22011.68
875.62	21971
875.939	21924.9
876.258	22007.84
876.577	21816.88
876.896	21871.12
877.214	21855.08
877.533	21941.85
877.852	21794.96
878.17	21761.74
878.489	21703.67
878.807	21632.48
879.125	21577.12
879.444	21517
879.762	21547.29
880.08	21574.63
880.398	21426.39
880.716	21445.14
881.034	21357.46
881.352	21362.66
881.67	21209.22
881.988	21233.17
882.306	21197.92
882.624	21126.28
882.941	21201.76
883.259	20983.46
883.577	21043.34
883.894	21019.84
884.212	20962.44
884.529	20792.28
884.846	20855.1
885.164	20700.98
885.481	20670.93
885.798	20717.7
886.115	20533.75
886.432	20648.33
886.75	20637.71
887.067	20525.17
887.383	20416.69
887.7	20490.14
888.017	20300.09
888.334	20252.41
888.651	20146.19
888.967	20077.49
889.284	20149.13
889.6	20032.98
889.917	19874.34
890.233	20084.5
890.55	19822.36
890.866	19900.55
891.182	19851.74
891.498	19820.55
891.815	19638.41
892.131	19619.43
892.447	19595.47
892.763	19476.83
893.079	19426.21
893.395	19393.22
893.71	19359.77
894.026	19295.59
894.342	19318.42
894.657	19195.03
894.973	19100.35
895.289	19062.15
895.604	19076.84
895.92	18886.34
896.235	18922.5
896.55	18786.91
896.865	18781.94
897.181	18661.03
897.496	18758.21
897.811	18537.2
898.126	18484.32
898.441	18412.45
898.756	18357.31
899.071	18322.51
899.386	18395.28
899.7	18133.82
900.015	18033.93
900.33	17962.52
900.644	17943.77
900.959	17914.84
901.273	17835.52
901.588	17815.18
901.902	17734.05
902.216	17752.13
902.531	17581.97
902.845	17563.89
903.159	17434.85
903.473	17421.07
903.787	17332.26
904.101	17268.3
904.415	17294.52
904.729	17154.86
905.042	17015.43
905.356	17027.18
905.67	16987.41
905.984	16947.18
906.297	16879.39
906.611	16787.41
906.924	16723.23
907.237	16610.69
907.551	16562.33
907.864	16451.6
908.177	16525.5
908.491	16499.96
908.804	16236.24
909.117	16183.13
909.43	16101.1
909.743	16090.93
910.056	16101.55
910.368	15964.16
910.681	15887.55
910.994	15798.06
911.307	15783.37
911.619	15618.63
911.932	15771.39
912.244	15524.62
912.557	15546.77
912.869	15461.12
913.181	15390.61
913.494	15354.23
913.806	15285.08
914.118	15123.27
914.43	15169.15
914.742	15131.18
915.054	14998.08
915.366	14965.31
915.678	14937.06
915.99	14759.44
916.302	14666.34
916.613	14711.99
916.925	14651.87
917.236	14641.71
917.548	14616.85
917.859	14584.53
918.171	14375.05
918.482	14352.9
918.794	14323.07
919.105	14242.85
919.416	14137.76
919.727	14169.63
920.038	14051.21
920.349	13941.61
920.66	13925.57
920.971	13881.27
921.282	13853.7
921.593	13648.06
921.903	13651
922.214	13651.9
922.525	13564.9
922.835	13536.65
923.146	13402.19
923.456	13326.49
923.767	13359.93
924.077	13285.58
924.387	13271.12
924.697	13120.84
925.008	13181.4
925.318	13053.95
925.628	13106.6
925.938	12946.61
926.248	12887.63
926.558	12776.22
926.867	12738.93
927.177	12690.57
927.487	12602.89
927.796	12519.28
928.106	12566.96
928.416	12546.85
928.725	12463.01
929.034	12413.74
929.344	12492.61
929.653	12275.21
929.962	12223.01
930.271	12131.71
930.581	12045.16
930.89	12004.94
931.199	12006.07
931.508	11995.9
931.817	11852.85
932.125	11859.18
932.434	11859.18
932.743	11715.91
933.051	11588.68
933.36	11674.1
933.669	11604.72
933.977	11499.19
934.286	11488.12
934.594	11446.76
934.902	11359.76
935.21	11319.31
935.519	11210.16
935.827	11227.56
936.135	11138.97
936.443	11085.87
936.751	11044.51
937.059	11128.35
937.367	10917.51
937.674	10962.03
937.982	10920.22
938.29	10793.67
938.597	10769.49
938.905	10659.44
939.213	10623.96
939.52	10636.39
939.827	10651.08
940.135	10600.91
940.442	10543.73
940.749	10493.57
941.056	10489.72
941.363	10383.06
941.67	10387.13
941.977	10276.85
942.284	10194.59
942.591	10204.08
942.898	10128.38
943.205	10179
943.511	10100.81
943.818	10003.86
944.125	9939.23
944.431	9958.21
944.738	9844.77
945.044	9896.52
945.35	9765.9
945.657	9724.32
945.963	9739.91
946.269	9689.29
946.575	9651.33
946.881	9495.63
947.187	9600.03
947.493	9553.7
947.799	9425.57
948.105	9401.84
948.41	9373.37
948.716	9357.32
949.022	9291.79
949.327	9292.24
949.633	9213.83
949.938	9199.81
950.244	9158.69
950.549	9116.2
950.854	9044.79
951.16	8949.88
951.465	8955.53
951.77	8890.22
952.075	8845.02
952.38	8828.3
952.685	8849.99
952.99	8770.45
953.294	8698.13
953.599	8714.86
953.904	8693.16
954.209	8551.02
954.513	8638.7
954.818	8501.53
955.122	8479.61
955.426	8489.55
955.731	8454.98
956.035	8395.32
956.339	8348.31
956.643	8303.12
956.948	8251.14
957.252	8225.6
957.556	8185.83
957.86	8190.35
958.163	8162.55
958.467	8108.09
958.771	8056.12
959.075	8031.94
959.378	7897.48
959.682	8008.21
959.985	7864.48
960.289	7896.12
960.592	7815.22
960.896	7806.86
961.199	7768.89
961.502	7730.7
961.805	7673.3
962.108	7606.41
962.411	7542.68
962.714	7505.4
963.017	7487.32
963.32	7511.05
963.623	7450.93
963.926	7437.6
964.228	7342.69
964.531	7353.08
964.833	7361.22
965.136	7321.22
965.438	7239.87
965.741	7181.56
966.043	7130.04
966.345	7138.63
966.648	7166.42
966.95	7093.43
967.252	7074.9
967.554	6989.25
967.856	7091.85
968.158	6946.99
968.46	6925.52
968.761	6939.54
969.063	6901.8
969.365	6855.02
969.666	6813.44
969.968	6687.11
970.269	6714.91
970.571	6713.33
970.872	6705.42
971.174	6661.12
971.475	6612.54
971.776	6600.56
972.077	6539.55
972.378	6511.52
972.679	6514.46
972.98	6465.2
973.281	6421.58
973.582	6491.41
973.883	6454.35
974.183	6320.57
974.484	6333.45
974.785	6289.83
975.085	6288.93
975.386	6246.9
975.686	6190.85
975.986	6198.99
976.287	6132.55
976.587	6145.21
976.887	6101.82
977.187	6097.52
977.487	6047.36
977.787	6037.19
978.087	5981.14
978.387	5978.43
978.687	5938.21
978.987	5900.47
979.286	5893.69
979.586	5879.68
979.885	5814.82
980.185	5791.77
980.484	5763.29
980.784	5707.93
981.083	5709.74
981.382	5675.16
981.682	5729.4
981.981	5627.93
982.28	5576.63
982.579	5541.38
982.878	5563.07
983.177	5527.82
983.475	5543.64
983.774	5495.05
984.073	5480.14
984.372	5411.67
984.67	5379.8
984.969	5388.84
985.267	5352.91
985.566	5346.36
985.864	5257.32
986.162	5262.74
986.461	5248.73
986.759	5208.51
987.057	5159.69
987.355	5185
987.653	5119.47
987.951	5095.74
988.249	5048.06
988.547	5072.69
988.844	5024.33
989.142	5024.33
989.44	4928.74
989.737	5025.24
990.035	4926.25
990.332	4958.12
990.63	4926.93
990.927	4865.24
991.224	4869.31
991.521	4852.13
991.819	4755.86
992.116	4779.82
992.413	4739.14
992.71	4730.78
993.006	4689.42
993.303	4714.28
993.6	4687.62
993.897	4664.11
994.193	4635.19
994.49	4615.98
994.787	4601.74
995.083	4527.85
995.379	4560.16
995.676	4500.73
995.972	4475.87
996.268	4442.2
996.565	4424.12
996.861	4436.78
997.157	4390.45
997.453	4367.63
997.749	4328.98
998.044	4353.39
998.34	4289.44
998.636	4260.51
998.932	4245.14
999.227	4220.06
999.523	4182.32
999.818	4194.52
1000.114	4149.1
1000.409	4128.54
1000.704	4072.04
1001	4037.46
1001.295	4047.63
1001.59	4057.35
1001.885	4023.45
1002.18	3992.27
1002.475	3973.96
1002.77	3987.97
1003.065	3904.13
1003.359	3914.98
1003.654	3849.9
1003.949	3905.72
1004.243	3789.34
1004.538	3797.24
1004.832	3794.08
1005.127	3801.54
1005.421	3766.74
1005.715	3707.98
1006.009	3707.76
1006.304	3685.61
1006.598	3620.07
1006.892	3661.2
1007.186	3561.32
1007.48	3569
1007.773	3534.65
1008.067	3533.97
1008.361	3535.1
1008.655	3503.24
1008.948	3460.76
1009.242	3447.2
1009.535	3409.91
1009.829	3404.26
1010.122	3369.46
1010.415	3359.52
1010.708	3340.76
1011.001	3350.48
1011.295	3288.78
1011.588	3331.72
1011.881	3248.78
1012.173	3233.87
1012.466	3222.12
1012.759	3209.46
1013.052	3193.19
1013.344	3145.06
1013.637	3156.81
1013.93	3158.62
1014.222	3122.91
1014.514	3096.92
1014.807	3048.79
1015.099	3041.33
1015.391	3003.59
1015.683	2983.93
1015.976	3005.63
1016.268	2961.11
1016.56	2919.08
1016.851	2909.81
1017.143	2911.62
1017.435	2903.71
1017.727	2861
1018.018	2867.1
1018.31	2821.45
1018.602	2820.32
1018.893	2779.64
1019.185	2745.97
1019.476	2712.53
1019.767	2734.9
1020.058	2681.57
1020.35	2676.6
1020.641	2631.63
1020.932	2639.54
1021.223	2666.88
1021.514	2618.29
1021.804	2610.61
1022.095	2595.69
1022.386	2578.29
1022.677	2556.6
1022.967	2527.9
1023.258	2518.18
1023.548	2518.86
1023.839	2485.64
1024.129	2458.97
1024.419	2465.98
1024.709	2412.87
1025	2383.95
1025.29	2366.55
1025.58	2359.99
1025.87	2343.5
1026.16	2324.29
1026.449	2304.18
1026.739	2296.49
1027.029	2282.93
1027.319	2280
1027.608	2237.29
1027.898	2219.66
1028.187	2193.67
1028.477	2171.3
1028.766	2183.95
1029.055	2113
1029.344	2137.18
1029.634	2139.89
1029.923	2115.71
1030.212	2117.06
1030.501	2072.09
1030.79	2063.05
1031.078	2028.25
1031.367	2035.48
1031.656	2025.99
1031.945	1993.9
1032.233	1983.28
1032.522	1990.51
1032.81	1951.19
1033.099	1958.2
1033.387	1932.66
1033.675	1901.02
1033.963	1877.3
1034.251	1893.57
1034.54	1879.56
1034.828	1858.31
1035.116	1853.34
1035.403	1846.79
1035.691	1835.49
1035.979	1797.07
1036.267	1809.05
1036.554	1792.55
1036.842	1779.67
1037.129	1752.78
1037.417	1753.23
1037.704	1742.61
1037.992	1703.74
1038.279	1698.77
1038.566	1681.82
1038.853	1681.82
1039.14	1681.82
