Data from 17-1456_FLMS001491_001.txt Node
Date: Thu Apr 19 16:30:28 BST 2018
User: hsy
Spectrometer: FLMS00149
Trigger mode: 0
Integration Time (sec): 1.000000E-2
Scans to average: 10
Electric dark correction enabled: true
Nonlinearity correction enabled: false
Boxcar width: 0
XAxis mode: Wavelengths
Number of Pixels in Spectrum: 2048
>>>>>Begin Spectral Data<<<<<
341.393	-8.94
341.776	-8.94
342.16	-8.94
342.543	-69.96
342.927	-65.21
343.31	-85.77
343.693	-56.17
344.077	-73.35
344.46	-50.75
344.843	-64.53
345.226	-52.78
345.61	-28.6
345.993	-13.46
346.376	19.08
346.759	1
347.142	28.35
347.525	43.49
347.908	65.18
348.291	76.71
348.674	104.28
349.057	87.33
349.44	137.27
349.823	133.43
350.206	160.77
350.588	224.27
350.971	268.57
351.354	284.39
351.737	279.87
352.119	293.65
352.502	315.12
352.884	323.48
353.267	341.11
353.65	347.43
354.032	343.14
354.414	367.55
354.797	373.87
355.179	348.79
355.562	366.87
355.944	378.85
356.326	391.5
356.709	377.49
357.091	386.3
357.473	375.23
357.855	386.08
358.238	390.37
358.62	386.76
359.002	397.6
359.384	383.37
359.766	398.96
360.148	393.76
360.53	384.04
360.912	396.47
361.294	387.66
361.676	407.77
362.057	388.56
362.439	401.67
362.821	395.79
363.203	375.46
363.584	373.65
363.966	382.69
364.348	381.11
364.729	371.39
365.111	380.43
365.493	373.2
365.874	367.55
366.256	358.96
366.637	376.13
367.019	382.69
367.4	366.42
367.781	388.11
368.163	387.89
368.544	383.59
368.925	394.89
369.306	383.14
369.688	386.76
370.069	388.56
370.45	347.89
370.831	380.65
371.212	393.99
371.593	386.53
371.974	385.63
372.355	371.16
372.736	385.85
373.117	415.91
373.498	378.39
373.879	383.59
374.26	366.42
374.641	369.58
375.021	379.98
375.402	415.23
375.783	402.57
376.163	405.29
376.544	408.45
376.925	437.15
377.305	393.76
377.686	398.51
378.066	416.81
378.447	423.14
378.827	384.72
379.208	414.33
379.588	421.78
379.968	411.16
380.349	431.73
380.729	426.53
381.109	420.2
381.489	425.85
381.87	454.32
382.25	429.92
382.63	450.48
383.01	455.45
383.39	426.3
383.77	443.48
384.15	441.22
384.53	436.7
384.91	455.68
385.29	454.55
385.67	464.95
386.049	477.37
386.429	486.41
386.809	483.25
387.189	454.55
387.568	454.55
387.948	472.4
388.328	473.53
388.707	493.87
389.087	481.67
389.466	490.93
389.846	472.4
390.225	492.06
390.605	523.25
390.984	506.98
391.363	499.75
391.743	481.44
392.122	500.65
392.501	499.29
392.881	498.62
393.26	539.29
393.639	531.84
394.018	544.94
394.397	505.85
394.776	522.8
395.155	528.22
395.534	515.11
395.913	567.54
396.292	530.71
396.671	543.36
397.05	562.8
397.429	530.03
397.808	558.05
398.186	550.82
398.565	583.13
398.944	565.73
399.323	567.99
399.701	555.56
400.08	584.72
400.458	573.64
400.837	584.94
401.215	601.21
401.594	593.76
401.972	607.09
402.351	604.15
402.729	606.18
403.107	613.42
403.486	622.91
403.864	643.47
404.242	623.81
404.62	618.16
404.999	625.39
405.377	619.52
405.755	655.67
406.133	647.99
406.511	667.88
406.889	645.73
407.267	661.32
407.645	663.13
408.023	678.05
408.401	678.95
408.779	666.52
409.156	688.89
409.534	693.64
409.912	697.26
410.29	716.92
410.667	696.8
411.045	738.84
411.422	739.51
411.8	744.26
412.178	720.31
412.555	746.75
412.933	777.25
413.31	772.06
413.687	790.81
414.065	764.37
414.442	810.47
414.819	801.89
415.197	844.37
415.574	834.2
415.951	809.34
416.328	838.27
416.705	843.47
417.082	850.47
417.46	874.2
417.837	877.59
418.214	865.61
418.591	873.75
418.967	866.52
419.344	888.21
419.721	921.2
420.098	874.65
420.475	890.92
420.852	923.01
421.228	922.56
421.605	937.7
421.982	944.03
422.358	941.32
422.735	965.5
423.111	950.81
423.488	959.62
423.864	943.58
424.241	989.68
424.617	983.8
424.994	985.16
425.37	1003.46
425.746	1012.73
426.123	1005.04
426.499	1007.3
426.875	1028.77
427.251	1073.74
427.627	1061.77
428.003	1094.31
428.379	1059.05
428.756	1092.95
429.132	1093.86
429.507	1104.7
429.883	1138.83
430.259	1155.1
430.635	1153.74
431.011	1181.76
431.387	1165.72
431.763	1197.13
432.138	1245.49
432.514	1237.58
432.89	1216.11
433.265	1274.19
433.641	1265.38
434.016	1283.23
434.392	1309.44
434.767	1326.39
435.143	1337.24
435.518	1340.18
435.894	1363.45
436.269	1380.85
436.644	1349.89
437.02	1351.93
437.395	1373.62
437.77	1377.69
438.145	1447.97
438.52	1428.54
438.895	1475.54
439.271	1401.19
439.646	1469.66
440.021	1461.3
440.395	1488.87
440.77	1477.57
441.145	1492.94
441.52	1508.99
441.895	1524.35
442.27	1532.04
442.645	1517.8
443.019	1516.9
443.394	1529.78
443.769	1521.41
444.143	1550.34
444.518	1589.44
444.892	1556.89
445.267	1589.89
445.641	1615.42
446.016	1647.74
446.39	1623.78
446.764	1636.89
447.139	1672.15
447.513	1631.92
447.887	1665.59
448.262	1671.69
448.636	1661.52
449.01	1675.31
449.384	1698.59
449.758	1727.74
450.132	1731.8
450.506	1747.62
450.88	1738.13
451.254	1750.79
451.628	1787.62
452.002	1815.19
452.376	1821.52
452.75	1847.28
453.123	1814.51
453.497	1890.44
453.871	1866.94
454.244	1901.52
454.618	1929.09
454.992	1952.82
455.365	1974.74
455.739	2024
456.112	2003.89
456.486	2044.34
456.859	2047.28
457.232	2082.98
457.606	2128.63
457.979	2113.26
458.352	2165.92
458.725	2193.71
459.099	2203.43
459.472	2249.08
459.845	2264.67
460.218	2283.65
460.591	2323.43
460.964	2307.38
461.337	2334.27
461.71	2420.15
462.083	2414.27
462.456	2457.21
462.829	2449.07
463.201	2496.76
463.574	2504.44
463.947	2538.34
464.32	2536.08
464.692	2539.24
465.065	2579.69
465.438	2613.82
465.81	2642.06
466.183	2675.28
466.555	2719.35
466.928	2750.76
467.3	2722.06
467.672	2732.23
468.045	2870.53
468.417	2822.85
468.789	2858.55
469.161	2885.22
469.534	2943.3
469.906	2983.98
470.278	2967.03
470.65	3029.17
471.022	3088.83
471.394	3141.94
471.766	3160.92
472.138	3179
472.51	3239.79
472.882	3312.55
473.253	3288.83
473.625	3350.52
473.997	3422.16
474.369	3414.92
474.74	3458.76
475.112	3564.98
475.484	3596.16
475.855	3643.62
476.227	3654.69
476.598	3771.3
476.97	3787.34
477.341	3918.87
477.713	3915.7
478.084	3984.4
478.455	4025.76
478.827	4087.22
479.198	4206.09
479.569	4201.12
479.94	4341.45
480.311	4374.9
480.682	4454.45
481.053	4591.39
481.424	4615.57
481.795	4676.13
482.166	4754.55
482.537	4856.02
482.908	4911.83
483.279	4954.09
483.65	5112.73
484.021	5189.11
484.391	5195.22
484.762	5308.66
485.133	5325.61
485.503	5360.18
485.874	5532.83
486.244	5634.75
486.615	5749.33
486.985	5817.12
487.356	5888.98
487.726	5936.67
488.097	6137.56
488.467	6234.29
488.837	6271.8
489.207	6375.07
489.578	6493.26
489.948	6628.4
490.318	6684.67
490.688	6711.79
491.058	6859.81
491.428	6956.07
491.798	7053.92
492.168	7151.78
492.538	7221.38
492.908	7367.81
493.278	7429.06
493.648	7505.89
494.017	7626.57
494.387	7721.48
494.757	7847.58
495.126	7880.57
495.496	8011.87
495.866	8107.23
496.235	8223.16
496.605	8293.21
496.974	8378.41
497.344	8407.79
497.713	8496.6
498.082	8587.44
498.452	8700.89
498.821	8791.51
499.19	8841
499.559	8928.9
499.928	9038.05
500.298	9122.57
500.667	9189.91
501.036	9239.4
501.405	9357.82
501.774	9367.76
502.143	9596
502.512	9534.76
502.88	9738.15
503.249	9779.73
503.618	9837.35
503.987	9859.5
504.356	9970.01
504.724	10061.08
505.093	10100.62
505.462	10131.13
505.83	10309.43
506.199	10272.15
506.567	10450.22
506.936	10510.33
507.304	10614.96
507.672	10664.9
508.041	10685.69
508.409	10885.24
508.777	10934.27
509.145	11030.09
509.514	11102.86
509.882	11161.61
510.25	11212.46
510.618	11313.47
510.986	11379.91
511.354	11459.46
511.722	11564.31
512.09	11738.32
512.458	11615.61
512.826	11785.55
513.193	11877.98
513.561	11807.47
513.929	12033.91
514.297	12068.26
514.664	12159.78
515.032	12381.92
515.4	12445.65
515.767	12531.29
516.135	12511.41
516.502	12494.69
516.869	12749.59
517.237	12788.92
517.604	12781.91
517.972	13011.28
518.339	13032.3
518.706	13059.64
519.073	13105.29
519.44	13295.79
519.808	13350.71
520.175	13406.3
520.542	13567.43
520.909	13704.82
521.276	13833.41
521.643	13897.81
522.009	14037.92
522.376	14106.39
522.743	14199.27
523.11	14359.04
523.477	14440.4
523.843	14602.65
524.21	14730.33
524.577	14903.89
524.943	14900.05
525.31	15074.5
525.676	15237.44
526.043	15404.44
526.409	15509.07
526.776	15664.55
527.142	15725.34
527.508	15848.27
527.874	15941.83
528.241	16054.82
528.607	16040.36
528.973	16314.92
529.339	16335.94
529.705	16551.53
530.071	16692.09
530.437	16780.22
530.803	16867
531.169	16970.27
531.535	17056.37
531.901	17148.35
532.267	17242.36
532.632	17361.68
532.998	17478.06
533.364	17544.27
533.73	17709.92
534.095	17740.65
534.461	17826.75
534.826	17999.63
535.192	18072.39
535.557	18113.75
535.923	18211.82
536.288	18415.89
536.653	18438.94
537.019	18407.07
537.384	18477.35
537.749	18632.83
538.114	18719.38
538.479	18615.2
538.845	18741.75
539.21	18774.97
539.575	18886.38
539.94	18967.96
540.305	19063.1
540.67	19147.84
541.034	19186.71
541.399	19222.64
541.764	19364.34
542.129	19429.19
542.494	19482.52
542.858	19515.97
543.223	19535.4
543.587	19591.45
543.952	19595.74
544.316	19698.11
544.681	19732.24
545.045	19945.34
545.41	19932.23
545.774	19988.27
546.138	20096.29
546.503	20202.51
546.867	20166.8
547.231	20321.82
547.595	20360.24
547.959	20468.49
548.324	20374.93
548.688	20512.33
549.052	20544.19
549.416	20590.74
549.779	20640.46
550.143	20787.12
550.507	20823.51
550.871	20987.8
551.235	20914.35
551.599	21051.3
551.962	21103.05
552.326	21161.12
552.689	21184.4
553.053	21203.84
553.417	21356.37
553.78	21577.16
554.143	21535.8
554.507	21689.47
554.87	21729.7
555.234	21953.42
555.597	21771.73
555.96	21985.28
556.323	21999.75
556.686	22049.46
557.05	22195.45
557.413	22230.25
557.776	22331.49
558.139	22547.98
558.502	22503.46
558.865	22538.94
559.228	22892.83
559.59	22715.89
559.953	22857.35
560.316	23149.77
560.679	23085.37
561.041	23391.57
561.404	23364.91
561.767	23586.82
562.129	23512.93
562.492	23719.25
562.854	23840.6
563.217	23714.28
563.579	23934.38
563.941	24088.73
564.304	24226.13
564.666	24510.87
565.028	24549.51
565.39	24540.92
565.753	24749.28
566.115	24863.17
566.477	24975.04
566.839	25051.64
567.201	25375.7
567.563	25342.26
567.925	25508.35
568.287	25683.72
568.648	25679.65
569.01	25749.03
569.372	26049.13
569.734	26048.45
570.095	26439.86
570.457	26558.95
570.819	26640.08
571.18	26642.79
571.542	26915.55
571.903	26813.41
572.265	27211.36
572.626	27318.48
572.987	27486.16
573.349	27537.68
573.71	27759.59
574.071	27848.41
574.432	27975.18
574.794	28270.99
575.155	28431.44
575.516	28359.81
575.877	28519.35
576.238	28644.09
576.599	28862.39
576.96	29046.79
577.32	29091.09
577.681	29223.29
578.042	29432.32
578.403	29521.13
578.763	29622.82
579.124	29842.48
579.485	30101.45
579.845	30155.01
580.206	30233.43
580.566	30389.13
580.927	30661.67
581.287	30825.5
581.648	30914.09
582.008	31256
582.368	31413.96
582.728	31717.01
583.089	31913.38
583.449	32017.34
583.809	32218.23
584.169	32607.38
584.529	32632.91
584.889	33094.37
585.249	33093.01
585.609	33368.94
585.969	33855.03
586.329	34011.18
586.688	34382.47
587.048	34557.16
587.408	34734.1
587.768	35139.74
588.127	35615.89
588.487	35753.06
588.846	36391.91
589.206	36488.63
589.565	36856.76
589.925	37487.93
590.284	37729.28
590.643	38124.07
591.003	38550.27
591.362	39230.71
591.721	39514.09
592.08	40040.4
592.44	40473.16
592.799	40769.87
593.158	41191.56
593.517	41709.06
593.876	42266.11
594.235	42557.4
594.593	43076.25
594.952	43562.57
595.311	43906.97
595.67	44424.02
596.029	44999.37
596.387	45399.36
596.746	46014.48
597.104	46152.11
597.463	46600
597.822	47248.12
598.18	47484.95
598.538	47961.32
598.897	48510.69
599.255	48735.09
599.613	49434.96
599.972	49460.49
600.33	49958.11
600.688	50217.31
601.046	50650.07
601.404	51232.42
601.762	51447.11
602.12	51765.07
602.478	52123.02
602.836	52403.47
603.194	52577.7
603.552	52806.39
603.91	53099.27
604.268	53444.12
604.625	53696.31
604.983	54068.96
605.341	54111.9
605.698	54575.61
606.056	54978.54
606.413	54962.72
606.771	55392.77
607.128	55576.04
607.485	55663.04
607.843	55960.44
608.2	56175.34
608.557	56555.45
608.914	56591.61
609.272	56813.29
609.629	57099.16
609.986	57282.66
610.343	57435.65
610.7	57749.99
611.057	57782.53
611.414	57849.43
611.771	58154.28
612.127	58390.88
612.484	58530.99
612.841	58679.46
613.198	58777.54
613.554	58851.21
613.911	59199.22
614.267	59343.85
614.624	59382.04
614.98	59532.09
615.337	59773.67
615.693	59808.24
616.05	59913.1
616.406	60137.5
616.762	60209.82
617.118	60268.57
617.475	60325.74
617.831	60517.83
618.187	60644.38
618.543	60709.01
618.899	60953.98
619.255	60961.43
619.611	60945.16
619.967	61200.3
620.323	61319.62
620.678	61299.73
621.034	61380.41
621.39	61411.14
621.746	61449.78
622.101	61774.29
622.457	61631.25
622.812	61794.86
623.168	61889.09
623.523	61878.25
623.879	62043.21
624.234	61974.51
624.589	62086.83
624.945	62104.91
625.3	62166.83
625.655	62275.75
626.01	62247.28
626.365	62293.6
626.72	62320.27
627.075	62359.82
627.43	62423.54
627.785	62501.51
628.14	62534.73
628.495	62541.51
628.85	62638.23
629.205	62555.52
629.559	62622.18
629.914	62553.26
630.269	62581.96
630.623	62547.38
630.978	62469.42
631.332	62646.81
631.687	62665.34
632.041	62644.33
632.396	62679.81
632.75	62627.38
633.104	62666.7
633.459	62544.9
633.813	62603.65
634.167	62616.53
634.521	62604.78
634.875	62664.67
635.229	62562.3
635.583	62521.39
635.937	62549.41
636.291	62622.18
636.645	62554.61
636.999	62414.73
637.352	62543.31
637.706	62385.8
638.06	62543.31
638.413	62450.21
638.767	62332.25
639.121	62475.97
639.474	62333.83
639.828	62350.1
640.181	62355.52
640.534	62379.93
640.888	62335.86
641.241	62237.78
641.594	62313.26
641.947	62311.68
642.301	62223.32
642.654	62298.12
643.007	62198.24
643.36	62245.92
643.713	62177.45
644.066	62319.14
644.419	62154.17
644.771	61871.47
645.124	61694.07
645.477	61653.39
645.83	61610.46
646.182	61562.32
646.535	61511.93
646.888	61590.34
647.24	61485.26
647.593	61601.42
647.945	61520.52
648.298	61424.92
648.65	61320.29
649.002	61241.65
649.355	61210.01
649.707	61127.76
650.059	61104.93
650.411	61498.82
650.763	61592.6
651.115	61833.05
651.467	61767.06
651.819	61826.95
652.171	61765.25
652.523	61632.83
652.875	61638.7
653.227	61570.46
653.578	61715.76
653.93	61645.71
654.282	61561.42
654.633	61491.14
654.985	61593.28
655.337	61576.33
655.688	61544.92
656.039	61639.38
656.391	61353.51
656.742	61463.79
657.094	61443.68
657.445	61496.34
657.796	61530.01
658.147	61343.57
658.498	61455.88
658.849	61490.91
659.2	61370.91
659.551	61290.92
659.902	61482.78
660.253	61320.97
660.604	61424.7
660.955	61292.5
661.306	61431.48
661.656	61307.64
662.007	61311.48
662.358	61307.87
662.708	61323.68
663.059	61267.19
663.409	61157.81
663.76	61305.61
664.11	61281.2
664.461	61331.14
664.811	61308.32
665.161	61218.83
665.511	61150.81
665.862	61157.59
666.212	61166.63
666.562	61318.03
666.912	61196.91
667.262	61102.67
667.612	61164.59
667.962	61156.23
668.312	61121.66
668.662	61234.2
669.011	61217.7
669.361	61111.26
669.711	61148.32
670.06	61131.82
670.41	61089.34
670.76	61071.04
671.109	61162.33
671.459	61113.52
671.808	61040.75
672.157	61153.07
672.507	60971.6
672.856	61025.84
673.205	61000.98
673.554	61015.67
673.904	60954.2
674.253	61183.57
674.602	61053.41
674.951	60692.51
675.3	60588.56
675.649	61020.42
675.998	60993.75
676.346	61023.58
676.695	61024.93
677.044	60887.09
677.393	60934.09
677.741	61019.96
678.09	60918.05
678.438	60837.37
678.787	60934.32
679.135	60926.18
679.484	60748.33
679.832	60828.56
680.181	60774.09
680.529	60796.69
680.877	60658.16
681.225	60744.94
681.573	60908.1
681.922	60678.73
682.27	60722.34
682.618	60674.21
682.966	60613.87
683.314	60666.98
683.661	60611.16
684.009	60575.46
684.357	60502.46
684.705	60411.62
685.053	60483.03
685.4	60337.04
685.748	60404.61
686.095	60345.18
686.443	60211.62
686.79	60211.85
687.138	60248.91
687.485	60177.95
687.832	60092.3
688.18	60122.81
688.527	60064.06
688.874	60035.81
689.221	60038.07
689.568	59879.43
689.915	59824.51
690.262	59902.03
690.609	59827.9
690.956	59702.71
691.303	59769.15
691.65	59713.33
691.997	59633.33
692.344	59558.08
692.69	59522.38
693.037	59531.64
693.383	59270.63
693.73	59393.79
694.077	59239.9
694.423	59266.56
694.769	59179.56
695.116	59149.05
695.462	59050.52
695.808	59005.1
696.155	59018.66
696.501	58824.31
696.847	58866.57
697.193	58707.03
697.539	58778.89
697.885	58624.09
698.231	58535.96
698.577	58569.18
698.923	58495.28
699.269	58338.23
699.614	58216.2
699.96	58201.96
700.306	58193.15
700.651	58083.54
700.997	57997.67
701.342	57973.94
701.688	57926.94
702.033	57871.57
702.379	57862.08
702.724	57693.5
703.069	57774.4
703.415	57443.11
703.76	57476.78
704.105	57500.73
704.45	57466.84
704.795	57366.05
705.14	57312.26
705.485	57358.82
705.83	57159.5
706.175	57240.63
706.52	57183.23
706.865	57064.59
707.209	56958.6
707.554	56893.07
707.899	56889.9
708.243	56816.01
708.588	56758.38
708.932	56559.06
709.277	56689
709.621	56549.12
709.966	56383.02
710.31	56498.27
710.654	56306.87
710.998	56232.74
711.342	56339.63
711.687	56199.07
712.031	56124.5
712.375	56071.84
712.719	56008.12
713.063	55961.57
713.407	56110.71
713.75	55955.01
714.094	55889.93
714.438	55697.17
714.782	55745.07
715.125	55641.57
715.469	55811.29
715.812	55489.04
716.156	55567.45
716.499	55480.22
716.843	55537.62
717.186	55334.69
717.53	55444.29
717.873	55406.1
718.216	55333.79
718.559	55153.68
718.902	55036.39
719.246	55106.67
719.589	54956.62
719.932	54922.27
720.275	54884.31
720.617	54889.28
720.96	54781.03
721.303	54816.51
721.646	54857.19
721.989	54626.01
722.331	54679.57
722.674	54603.63
723.016	54625.78
723.359	54510.53
723.701	54549.63
724.044	54404.32
724.386	54148.51
724.729	54393.7
725.071	54330.2
725.413	54250.88
725.755	54092.24
726.097	54063.76
726.439	53936.76
726.782	53970.88
727.124	54121.61
727.465	53967.72
727.807	53880.26
728.149	53957.1
728.491	53769.31
728.833	53839.59
729.175	53694.05
729.516	53765.92
729.858	53708.97
730.199	53746.48
730.541	53723.21
730.882	53661.06
731.224	53644.56
731.565	53477.11
731.906	53592.36
732.248	53484.79
732.589	53280.05
732.93	53256.33
733.271	53317.12
733.612	53140.62
733.953	53298.13
734.294	53192.6
734.635	53073.05
734.976	53278.02
735.317	53114.86
735.658	53017.91
735.999	52993.51
736.339	52973.62
736.68	52890.46
737.021	52904.24
737.361	52815.43
737.702	52991.25
738.042	52872.15
738.383	52893.62
738.723	52830.57
739.063	52678.26
739.404	52811.37
739.744	52625.38
740.084	52585.83
740.424	52736.57
740.764	52574.54
741.104	52574.31
741.444	52430.58
741.784	52290.48
742.124	52495.67
742.464	52374.09
742.804	52240.08
743.143	52258.61
743.483	52380.87
743.823	52063.14
744.162	52113.08
744.502	52146.75
744.841	52010.48
745.181	52218.39
745.52	52024.49
745.86	51965.29
746.199	51956.92
746.538	51834.22
746.877	51991.05
747.216	51813.88
747.556	51876.47
747.895	51774.78
748.234	51599.42
748.573	51658.63
748.911	51596.03
749.25	51645.07
749.589	51416.15
749.928	51464.06
750.267	51489.59
750.605	51392.87
750.944	51339.31
751.283	51118.53
751.621	51266.1
751.96	51094.35
752.298	51194.91
752.636	51056.38
752.975	50934.58
753.313	50839.89
753.651	51032.66
753.989	50795.15
754.327	50826.33
754.666	50582.05
755.004	50698.2
755.342	50643.51
755.679	50626.34
756.017	50351.32
756.355	50416.63
756.693	50394.71
757.031	50282.39
757.368	50135.28
757.706	50070.65
758.044	50025.68
758.381	49949.52
758.719	49749.3
759.056	49785.68
759.394	49602.41
759.731	49488.52
760.068	49388.18
760.405	49398.8
760.743	49234.28
761.08	49163.78
761.417	48988.42
761.754	48870.23
762.091	48948.87
762.428	48757.91
762.765	48545.49
763.102	48522.21
763.438	48336.68
763.775	48147.08
764.112	48220.98
764.449	48061.89
764.785	47981.89
765.122	47806.75
765.458	47662.12
765.795	47663.93
766.131	47608.79
766.467	47284.73
766.804	47087.67
767.14	46919.54
767.476	46899.88
767.812	46788.7
768.148	46936.49
768.485	46774.24
768.821	46365.43
769.157	46280.24
769.492	46132.45
769.828	46111.43
770.164	45737.43
770.5	45530.2
770.836	45688.39
771.171	45332.92
771.507	45327.04
771.842	45130.66
772.178	44898.58
772.513	44873.72
772.849	44567.29
773.184	44720.96
773.519	44502.88
773.855	44329.33
774.19	44261.53
774.525	44017.92
774.86	43975.21
775.195	43858.61
775.53	43529.58
775.865	43457.49
776.2	43016.14
776.535	42857.28
776.87	42861.34
777.205	42667.9
777.539	42682.37
777.874	42646.44
778.209	42227.69
778.543	42228.14
778.878	41959.45
779.212	42076.73
779.547	41707.02
779.881	41643.75
780.215	41340.71
780.55	41465.22
780.884	41043.77
781.218	41104.78
781.552	41043.77
781.886	40826.6
782.22	40668.18
782.554	40452.14
782.888	40359.49
783.222	40143.9
783.556	39851.25
783.889	39691.48
784.223	39589.11
784.557	39419.85
784.89	39563.35
785.224	39243.59
785.557	39181.89
785.891	38929.24
786.224	38990.71
786.558	38948.23
786.891	38730.83
787.224	38463.04
787.557	38239.32
787.891	38313.67
788.224	37988.48
788.557	38045.65
788.89	37978.54
789.223	37814.92
789.556	37580.13
789.888	37479.34
790.221	37387.82
790.554	37183.75
790.887	37171.78
791.219	37014.27
791.552	36729.75
791.884	36604.11
792.217	36502.87
792.549	36443.21
792.882	36160.28
793.214	36013.62
793.546	36141.3
793.879	36087.29
794.211	35719.84
794.543	35816.78
794.875	35665.83
795.207	35571.59
795.539	35529.56
795.871	35458.38
796.203	35114.88
796.535	35147.2
796.867	34956.92
797.198	34710.37
797.53	34714.21
797.862	34411.4
798.193	34601
798.525	34280.55
798.856	34415.69
799.188	33902.48
799.519	33805.54
799.85	33820.68
800.182	33733
800.513	33752.66
800.844	33431.08
801.175	33652.32
801.506	33586.56
801.837	33287.81
802.168	33240.13
802.499	33271.09
802.83	32930.08
803.161	32926.24
803.491	32818.9
803.822	32987.25
804.153	32608.73
804.483	32450.32
804.814	32204.45
805.145	32400.15
805.475	32305.24
805.805	32181.17
806.136	32159.48
806.466	32037.45
806.796	31931.01
807.126	31801.97
807.457	31799.94
807.787	31721.75
808.117	31494.86
808.447	31467.07
808.777	31599.04
809.107	31243.57
809.436	31127.42
809.766	31159.96
810.096	31142.1
810.426	30990.24
810.755	31027.76
811.085	31079.73
811.414	30908.44
811.744	30742.12
812.073	30776.24
812.403	30566.75
812.732	30409.69
813.061	30580.76
813.39	30254.44
813.719	30191.62
814.049	30244.95
814.378	30256.93
814.707	30178.97
815.036	30167.44
815.365	29824.17
815.693	29740.56
816.022	29797.96
816.351	29621.01
816.68	29446.33
817.008	29628.47
817.337	29295.37
817.665	29284.98
817.994	29322.94
818.322	29384.19
818.651	29123.4
818.979	29065.1
819.307	28997.08
819.636	28956.63
819.964	28958.66
820.292	28948.72
820.62	28915.04
820.948	28929.73
821.276	28994.59
821.604	28833.47
821.932	28995.95
822.259	28855.16
822.587	28877.31
822.915	28767.7
823.243	28877.31
823.57	28758.44
823.898	28869.85
824.225	28800.7
824.553	28752.56
824.88	28743.3
825.207	28891.09
825.535	28785.1
825.862	28807.7
826.189	28729.06
826.516	28922.05
826.843	28993.69
827.17	29014.25
827.497	28893.8
827.824	28914.59
828.151	29037.53
828.478	28762.51
828.805	29108.26
829.131	28956.85
829.458	28820.36
829.785	28561.61
830.111	28817.42
830.438	28837.31
830.764	28788.04
831.09	28882.05
831.417	28779.23
831.743	28857.19
832.069	28882.5
832.395	28805.22
832.722	28799.34
833.048	28607.03
833.374	28732.68
833.7	28526.35
834.026	28584.43
834.351	28581.95
834.677	28641.83
835.003	28471.67
835.329	28619.69
835.654	28581.72
835.98	28301.5
836.306	28494.94
836.631	28294.04
836.956	28472.8
837.282	28446.58
837.607	28316.42
837.932	28219.92
838.258	28222.18
838.583	28212.01
838.908	28080.72
839.233	28125.46
839.558	27973.37
839.883	27966.37
840.208	27864
840.533	27939.93
840.858	27806.37
841.182	27861.51
841.507	27845.47
841.832	27689.99
842.156	27738.8
842.481	27558.02
842.805	27542.43
843.13	27446.83
843.454	27473.73
843.778	27333.39
844.103	27310.57
844.427	27337.23
844.751	27371.81
845.075	27134.07
845.399	27073.06
845.723	26897.92
846.047	27069.22
846.371	26722.56
846.695	26659.28
847.019	26546.29
847.343	26580.42
847.666	26338.84
847.99	26369.58
848.313	26157.38
848.637	26150.82
848.96	26105.4
849.284	25946.76
849.607	25764.85
849.931	25677.84
850.254	25614.79
850.577	25382.71
850.9	25253.45
851.223	25388.13
851.546	25272.65
851.869	25095.48
852.192	25191.07
852.515	24854.36
852.838	24684.87
853.161	24798.77
853.483	24634.25
853.806	24615.04
854.129	24554.03
854.451	24399.68
854.774	24267.48
855.096	24324.88
855.419	24211.44
855.741	24075.85
856.063	24089.18
856.385	23827.72
856.708	23841.28
857.03	23807.83
857.352	23803.09
857.674	23742.98
857.996	23528.97
858.318	23404.91
858.64	23417.56
858.961	23465.02
859.283	23226.61
859.605	23252.14
859.926	23196.55
860.248	23216.66
860.57	22956.33
860.891	23026.61
861.212	22905.49
861.534	22968.99
861.855	22873.17
862.176	22780.06
862.498	22905.03
862.819	22897.58
863.14	22608.54
863.461	22618.26
863.782	22569.9
864.103	22669.11
864.424	22449.45
864.745	22603.57
865.065	22347.53
865.386	22352.05
865.707	22264.37
866.027	22268.67
866.348	22329.23
866.668	22234.09
866.989	22062.34
867.309	22006.75
867.63	22065.28
867.95	22022.57
868.27	21841.56
868.59	21948.9
868.91	21921.56
869.23	21848.34
869.55	21777.38
869.87	21808.34
870.19	21734.89
870.51	21738.06
870.83	21627.55
871.15	21493.77
871.469	21474.11
871.789	21611.06
872.109	21575.35
872.428	21493.09
872.748	21571.74
873.067	21459.65
873.386	21436.15
873.706	21343.27
874.025	21338.97
874.344	21165.87
874.663	21245.42
874.982	21208.13
875.301	21214.23
875.62	21024.86
875.939	21039.32
876.258	21051.3
876.577	20886.56
876.896	21011.3
877.214	20990.73
877.533	20919.77
877.852	20944.18
878.17	20816.05
878.489	21005.2
878.807	20840.45
879.125	20740.57
879.444	20734.02
879.762	20672.55
880.08	20688.37
880.398	20574.02
880.716	20596.39
881.034	20484.98
881.352	20514.36
881.67	20494.7
881.988	20441.82
882.306	20279.34
882.624	20382.39
882.941	20240.24
883.259	20195.5
883.577	20256.29
883.894	20151.89
884.212	20120.25
884.529	19995.73
884.846	19972.23
885.164	19842.06
885.481	19837.32
885.798	19799.58
886.115	19712.12
886.432	19898.33
886.75	19692.91
887.067	19717.32
887.383	19599.13
887.7	19610.2
888.017	19405.24
888.334	19531.34
888.651	19478.91
888.967	19531.56
889.284	19363.21
889.6	19332.25
889.917	19211.35
890.233	19222.42
890.55	19082.99
890.866	19098.58
891.182	18979.71
891.498	19036.21
891.815	18858.59
892.131	18791.7
892.447	18850.45
892.763	18757.57
893.079	18734.3
893.395	18554.19
893.71	18461.53
894.026	18468.54
894.342	18620.63
894.657	18379.28
894.973	18431.48
895.289	18330.46
895.604	18203.24
895.92	18181.99
896.235	18116.23
896.55	18065.39
896.865	17999.4
897.181	17915.33
897.496	17936.58
897.811	17878.72
898.126	17741.55
898.441	17684.83
898.756	17737.03
899.071	17626.75
899.386	17587.43
899.7	17344.5
900.015	17373.65
900.33	17140.67
900.644	17246.65
900.959	17253.88
901.273	17062.7
901.588	17052.76
901.902	17057.73
902.216	16927.11
902.531	16927.79
902.845	16817.28
903.159	16632.43
903.473	16613.9
903.787	16623.84
904.101	16544.97
904.415	16590.85
904.729	16468.82
905.042	16345.66
905.356	16304.3
905.67	16241.71
905.984	16238.77
906.297	16197.87
906.611	16094.36
906.924	16021.82
907.237	15965.55
907.551	15886.46
907.864	15853.24
908.177	15881.04
908.491	15720.82
908.804	15615.96
909.117	15503.42
909.43	15479.24
909.743	15413.03
910.056	15413.48
910.368	15228.4
910.681	15223.65
910.994	15255.52
911.307	15157.21
911.619	14976.43
911.932	15047.39
912.244	14861.63
912.557	14850.56
912.869	14781.41
913.181	14737.11
913.494	14679.49
913.806	14608.08
914.118	14614.86
914.43	14536.67
914.742	14420.06
915.054	14449.89
915.366	14365.14
915.678	14272.72
915.99	14279.72
916.302	14170.8
916.613	14137.58
916.925	14073.85
917.236	14008.77
917.548	13980.75
917.859	13967.42
918.171	13847.64
918.482	13786.86
918.794	13731.49
919.105	13632.73
919.416	13554.77
919.727	13593.19
920.038	13530.82
920.349	13496.47
920.66	13336.02
920.971	13435
921.282	13335.79
921.593	13186.64
921.903	13101.22
922.214	13079.75
922.525	13013.99
922.835	13063.48
923.146	12909.59
923.456	12863.49
923.767	12762.02
924.077	12765.64
924.387	12745.98
924.697	12613.78
925.008	12491.3
925.318	12563.84
925.628	12549.37
925.938	12483.16
926.248	12352.09
926.558	12244.3
926.867	12195.26
927.177	12225.77
927.487	12131.76
927.796	12006.11
928.106	12120.23
928.416	11997.3
928.725	12058.76
929.034	11868.04
929.344	11871.88
929.653	11802.5
929.962	11760.47
930.271	11606.57
930.581	11683.41
930.89	11628.04
931.199	11420.36
931.508	11496.75
931.817	11476.86
932.125	11439.35
932.434	11345.11
932.743	11252.23
933.051	11199.13
933.36	11167.26
933.669	11075.51
933.977	11045.46
934.286	11062.41
934.594	10984.44
934.902	10876.88
935.21	10865.12
935.519	10849.76
935.827	10845.01
936.135	10712.36
936.443	10637.11
936.751	10637.56
937.059	10579.71
937.367	10532.03
937.674	10595.07
937.982	10446.38
938.29	10432.37
938.597	10304.23
938.905	10269.21
939.213	10238.7
939.52	10202.77
939.827	10253.61
940.135	10126.16
940.442	10131.81
940.749	10037.8
941.056	10052.26
941.363	9989.67
941.67	9950.57
941.977	9845.49
942.284	9856.56
942.591	9780.86
942.898	9771.59
943.205	9781.31
943.511	9725.04
943.818	9657.02
944.125	9593.74
944.431	9521.2
944.738	9467.42
945.044	9483.47
945.35	9439.62
945.657	9376.12
945.963	9326.18
946.269	9332.51
946.575	9274.66
946.881	9267.65
947.187	9207.54
947.493	9130.03
947.799	9065.85
948.105	9083.48
948.41	8979.75
948.716	8968.22
949.022	8965.51
949.327	8884.16
949.633	8836.25
949.938	8870.6
950.244	8759.42
950.549	8703.37
950.854	8620.89
951.16	8685.97
951.465	8594
951.77	8527.33
952.075	8508.58
952.38	8525.98
952.685	8479.42
952.99	8386.32
953.294	8449.37
953.599	8373.89
953.904	8291.63
954.209	8219.54
954.513	8233.33
954.818	8172.77
955.122	8157.4
955.426	8191.07
955.731	8061.81
956.035	8076.95
956.339	8024.75
956.643	7972.32
956.948	7920.34
957.252	7925.77
957.556	7915.14
957.86	7897.97
958.163	7823.62
958.467	7734.58
958.771	7761.48
959.075	7714.92
959.378	7632.44
959.682	7608.71
959.985	7594.25
960.289	7537.3
960.592	7544.08
960.896	7498.88
961.199	7431.77
961.502	7453.46
961.805	7395.38
962.108	7330.3
962.411	7269.29
962.714	7225.22
963.017	7274.03
963.32	7215.73
963.623	7193.81
963.926	7179.57
964.228	7112
964.531	7107.03
964.833	7106.8
965.136	7020.71
965.438	6991.55
965.741	6906.81
966.043	6922.4
966.345	6826.13
966.648	6827.94
966.95	6824.1
967.252	6784.55
967.554	6800.37
967.856	6763.08
968.158	6708.85
968.46	6661.17
968.761	6687.15
969.063	6676.76
969.365	6582.75
969.666	6534.39
969.968	6449.87
970.269	6511.79
970.571	6469.08
970.872	6456.65
971.174	6429.76
971.475	6375.52
971.776	6317.67
972.077	6300.27
972.378	6324.68
972.679	6300.27
972.98	6276.09
973.281	6180.5
973.582	6171.46
973.883	6154.97
974.183	6078.58
974.484	6121.97
974.785	6003.78
975.085	6046.49
975.386	6075.42
975.686	5987.74
975.986	5923.33
976.287	5887.4
976.587	5934.41
976.887	5840.4
977.187	5851.47
977.487	5861.64
977.787	5765.6
978.087	5747.29
978.387	5731.7
978.687	5711.81
978.987	5700.06
979.286	5664.36
979.586	5623.68
979.885	5575.55
980.185	5597.69
980.484	5559.27
980.784	5572.61
981.083	5477.69
981.382	5459.16
981.682	5438.15
981.981	5440.86
982.28	5432.95
982.579	5361.09
982.878	5367.19
983.177	5322.9
983.475	5298.26
983.774	5282.45
984.073	5202.22
984.372	5216.46
984.67	5184.82
984.969	5164.48
985.267	5134.88
985.566	5122.9
985.864	5046.75
986.162	5070.25
986.461	5057.82
986.759	5040.19
987.057	5001.78
987.355	4964.71
987.653	4957.93
987.951	4928.56
988.249	4906.86
988.547	4840.88
988.844	4815.34
989.142	4851.27
989.44	4804.94
989.737	4785.74
990.035	4801.78
990.332	4750.93
990.63	4748
990.927	4683.82
991.224	4682.46
991.521	4636.14
991.819	4635.68
992.116	4609.7
992.413	4572.41
992.71	4562.24
993.006	4553.2
993.303	4513.2
993.6	4523.14
993.897	4465.97
994.193	4448.34
994.49	4438.4
994.787	4413.99
995.083	4361.57
995.379	4352.75
995.676	4312.3
995.972	4341.45
996.268	4300.78
996.565	4275.01
996.861	4259.2
997.157	4191.4
997.453	4176.71
997.749	4181.91
998.044	4146.66
998.34	4129.03
998.636	4080.44
998.932	4065.98
999.227	4070.73
999.523	4023.04
999.818	4018.98
1000.114	4032.76
1000.409	3975.14
1000.704	3926.55
1001	3942.82
1001.295	3899.66
1001.59	3872.99
1001.885	3867.79
1002.18	3849.04
1002.475	3811.3
1002.77	3839.09
1003.065	3791.86
1003.359	3784.86
1003.654	3785.76
1003.949	3736.27
1004.243	3706.22
1004.538	3636.61
1004.832	3614.69
1005.127	3658.99
1005.421	3639.1
1005.715	3583.73
1006.009	3588.25
1006.304	3590.06
1006.598	3531.76
1006.892	3511.87
1007.186	3460.12
1007.48	3469.84
1007.773	3452.21
1008.067	3404.08
1008.361	3371.31
1008.655	3374.93
1008.948	3350.29
1009.242	3379.22
1009.535	3329.05
1009.829	3289.28
1010.122	3289.96
1010.415	3261.48
1010.708	3167.02
1011.001	3196.4
1011.295	3170.64
1011.588	3193.46
1011.881	3171.31
1012.173	3105.78
1012.466	3114.82
1012.759	3095.38
1013.052	3092.45
1013.344	3049.06
1013.637	3067.81
1013.93	3006.12
1014.222	2954.6
1014.514	2936.52
1014.807	2939.23
1015.099	2935.61
1015.391	2904.43
1015.683	2895.62
1015.976	2855.39
1016.268	2872.34
1016.56	2817.43
1016.851	2806.13
1017.143	2796.18
1017.435	2808.16
1017.727	2728.16
1018.018	2783.08
1018.31	2751.44
1018.602	2721.16
1018.893	2681.16
1019.185	2678.9
1019.476	2618.11
1019.767	2638
1020.058	2558.22
1020.35	2592.57
1020.641	2573.14
1020.932	2559.81
1021.223	2557.77
1021.514	2544.66
1021.804	2491.33
1022.095	2465.8
1022.386	2461.73
1022.677	2410.43
1022.967	2486.81
1023.258	2404.56
1023.548	2377.66
1023.839	2375.86
1024.129	2377.66
1024.419	2348.96
1024.709	2357.33
1025	2295.86
1025.29	2288.17
1025.58	2286.37
1025.87	2212.47
1026.16	2285.01
1026.449	2210.66
1026.739	2209.98
1027.029	2200.49
1027.319	2176.09
1027.608	2169.99
1027.898	2144.68
1028.187	2116.88
1028.477	2112.36
1028.766	2105.58
1029.055	2097.22
1029.344	2063.55
1029.634	2053.6
1029.923	2030.1
1030.212	2024.68
1030.501	2016.09
1030.79	2002.98
1031.078	1928.64
1031.367	1970.67
1031.656	1934.29
1031.945	1957.11
1032.233	1939.26
1032.522	1886.15
1032.81	1844.8
1033.099	1886.83
1033.387	1882.54
1033.675	1838.92
1033.963	1832.59
1034.251	1790.11
1034.54	1808.41
1034.828	1811.8
1035.116	1753.95
1035.403	1781.52
1035.691	1757.79
1035.979	1745.59
1036.267	1725.48
1036.554	1728.42
1036.842	1706.72
1037.129	1680.05
1037.417	1673.05
1037.704	1658.59
1037.992	1671.92
1038.279	1668.3
1038.566	1656.33
1038.853	1656.33
1039.14	1656.33
