Data from 17-1564_FLMS001491_007.txt Node
Date: Thu Apr 19 16:31:36 BST 2018
User: hsy
Spectrometer: FLMS00149
Trigger mode: 0
Integration Time (sec): 1.000000E-2
Scans to average: 10
Electric dark correction enabled: true
Nonlinearity correction enabled: false
Boxcar width: 0
XAxis mode: Wavelengths
Number of Pixels in Spectrum: 2048
>>>>>Begin Spectral Data<<<<<
341.393	-14.67
341.776	-14.67
342.16	-14.67
342.543	-53.77
342.927	-63.94
343.31	-69.81
343.693	-61.45
344.077	-79.53
344.46	-64.16
344.843	-68.91
345.226	-35.47
345.61	-35.92
345.993	-8.8
346.376	5.44
346.759	9.73
347.142	29.62
347.525	54.93
347.908	54.48
348.291	70.75
348.674	85.66
349.057	113.46
349.44	134.02
349.823	166.56
350.206	180.35
350.588	222.16
350.971	262.15
351.354	265.77
351.737	286.11
352.119	274.13
352.502	300.57
352.884	334.02
353.267	325.88
353.65	330.85
354.032	353.45
354.414	341.47
354.797	350.74
355.179	375.82
355.562	365.43
355.944	391.42
356.326	386.67
356.709	386.67
357.091	402.49
357.473	400
357.855	386.22
358.238	371.3
358.62	402.04
359.002	387.12
359.384	414.01
359.766	383.05
360.148	402.72
360.53	385.09
360.912	378.08
361.294	388.03
361.676	375.6
362.057	384.41
362.439	375.37
362.821	397.29
363.203	388.03
363.584	384.64
363.966	398.42
364.348	380.8
364.729	400.23
365.111	381.25
365.493	378.76
365.874	384.18
366.256	370.85
366.637	378.99
367.019	377.41
367.4	374.47
367.781	386.44
368.163	388.03
368.544	375.15
368.925	394.81
369.306	397.97
369.688	385.09
370.069	376.28
370.45	392.55
370.831	398.42
371.212	394.81
371.593	387.12
371.974	369.27
372.355	376.5
372.736	404.75
373.117	404.07
373.498	385.31
373.879	399.1
374.26	391.42
374.641	401.59
375.021	396.84
375.402	408.82
375.783	405.65
376.163	402.72
376.544	405.43
376.925	388.7
377.305	425.31
377.686	407.91
378.066	424.64
378.447	431.42
378.827	413.34
379.208	428.93
379.588	411.53
379.968	424.18
380.349	406.78
380.729	427.57
381.109	450.4
381.489	452.66
381.87	441.58
382.25	447.01
382.63	413.79
383.01	436.39
383.39	424.64
383.77	435.26
384.15	457.63
384.53	462.15
384.91	467.8
385.29	478.65
385.67	475.71
386.049	451.98
386.429	470.96
386.809	494.46
387.189	483.39
387.568	463.28
387.948	466.22
388.328	475.26
388.707	480.23
389.087	482.26
389.466	489.27
389.846	508.02
390.225	487.46
390.605	490.4
390.984	501.92
391.363	505.31
391.743	512.09
392.122	531.53
392.501	539.43
392.881	533.11
393.26	528.14
393.639	532.43
394.018	539.89
394.397	545.76
394.776	526.33
395.155	540.11
395.534	548.7
395.913	550.28
396.292	565.42
396.671	564.75
397.05	552.32
397.429	568.59
397.808	573.78
398.186	560.45
398.565	572.2
398.944	572.2
399.323	578.98
399.701	588.93
400.08	587.8
400.458	598.87
400.837	615.14
401.215	605.2
401.594	607
401.972	595.25
402.351	629.38
402.729	614.91
403.107	635.03
403.486	624.63
403.864	619.21
404.242	608.13
404.62	613.11
404.999	637.29
405.377	659.88
405.755	668.7
406.133	676.38
406.511	665.53
406.889	654.23
407.267	662.14
407.645	678.64
408.023	697.17
408.401	679.77
408.779	709.37
409.156	700.79
409.534	727.68
409.912	724.74
410.29	748.24
410.667	730.39
411.045	762.03
411.422	737.85
411.8	767.9
412.178	735.81
412.555	793.67
412.933	792.31
413.31	782.59
413.687	817.17
414.065	806.09
414.442	795.93
414.819	835.7
415.197	822.82
415.574	806.32
415.951	843.61
416.328	850.84
416.705	863.04
417.082	887.45
417.46	866.66
417.837	875.25
418.214	873.44
418.591	873.44
418.967	899.2
419.344	918.86
419.721	880.22
420.098	905.98
420.475	914.57
420.852	949.59
421.228	935.81
421.605	953.21
421.982	946.2
422.358	930.16
422.735	953.21
423.111	957.5
423.488	960.67
423.864	1003.15
424.241	991.63
424.617	985.07
424.994	1015.13
425.37	1023.49
425.746	1015.81
426.123	1023.49
426.499	1026.2
426.875	1065.07
427.251	1069.14
427.627	1106.88
428.003	1085.41
428.379	1097.16
428.756	1103.26
429.132	1128.12
429.507	1137.84
429.883	1157.5
430.259	1159.76
430.635	1182.81
431.011	1166.31
431.387	1179.87
431.763	1226.65
432.138	1237.04
432.514	1238.4
432.89	1236.37
433.265	1322.92
433.641	1275.46
434.016	1278.85
434.392	1316.14
434.767	1321.34
435.143	1354.78
435.518	1367.89
435.894	1379.41
436.269	1382.8
436.644	1425.74
437.02	1413.54
437.395	1427.77
437.77	1450.6
438.145	1472.74
438.52	1464.16
438.895	1479.75
439.271	1485.62
439.646	1478.85
440.021	1488.56
440.395	1503.25
440.77	1513.19
441.145	1505.96
441.52	1558.17
441.895	1561.33
442.27	1563.59
442.645	1558.62
443.019	1602.23
443.394	1618.73
443.769	1611.27
444.143	1603.59
444.518	1606.98
444.892	1637.26
445.267	1630.25
445.641	1654.21
446.016	1658.5
446.39	1646.75
446.764	1648.33
447.139	1682.68
447.513	1698.05
447.887	1707.54
448.262	1698.05
448.636	1735.79
449.01	1754.77
449.384	1732.85
449.758	1752.28
450.132	1785.28
450.506	1769.01
450.88	1796.8
451.254	1807.42
451.628	1856.01
452.002	1869.8
452.376	1855.56
452.75	1891.26
453.123	1914.99
453.497	1941.43
453.871	1944.37
454.244	1963.13
454.618	2004.93
454.992	2014.2
455.365	2033.41
455.739	2054.65
456.112	2067.08
456.486	2098.72
456.859	2141.88
457.232	2171.26
457.606	2176
457.979	2178.04
458.352	2243.57
458.725	2260.07
459.099	2239.5
459.472	2297.13
459.845	2352.49
460.218	2328.09
460.591	2381.87
460.964	2390.69
461.337	2418.26
461.71	2456.67
462.083	2511.13
462.456	2480.85
462.829	2519.72
463.201	2583.9
463.574	2572.6
463.947	2601.75
464.32	2654.63
464.692	2662.54
465.065	2684.46
465.438	2717.23
465.81	2749.09
466.183	2738.25
466.555	2823.67
466.928	2834.06
467.3	2791.58
467.672	2860.5
468.045	2923.33
468.417	2946.6
468.789	2949.09
469.161	2998.81
469.534	3062.53
469.906	3099.59
470.278	3117.67
470.65	3130.78
471.022	3196.31
471.394	3245.35
471.766	3267.5
472.138	3331
472.51	3354.95
472.882	3444.22
473.253	3424.33
473.625	3518.57
473.997	3560.15
474.369	3616.42
474.74	3629.75
475.112	3664.32
475.484	3768.73
475.855	3799.24
476.227	3830.42
476.598	3961.27
476.97	3944.54
477.341	4045.33
477.713	4075.39
478.084	4146.57
478.455	4267.7
478.827	4320.13
479.198	4377.07
479.569	4410.29
479.94	4517.86
480.311	4590.4
480.682	4685.54
481.053	4785.65
481.424	4813.45
481.795	4919.88
482.166	4944.52
482.537	5047.79
482.908	5166.66
483.279	5220.67
483.65	5263.83
484.021	5416.59
484.391	5487.78
484.762	5548.57
485.133	5642.8
485.503	5681.67
485.874	5823.14
486.244	5891.61
486.615	6003.7
486.985	6114.66
487.356	6195.78
487.726	6249.34
488.097	6428.77
488.467	6452.95
488.837	6622.89
489.207	6662.44
489.578	6798.03
489.948	6879.83
490.318	7018.59
490.688	7012.71
491.058	7174.29
491.428	7286.38
491.798	7318.01
492.168	7436.88
492.538	7547.61
492.908	7625.8
493.278	7833.93
493.648	7817.89
494.017	7910.77
494.387	8095.17
494.757	8136.75
495.126	8183.53
495.496	8282.96
495.866	8375.39
496.235	8467.81
496.605	8579.9
496.974	8646.11
497.344	8717.3
497.713	8844.53
498.082	8934.02
498.452	8928.37
498.821	9055.37
499.19	9119.32
499.559	9228.25
499.928	9307.79
500.298	9389.82
500.667	9458.07
501.036	9459.88
501.405	9533.32
501.774	9587.78
502.143	9681.57
502.512	9711.62
502.88	9887.21
503.249	9872.75
503.618	9948.68
503.987	10005.4
504.356	10076.36
504.724	10216.92
505.093	10220.08
505.462	10312.74
505.83	10349.57
506.199	10452.85
506.567	10602.45
506.936	10546.18
507.304	10667.98
507.672	10771.26
508.041	10763.57
508.409	10927.18
508.777	11022.55
509.145	11083.11
509.514	11114.3
509.882	11192.26
510.25	11249.89
510.618	11306.84
510.986	11399.94
511.354	11504.12
511.722	11624.57
512.09	11688.75
512.458	11686.94
512.826	11835.18
513.193	11770.33
513.561	11890.1
513.929	12015.97
514.297	12143.2
514.664	12314.49
515.032	12276.98
515.4	12440.59
515.767	12459.35
516.135	12510.19
516.502	12487.82
516.869	12722.62
517.237	12741.15
517.604	12774.59
517.972	12982.72
518.339	13092.78
518.706	13062.04
519.073	13215.94
519.44	13222.72
519.808	13385.65
520.175	13377.97
520.542	13610.96
520.909	13709.71
521.276	13729.37
521.643	13887.11
522.009	14046.88
522.376	14038.29
522.743	14170.26
523.11	14290.71
523.477	14442.35
523.843	14546.52
524.21	14710.81
524.577	14878.27
524.943	14970.47
525.31	15028.55
525.676	15229.44
526.043	15363.23
526.409	15459.27
526.776	15546.05
527.142	15662.65
527.508	15753.72
527.874	15946.94
528.241	15989.65
528.607	16167.05
528.973	16352.35
529.339	16364.33
529.705	16614.49
530.071	16755.51
530.437	16759.35
530.803	16883.64
531.169	17060.81
531.535	17024.43
531.901	17147.59
532.267	17233.46
532.632	17335.15
532.998	17489.5
533.364	17581.7
533.73	17737.17
534.095	17830.73
534.461	17988.92
534.826	17981.91
535.192	18097.62
535.557	18257.16
535.923	18294.9
536.288	18373.32
536.653	18528.79
537.019	18431.85
537.384	18594.1
537.749	18584.16
538.114	18756.81
538.479	18780.31
538.845	18930.59
539.21	18858.28
539.575	19134.43
539.94	19065.95
540.305	19228.21
540.67	19164.71
541.034	19251.94
541.399	19386.17
541.764	19481.54
542.129	19650.34
542.494	19536.9
542.858	19631.14
543.223	19674.53
543.587	19854.41
543.952	19871.13
544.316	19934.18
544.681	20109.99
545.045	20154.74
545.41	20183.89
545.774	20171.24
546.138	20193.16
546.503	20315.19
546.867	20413.04
547.231	20493.49
547.595	20588.85
547.959	20654.84
548.324	20734.84
548.688	20886.92
549.052	20863.19
549.416	20779.58
549.779	20886.92
550.143	20990.65
550.507	21081.49
550.871	21136.86
551.235	21098.67
551.599	21400.13
551.962	21327.14
552.326	21475.16
552.689	21571.42
553.053	21491.88
553.417	21716.96
553.78	21894.58
554.143	21845.54
554.507	21934.8
554.87	21960.34
555.234	22216.83
555.597	22171.18
555.96	22229.26
556.323	22293.44
556.686	22325.3
557.05	22634.67
557.413	22698.4
557.776	22629.25
558.139	22876.02
558.502	22940.65
558.865	22981.33
559.228	23176.13
559.59	23263.81
559.953	23459.51
560.316	23653.4
560.679	23531.82
561.041	23761.65
561.404	23851.82
561.767	24060.17
562.129	24030.12
562.492	24219.26
562.854	24362.31
563.217	24298.58
563.579	24447.05
563.941	24653.15
564.304	24779.93
564.666	24976.31
565.028	25008.85
565.39	25123.2
565.753	25499
566.115	25408.39
566.477	25522.73
566.839	25726.57
567.201	25956.62
567.563	26042.95
567.925	26245.43
568.287	26193
568.648	26401.81
569.01	26558.86
569.372	26930.15
569.734	26862.36
570.095	27101.45
570.457	27258.28
570.819	27463.7
571.18	27491.49
571.542	27738.72
571.903	27845.16
572.265	27877.93
572.626	28054.19
572.987	28220.52
573.349	28466.61
573.71	28563.33
574.071	28742.54
574.432	28892.14
574.794	29178
575.155	29144.78
575.516	29245.57
575.877	29512.23
576.238	29601.27
576.599	29627.94
576.96	30064.76
577.32	30053.24
577.681	30201.93
578.042	30407.8
578.403	30441.93
578.763	30551.98
579.124	30614.12
579.485	30897.05
579.845	31335.91
580.206	31069.25
580.566	31307.44
580.927	31300.89
581.287	31569.81
581.648	31563.03
582.008	32031.49
582.368	32123.46
582.728	32064.93
583.089	32294.08
583.449	32630.34
583.809	32779.72
584.169	33024.91
584.529	33133.83
584.889	33514.61
585.249	33538.79
585.609	33651.33
585.969	34132.22
586.329	34342.39
586.688	34732.66
587.048	34804.07
587.408	35166.32
587.768	35396.6
588.127	35752.07
588.487	35885.4
588.846	36517.47
589.206	36492.16
589.565	37000.17
589.925	37521.29
590.284	37888.51
590.643	38291.44
591.003	38702.5
591.362	39321.92
591.721	39418.19
592.08	39876.71
592.44	40433.98
592.799	40823.57
593.158	41238.93
593.517	41724.79
593.876	42137.21
594.235	42442.51
594.593	42959.79
594.952	43434.8
595.311	43796.6
595.67	44339.87
596.029	44835.9
596.387	45418.25
596.746	45873.84
597.104	46010.1
597.463	46425.01
597.822	47236.96
598.18	47367.36
598.538	47755.37
598.897	48353.54
599.255	48461.11
599.613	49331.37
599.972	49419.96
600.33	49839.16
600.688	50174.51
601.046	50560.72
601.404	51109.4
601.762	51341.49
602.12	51699.22
602.478	52076.38
602.836	52357.28
603.194	52414.68
603.552	52742.13
603.91	53084.95
604.268	53280.2
604.625	53627.76
604.983	53984.81
605.341	53988.2
605.698	54487.4
606.056	54793.83
606.413	54804
606.771	55279.92
607.128	55458.67
607.485	55578.89
607.843	55740.47
608.2	56070.18
608.557	56292.77
608.914	56443.05
609.272	56775.47
609.629	57014.79
609.986	57254.78
610.343	57278.96
610.7	57636.46
611.057	57658.84
611.414	57825.16
611.771	57948.55
612.127	58136.11
612.484	58310.35
612.841	58510.34
613.198	58586.04
613.554	58628.76
613.911	58939.71
614.267	59082.08
614.624	59170.44
614.98	59377.66
615.337	59611.1
615.693	59642.97
616.05	59732.91
616.406	59945.1
616.762	60005.22
617.118	60137.64
617.475	60178.77
617.831	60371.99
618.187	60470.97
618.543	60588.7
618.899	60789.15
619.255	60748.25
619.611	60858.53
619.967	61010.16
620.323	61142.36
620.678	61136.71
621.034	61151.85
621.39	61241.79
621.746	61274.11
622.101	61624.61
622.457	61371.96
622.812	61600.43
623.168	61671.61
623.523	61686.98
623.879	61808.78
624.234	61758.16
624.589	61810.82
624.945	61849.24
625.3	61938.95
625.655	62002.45
626.01	62032.73
626.365	62088.55
626.72	62095.33
627.075	62052.17
627.43	62116.57
627.785	62146.4
628.14	62188.89
628.495	62245.61
628.85	62312.5
629.205	62226.4
629.559	62371.03
629.914	62277.92
630.269	62389.11
630.623	62239.06
630.978	62243.58
631.332	62401.76
631.687	62421.2
632.041	62368.09
632.396	62355.66
632.75	62336.91
633.104	62406.28
633.459	62240.86
633.813	62300.07
634.167	62304.59
634.521	62351.82
634.875	62365.15
635.229	62308.66
635.583	62226.85
635.937	62258.26
636.291	62260.52
636.645	62274.53
636.999	62167.65
637.352	62288.55
637.706	62122.22
638.06	62300.07
638.413	62152.28
638.767	62101.66
639.121	62228.21
639.474	62139.62
639.828	62127.65
640.181	62061.89
640.534	62120.87
640.888	62017.82
641.241	61945.73
641.594	62025.5
641.947	62013.07
642.301	61928.78
642.654	62019.85
643.007	61882
643.36	61982.11
643.713	61908.44
644.066	62039.06
644.419	61845.62
644.771	61639.07
645.124	61418.29
645.477	61358.63
645.83	61256.03
646.182	61276.6
646.535	61236.37
646.888	61262.36
647.24	61236.14
647.593	61329.93
647.945	61211.74
648.298	61166.77
648.65	61067.11
649.002	61013.78
649.355	60907.11
649.707	60825.08
650.059	60883.39
650.411	61146.88
650.763	61286.31
651.115	61598.62
651.467	61510.71
651.819	61544.61
652.171	61475.23
652.523	61373.09
652.875	61413.99
653.227	61337.16
653.578	61498.06
653.93	61380.55
654.282	61342.58
654.633	61321.57
654.985	61346.65
655.337	61298.52
655.688	61323.83
656.039	61399.98
656.391	61150.04
656.742	61158.41
657.094	61202.02
657.445	61209.7
657.796	61231.85
658.147	61192.53
658.498	61198.4
658.849	61223.26
659.2	61148.46
659.551	61106.2
659.902	61255.13
660.253	61077.28
660.604	61125.86
660.955	61021.23
661.306	61149.59
661.656	61049.03
662.007	61054.91
662.358	61061.91
662.708	61119.99
663.059	61061.01
663.409	60953.21
663.76	61050.84
664.11	61078.63
664.461	61080.67
664.811	61039.99
665.161	60994.34
665.511	60983.72
665.862	61021.01
666.212	61063.49
666.562	61075.7
666.912	61004.51
667.262	60926.1
667.612	60967.45
667.962	60974.68
668.312	60935.36
668.662	61047
669.011	61041.35
669.361	60976.72
669.711	61001.35
670.06	60870.5
670.41	60897.62
670.76	60827.79
671.109	60969.26
671.459	60943.27
671.808	60963.61
672.157	60889.03
672.507	60818.08
672.856	60815.59
673.205	60869.37
673.554	60839.32
673.904	60802.26
674.253	61004.06
674.602	60797.51
674.951	60524.75
675.3	60388.93
675.649	60804.52
675.998	60736.5
676.346	60816.27
676.695	60862.14
677.044	60701.69
677.393	60748.47
677.741	60799.55
678.09	60647.69
678.438	60621.92
678.787	60714.35
679.135	60695.14
679.484	60534.02
679.832	60629.83
680.181	60563.17
680.529	60567.46
680.877	60480.23
681.225	60493.11
681.573	60610.4
681.922	60512.55
682.27	60449.5
682.618	60430.74
682.966	60373.79
683.314	60394.36
683.661	60379.44
684.009	60285.43
684.357	60240.69
684.705	60192.1
685.053	60163.63
685.4	60095.16
685.748	60072.56
686.095	60075.04
686.443	59998.44
686.79	59958.44
687.138	59954.14
687.485	59996.85
687.832	59912.79
688.18	59842.28
688.527	59722.96
688.874	59833.24
689.221	59720.25
689.568	59656.3
689.915	59550.54
690.262	59642.29
690.609	59529.07
690.956	59461.28
691.303	59459.69
691.65	59360.26
691.997	59271
692.344	59202.53
692.69	59216.08
693.037	59239.81
693.383	58974.28
693.73	59124.11
694.077	59010.21
694.423	58961.63
694.769	58875.75
695.116	58833.27
695.462	58704.69
695.808	58698.58
696.155	58724.57
696.501	58538.81
696.847	58541.98
697.193	58329.78
697.539	58548.53
697.885	58226.73
698.231	58210.91
698.577	58208.65
698.923	58176.79
699.269	57979.05
699.614	57921.88
699.96	57905.61
700.306	57864.03
700.651	57784.48
700.997	57646.63
701.342	57679.4
701.688	57624.94
702.033	57553.98
702.379	57537.94
702.724	57388.34
703.069	57441.67
703.415	57159.87
703.76	57170.04
704.105	57197.38
704.45	57103.15
704.795	57023.6
705.14	56956.26
705.485	56913.77
705.83	56782.48
706.175	56881
706.52	56657.96
706.865	56707
707.209	56578.87
707.554	56545.65
707.899	56441.02
708.243	56363.5
708.588	56337.29
708.932	56230.4
709.277	56265.88
709.621	56128.03
709.966	56030.41
710.31	56046.45
710.654	55829.05
710.998	55980.92
711.342	55894.82
711.687	55824.08
712.031	55763.07
712.375	55598.78
712.719	55533.02
713.063	55559.46
713.407	55610.3
713.75	55495.5
714.094	55461.83
714.438	55340.71
714.782	55365.79
715.125	55108.17
715.469	55274.94
715.812	55115.4
716.156	54981.85
716.499	55004.44
716.843	54912.69
717.186	54820.49
717.53	55003.31
717.873	54978.91
718.216	54901.62
718.559	54766.03
718.902	54502.99
719.246	54538.47
719.589	54474.29
719.932	54364.01
720.275	54359.04
720.617	54444.68
720.96	54273.39
721.303	54386.15
721.646	54352.26
721.989	54112.04
722.331	54219.38
722.674	54136.44
723.016	54065.03
723.359	54047.63
723.701	53994.98
724.044	53900.97
724.386	53716.12
724.729	53974.87
725.071	53891.93
725.413	53773.97
725.755	53761.76
726.097	53639.06
726.439	53592.96
726.782	53501.88
727.124	53599.96
727.465	53486.97
727.807	53436.12
728.149	53430.47
728.491	53306.18
728.833	53444.71
729.175	53326.07
729.516	53316.8
729.858	53274.32
730.199	53329.69
730.541	53213.76
730.882	53053.31
731.224	53051.95
731.565	53018.06
731.906	53064.38
732.248	53150.26
732.589	52934.44
732.93	52823.26
733.271	52890.37
733.612	52858.74
733.953	52876.36
734.294	52779.42
734.635	52828.91
734.976	52740.32
735.317	52668.91
735.658	52628.01
735.999	52545.3
736.339	52544.4
736.68	52590.95
737.021	52395.02
737.361	52399.77
737.702	52619.87
738.042	52446.77
738.383	52480.22
738.723	52452.42
739.063	52327.9
739.404	52491.74
739.744	52383.27
740.084	52357.73
740.424	52307.79
740.764	52261.92
741.104	52335.36
741.444	52292.42
741.784	52220.11
742.124	52267.34
742.464	52215.36
742.804	52094.01
743.143	52059.21
743.483	52180.34
743.823	51933.11
744.162	51979.89
744.502	52052.88
744.841	51964.07
745.181	52050.85
745.52	51863.96
745.86	51959.1
746.199	51809.73
746.538	51919.33
746.877	51880.68
747.216	51874.58
747.556	51852.44
747.895	51837.52
748.234	51841.81
748.573	51711.2
748.911	51585.78
749.25	51743.29
749.589	51473.46
749.928	51637.98
750.267	51608.83
750.605	51579.67
750.944	51582.84
751.283	51449.73
751.621	51586.45
751.96	51400.47
752.298	51360.02
752.636	51342.17
752.975	51265.33
753.313	51141.95
753.651	51323.41
753.989	51209.06
754.327	51230.31
754.666	50931.1
755.004	51180.36
755.342	50986.7
755.679	51029.63
756.017	50791.45
756.355	51004.55
756.693	50799.81
757.031	50910.99
757.368	50684.33
757.706	50720.04
758.044	50567.5
758.381	50573.37
758.719	50540.83
759.056	50563.43
759.394	50430.78
759.731	50237.34
760.068	50181.75
760.405	50203.67
760.743	50082.77
761.08	50111.24
761.417	49996.89
761.754	49854.97
762.091	49896.33
762.428	49645.71
762.765	49544.25
763.102	49649.1
763.438	49463.12
763.775	49128.67
764.112	49229.45
764.449	49270.58
764.785	49077.14
765.122	48931.16
765.458	48699.98
765.795	48725.96
766.131	48769.35
766.467	48640.77
766.804	48341.79
767.14	48264.96
767.476	48201.68
767.812	48025.42
768.148	48143.61
768.485	47963.72
768.821	47706.78
769.157	47659.55
769.492	47519.67
769.828	47325.55
770.164	47109.28
770.5	46999.23
770.836	47048.49
771.171	46846.69
771.507	46724.21
771.842	46486.7
772.178	46406.7
772.513	46275.63
772.849	46267.27
773.184	46169.87
773.519	46038.35
773.855	45840.84
774.19	45644.24
774.525	45564.24
774.86	45408.99
775.195	45329.22
775.53	45173.06
775.865	44936.69
776.2	44786.41
776.535	44526.08
776.87	44345.06
777.205	44331.5
777.539	44169.7
777.874	44091.06
778.209	43769.48
778.543	43849.03
778.878	43529.72
779.212	43538.08
779.547	43174.47
779.881	43125.66
780.215	42919.56
780.55	42861.03
780.884	42506.69
781.218	42437.32
781.552	42631.44
781.886	42165.91
782.22	42082.07
782.554	41852.7
782.888	41552.82
783.222	41454.52
783.556	41323.45
783.889	41083.68
784.223	40957.81
784.557	40888.43
784.89	41040.29
785.224	40768.89
785.557	40424.26
785.891	40398.5
786.224	40324.6
786.558	40179.97
786.891	40004.39
787.224	39783.6
787.557	39582.25
787.891	39639.65
788.224	39470.16
788.557	39265.2
788.89	39320.34
789.223	39189.27
789.556	39009.84
789.888	38919.89
790.221	38677.42
790.554	38392.68
790.887	38353.58
791.219	38180.93
791.552	38235.62
791.884	37999.47
792.217	37845.12
792.549	37662.98
792.882	37387.73
793.214	37395.87
793.546	37437.9
793.879	37141.18
794.211	36930.79
794.543	36977.35
794.875	36910.23
795.207	36874.3
795.539	36771.02
795.871	36620.97
796.203	36522.9
796.535	36249.46
796.867	36277.7
797.198	36044.94
797.53	35970.59
797.862	35585.52
798.193	35879.52
798.525	35612.19
798.856	35754.55
799.188	35212.65
799.519	35197.96
799.85	34965.65
800.182	35139.43
800.513	34988.7
800.844	34591.87
801.175	34774.69
801.506	34831.87
801.837	34541.7
802.168	34363.18
802.499	34511.88
802.83	34203.86
803.161	34136.74
803.491	33949.4
803.822	34047.71
804.153	33768.62
804.483	33608.62
804.814	33465.57
805.145	33642.52
805.475	33516.65
805.805	33399.59
806.136	33455.18
806.466	33244.34
806.796	33202.3
807.126	33054.06
807.457	32994.17
807.787	32951.69
808.117	32657.01
808.447	32648.42
808.777	32747.85
809.107	32455.43
809.436	32281.2
809.766	32365.49
810.096	32297.92
810.426	32077.59
810.755	32168.66
811.085	32078.27
811.414	32000.53
811.744	31848.89
812.073	31943.36
812.403	31714.21
812.732	31585.62
813.061	31582.69
813.39	31423.82
813.719	31364.16
814.049	31553.08
814.378	31342.47
814.707	31190.61
815.036	31281
815.365	30979.09
815.693	30826.1
816.022	30890.28
816.351	30765.53
816.68	30597.63
817.008	30790.39
817.337	30399.67
817.665	30487.35
817.994	30471.08
818.322	30521.02
818.651	30340.46
818.979	30135.72
819.307	30242.38
819.636	30156.96
819.964	30078.77
820.292	30104.76
820.62	30005.55
820.948	30093.91
821.276	30139.33
821.604	29937.08
821.932	30048.72
822.259	29856.63
822.587	30000.81
822.915	29891.66
823.243	29899.79
823.57	29778.67
823.898	29975.27
824.225	29789.29
824.553	29829.29
824.88	29890.98
825.207	29930.53
825.535	29800.36
825.862	30017.98
826.189	29860.25
826.516	30118.54
826.843	30038.77
827.17	30159.9
827.497	29984.76
827.824	30101.6
828.151	30028.15
828.478	29854.6
828.805	30085.1
829.131	29964.2
829.458	29993.8
829.785	29805.56
830.111	29876.74
830.438	30093.23
830.764	29945.89
831.09	30029.28
831.417	29814.37
831.743	30062.27
832.069	29846.01
832.395	29843.3
832.722	29844.43
833.048	29829.06
833.374	29747.48
833.7	29676.75
834.026	29809.17
834.351	29650.08
834.677	29867.48
835.003	29731.44
835.329	29715.39
835.654	29636.52
835.98	29440.14
836.306	29695.05
836.631	29407.38
836.956	29723.98
837.282	29602.85
837.607	29435.4
837.932	29440.14
838.258	29467.71
838.583	29263.2
838.908	29220.49
839.233	29292.35
839.558	29202.18
839.883	28979.37
840.208	28937.56
840.533	29013.71
840.858	29032.25
841.182	28904.79
841.507	28895.98
841.832	28822.53
842.156	28875.87
842.481	28695.3
842.805	28686.04
843.13	28577.34
843.454	28571.24
843.778	28501.64
844.103	28562.65
844.427	28287.86
844.751	28443.79
845.075	28249.44
845.399	28161.31
845.723	28021.65
846.047	28106.62
846.371	27844.93
846.695	27734.2
847.019	27722.68
847.343	27579.18
847.666	27356.36
847.99	27387.09
848.313	27212.86
848.637	27211.5
848.96	27091.96
849.284	27150.71
849.607	26833.43
849.931	26862.36
850.254	26623.49
850.577	26389.83
850.9	26245.43
851.223	26341.02
851.546	26085.88
851.869	26031.65
852.192	26238.65
852.515	25848.6
852.838	25696.74
853.161	25872.55
853.483	25539
853.806	25689.51
854.129	25566.8
854.451	25425.11
854.774	25331.1
855.096	25225.11
855.419	25023.08
855.741	25122.52
856.063	24870.55
856.385	24865.8
856.708	24782.19
857.03	24628.75
857.352	24718.91
857.674	24594.62
857.996	24399.15
858.318	24346.27
858.64	24424.23
858.961	24267.17
859.283	24264.23
859.605	24123
859.926	24155.99
860.248	24093.17
860.57	23924.13
860.891	24030.79
861.212	23671.71
861.534	23633.97
861.855	23795.77
862.176	23889.78
862.498	23667.19
862.819	23696.11
863.14	23508.55
863.461	23509.68
863.782	23450.47
864.103	23449.57
864.424	23300.42
864.745	23445.05
865.065	23171.16
865.386	23190.82
865.707	23306.29
866.027	23114.21
866.348	23056.13
866.668	23068.33
866.989	23087.99
867.309	22866.76
867.63	22781.11
867.95	22962.8
868.27	22789.02
868.59	22938.85
868.91	22748.57
869.23	22713.09
869.55	22586.09
869.87	22788.12
870.19	22639.87
870.51	22610.95
870.83	22604.17
871.15	22377.28
871.469	22415.92
871.789	22471.97
872.109	22411.4
872.428	22387.22
872.748	22372.53
873.067	22251.86
873.386	22269.94
873.706	22252.08
874.025	22166.89
874.344	22084.18
874.663	22065.87
874.982	22007.8
875.301	22047.12
875.62	22022.71
875.939	21963.5
876.258	21951.75
876.577	21850.74
876.896	21928.93
877.214	21813.9
877.533	21852.77
877.852	21751.08
878.17	21811.19
878.489	21697.07
878.807	21747.69
879.125	21563.29
879.444	21509.05
879.762	21408.04
880.08	21496.62
880.398	21488.71
880.716	21434.93
881.034	21352.9
881.352	21340.24
881.67	21281.04
881.988	21354.71
882.306	21180.25
882.624	21217.99
882.941	21157.65
883.259	21088.95
883.577	21002.85
883.894	20874.49
884.212	20948.39
884.529	20839.69
884.846	20796.76
885.164	20700.26
885.481	20705.46
885.798	20674.72
886.115	20505.69
886.432	20686.7
886.75	20591.11
887.067	20526.03
887.383	20412.36
887.7	20366.48
888.017	20209.43
888.334	20357.44
888.651	20347.95
888.967	20241.97
889.284	20132.14
889.6	20028.41
889.917	19964.46
890.233	20013.73
890.55	19865.03
890.866	19843.11
891.182	19842.43
891.498	19765.14
891.815	19735.77
892.131	19583.91
892.447	19564.47
892.763	19468.65
893.079	19410.13
893.395	19368.09
893.71	19418.49
894.026	19275.67
894.342	19250.81
894.657	19167.19
894.973	19119.51
895.289	19126.74
895.604	18984.15
895.92	18850.82
896.235	18784.15
896.55	18835
896.865	18699.41
897.181	18750.93
897.496	18607.43
897.811	18557.72
898.126	18451.28
898.441	18324.73
898.756	18342.13
899.071	18290.83
899.386	18377.16
899.7	18186.88
900.015	17875.25
900.33	17924.51
900.644	17832.09
900.959	17937.62
901.273	17769.49
901.588	17871.86
901.902	17771.3
902.216	17695.37
902.531	17503.51
902.845	17584.64
903.159	17407.69
903.473	17396.39
903.787	17322.72
904.101	17129.06
904.415	17267.36
904.729	17095.16
905.042	17088.6
905.356	16982.17
905.67	16998.66
905.984	16968.83
906.297	16887.03
906.611	16761.61
906.924	16720.93
907.237	16682.51
907.551	16629.86
907.864	16445.46
908.177	16454.04
908.491	16427.83
908.804	16355.52
909.117	16219.93
909.43	16065.35
909.743	16102.42
910.056	16007.73
910.368	15960.05
910.681	15799.82
910.994	15898.81
911.307	15769.09
911.619	15589.66
911.932	15742.43
912.244	15513.96
912.557	15545.82
912.869	15315.09
913.181	15285.94
913.494	15403.9
913.806	15182.44
914.118	15099.28
914.43	15125.49
914.742	15137.24
915.054	14958.72
915.366	14939.96
915.678	14916.01
915.99	14847.76
916.302	14732.96
916.613	14740.19
916.925	14684.83
917.236	14680.08
917.548	14545.62
917.859	14467.2
918.171	14430.82
918.482	14246.19
918.794	14336.59
919.105	14162.81
919.416	14237.15
919.727	14107.21
920.038	14086.88
920.349	13971.85
920.66	13908.35
920.971	13906.77
921.282	13826.32
921.593	13765.75
921.903	13683.5
922.214	13681.46
922.525	13531.86
922.835	13444.63
923.146	13351.75
923.456	13372.09
923.767	13298.65
924.077	13272.21
924.387	13224.53
924.697	13114.25
925.008	13042.38
925.318	13047.81
925.628	13027.24
925.938	12964.42
926.248	12858.66
926.558	12765.33
926.867	12713.58
927.177	12676.52
927.487	12558.55
927.796	12561.94
928.106	12503.41
928.416	12433.59
928.725	12463.19
929.034	12392.91
929.344	12324.21
929.653	12275.85
929.962	12089.19
930.271	12079.7
930.581	12059.58
930.89	11904.56
931.199	11973.48
931.508	11969.64
931.817	11893.03
932.125	11858.46
932.434	11831.57
932.743	11672.48
933.051	11654.85
933.36	11629.09
933.669	11593.16
933.977	11469.32
934.286	11479.03
934.594	11404.46
934.902	11412.37
935.21	11321.3
935.519	11307.74
935.827	11244.92
936.135	11155.2
936.443	11116.11
936.751	11043.11
937.059	11020.06
937.367	10930.35
937.674	10989.1
937.982	10928.31
938.29	10818.03
938.597	10844.93
938.905	10798.83
939.213	10670.92
939.52	10608.77
939.827	10667.3
940.135	10558.61
940.442	10473.86
940.749	10510.92
941.056	10415.33
941.363	10331.04
941.67	10352.51
941.977	10239.97
942.284	10182.12
942.591	10172.85
942.898	10173.31
943.205	10164.04
943.511	10029.58
943.818	10100.31
944.125	9873.88
944.431	9921.11
944.738	9855.8
945.044	9851.96
945.35	9783.94
945.657	9770.6
945.963	9712.75
946.269	9701.91
946.575	9675.01
946.881	9565.86
947.187	9537.84
947.493	9527.67
947.799	9534
948.105	9418.75
948.41	9320.9
948.716	9307.57
949.022	9279.77
949.327	9226.89
949.633	9145.99
949.938	9176.04
950.244	9110.06
950.549	9035.26
950.854	9035.48
951.16	9006.56
951.465	8941.93
951.77	8901.93
952.075	8876.16
952.38	8860.8
952.685	8819.44
952.99	8736.51
953.294	8709.84
953.599	8597.08
953.904	8626.91
954.209	8550.52
954.513	8595.49
954.818	8477.53
955.122	8509.62
955.426	8456.97
955.731	8408.83
956.035	8296.97
956.339	8283.19
956.643	8250.64
956.948	8252
957.252	8179.01
957.556	8230.08
957.86	8116.64
958.163	8183.75
958.467	8041.38
958.771	8041.84
959.075	8021.05
959.378	7918.45
959.682	7945.34
959.985	7869.41
960.289	7786.25
960.592	7748.96
960.896	7771.11
961.199	7782.86
961.502	7705.57
961.805	7657.67
962.108	7634.16
962.411	7590.55
962.714	7494.51
963.017	7550.55
963.32	7553.04
963.623	7452.47
963.926	7447.95
964.228	7417.67
964.531	7334.96
964.833	7348.52
965.136	7297
965.438	7254.06
965.741	7242.99
966.043	7224.46
966.345	7135.65
966.648	7187.62
966.95	7088.19
967.252	7096.32
967.554	7009.55
967.856	7005.93
968.158	6972.71
968.46	6886.84
968.761	6891.36
969.063	6886.16
969.365	6823.56
969.666	6754.41
969.968	6695.66
970.269	6697.01
970.571	6689.33
970.872	6660.63
971.174	6593.06
971.475	6669.44
971.776	6577.24
972.077	6540.63
972.378	6531.37
972.679	6528.2
972.98	6486.85
973.281	6390.35
973.582	6425.61
973.883	6368.89
974.183	6347.19
974.484	6287.53
974.785	6278.72
975.085	6254.76
975.386	6316.23
975.686	6230.36
975.986	6189
976.287	6152.85
976.587	6109.23
976.887	6091.38
977.187	6094.09
977.487	6056.35
977.787	6061.55
978.087	5982
978.387	5994.43
978.687	5935.45
978.987	5903.14
979.286	5857.04
979.586	5895.68
979.885	5796.7
980.185	5806.64
980.484	5705.85
980.784	5715.12
981.083	5732.74
981.382	5674.44
981.682	5676.7
981.981	5624.72
982.28	5618.17
982.579	5551.96
982.878	5594.44
983.177	5546.76
983.475	5468.12
983.774	5438.74
984.073	5428.8
984.372	5398.97
984.67	5370.04
984.969	5333.89
985.267	5323.04
985.566	5303.83
985.864	5262.02
986.162	5278.75
986.461	5218.86
986.759	5234.68
987.057	5144.51
987.355	5160.1
987.653	5163.27
987.951	5125.76
988.249	5066.77
988.547	5102.03
988.844	5044.4
989.142	5053.67
989.44	4976.38
989.737	4968.25
990.035	4923.27
990.332	4948.58
990.63	4928.92
990.927	4924.86
991.224	4859.32
991.521	4810.51
991.819	4807.8
992.116	4753.79
992.413	4711.98
992.71	4711.98
993.006	4711.08
993.303	4677.41
993.6	4612.1
993.897	4633.79
994.193	4624.3
994.49	4541.36
994.787	4552.66
995.083	4509.27
995.379	4512.66
995.676	4529.39
995.972	4490.07
996.268	4383.63
996.565	4400.35
996.861	4422.95
997.157	4375.72
997.453	4347.47
997.749	4314.93
998.044	4293.91
998.34	4318.77
998.636	4279.68
998.932	4210.3
999.227	4198.55
999.523	4215.95
999.818	4154.03
1000.114	4146.12
1000.409	4100.02
1000.704	4088.49
1001	4059.12
1001.295	4062.73
1001.59	3999.91
1001.885	4039.23
1002.18	3989.51
1002.475	3932.11
1002.77	3965.56
1003.065	3898.67
1003.359	3900.48
1003.654	3912.68
1003.949	3897.54
1004.243	3794.04
1004.538	3764.21
1004.832	3792
1005.127	3740.25
1005.421	3728.05
1005.715	3704.1
1006.009	3731.67
1006.304	3684.44
1006.598	3658.45
1006.892	3632.91
1007.186	3635.4
1007.48	3601.28
1007.773	3537.1
1008.067	3516.98
1008.361	3469.53
1008.655	3495.29
1008.948	3480.37
1009.242	3467.72
1009.535	3422.52
1009.829	3420.26
1010.122	3378.23
1010.415	3375.29
1010.708	3334.16
1011.001	3330.1
1011.295	3306.14
1011.588	3305.01
1011.881	3203.32
1012.173	3239.7
1012.466	3247.16
1012.759	3195.86
1013.052	3204.22
1013.344	3172.36
1013.637	3136.2
1013.93	3077.45
1014.222	3089.88
1014.514	3059.59
1014.807	3079.71
1015.099	3021.86
1015.391	3000.39
1015.683	2999.48
1015.976	2958.35
1016.268	2926.72
1016.56	2942.54
1016.851	2936.43
1017.143	2880.39
1017.435	2894.85
1017.727	2853.05
1018.018	2844.23
1018.31	2854.63
1018.602	2744.12
1018.893	2786.61
1019.185	2713.62
1019.476	2750.22
1019.767	2733.05
1020.058	2709.77
1020.35	2674.75
1020.641	2652.15
1020.932	2641.75
1021.223	2611.24
1021.514	2603.79
1021.804	2590.45
1022.095	2560.85
1022.386	2568.99
1022.677	2522.66
1022.967	2532.6
1023.258	2501.64
1023.548	2482.66
1023.839	2452.38
1024.129	2442.44
1024.419	2444.02
1024.709	2420.52
1025	2398.82
1025.29	2395.88
1025.58	2325.6
1025.87	2361.99
1026.16	2313.17
1026.449	2299.61
1026.739	2270.01
1027.029	2261.88
1027.319	2254.42
1027.608	2243.12
1027.898	2220.29
1028.187	2191.59
1028.477	2178.94
1028.766	2150.69
1029.055	2138.04
1029.344	2183.46
1029.634	2128.55
1029.923	2126.96
1030.212	2093.52
1030.501	2079.28
1030.79	2059.17
1031.078	2014.88
1031.367	2017.14
1031.656	1999.51
1031.945	1993.86
1032.233	2003.13
1032.522	1974.88
1032.81	1966.52
1033.099	1961.54
1033.387	1953.41
1033.675	1908.89
1033.963	1896.01
1034.251	1902.11
1034.54	1857.37
1034.828	1878.61
1035.116	1821.21
1035.403	1845.39
1035.691	1799.51
1035.979	1817.59
1036.267	1767.65
1036.554	1799.97
1036.842	1761.1
1037.129	1753.87
1037.417	1753.41
1037.704	1732.85
1037.992	1714.55
1038.279	1715.22
1038.566	1692.85
1038.853	1692.85
1039.14	1692.85
