Data from 17-1436_FLMS001491_008.txt Node
Date: Thu Apr 19 16:29:12 BST 2018
User: hsy
Spectrometer: FLMS00149
Trigger mode: 0
Integration Time (sec): 1.000000E-2
Scans to average: 10
Electric dark correction enabled: true
Nonlinearity correction enabled: false
Boxcar width: 0
XAxis mode: Wavelengths
Number of Pixels in Spectrum: 2048
>>>>>Begin Spectral Data<<<<<
341.393	2.33
341.776	2.33
342.16	2.33
342.543	-65.01
342.927	-71.57
343.31	-72.24
343.693	-62.98
344.077	-75.63
344.46	-68.4
344.843	-57.55
345.226	-48.29
345.61	-29.31
345.993	-4.45
346.376	-3.55
346.759	0.75
347.142	20.64
347.525	38.94
347.908	61.31
348.291	99.73
348.674	79.39
349.057	121.65
349.44	114.87
349.823	138.6
350.206	173.4
350.588	224.7
350.971	228.31
351.354	244.36
351.737	266.05
352.119	274.19
352.502	307.86
352.884	312.6
353.267	306.05
353.65	341.08
354.032	313.96
354.414	345.15
354.797	339.5
355.179	342.43
355.562	374.52
355.944	360.29
356.326	346.28
356.709	341.3
357.091	365.03
357.473	385.37
357.855	394.86
358.238	368.42
358.62	399.83
359.002	369.33
359.384	356.45
359.766	367.97
360.148	361.87
360.53	379.5
360.912	355.54
361.294	361.19
361.676	347.86
362.057	353.73
362.439	359.84
362.821	363.22
363.203	377.24
363.584	363.45
363.966	347.63
364.348	362.55
364.729	345.15
365.111	350.12
365.493	359.16
365.874	374.52
366.256	339.72
366.637	369.1
367.019	366.61
367.4	367.29
367.781	354.64
368.163	364.58
368.544	374.07
368.925	355.77
369.306	360.51
369.688	362.32
370.069	366.16
370.45	380.63
370.831	364.81
371.212	359.38
371.593	376.11
371.974	364.35
372.355	379.95
372.736	375.43
373.117	362.77
373.498	379.04
373.879	377.24
374.26	387.86
374.641	352.6
375.021	358.03
375.402	364.13
375.783	381.98
376.163	394.64
376.544	375.43
376.925	362.09
377.305	384.92
377.686	398.25
378.066	380.63
378.447	377.01
378.827	384.92
379.208	389.44
379.588	394.64
379.968	410.46
380.349	402.77
380.729	405.71
381.109	407.52
381.489	444.13
381.87	413.62
382.25	388.31
382.63	422.88
383.01	408.87
383.39	412.94
383.77	436.9
384.15	430.34
384.53	414.52
384.91	433.51
385.29	432.6
385.67	438.25
386.049	419.27
386.429	434.86
386.809	448.65
387.189	448.19
387.568	450
387.948	467.85
388.328	453.17
388.707	433.73
389.087	453.62
389.466	452.71
389.846	468.53
390.225	475.31
390.605	484.35
390.984	485.03
391.363	507.85
391.743	472.6
392.122	489.1
392.501	470.34
392.881	502.88
393.26	499.27
393.639	527.06
394.018	509.21
394.397	486.16
394.776	523.45
395.155	503.56
395.534	515.31
395.913	496.55
396.292	526.84
396.671	507.63
397.05	514.41
397.429	525.03
397.808	547.4
398.186	537.46
398.565	555.54
398.944	513.5
399.323	538.14
399.701	545.14
400.08	562.77
400.458	563.22
400.837	560.96
401.215	565.03
401.594	563.45
401.972	568.42
402.351	593.95
402.729	577.68
403.107	578.59
403.486	586.95
403.864	586.04
404.242	596.89
404.62	600.51
404.999	584.46
405.377	579.72
405.755	598.47
406.133	654.06
406.511	622.43
406.889	645.25
407.267	628.3
407.645	642.54
408.023	647.74
408.401	665.36
408.779	645.25
409.156	659.04
409.534	672.14
409.912	679.6
410.29	704.91
410.667	705.59
411.045	710.79
411.422	686.38
411.8	735.19
412.178	720.73
412.555	747.85
412.933	758.92
413.31	756.43
413.687	761.18
414.065	758.24
414.442	771.12
414.819	780.84
415.197	765.93
415.574	813.16
415.951	786.72
416.328	802.08
416.705	795.98
417.082	838.92
417.46	809.99
417.837	842.53
418.214	849.31
418.591	878.01
418.967	842.53
419.344	864.68
419.721	860.61
420.098	878.92
420.475	895.41
420.852	885.47
421.228	882.99
421.605	906.26
421.982	905.13
422.358	908.75
422.735	936.77
423.111	934.51
423.488	943.32
423.864	937
424.241	933.83
424.617	955.53
424.994	966.82
425.37	990.1
425.746	981.97
426.123	992.59
426.499	999.82
426.875	995.98
427.251	1043.21
427.627	1025.58
428.003	1021.74
428.379	1053.38
428.756	1073.94
429.132	1078.01
429.507	1080.72
429.883	1098.8
430.259	1110.78
430.635	1139.48
431.011	1123.88
431.387	1146.71
431.763	1156.88
432.138	1186.71
432.514	1181.28
432.89	1199.59
433.265	1220.83
433.641	1229.64
434.016	1256.76
434.392	1272.81
434.767	1287.49
435.143	1242.52
435.518	1285.01
435.894	1331.11
436.269	1345.12
436.644	1359.81
437.02	1354.16
437.395	1346.7
437.77	1366.59
438.145	1394.84
438.52	1404.55
438.895	1412.46
439.271	1405.46
439.646	1424.44
440.021	1432.58
440.395	1478.9
440.77	1448.39
441.145	1460.15
441.52	1485.46
441.895	1499.69
442.27	1484.1
442.645	1480.26
443.019	1524.55
443.394	1518.45
443.769	1509.18
444.143	1511.22
444.518	1522.29
444.892	1536.08
445.267	1542.63
445.641	1566.36
446.016	1590.99
446.39	1590.99
446.764	1597.77
447.139	1628.28
447.513	1597.99
447.887	1587.37
448.262	1612.46
448.636	1625.56
449.01	1684.55
449.384	1688.16
449.758	1688.39
450.132	1696.52
450.506	1736.52
450.88	1721.83
451.254	1713.92
451.628	1730.65
452.002	1759.57
452.376	1758.89
452.75	1796.41
453.123	1780.59
453.497	1840.7
453.871	1846.12
454.244	1893.13
454.618	1907.37
454.992	1927.93
455.365	1945.1
455.739	1982.62
456.112	1990.53
456.486	1978.32
456.859	1995.5
457.232	2070.07
457.606	2068.04
457.979	2042.5
458.352	2117.76
458.725	2140.13
459.099	2189.39
459.472	2178.32
459.845	2228.71
460.218	2230.75
460.591	2275.04
460.964	2247.47
461.337	2329.73
461.71	2344.87
462.083	2393.68
462.456	2384.19
462.829	2408.82
463.201	2437.07
463.574	2428.03
463.947	2468.03
464.32	2510.51
464.692	2493.34
465.065	2570.17
465.438	2615.14
465.81	2604.52
466.183	2622.83
466.555	2682.26
466.928	2666.89
467.3	2697.4
467.672	2720.9
468.045	2812.2
468.417	2774.46
468.789	2816.72
469.161	2841.8
469.534	2939.2
469.906	2942.59
470.278	2952.54
470.65	3024.4
471.022	3035.7
471.394	3081.12
471.766	3105.98
472.138	3149.82
472.51	3207.9
472.882	3237.73
473.253	3262.36
473.625	3354.78
473.997	3403.82
474.369	3412.18
474.74	3422.13
475.112	3488.34
475.484	3551.16
475.855	3607.43
476.227	3617.83
476.598	3757.49
476.97	3784.38
477.341	3842
477.713	3888.1
478.084	3987.99
478.455	4061.88
478.827	4079.74
479.198	4181.2
479.569	4192.28
479.94	4323.35
480.311	4350.46
480.682	4444.93
481.053	4564.24
481.424	4593.4
481.795	4588.42
482.166	4758.14
482.537	4796.1
482.908	4898.47
483.279	4915.65
483.65	5076.32
484.021	5134.4
484.391	5183.44
484.762	5267.5
485.133	5295.98
485.503	5364.9
485.874	5547.5
486.244	5560.83
486.615	5705.01
486.985	5783.42
487.356	5809.86
487.726	5970.76
488.097	6060.93
488.467	6118.1
488.837	6272.9
489.207	6343.41
489.578	6421.37
489.948	6542.05
490.318	6653.45
490.688	6604.42
491.058	6814.35
491.428	6859.33
491.798	7005.99
492.168	7142.93
492.538	7152.65
492.908	7307.45
493.278	7403.04
493.648	7438.75
494.017	7484.85
494.387	7678.51
494.757	7691.85
495.126	7763.03
495.496	7852.97
495.866	7947.88
496.235	8078.05
496.605	8159.86
496.974	8264.49
497.344	8310.81
497.713	8383.13
498.082	8506.29
498.452	8575.66
498.821	8646.17
499.19	8645.04
499.559	8734.53
499.928	8930.23
500.298	8953.51
500.667	9086.39
501.036	9129.77
501.405	9192.37
501.774	9207.96
502.143	9388.52
502.512	9357.34
502.88	9505.36
503.249	9584.23
503.618	9631.46
503.987	9685.01
504.356	9778.34
504.724	9914.84
505.093	9937.21
505.462	9962.75
505.83	10053.59
506.199	10190.09
506.567	10294.49
506.936	10341.49
507.304	10436.41
507.672	10472.79
508.041	10578.1
508.409	10599.34
508.777	10759.79
509.145	10856.06
509.514	10899.45
509.882	10992.32
510.25	10994.81
510.618	11172.66
510.986	11146.44
511.354	11305.08
511.722	11472.54
512.09	11512.76
512.458	11540.33
512.826	11646.77
513.193	11625.08
513.561	11820.32
513.929	11833.43
514.297	12027.1
514.664	12100.09
515.032	12118.62
515.4	12228.9
515.767	12361.55
516.135	12409.01
516.502	12349.35
516.869	12672.28
517.237	12697.59
517.604	12649.23
517.972	12851.94
518.339	12921.31
518.706	12984.81
519.073	13041.99
519.44	13131.7
519.808	13333.28
520.175	13406.05
520.542	13533.5
520.909	13620.28
521.276	13633.38
521.643	13911.34
522.009	13948.18
522.376	14060.04
522.743	14094.16
523.11	14342.74
523.477	14541.38
523.843	14519.69
524.21	14740.7
524.577	14914.25
524.943	14964.42
525.31	14996.06
525.676	15256.84
526.043	15259.1
526.409	15487.12
526.776	15612.54
527.142	15724.18
527.508	15801.01
527.874	15938.18
528.241	16100.21
528.607	16130.27
528.973	16376.14
529.339	16252.3
529.705	16560.54
530.071	16622.23
530.437	16733.19
530.803	16967.99
531.169	17055.89
531.535	17043.69
531.901	17233.74
532.267	17283.01
532.632	17464.47
532.998	17493.85
533.364	17600.51
533.73	17733.39
534.095	17904.68
534.461	17965.47
534.826	18035.75
535.192	18129.31
535.557	18266.93
535.923	18213.6
536.288	18396.42
536.653	18470.32
537.019	18555.97
537.384	18604.55
537.749	18652.24
538.114	18828.73
538.479	18800.03
538.845	18895.17
539.21	18928.61
539.575	18949.63
539.94	19013.81
540.305	19250.86
540.67	19201.83
541.034	19258.55
541.399	19368.83
541.764	19430.07
542.129	19447.69
542.494	19569.05
542.858	19717.52
543.223	19642.49
543.587	19787.12
543.952	19780.12
544.316	19863.5
544.681	19909.15
545.045	20011.97
545.41	20080.22
545.774	20097.4
546.138	20189.14
546.503	20309.82
546.867	20406.99
547.231	20445.18
547.595	20468.23
547.959	20593.2
548.324	20613.31
548.688	20621
549.052	20765.85
549.416	20714.1
549.779	20791.84
550.143	20914.55
550.507	21118.61
550.871	21056.24
551.235	21116.8
551.599	21351.6
551.962	21350.7
552.326	21429.56
552.689	21575.1
553.053	21497.36
553.417	21484.48
553.78	21879.04
554.143	21838.59
554.507	21967.4
554.87	22050.11
555.234	22196.32
555.597	22068.42
555.96	22304.12
556.323	22387.73
556.686	22423.89
557.05	22669.76
557.413	22679.25
557.776	22752.47
558.139	22903.88
558.502	23003.31
558.865	22988.39
559.228	23137.32
559.59	23272.45
559.953	23247.59
560.316	23644.19
560.679	23620.47
561.041	23762.84
561.404	23886.22
561.767	24076.05
562.129	23941.14
562.492	24252.77
562.854	24365.31
563.217	24278.98
563.579	24504.96
563.941	24613.21
564.304	24785.18
564.666	24977.72
565.028	25050.71
565.39	25130.71
565.753	25392.4
566.115	25473.3
566.477	25643.69
566.839	25596.23
567.201	26075.54
567.563	25912.84
567.925	26108.08
568.287	26325.03
568.648	26397.57
569.01	26540.84
569.372	26915.3
569.734	26774.96
570.095	27036.42
570.457	27305.12
570.819	27309.64
571.18	27464.89
571.542	27570.87
571.903	27654.71
572.265	27912.11
572.626	28070.29
572.987	28201.36
573.349	28405.43
573.71	28564.52
574.071	28677.28
574.432	28854
574.794	29051.51
575.155	29098.74
575.516	29023.71
575.877	29272.75
576.238	29402.69
576.599	29483.36
576.96	29745.5
577.32	29745.28
577.681	29945.95
578.042	30208.77
578.403	30263
578.763	30354.53
579.124	30478.82
579.485	30677.68
579.845	30776.89
580.206	30937.34
580.566	30993.61
580.927	31061.17
581.287	31437.21
581.648	31321.96
582.008	31639.92
582.368	31665
582.728	31705.23
583.089	31843.08
583.449	31949.29
583.809	32177.98
584.169	32408.94
584.529	32336.85
584.889	32791.98
585.249	32645.09
585.609	32687.8
585.969	33042.82
586.329	33012.31
586.688	33331.62
587.048	33450.26
587.408	33591.73
587.768	33717.38
588.127	33815.45
588.487	34077.37
588.846	34582.66
589.206	34310.58
589.565	34498.82
589.925	34990.11
590.284	34868.76
590.643	35173.84
591.003	35431.68
591.362	35727.49
591.721	35823.31
592.08	35940.37
592.44	36419.68
592.799	36502.84
593.158	36774.92
593.517	36813.79
593.876	37186.89
594.235	37225.08
594.593	37373.78
594.952	37848.79
595.311	37897.38
595.67	38215.79
596.029	38571.71
596.387	38961.98
596.746	39167.18
597.104	39113.39
597.463	39240.39
597.822	39807.16
598.18	39792.92
598.538	40037.66
598.897	40440.59
599.255	40389.07
599.613	41115.83
599.972	40940.24
600.33	41172.1
600.688	41386.33
601.046	41737.96
601.404	42103.82
601.762	42086.42
602.12	42500.2
602.478	42639.4
602.836	42786.52
603.194	42767.99
603.552	43265.83
603.91	43306.73
604.268	43576.55
604.625	43676.21
604.983	44089.98
605.341	43963.21
605.698	44245.69
606.056	44826.69
606.413	44590.08
606.771	45026.91
607.128	45144.65
607.485	45148.49
607.843	45291.31
608.2	45771.3
608.557	45782.6
608.914	45811.75
609.272	46065.07
609.629	46329.7
609.986	46602.91
610.343	46632.97
610.7	47127.42
611.057	47030.47
611.414	47049.68
611.771	47376.9
612.127	47573.06
612.484	47739.83
612.841	47842.88
613.198	47735.99
613.554	47845.59
613.911	48313.83
614.267	48261.4
614.624	48378.69
614.98	48537.33
615.337	48704.55
615.693	48770.31
616.05	48874.49
616.406	49163.98
616.762	49095.95
617.118	49186.57
617.475	49215.73
617.831	49448.04
618.187	49571.42
618.543	49549.5
618.899	49825.2
619.255	49816.16
619.611	49806.67
619.967	50073.1
620.323	50200.33
620.678	50067.91
621.034	49994.46
621.39	50036.72
621.746	50225.19
622.101	50442.36
622.457	50239.88
622.812	50595.12
623.168	50556.71
623.523	50563.49
623.879	50766.19
624.234	50615.91
624.589	50798.96
624.945	50767.78
625.3	50842.35
625.655	50815.91
626.01	50869.47
626.365	50871.28
626.72	50728.91
627.075	50906.53
627.43	50949.24
627.785	50840.09
628.14	50971.84
628.495	50966.41
628.85	51111.04
629.205	50932.06
629.559	51177.93
629.914	50920.31
630.269	50920.54
630.623	50844.16
630.978	50812.29
631.332	50934.78
631.687	50940.88
632.041	50935.68
632.396	50924.83
632.75	50855
633.104	50978.62
633.459	50758.28
633.813	50747.66
634.167	50743.6
634.521	50829.69
634.875	50770.26
635.229	50714.44
635.583	50554.67
635.937	50610.94
636.291	50607.55
636.645	50576.59
636.999	50546.99
637.352	50572.3
637.706	50250.95
638.06	50464.05
638.413	50298.64
638.767	50205.76
639.121	50394.9
639.474	50118.07
639.828	50201.24
640.181	50052.09
640.534	50188.58
640.888	49948.59
641.241	49919.89
641.594	49996.27
641.947	50050.28
642.301	49879.89
642.654	50039.88
643.007	49880.12
643.36	49985.87
643.713	49884.18
644.066	49802.38
644.419	49690.74
644.771	49273.58
645.124	48931.67
645.477	48826.58
645.83	48833.81
646.182	48700.03
646.535	48602.63
646.888	48675.85
647.24	48552.24
647.593	48805.57
647.945	48487.16
648.298	48468.4
648.65	48220.72
649.002	48081.74
649.355	47994.97
649.707	47796.33
650.059	47935.31
650.411	48474.95
650.763	48645.8
651.115	49148.38
651.467	49013.7
651.819	48948.84
652.171	48856.64
652.523	48675.4
652.875	48744.33
653.227	48602.63
653.578	48887.82
653.93	48799.01
654.282	48538.23
654.633	48455.97
654.985	48559.7
655.337	48592.24
655.688	48570.77
656.039	48580.26
656.391	48220.72
656.742	48442.64
657.094	48420.72
657.445	48465.69
657.796	48410.1
658.147	48194.96
658.498	48439.7
658.849	48504.56
659.2	48276.32
659.551	48217.79
659.902	48434.73
660.253	48131.91
660.604	48375.97
660.955	48129.88
661.306	48295.75
661.656	48057.11
662.007	48244.45
662.358	48200.61
662.708	48128.75
663.059	48074.51
663.409	47905.25
663.76	48025.25
664.11	48031.35
664.461	48023.44
664.811	48141.18
665.161	48106.38
665.511	48015.98
665.862	48018.02
666.212	48040.62
666.562	48044.91
666.912	48101.4
667.262	47873.61
667.612	47945.7
667.962	48026.6
668.312	47864.12
668.662	48119.71
669.011	48092.14
669.361	47832.26
669.711	47989.54
670.06	47891.92
670.41	47779.83
670.76	47811.24
671.109	47948.87
671.459	47877.68
671.808	47860.28
672.157	47914.52
672.507	47735.09
672.856	47733.96
673.205	47802.43
673.554	47899.15
673.904	47722.43
674.253	47952.26
674.602	47815.08
674.951	47279.05
675.3	46991.6
675.649	47822.77
675.998	47697.35
676.346	47775.09
676.695	47721.3
677.044	47491.03
677.393	47582.55
677.741	47662.09
678.09	47546.84
678.438	47536.22
678.787	47671.59
679.135	47544.81
679.484	47391.59
679.832	47472.72
680.181	47424.13
680.529	47349.11
680.877	47346.62
681.225	47351.14
681.573	47481.53
681.922	47228.89
682.27	46981.43
682.618	47117.48
682.966	46977.59
683.314	47055.1
683.661	47029.12
684.009	46847.88
684.357	46677.04
684.705	46645.4
685.053	46632.06
685.4	46406.99
685.748	46470.04
686.095	46393.2
686.443	46279.08
686.79	46312.75
687.138	46293.54
687.485	46235.69
687.832	46103.72
688.18	46153.43
688.527	45968.58
688.874	45861.24
689.221	45968.58
689.568	45659.66
689.915	45662.6
690.262	45652.43
690.609	45589.38
690.956	45500.34
691.303	45455.82
691.65	45235.49
691.997	45096.96
692.344	44937.19
692.69	44859.23
693.037	44899.46
693.383	44680.03
693.73	44708.73
694.077	44515.51
694.423	44486.58
694.769	44333.59
695.116	44284.1
695.462	44132.47
695.808	44130.44
696.155	44041.85
696.501	43861.29
696.847	43856.54
697.193	43624.01
697.539	43720.28
697.885	43461.3
698.231	43284.58
698.577	43258.59
698.923	43275.77
699.269	43034.42
699.614	42758.04
699.96	42755.78
700.306	42760.75
700.651	42662
700.997	42460.88
701.342	42418.84
701.688	42308.34
702.033	42142.24
702.379	42089.81
702.724	41988.57
703.069	42004.16
703.415	41506.55
703.76	41498.64
704.105	41581.8
704.45	41584.06
704.795	41253
705.14	41217.52
705.485	41179.78
705.83	40943.17
706.175	40993.12
706.52	41011.2
706.865	40735.04
707.209	40766.68
707.554	40600.81
707.899	40655.5
708.243	40472.45
708.588	40438.1
708.932	40180.03
709.277	40209.41
709.621	40116.08
709.966	39965.57
710.31	39982.52
710.654	39620.05
710.998	39771.91
711.342	39771.23
711.687	39552.25
712.031	39438.81
712.375	39130.57
712.719	39199.04
713.063	39249.43
713.407	39334.86
713.75	38969.67
714.094	39012.83
714.438	38735.55
714.782	38772.38
715.125	38715.44
715.469	38814.42
715.812	38425.73
716.156	38353.86
716.499	38346.63
716.843	38411.72
717.186	38225.28
717.53	38371.27
717.873	38404.94
718.216	38256.01
718.559	37995.23
718.902	37736.25
719.246	37902.8
719.589	37797.49
719.932	37632.3
720.275	37697.84
720.617	37704.39
720.96	37656.48
721.303	37619.65
721.646	37568.12
721.989	37359.54
722.331	37485.86
722.674	37279.99
723.016	37331.74
723.359	37181.01
723.701	37282.71
724.044	37020.57
724.386	36921.13
724.729	37086.78
725.071	37031.19
725.413	36997.97
725.755	36879.55
726.097	36743.96
726.439	36575.15
726.782	36700.8
727.124	36694.02
727.465	36562.27
727.807	36466.68
728.149	36602.5
728.491	36382.62
728.833	36458.77
729.175	36437.76
729.516	36342.17
729.858	36158.22
730.199	36421.49
730.541	36252
730.882	36131.78
731.224	36041.61
731.565	36019.69
731.906	35986.02
732.248	35922.97
732.589	35698.79
732.93	35667.83
733.271	35845.23
733.612	35739.92
733.953	35953.25
734.294	35730.88
734.635	35397.33
734.976	35793.25
735.317	35423.77
735.658	35404.11
735.999	35288.41
736.339	35378.35
736.68	35330.44
737.021	35144.68
737.361	35179.26
737.702	35246.15
738.042	35109.88
738.383	35178.13
738.723	35171.35
739.063	34952.82
739.404	35165.47
739.744	35044.35
740.084	34843.45
740.424	34779.27
740.764	34928.42
741.104	34971.35
741.444	34708.99
741.784	34676.22
742.124	34746.28
742.464	34623.34
742.804	34624.47
743.143	34583.12
743.483	34627.86
743.823	34312.16
744.162	34267.64
744.502	34408.66
744.841	34203.69
745.181	34405.27
745.52	34237.36
745.86	34209.57
746.199	34125.95
746.538	34255.22
746.877	34320.07
747.216	34178.61
747.556	34044.83
747.895	34032.4
748.234	34073.52
748.573	33969.35
748.911	33869.69
749.25	33839.18
749.589	33737.94
749.928	33837.6
750.267	33757.6
750.605	33571.17
750.944	33573.88
751.283	33545.4
751.621	33599.19
751.96	33439.19
752.298	33396.71
752.636	33369.36
752.975	33274.68
753.313	33142.25
753.651	33333.43
753.989	33114.45
754.327	33111.74
754.666	32711.3
755.004	32916.04
755.342	32863.16
755.679	32955.36
756.017	32582.26
756.355	32784.75
756.693	32699.1
757.031	32782.94
757.368	32549.72
757.706	32469.05
758.044	32228.38
758.381	32329.84
758.719	32220.92
759.056	32260.47
759.394	32194.48
759.731	31986.12
760.068	31834.04
760.405	31769.18
760.743	31694.6
761.08	31735.06
761.417	31654.61
761.754	31450.32
762.091	31420.94
762.428	31267.5
762.765	31257.55
763.102	31153.6
763.438	31084.23
763.775	30865.47
764.112	30900.05
764.449	30804.68
764.785	30766.72
765.122	30584.58
765.458	30483.79
765.795	30261.65
766.131	30318.82
766.467	30204.47
766.804	30093.06
767.14	29999.96
767.476	29853.97
767.812	29823.92
768.148	29835.22
768.485	29594.32
768.821	29449.47
769.157	29406.98
769.492	29381.9
769.828	29174.67
770.164	29027.33
770.5	29015.58
770.836	28952.3
771.171	28796.83
771.507	28674.12
771.842	28481.36
772.178	28499.89
772.513	28453.11
772.849	28421.47
773.184	28236.39
773.519	28182.38
773.855	27898.09
774.19	27894.03
774.525	27771.32
774.86	27758.21
775.195	27701.26
775.53	27408.39
775.865	27363.19
776.2	27293.59
776.535	26954.16
776.87	27155.51
777.205	26908.29
777.539	26866.71
777.874	26811.8
778.209	26593.27
778.543	26581.52
778.878	26453.84
779.212	26418.36
779.547	26377.23
779.881	26285.48
780.215	25982.44
780.55	25987.18
780.884	25773.4
781.218	25791.93
781.552	25818.83
781.886	25632.17
782.22	25416.13
782.554	25452.73
782.888	25184.49
783.222	25073.31
783.556	25078.73
783.889	24967.55
784.223	24821.34
784.557	24850.72
784.89	24848.91
785.224	24665.86
785.557	24397.17
785.891	24432.87
786.224	24411.18
786.558	24305.87
786.891	24090.28
787.224	23993.79
787.557	23876.28
787.891	23905.88
788.224	23690.75
788.557	23769.16
788.89	23628.6
789.223	23625.44
789.556	23395.39
789.888	23367.14
790.221	23191.55
790.554	23180.7
790.887	23240.36
791.219	23028.17
791.552	22956.08
791.884	22835.85
792.217	22749.98
792.549	22730.32
792.882	22484.68
793.214	22497.78
793.546	22418.24
793.879	22358.8
794.211	22260.28
794.543	22378.01
794.875	22207.17
795.207	22212.37
795.539	21976.22
795.871	22082.65
796.203	21917.46
796.535	21854.19
796.867	21783.45
797.198	21786.39
797.53	21632.95
797.862	21457.59
798.193	21554.53
798.525	21414.42
798.856	21471.6
799.188	21124.94
799.519	21136.92
799.85	21058.27
800.182	21018.28
800.513	21112.74
800.844	20784.38
801.175	20970.14
801.506	20972.4
801.837	20739.41
802.168	20693.54
802.499	20767.43
802.83	20556.82
803.161	20538.97
803.491	20540.77
803.822	20447.89
804.153	20362.93
804.483	20205.19
804.814	20090.62
805.145	20158.64
805.475	20191.18
805.805	20057.17
806.136	20069.15
806.466	19880.45
806.796	19936.27
807.126	19807.69
807.457	19743.28
807.787	19763.84
808.117	19636.62
808.447	19639.55
808.777	19635.03
809.107	19511.65
809.436	19433.23
809.766	19362.95
810.096	19355.04
810.426	19238.89
810.755	19342.61
811.085	19164.31
811.414	19249.06
811.744	19125.67
812.073	19085.44
812.403	18999.35
812.732	18903.98
813.061	18986.24
813.39	18766.58
813.719	18793.47
814.049	18926.8
814.378	18738.79
814.707	18652.91
815.036	18651.56
815.365	18630.77
815.693	18494.27
816.022	18533.37
816.351	18398.91
816.68	18320.72
817.008	18373.82
817.337	18281.85
817.665	18253.6
817.994	18210.21
818.322	18362.53
818.651	18299.93
818.979	18168.18
819.307	18178.8
819.636	18097
819.964	18018.81
820.292	18081.63
820.62	17975.19
820.948	18005.7
821.276	18126.83
821.604	17983.55
821.932	18127.05
822.259	17978.35
822.587	17974.29
822.915	17855.42
823.243	17969.99
823.57	17845.48
823.898	18027.62
824.225	17962.54
824.553	17977.9
824.88	17992.59
825.207	18055.64
825.535	17910.33
825.862	17983.1
826.189	17916.44
826.516	18150.78
826.843	17981.07
827.17	18081.63
827.497	18069.65
827.824	17926.6
828.151	18055.64
828.478	17921.86
828.805	18052.25
829.131	18027.85
829.458	17973.61
829.785	17857.91
830.111	17933.61
830.438	18158.92
830.764	18001.41
831.09	18008.18
831.417	17954.17
831.743	18074.17
832.069	17951.46
832.395	17893.39
832.722	17955.53
833.048	17838.7
833.374	17952.14
833.7	17849.54
834.026	17969.09
834.351	17942.42
834.677	17955.98
835.003	17865.14
835.329	17886.38
835.654	17871.69
835.98	17713.96
836.306	17787.85
836.631	17723.67
836.956	17831.92
837.282	17745.37
837.607	17727.97
837.932	17697.01
838.258	17703.56
838.583	17684.58
838.908	17582.89
839.233	17509.44
839.558	17549.67
839.883	17396.45
840.208	17383.79
840.533	17366.85
840.858	17483.23
841.182	17427.18
841.507	17475.54
841.832	17252.72
842.156	17339.73
842.481	17188.77
842.805	17205.27
843.13	17141.09
843.454	17155.78
843.778	17058.83
844.103	17053.63
844.427	16999.85
844.751	17003.69
845.075	16927.31
845.399	16826.97
845.723	16717.82
846.047	16808.89
846.371	16783.58
846.695	16730.25
847.019	16582.91
847.343	16469.24
847.666	16396.25
847.99	16389.7
848.313	16307.89
848.637	16343.37
848.96	16217.5
849.284	16248.46
849.607	16059.08
849.931	16022.25
850.254	15974.11
850.577	15874
850.9	15767.34
851.223	15777.96
851.546	15773.22
851.869	15667.46
852.192	15718.75
852.515	15554.69
852.838	15424.98
853.161	15481.25
853.483	15362.38
853.806	15291.19
854.129	15287.35
854.451	15166.45
854.774	15134.14
855.096	15096.4
855.419	15084.42
855.741	15154.93
856.063	14947.93
856.385	14911.54
856.708	14825.9
857.03	14824.54
857.352	14816.4
857.674	14858.66
857.996	14731.89
858.318	14688.5
858.64	14562.85
858.961	14507.71
859.283	14539.35
859.605	14537.32
859.926	14488.5
860.248	14481.27
860.57	14351.56
860.891	14421.84
861.212	14346.81
861.534	14309.07
861.855	14179.81
862.176	14231.33
862.498	14215.06
862.819	14182.75
863.14	14175.29
863.461	14178.45
863.782	14066.14
864.103	14100.94
864.424	14006.26
864.745	14067.72
865.065	13956.77
865.386	13907.5
865.707	13947.5
866.027	13949.99
866.348	13854.62
866.668	13848.97
866.989	13784.34
867.309	13745.02
867.63	13758.35
867.95	13732.82
868.27	13632.48
868.59	13793.61
868.91	13678.13
869.23	13674.51
869.55	13580.28
869.87	13637.9
870.19	13532.37
870.51	13554.06
870.83	13529.66
871.15	13463.45
871.469	13504.35
871.789	13470.68
872.109	13483.56
872.428	13395.2
872.748	13460.96
873.067	13424.8
873.386	13378.25
873.706	13286.5
874.025	13329.21
874.344	13306.16
874.663	13320.17
874.982	13282.89
875.301	13248.08
875.62	13099.39
875.939	13067.3
876.258	13164.02
876.577	13124.7
876.896	13080.4
877.214	12981.2
877.533	13092.61
877.852	13035.89
878.17	13084.7
878.489	13073.17
878.807	12994.76
879.125	12994.31
879.444	12899.39
879.762	12927.87
880.08	12964.7
880.398	12832.95
880.716	12845.83
881.034	12834.76
881.352	12875.89
881.67	12696.01
881.988	12764.71
882.306	12745.72
882.624	12759.74
882.941	12618.04
883.259	12556.12
883.577	12583.69
883.894	12517.26
884.212	12593.86
884.529	12487.88
884.846	12503.92
885.164	12435
885.481	12508.67
885.798	12442.68
886.115	12355.45
886.432	12453.3
886.75	12375.79
887.067	12318.62
887.383	12247.88
887.7	12368.33
888.017	12129.7
888.334	12265.06
888.651	12082.24
888.967	12105.52
889.284	12129.02
889.6	11979.42
889.917	11929.02
890.233	11920.89
890.55	11951.17
890.866	11900.32
891.182	11897.84
891.498	11903.03
891.815	11802.92
892.131	11764.06
892.447	11805.86
892.763	11623.04
893.079	11639.99
893.395	11685.87
893.71	11578.98
894.026	11573.33
894.342	11569.26
894.657	11487.9
894.973	11473.67
895.289	11435.25
895.604	11479.99
895.92	11338.3
896.235	11300.56
896.55	11263.73
896.865	11257.85
897.181	11243.39
897.496	11241.13
897.811	11177.86
898.126	11159.55
898.441	11059.89
898.756	11002.95
899.071	10929.05
899.386	10986.45
899.7	10890.18
900.015	10864.19
900.33	10786.91
900.644	10747.13
900.959	10769.73
901.273	10730.64
901.588	10689.28
901.902	10667.59
902.216	10628.72
902.531	10574.03
902.845	10547.36
903.159	10470.76
903.473	10477.76
903.787	10435.05
904.101	10319.57
904.415	10355.5
904.729	10330.19
905.042	10260.37
905.356	10205
905.67	10217.2
905.984	10179.69
906.297	10214.72
906.611	10103.08
906.924	10109.86
907.237	10005.91
907.551	10013.14
907.864	9935.63
908.177	9923.2
908.491	9902.64
908.804	9803.2
909.117	9732.47
909.43	9743.54
909.743	9651.34
910.056	9702.19
910.368	9664.9
910.681	9545.81
910.994	9618.12
911.307	9487.96
911.619	9481.4
911.932	9466.04
912.244	9352.59
912.557	9352.59
912.869	9298.13
913.181	9321.18
913.494	9285.93
913.806	9166.61
914.118	9151.92
914.43	9138.81
914.742	9114.63
915.054	9096.78
915.366	9033.73
915.678	8992.38
915.99	8931.36
916.302	8922.32
916.613	8906.5
916.925	8873.06
917.236	8842.32
917.548	8794.64
917.859	8735.21
918.171	8760.29
918.482	8682.55
918.794	8650.01
919.105	8615.66
919.416	8539.51
919.727	8516.68
920.038	8506.29
920.349	8439.4
920.66	8412.96
920.971	8400.08
921.282	8379.74
921.593	8285.5
921.903	8323.02
922.214	8281.66
922.525	8182.68
922.835	8212.74
923.146	8110.82
923.456	8097.94
923.767	8040.54
924.077	8029.69
924.387	8035.34
924.697	7937.04
925.008	8001.89
925.318	7903.59
925.628	7881.67
925.938	7879.64
926.248	7806.19
926.558	7799.19
926.867	7772.52
927.177	7676.48
927.487	7664.28
927.796	7607.1
928.106	7660.89
928.416	7588.57
928.725	7576.59
929.034	7502.7
929.344	7522.81
929.653	7490.04
929.962	7425.41
930.271	7422.02
930.581	7377.05
930.89	7257.51
931.199	7275.59
931.508	7288.47
931.817	7247.56
932.125	7182.03
932.434	7185.64
932.743	7095.7
933.051	7149.94
933.36	7076.72
933.669	7021.35
933.977	6984.75
934.286	7017.06
934.594	6947.23
934.902	6937.06
935.21	6913.11
935.519	6860.68
935.827	6863.62
936.135	6767.12
936.443	6762.6
936.751	6752.44
937.059	6783.62
937.367	6718.09
937.674	6652.78
937.982	6658.43
938.29	6592.89
938.597	6581.14
938.905	6599.67
939.213	6510.41
939.52	6543.18
939.827	6479.9
940.135	6491.65
940.442	6439
940.749	6362.62
941.056	6390.41
941.363	6369.62
941.67	6285.33
941.977	6255.73
942.284	6242.39
942.591	6283.07
942.898	6213.69
943.205	6155.39
943.511	6126.01
943.818	6129.4
944.125	6067.48
944.431	6056.18
944.738	6019.8
945.044	5976.41
945.35	5998.33
945.657	5940.71
945.963	5950.87
946.269	5933.47
946.575	5897.32
946.881	5842.4
947.187	5850.99
947.493	5807.6
947.799	5817.32
948.105	5723.99
948.41	5768.05
948.716	5717.89
949.022	5665.68
949.327	5668.17
949.633	5627.49
949.938	5618.68
950.244	5650.32
950.549	5578.91
950.854	5599.7
951.16	5527.38
951.465	5509.3
951.77	5483.54
952.075	5465.24
952.38	5440.38
952.685	5415.75
952.99	5376.43
953.294	5365.81
953.599	5335.07
953.904	5294.17
954.209	5227.28
954.513	5288.29
954.818	5246.49
955.122	5251.23
955.426	5211.68
955.731	5122.2
956.035	5126.72
956.339	5126.26
956.643	5099.6
956.948	5037.9
957.252	5042.42
957.556	5053.5
957.86	4973.05
958.163	4993.39
958.467	4982.09
958.771	4982.76
959.075	4960.62
959.378	4930.56
959.682	4879.26
959.985	4876.78
960.289	4841.75
960.592	4854.18
960.896	4802.88
961.199	4785.26
961.502	4780.28
961.805	4744.8
962.108	4745.03
962.411	4743.9
962.714	4665.94
963.017	4662.09
963.32	4678.82
963.623	4609.89
963.926	4669.55
964.228	4589.78
964.531	4561.08
964.833	4549.78
965.136	4524.25
965.438	4533.06
965.741	4459.84
966.043	4465.49
966.345	4473.17
966.648	4431.82
966.95	4360.86
967.252	4357.24
967.554	4348.66
967.856	4321.31
968.158	4310.24
968.46	4296.68
968.761	4278.38
969.063	4277.7
969.365	4224.37
969.666	4221.2
969.968	4186.63
970.269	4184.37
970.571	4171.03
970.872	4160.41
971.174	4129.23
971.475	4127.87
971.776	4081.77
972.077	4085.39
972.378	4075.9
972.679	4042.45
972.98	4048.55
973.281	4030.25
973.582	3992.06
973.883	3959.51
974.183	3967.42
974.484	3973.98
974.785	3924.04
975.085	3935.79
975.386	3860.31
975.686	3902.79
975.986	3842.23
976.287	3822.12
976.587	3805.39
976.887	3840.2
977.187	3811.04
977.487	3766.75
977.787	3745.51
978.087	3750.71
978.387	3724.72
978.687	3745.96
978.987	3702.57
979.286	3666.41
979.586	3651.73
979.885	3665.96
980.185	3637.72
980.484	3600.43
980.784	3601.33
981.083	3607.66
981.382	3569.92
981.682	3559.75
981.981	3559.53
982.28	3530.83
982.579	3486.53
982.878	3518.4
983.177	3469.13
983.475	3468.23
983.774	3427.55
984.073	3395.46
984.372	3401.79
984.67	3419.42
984.969	3366.76
985.267	3369.93
985.566	3371.51
985.864	3324.73
986.162	3338.06
986.461	3295.35
986.759	3305.97
987.057	3271.17
987.355	3303.94
987.653	3257.61
987.951	3222.81
988.249	3217.16
988.547	3213.77
988.844	3219.2
989.142	3177.84
989.44	3138.52
989.737	3142.36
990.035	3116.15
990.332	3133.1
990.63	3098.29
990.927	3089.25
991.224	3058.97
991.521	3032.53
991.819	3035.7
992.116	3014.68
992.413	3004.74
992.71	2991.86
993.006	2961.12
993.303	2988.24
993.6	2992.53
993.897	2964.51
994.193	2927
994.49	2900.79
994.787	2929.26
995.083	2885.87
995.379	2822.14
995.676	2870.96
995.972	2865.31
996.268	2831.63
996.565	2835.02
996.861	2819.43
997.157	2804.29
997.453	2758.19
997.749	2776.04
998.044	2762.71
998.34	2755.48
998.636	2756.16
998.932	2717.51
999.227	2721.35
999.523	2666.44
999.818	2651.98
1000.114	2654.24
1000.409	2644.75
1000.704	2623.05
1001	2607.01
1001.295	2611.53
1001.59	2564.07
1001.885	2588.03
1002.18	2545.09
1002.475	2529.04
1002.77	2529.72
1003.065	2520.91
1003.359	2489.72
1003.654	2489.72
1003.949	2451.53
1004.243	2488.59
1004.538	2450.18
1004.832	2424.41
1005.127	2426.67
1005.421	2377.86
1005.715	2400.69
1006.009	2417.86
1006.304	2398.65
1006.598	2337.86
1006.892	2331.76
1007.186	2315.94
1007.48	2301.25
1007.773	2293.12
1008.067	2259.67
1008.361	2260.35
1008.655	2257.64
1008.948	2258.32
1009.242	2230.07
1009.535	2191.43
1009.829	2221.93
1010.122	2203.63
1010.415	2188.71
1010.708	2176.06
1011.001	2178.77
1011.295	2134.25
1011.588	2106.23
1011.881	2133.8
1012.173	2094.25
1012.466	2055.84
1012.759	2076.85
1013.052	2080.47
1013.344	2047.7
1013.637	2062.39
1013.93	2062.84
1014.222	2020.13
1014.514	2016.97
1014.807	1971.77
1015.099	1988.49
1015.391	1972.9
1015.683	1981.04
1015.976	1929.29
1016.268	1934.26
1016.56	1922.51
1016.851	1956.18
1017.143	1930.64
1017.435	1904.65
1017.727	1860.59
1018.018	1886.35
1018.31	1848.38
1018.602	1853.36
1018.893	1828.95
1019.185	1844.54
1019.476	1788.27
1019.767	1795.73
1020.058	1762.74
1020.35	1744.66
1020.641	1734.26
1020.932	1775.62
1021.223	1740.82
1021.514	1735.17
1021.804	1720.93
1022.095	1710.53
1022.386	1695.39
1022.677	1668.95
1022.967	1672.12
1023.258	1670.31
1023.548	1633.02
1023.839	1652.23
1024.129	1614.72
1024.419	1622.17
1024.709	1575.85
1025	1610.42
1025.29	1583.31
1025.58	1581.72
1025.87	1584.21
1026.16	1562.74
1026.449	1526.36
1026.739	1521.16
1027.029	1551.22
1027.319	1532.46
1027.608	1524.78
1027.898	1498.34
1028.187	1485.23
1028.477	1477.09
1028.766	1459.92
1029.055	1470.77
1029.344	1445.46
1029.634	1425.8
1029.923	1432.12
1030.212	1395.29
1030.501	1403.42
1030.79	1409.75
1031.078	1385.8
1031.367	1388.73
1031.656	1369.98
1031.945	1343.76
1032.233	1374.05
1032.522	1350.77
1032.81	1323.65
1033.099	1312.8
1033.387	1315.06
1033.675	1311.9
1033.963	1289.53
1034.251	1300.83
1034.54	1268.06
1034.828	1270.77
1035.116	1249.3
1035.403	1260.15
1035.691	1229.87
1035.979	1230.55
1036.267	1225.12
1036.554	1210.43
1036.842	1200.72
1037.129	1223.77
1037.417	1216.76
1037.704	1192.13
1037.992	1195.52
1038.279	1160.72
1038.566	1167.27
1038.853	1167.27
1039.14	1167.27
