Data from 17-1436_FLMS001491_005.txt Node
Date: Thu Apr 19 16:29:04 BST 2018
User: hsy
Spectrometer: FLMS00149
Trigger mode: 0
Integration Time (sec): 1.000000E-2
Scans to average: 10
Electric dark correction enabled: true
Nonlinearity correction enabled: false
Boxcar width: 0
XAxis mode: Wavelengths
Number of Pixels in Spectrum: 2048
>>>>>Begin Spectral Data<<<<<
341.393	-23.02
341.776	-23.02
342.16	-23.02
342.543	-45.39
342.927	-67.99
343.31	-75.22
343.693	-69.35
344.077	-67.54
344.46	-47.43
344.843	-57.6
345.226	-39.74
345.61	-22.34
345.993	-21.44
346.376	6.81
346.759	3.87
347.142	18.11
347.525	41.16
347.908	48.39
348.291	82.06
348.674	87.26
349.057	113.02
349.44	126.13
349.823	155.73
350.206	176.29
350.588	227.14
350.971	224.88
351.354	230.98
351.737	266.69
352.119	292.9
352.502	291.09
352.884	315.73
353.267	310.08
353.65	316.18
354.032	335.16
354.414	348.95
354.797	340.81
355.179	362.05
355.562	360.02
355.944	357.98
356.326	360.47
356.709	378.1
357.091	353.92
357.473	358.44
357.855	354.6
358.238	380.81
358.62	372.9
359.002	380.81
359.384	390.53
359.766	377.87
360.148	363.63
360.53	368.15
360.912	365.67
361.294	372.22
361.676	376.97
362.057	355.05
362.439	367.02
362.821	372.9
363.203	367.25
363.584	385.33
363.966	346.91
364.348	352.11
364.729	351.43
365.111	363.86
365.493	357.98
365.874	369.06
366.256	373.8
366.637	369.51
367.019	363.86
367.4	359.34
367.781	355.95
368.163	367.93
368.544	378.32
368.925	359.11
369.306	352.56
369.688	353.01
370.069	357.76
370.45	357.76
370.831	353.69
371.212	372.9
371.593	385.1
371.974	363.63
372.355	371.32
372.736	367.25
373.117	388.72
373.498	364.54
373.879	353.01
374.26	356.18
374.641	361.15
375.021	360.02
375.402	382.62
375.783	401.37
376.163	407.25
376.544	390.53
376.925	391.43
377.305	378.32
377.686	384.65
378.066	380.58
378.447	405.44
378.827	393.01
379.208	411.54
379.588	409.73
379.968	409.73
380.349	369.74
380.729	423.29
381.109	400.7
381.489	379.45
381.87	390.98
382.25	406.57
382.63	419.45
383.01	406.57
383.39	431.43
383.77	431.43
384.15	418.55
384.53	427.36
384.91	411.54
385.29	437.08
385.67	425.78
386.049	420.36
386.429	452.9
386.809	471.88
387.189	448.15
387.568	430.98
387.948	450.41
388.328	458.77
388.707	457.64
389.087	458.77
389.466	482.73
389.846	467.13
390.225	453.12
390.605	482.73
390.984	459.9
391.363	471.65
391.743	467.81
392.122	481.6
392.501	493.35
392.881	475.04
393.26	493.12
393.639	508.04
394.018	498.32
394.397	487.93
394.776	517.08
395.155	505.33
395.534	498.32
395.913	520.47
396.292	501.48
396.671	525.89
397.05	520.24
397.429	525.89
397.808	534.25
398.186	540.13
398.565	533.12
398.944	522.95
399.323	555.04
399.701	541.03
400.08	552.33
400.458	557.75
400.837	531.54
401.215	568.6
401.594	556.17
401.972	579.22
402.351	595.49
402.729	569.28
403.107	581.26
403.486	579.67
403.864	593.01
404.242	578.32
404.62	607.7
404.999	587.58
405.377	619.9
405.755	621.93
406.133	634.36
406.511	613.35
406.889	637.3
407.267	621.93
407.645	639.56
408.023	660.58
408.401	657.19
408.779	673
409.156	684.3
409.534	662.61
409.912	691.31
410.29	697.64
410.667	684.08
411.045	676.62
411.422	728.37
411.8	734.47
412.178	708.48
412.555	755.04
412.933	723.17
413.31	739.9
413.687	751.65
414.065	767.69
414.442	781.25
414.819	806.11
415.197	775.15
415.574	798.43
415.951	792.78
416.328	815.15
416.705	830.74
417.082	832.1
417.46	821.02
417.837	826.22
418.214	830.51
418.591	843.62
418.967	842.72
419.344	840.01
419.721	886.78
420.098	867.58
420.475	870.74
420.852	900.8
421.228	906.22
421.605	897.41
421.982	898.31
422.358	924.07
422.735	905.99
423.111	933.56
423.488	956.61
423.864	927.01
424.241	952.09
424.617	961.58
424.994	961.58
425.37	974.47
425.746	963.17
426.123	1007.46
426.499	985.09
426.875	981.7
427.251	996.39
427.627	1019.21
428.003	1035.71
428.379	1051.3
428.756	1058.53
429.132	1068.02
429.507	1074.58
429.883	1094.24
430.259	1124.29
430.635	1116.61
431.011	1138.98
431.387	1150.28
431.763	1160.68
432.138	1167.23
432.514	1207.23
432.89	1170.17
433.265	1205.65
433.641	1236.38
434.016	1254.01
434.392	1273.89
434.767	1255.36
435.143	1279.09
435.518	1282.48
435.894	1325.87
436.269	1314.57
436.644	1316.38
437.02	1336.94
437.395	1348.92
437.77	1378.75
438.145	1384.4
438.52	1369.71
438.895	1412.42
439.271	1390.73
439.646	1426.21
440.021	1433.44
440.395	1428.01
440.77	1450.84
441.145	1464.85
441.52	1492.42
441.895	1498.07
442.27	1489.03
442.645	1485.64
443.019	1510.95
443.394	1522.93
443.769	1509.14
444.143	1507.79
444.518	1539.2
444.892	1561.57
445.267	1543.72
445.641	1548.91
446.016	1599.53
446.39	1574.68
446.764	1575.58
447.139	1597.5
447.513	1575.13
447.887	1595.47
448.262	1602.47
448.636	1617.39
449.01	1664.39
449.384	1667.56
449.758	1688.8
450.132	1738.51
450.506	1685.18
450.88	1726.54
451.254	1697.84
451.628	1752.75
452.002	1753.2
452.376	1790.72
452.75	1795.69
453.123	1795.69
453.497	1824.84
453.871	1826.65
454.244	1886.08
454.618	1884.05
454.992	1881.11
455.365	1930.15
455.739	1972.41
456.112	1975.57
456.486	1996.81
456.859	2043.14
457.232	2077.94
457.606	2061.44
457.979	2069.13
458.352	2119.75
458.725	2131.05
459.099	2134.44
459.472	2199.29
459.845	2215.34
460.218	2229.57
460.591	2278.61
460.964	2298.72
461.337	2292.4
461.71	2337.37
462.083	2393.86
462.456	2362.45
462.829	2410.36
463.201	2451.26
463.574	2466.63
463.947	2473.86
464.32	2501.66
464.692	2510.47
465.065	2550.24
465.438	2609.9
465.81	2621.43
466.183	2633.41
466.555	2671.37
466.928	2704.14
467.3	2677.25
467.672	2739.84
468.045	2788.43
468.417	2777.58
468.789	2797.47
469.161	2856.68
469.534	2883.12
469.906	2928.31
470.278	2952.04
470.65	2965.37
471.022	3046.05
471.394	3095.09
471.766	3129.21
472.138	3128.76
472.51	3191.13
472.882	3206.72
473.253	3265.48
473.625	3307.29
473.997	3371.47
474.369	3390.67
474.74	3402.42
475.112	3489.65
475.484	3528.52
475.855	3617.33
476.227	3587.5
476.598	3723.32
476.97	3757.44
477.341	3782.53
477.713	3867.72
478.084	3908.4
478.455	4003.99
478.827	4059.13
479.198	4171.44
479.569	4196.3
479.94	4246.92
480.311	4316.3
480.682	4451.66
481.053	4515.39
481.424	4578.21
481.795	4642.17
482.166	4691.66
482.537	4762.84
482.908	4893.23
483.279	4923.51
483.65	5028.6
484.021	5086.67
484.391	5115.15
484.762	5251.42
485.133	5300.68
485.503	5370.51
485.874	5531.86
486.244	5554.68
486.615	5680.78
486.985	5756.94
487.356	5854.79
487.726	5878.07
488.097	6023.15
488.467	6081
488.837	6221.33
489.207	6254.78
489.578	6380.65
489.948	6450.71
490.318	6566.64
490.688	6589.91
491.058	6755.33
491.428	6842.33
491.798	6872.16
492.168	6986.96
492.538	7146.96
492.908	7182.66
493.278	7294.07
493.648	7382.43
494.017	7499.72
494.387	7537.01
494.757	7682.76
495.126	7660.39
495.496	7810.44
495.866	7875.3
496.235	7956.43
496.605	8111.23
496.974	8085.92
497.344	8245.91
497.713	8380.82
498.082	8388.28
498.452	8488.39
498.821	8572.01
499.19	8622.17
499.559	8702.62
499.928	8699.69
500.298	8872.79
500.667	9010.41
501.036	8941.71
501.405	9072.56
501.774	9099
502.143	9190.07
502.512	9285.89
502.88	9368.6
503.249	9411.98
503.618	9540.12
503.987	9549.16
504.356	9658.53
504.724	9741.02
505.093	9761.58
505.462	9858.98
505.83	9976.49
506.199	10020.56
506.567	10216.03
506.936	10131.29
507.304	10262.13
507.672	10339.64
508.041	10406.76
508.409	10442.47
508.777	10627.55
509.145	10703.25
509.514	10722.01
509.882	10870.25
510.25	10865.51
510.618	10981.43
510.986	11000.19
511.354	11098.04
511.722	11245.61
512.09	11323.35
512.458	11331.03
512.826	11448.54
513.193	11498.48
513.561	11613.06
513.929	11701.42
514.297	11924.23
514.664	11941.41
515.032	11981.41
515.4	12066.38
515.767	12134.62
516.135	12314.96
516.502	12240.16
516.869	12401.51
517.237	12542.07
517.604	12480.83
517.972	12709.3
518.339	12712.46
518.706	12928.95
519.073	12908.84
519.44	13029.52
519.808	13199
520.175	13247.14
520.542	13339.11
520.909	13516.96
521.276	13505.89
521.643	13673.34
522.009	13776.62
522.376	13838.76
522.743	14025.2
523.11	14114.23
523.477	14292.76
523.843	14353.32
524.21	14558.74
524.577	14670.15
524.943	14845.97
525.31	14802.58
525.676	15012.74
526.043	15069.91
526.409	15305.39
526.776	15444.37
527.142	15457.02
527.508	15589.45
527.874	15818.6
528.241	15838.48
528.607	15926.39
528.973	16171.13
529.339	16154.86
529.705	16403.44
530.071	16479.82
530.437	16564.79
530.803	16698.57
531.169	16771.56
531.535	16792.58
531.901	16960.49
532.267	17037.55
532.632	17181.95
532.998	17277.31
533.364	17328.16
533.73	17465.78
534.095	17629.62
534.461	17660.35
534.826	17745.1
535.192	17866
535.557	17960.91
535.923	17964.75
536.288	18230.51
536.653	18191.41
537.019	18224.63
537.384	18298.3
537.749	18463.05
538.114	18425.31
538.479	18454.68
538.845	18564.51
539.21	18614.45
539.575	18672.53
539.94	18821
540.305	19039.75
540.67	18969.7
541.034	18992.52
541.399	18990.72
541.764	19269.58
542.129	19293.31
542.494	19374.43
542.858	19350.48
543.223	19353.64
543.587	19508.67
543.952	19486.52
544.316	19699.62
544.681	19642.45
545.045	19772.62
545.41	19888.77
545.774	19821.43
546.138	19966.06
546.503	19978.26
546.867	20027.3
547.231	20118.14
547.595	20241.3
547.959	20258.7
548.324	20340.74
548.688	20428.19
549.052	20493.73
549.416	20439.49
549.779	20479.72
550.143	20453.95
550.507	20849.65
550.871	20852.81
551.235	20923.55
551.599	20990.21
551.962	21105.91
552.326	21115.63
552.689	21189.08
553.053	21186.36
553.417	21237.66
553.78	21457.54
554.143	21387.04
554.507	21715.62
554.87	21656.63
555.234	21907.47
555.597	21821.83
555.96	21933.91
556.323	22052.56
556.686	22058.88
557.05	22266.11
557.413	22296.17
557.776	22356.05
558.139	22590.17
558.502	22596.27
558.865	22686.66
559.228	22940.89
559.59	22910.61
559.953	23001.91
560.316	23242.81
560.679	23264.5
561.041	23410.49
561.404	23602.12
561.767	23717.82
562.129	23684.83
562.492	23828.33
562.854	23891.6
563.217	23958.95
563.579	24118.26
563.941	24266.73
564.304	24476.67
564.666	24599.38
565.028	24685.03
565.39	24798.92
565.753	24990.33
566.115	25041.63
566.477	25108.52
566.839	25233.04
567.201	25471
567.563	25452.24
567.925	25757.32
568.287	25816.75
568.648	25760.71
569.01	26094.71
569.372	26426.45
569.734	26286.34
570.095	26502.83
570.457	26677.52
570.819	26820.34
571.18	26734.47
571.542	26985.31
571.903	27217.84
572.265	27240.67
572.626	27469.81
572.987	27674.1
573.349	27726.76
573.71	27833.87
574.071	28043.13
574.432	28176.46
574.794	28429.11
575.155	28495.55
575.516	28512.5
575.877	28790.23
576.238	28748.2
576.599	28846.05
576.96	29066.16
577.32	29212.82
577.681	29135.99
578.042	29387.28
578.403	29449.42
578.763	29592.24
579.124	29665.01
579.485	30026.81
579.845	30093.93
580.206	30142.96
580.566	30255.5
580.927	30347.93
581.287	30478.55
581.648	30469.96
582.008	30751.99
582.368	30825.88
582.728	30935.26
583.089	31119.21
583.449	31180.45
583.809	31326.66
584.169	31496.6
584.529	31525.53
584.889	31987.66
585.249	31936.36
585.609	31856.59
585.969	32167.09
586.329	32272.85
586.688	32530.92
587.048	32539.96
587.408	32731.15
587.768	32674.88
588.127	33006.84
588.487	33028.76
588.846	33561.63
589.206	33437.12
589.565	33617.9
589.925	33932.24
590.284	34078.45
590.643	34224.44
591.003	34532.23
591.362	34803.41
591.721	34936.51
592.08	35061.25
592.44	35364.3
592.799	35337.18
593.158	35691.29
593.517	35769.71
593.876	36087.21
594.235	36237.49
594.593	36365.63
594.952	36708.22
595.311	36772.39
595.67	37038.38
596.029	37391.59
596.387	37563.11
596.746	37974.62
597.104	37818.69
597.463	38157.44
597.822	38409.41
598.18	38552.69
598.538	38560.82
598.897	39063.63
599.255	38951.77
599.613	39567.58
599.972	39475.83
600.33	39739.55
600.688	39857.74
601.046	40142.7
601.404	40542.24
601.762	40642.35
602.12	41031.49
602.478	41165.73
602.836	41204.37
603.194	41215.89
603.552	41483.01
603.91	41583.12
604.268	41821.53
604.625	41995.53
604.983	42341.97
605.341	42264.68
605.698	42521.4
606.056	42886.58
606.413	42893.14
606.771	43316.18
607.128	43251.32
607.485	43417.42
607.843	43442.5
608.2	43848.82
608.557	43986.67
608.914	43983.28
609.272	44351.86
609.629	44649.25
609.986	44869.13
610.343	44813.54
610.7	45185.51
611.057	45233.19
611.414	45185.28
611.771	45598.38
612.127	45587.53
612.484	45742.1
612.841	45966.73
613.198	45819.16
613.554	45894.19
613.911	46291.24
614.267	46386.38
614.624	46359.71
614.98	46548.41
615.337	46986.82
615.693	46934.16
616.05	46953.82
616.406	47179.13
616.762	47232.46
617.118	47205.57
617.475	47353.36
617.831	47593.81
618.187	47647.36
618.543	47790.64
618.899	47958.77
619.255	47976.85
619.611	48002.16
619.967	48171.87
620.323	48424.97
620.678	48211.64
621.034	48275.6
621.39	48206.9
621.746	48515.36
622.101	48885.52
622.457	48552.42
622.812	48592.65
623.168	48808.46
623.523	48848.01
623.879	48848.46
624.234	48752.42
624.589	48858.4
624.945	48827.67
625.3	48960.32
625.655	48942.7
626.01	48890.72
626.365	49088.23
626.72	48961.68
627.075	48874.22
627.43	48952.87
627.785	49013.2
628.14	49043.48
628.495	49200.32
628.85	49091.39
629.205	48905.63
629.559	49190.6
629.914	48935.46
630.269	49044.39
630.623	48913.09
630.978	48878.52
631.332	49010.27
631.687	48996.25
632.041	48979.53
632.396	49099.75
632.75	48978.63
633.104	49005.29
633.459	48852.3
633.813	48827.44
634.167	48783.38
634.521	48939.31
634.875	48808.46
635.229	48687.34
635.583	48510.39
635.937	48544.51
636.291	48681.46
636.645	48591.29
636.999	48481.47
637.352	48557.62
637.706	48321.02
638.06	48443.95
638.413	48318.76
638.767	48218.87
639.121	48293.22
639.474	48186.78
639.828	48075.37
640.181	48043.96
640.534	48195.82
640.888	47944.08
641.241	47834.93
641.594	47875.15
641.947	47992.44
642.301	47810.07
642.654	47785.44
643.007	47807.81
643.36	47740.24
643.713	47782.73
644.066	47841.48
644.419	47585.22
644.771	47179.13
645.124	46900.04
645.477	46700.72
645.83	46699.37
646.182	46644
646.535	46605.81
646.888	46845.58
647.24	46449.43
647.593	46785.01
647.945	46545.92
648.298	46266.83
648.65	46194.29
649.002	46026.16
649.355	46012.6
649.707	45675.21
650.059	45743.91
650.411	46272.48
650.763	46651.23
651.115	47024.55
651.467	46854.39
651.819	47017.32
652.171	46738.23
652.523	46692.36
652.875	46886.03
653.227	46582.76
653.578	46926.48
653.93	46776.88
654.282	46471.57
654.633	46395.87
654.985	46600.61
655.337	46563.1
655.688	46524.91
656.039	46636.99
656.391	46218.93
656.742	46317.91
657.094	46330.79
657.445	46396.77
657.796	46322.65
658.147	46119.04
658.498	46309.55
658.849	46354.74
659.2	46287.85
659.551	46092.83
659.902	46456.89
660.253	46138.25
660.604	46423.89
660.955	46034.52
661.306	46265.03
661.656	46209.21
662.007	46113.62
662.358	46064.35
662.708	46145.26
663.059	46085.37
663.409	45860.29
663.76	46159.04
664.11	46057.8
664.461	46186.38
664.811	46209.21
665.161	46151.81
665.511	45873.4
665.862	46061.87
666.212	46171.47
666.562	46129.89
666.912	46015.32
667.262	45884.7
667.612	45987.07
667.962	45978.93
668.312	45831.37
668.662	46158.59
669.011	46041.08
669.361	45928.31
669.711	45884.02
670.06	45825.72
670.41	45694.42
670.76	45735.55
671.109	45989.1
671.459	45743.23
671.808	45698.71
672.157	45845.38
672.507	45588.43
672.856	45550.92
673.205	45651.94
673.554	45842.44
673.904	45600.86
674.253	46027.97
674.602	45700.52
674.951	45118.16
675.3	44947.1
675.649	45658.71
675.998	45692.84
676.346	45655.1
676.695	45627.98
677.044	45368.55
677.393	45545.27
677.741	45623.46
678.09	45591.37
678.438	45411.94
678.787	45403.35
679.135	45501.66
679.484	45154.77
679.832	45281.55
680.181	45170.59
680.529	45382.34
680.877	45236.35
681.225	45018.96
681.573	45337.37
681.922	45155.9
682.27	45003.59
682.618	45023.03
682.966	44817.61
683.314	44928.34
683.661	44889.92
684.009	44744.84
684.357	44678.18
684.705	44594.34
685.053	44499.65
685.4	44420.1
685.748	44298.98
686.095	44424.62
686.443	44085.2
686.79	44033.9
687.138	44181.47
687.485	44194.8
687.832	44028.48
688.18	44090.85
688.527	43929.27
688.874	43747.35
689.221	43920.91
689.568	43644.08
689.915	43566.79
690.262	43688.15
690.609	43399.34
690.956	43280.47
691.303	43420.13
691.65	43120.25
691.997	43064.43
692.344	42868.05
692.69	42861.05
693.037	42926.81
693.383	42511.23
693.73	42683.65
694.077	42413.83
694.423	42375.19
694.769	42309.42
695.116	42261.74
695.462	41868.76
695.808	41953.5
696.155	41923.67
696.501	41609.33
696.847	41781.53
697.193	41587.18
697.539	41510.12
697.885	41364.36
698.231	41266.51
698.577	41244.37
698.923	41302.9
699.269	40854.77
699.614	40855.9
699.96	40722.8
700.306	40731.84
700.651	40578.17
700.997	40401
701.342	40424.5
701.688	40343.37
702.033	40161.68
702.379	40145.41
702.724	39965.31
703.069	40138.86
703.415	39532.32
703.76	39645.09
704.105	39672.21
704.45	39498.88
704.795	39241.26
705.14	39214.59
705.485	39255.95
705.83	38896.86
706.175	39067.48
706.52	38954.94
706.865	38781.38
707.209	38617.54
707.554	38635.17
707.899	38673.81
708.243	38510.88
708.588	38474.5
708.932	38289.64
709.277	38265.46
709.621	38043.55
709.966	37837.45
710.31	37945.02
710.654	37720.84
710.998	37863.67
711.342	37620.51
711.687	37530.11
712.031	37420.51
712.375	37145.49
712.719	37243.57
713.063	37196.11
713.407	37376.67
713.75	37117.92
714.094	37076.57
714.438	37011.26
714.782	36909.11
715.125	36658.27
715.469	36945.95
715.812	36545.96
716.156	36635.68
716.499	36553.64
716.843	36556.36
717.186	36352.74
717.53	36546.64
717.873	36582.57
718.216	36433.42
718.559	36200.21
718.902	35962.92
719.246	36031.62
719.589	36033.66
719.932	35885.19
720.275	35809.26
720.617	35772.87
720.96	35719.54
721.303	35831.85
721.646	35719.99
721.989	35488.59
722.331	35522.71
722.674	35386.44
723.016	35354.35
723.359	35366.56
723.701	35431.86
724.044	35339.66
724.386	35140.8
724.729	35236.16
725.071	35162.72
725.413	35125.88
725.755	35069.61
726.097	35011.31
726.439	34808.15
726.782	34792.33
727.124	35004.08
727.465	34803.63
727.807	34595.73
728.149	34618.78
728.491	34577.42
728.833	34691.55
729.175	34494.94
729.516	34510.31
729.858	34337.2
730.199	34401.38
730.541	34421.72
730.882	34292.69
731.224	34387.6
731.565	34219.02
731.906	34116.42
732.248	34094.5
732.589	33970.43
732.93	33880.27
733.271	33791.91
733.612	33816.99
733.953	33940.38
734.294	33705.58
734.635	33673.27
734.976	33784
735.317	33619.94
735.658	33743.1
735.999	33410
736.339	33516.89
736.68	33610.9
737.021	33580.84
737.361	33390.79
737.702	33605.92
738.042	33304.92
738.383	33517.57
738.723	33377.91
739.063	33269.89
739.404	33344.24
739.744	33204.8
740.084	33177.46
740.424	33238.7
740.764	32936.79
741.104	33197.57
741.444	32928.43
741.784	32894.08
742.124	33090.23
742.464	33009.78
742.804	32938.15
743.143	32897.47
743.483	32888.88
743.823	32763.46
744.162	32746.06
744.502	32766.17
744.841	32532.51
745.181	32697.02
745.52	32771.37
745.86	32596.46
746.199	32393.53
746.538	32534.09
746.877	32517.82
747.216	32483.24
747.556	32441.44
747.895	32415.67
748.234	32369.8
748.573	32269.69
748.911	32100.2
749.25	32203.7
749.589	32060.88
749.928	32150.6
750.267	32068.56
750.605	31974.55
750.944	32186.07
751.283	31940.21
751.621	31967.55
751.96	31785.18
752.298	31745.63
752.636	31784.73
752.975	31680.78
753.313	31528.92
753.651	31734.56
753.989	31427
754.327	31559.42
754.666	31244.18
755.004	31505.64
755.342	31446.43
755.679	31249.38
756.017	31122.83
756.355	31306.32
756.693	31243.73
757.031	31283.73
757.368	30975.26
757.706	30971.87
758.044	30773
758.381	30770.52
758.719	30682.16
759.056	30722.16
759.394	30617.53
759.731	30248.05
760.068	30390.87
760.405	30321.04
760.743	30220.48
761.08	30179.57
761.417	30092.57
761.754	29909.98
762.091	29900.71
762.428	29757.89
762.765	29662.98
763.102	29651.45
763.438	29498.91
763.775	29496.65
764.112	29504.11
764.449	29264.8
764.785	29314.29
765.122	29096.44
765.458	28951.58
765.795	28938.93
766.131	28862.09
766.467	28839.27
766.804	28517.92
767.14	28519.73
767.476	28402.9
767.812	28498.26
768.148	28384.82
768.485	28230.02
768.821	28020.31
769.157	28024.15
769.492	27897.15
769.828	27843.59
770.164	27623.93
770.5	27515.01
770.836	27576.25
771.171	27432.98
771.507	27256.71
771.842	27179.88
772.178	27108.24
772.513	27024.4
772.849	26868.47
773.184	26815.37
773.519	26749.83
773.855	26733.56
774.19	26604.3
774.525	26504.42
774.86	26459.22
775.195	26349.84
775.53	26173.13
775.865	26081.38
776.2	25927.26
776.535	25855.62
776.87	25805.68
777.205	25694.72
777.539	25559.81
777.874	25628.05
778.209	25246.14
778.543	25330.21
778.878	25185.13
779.212	25213.83
779.547	24881.86
779.881	25005.92
780.215	24702.2
780.55	24732.94
780.884	24543.79
781.218	24538.82
781.552	24563.9
781.886	24363.68
782.22	24243.91
782.554	24147.19
782.888	23970.47
783.222	23888.21
783.556	23744.94
783.889	23771.38
784.223	23587.2
784.557	23557.15
784.89	23671.04
785.224	23427.21
785.557	23241.68
785.891	23295.23
786.224	23229.7
786.558	23248.91
786.891	22996.94
787.224	22920.33
787.557	22796.72
787.891	22770.73
788.224	22558.31
788.557	22659.55
788.89	22581.13
789.223	22515.37
789.556	22422.72
789.888	22409.38
790.221	22314.02
790.554	22075.83
790.887	22121.03
791.219	21974.82
791.552	21926.68
791.884	21798.1
792.217	21802.84
792.549	21617.09
792.882	21506.81
793.214	21317.21
793.546	21410.99
793.879	21262.75
794.211	21108.17
794.543	21331.22
794.875	21149.98
795.207	21136.42
795.539	21018.68
795.871	21041.51
796.203	20832.25
796.535	20811.23
796.867	20762.87
797.198	20551.8
797.53	20673.16
797.862	20512.26
798.193	20575.76
798.525	20337.8
798.856	20384.58
799.188	20169.22
799.519	20095.09
799.85	20057.35
800.182	19987.98
800.513	20052.16
800.844	19818.72
801.175	19933.06
801.506	19906.62
801.837	19787.3
802.168	19795.89
802.499	19700.08
802.83	19525.62
803.161	19510.93
803.491	19519.06
803.822	19532.62
804.153	19305.51
804.483	19293.31
804.814	19172.18
805.145	19156.81
805.475	19203.14
805.805	19230.26
806.136	19123.37
806.466	19012.64
806.796	19002.01
807.126	18882.7
807.457	18841.11
807.787	18887.67
808.117	18822.58
808.447	18658.29
808.777	18703.72
809.107	18502.37
809.436	18584.17
809.766	18473.21
810.096	18503.04
810.426	18391.18
810.755	18394.35
811.085	18284.07
811.414	18394.35
811.744	18118.2
812.073	18174.24
812.403	18051.08
812.732	17901.25
813.061	18104.18
813.39	17924.53
813.719	17895.38
814.049	17983.28
814.378	17992.1
814.707	17683.86
815.036	17835.49
815.365	17713.91
815.693	17595.72
816.022	17603.63
816.351	17578.1
816.68	17486.57
817.008	17502.39
817.337	17354.37
817.665	17388.5
817.994	17385.56
818.322	17383.75
818.651	17291.33
818.979	17233.47
819.307	17305.34
819.636	17167.26
819.964	17172.46
820.292	17250.2
820.62	17116.41
820.948	17118.67
821.276	17279.8
821.604	17092.23
821.932	17189.18
822.259	17179.69
822.587	17089.97
822.915	17096.53
823.243	17160.71
823.57	16990.99
823.898	17090.88
824.225	17029.64
824.553	16921.17
824.88	17050.43
825.207	17117.09
825.535	16990.32
825.862	17167.94
826.189	17013.59
826.516	17122.52
826.843	17134.72
827.17	17045
827.497	17132.23
827.824	17114.83
828.151	17168.39
828.478	17107.6
828.805	17185.34
829.131	17147.15
829.458	17113.93
829.785	16922.97
830.111	17045.46
830.438	17117.77
830.764	17033.7
831.09	17097.66
831.417	16952.35
831.743	17097.66
832.069	16969.75
832.395	16963.88
832.722	17052.24
833.048	16960.49
833.374	17021.05
833.7	16939.92
834.026	17007.26
834.351	17000.49
834.677	16948.51
835.003	16874.16
835.329	16941.96
835.654	16867.61
835.98	16809.08
836.306	16950.99
836.631	16774.28
836.956	16797.1
837.282	16809.98
837.607	16746.48
837.932	16805.46
838.258	16809.76
838.583	16652.25
838.908	16643.43
839.233	16646.82
839.558	16663.77
839.883	16580.16
840.208	16419.71
840.533	16504.68
840.858	16618.12
841.182	16497
841.507	16515.98
841.832	16473.27
842.156	16427.39
842.481	16417.45
842.805	16332.25
843.13	16217.91
843.454	16289.32
843.778	16184.69
844.103	16237.57
844.427	16181.3
844.751	16199.15
845.075	16118.25
845.399	16106.95
845.723	16050.45
846.047	16050
846.371	15840.29
846.695	15911.7
847.019	15802.1
847.343	15728.65
847.666	15708.99
847.99	15587.87
848.313	15484.37
848.637	15473.07
848.96	15420.87
849.284	15414.76
849.607	15295.45
849.931	15319.85
850.254	15206.18
850.577	15109.91
850.9	14963.48
851.223	14974.32
851.546	14963.25
851.869	14846.64
852.192	15003.48
852.515	14744.73
852.838	14733.2
853.161	14693.88
853.483	14564.62
853.806	14526.2
854.129	14516.03
854.451	14455.69
854.774	14468.12
855.096	14353.1
855.419	14391.74
855.741	14260.44
856.063	14205.08
856.385	14130.73
856.708	14115.36
857.03	14090.28
857.352	14046.89
857.674	14049.15
857.996	14068.58
858.318	13833.34
858.64	13939.77
858.961	13843.51
859.283	13808.7
859.605	13713.79
859.926	13764.19
860.248	13736.16
860.57	13687.58
860.891	13672.44
861.212	13608.94
861.534	13544.08
861.855	13527.58
862.176	13584.53
862.498	13594.47
862.819	13512.22
863.14	13434.03
863.461	13443.52
863.782	13411.65
864.103	13431.99
864.424	13321.49
864.745	13413.23
865.065	13249.85
865.386	13255.05
865.707	13211.88
866.027	13268.83
866.348	13178.66
866.668	13231.32
866.989	13112.68
867.309	13060.25
867.63	13033.81
867.95	13161.26
868.27	12935.96
868.59	13076.97
868.91	13015.05
869.23	13039.69
869.55	12947.26
869.87	12955.17
870.19	12961.5
870.51	12886.47
870.83	12770.99
871.15	12760.14
871.469	12832.69
871.789	12802.18
872.109	12813.7
872.428	12712.46
872.748	12844.66
873.067	12723.31
873.386	12742.29
873.706	12738.22
874.025	12672.46
874.344	12681.28
874.663	12677.66
874.982	12608.28
875.301	12593.14
875.62	12540.94
875.939	12490.32
876.258	12486.71
876.577	12458.01
876.896	12493.94
877.214	12486.48
877.533	12480.38
877.852	12432.02
878.17	12409.42
878.489	12377.56
878.807	12345.01
879.125	12331.23
879.444	12340.49
879.762	12296.65
880.08	12281.29
880.398	12251.91
880.716	12190.67
881.034	12185.7
881.352	12185.47
881.67	12160.16
881.988	12100.05
882.306	12076.09
882.624	12104.79
882.941	12072.48
883.259	11985.02
883.577	11952.93
883.894	11916.55
884.212	11899.15
884.529	11895.08
884.846	11886.27
885.164	11780.74
885.481	11829.1
885.798	11796.1
886.115	11804.01
886.432	11722.21
886.75	11763.33
887.067	11662.77
887.383	11701.87
887.7	11606.28
888.017	11547.07
888.334	11590.68
888.651	11548.88
888.967	11504.58
889.284	11479.5
889.6	11453.06
889.917	11473.17
890.233	11428.2
890.55	11391.82
890.866	11309.11
891.182	11315.44
891.498	11257.59
891.815	11200.64
892.131	11225.5
892.447	11193.41
892.763	11142.11
893.079	11181.43
893.395	11082.45
893.71	11052.62
894.026	11087.87
894.342	10988.67
894.657	10982.56
894.973	10858.05
895.289	10866.18
895.604	10943.02
895.92	10871.61
896.235	10834.09
896.55	10792.06
896.865	10752.06
897.181	10700.99
897.496	10760.65
897.811	10625.74
898.126	10620.99
898.441	10546.19
898.756	10550.71
899.071	10476.59
899.386	10518.62
899.7	10401.34
900.015	10360.21
900.33	10253.09
900.644	10298.06
900.959	10315.69
901.273	10225.52
901.588	10156.6
901.902	10195.69
902.216	10101.01
902.531	10124.73
902.845	10009.26
903.159	9959.09
903.473	9965.42
903.787	9882.93
904.101	9882.93
904.415	9901.46
904.729	9860.79
905.042	9842.03
905.356	9726.1
905.67	9786.89
905.984	9764.97
906.297	9674.35
906.611	9606.33
906.924	9569.27
907.237	9583.73
907.551	9538.08
907.864	9475.26
908.177	9479.1
908.491	9476.84
908.804	9395.26
909.117	9290.41
909.43	9275.04
909.743	9268.26
910.056	9201.14
910.368	9212.67
910.681	9201.37
910.994	9124.08
911.307	8994.37
911.619	9009.51
911.932	9024.65
912.244	8905.1
912.557	8943.3
912.869	8858.78
913.181	8847.93
913.494	8851.09
913.806	8807.48
914.118	8791.89
914.43	8720.7
914.742	8738.33
915.054	8654.04
915.366	8666.24
915.678	8598.22
915.99	8503.99
916.302	8540.14
916.613	8477.09
916.925	8518
917.236	8399.36
917.548	8423.76
917.859	8368.4
918.171	8289.08
918.482	8303.76
918.794	8193.71
919.105	8248.62
919.416	8145.58
919.727	8151.68
920.038	8142.41
920.349	8045.92
920.66	8047.5
920.971	8018.8
921.282	7989.65
921.593	7918.01
921.903	7890.44
922.214	7898.35
922.525	7814.96
922.835	7823.55
923.146	7752.59
923.456	7710.11
923.767	7673.05
924.077	7680.5
924.387	7636.44
924.697	7589.89
925.008	7570
925.318	7530.9
925.628	7491.58
925.938	7507.85
926.248	7410.45
926.558	7354.41
926.867	7381.98
927.177	7370
927.487	7274.64
927.796	7267.86
928.106	7310.8
928.416	7205.04
928.725	7236.45
929.034	7155.55
929.344	7182.66
929.653	7154.19
929.962	7099.73
930.271	7109.9
930.581	7085.94
930.89	7031.48
931.199	6987.42
931.508	6961.65
931.817	6904.93
932.125	6872.84
932.434	6777.48
932.743	6777.93
933.051	6817.25
933.36	6772.05
933.669	6695.22
933.977	6679.4
934.286	6614.77
934.594	6678.95
934.902	6614.09
935.21	6592.85
935.519	6524.83
935.827	6495.45
936.135	6503.13
936.443	6446.86
936.751	6436.24
937.059	6417.49
937.367	6425.62
937.674	6320.31
937.982	6338.39
938.29	6306.76
938.597	6250.26
938.905	6266.76
939.213	6233.31
939.52	6191.96
939.827	6208.23
940.135	6138.62
940.442	6135.46
940.749	6123.26
941.056	6130.04
941.363	5975.46
941.67	6019.08
941.977	5991.96
942.284	5957.39
942.591	5961.68
942.898	5941.79
943.205	5884.39
943.511	5903.15
943.818	5854.56
944.125	5844.85
944.431	5742.48
944.738	5763.49
945.044	5745.87
945.35	5687.56
945.657	5684.62
945.963	5700.9
946.269	5666.77
946.575	5664.29
946.881	5640.33
947.187	5579.54
947.493	5612.08
947.799	5537.06
948.105	5505.87
948.41	5448.25
948.716	5468.13
949.022	5431.3
949.327	5416.83
949.633	5357.63
949.938	5351.07
950.244	5342.94
950.549	5288.48
950.854	5253.9
951.16	5226.78
951.465	5295.03
951.77	5225.65
952.075	5173
952.38	5135.03
952.685	5164.41
952.99	5115.83
953.294	5113.57
953.599	5093.23
953.904	5054.81
954.209	5008.48
954.513	5019.33
954.818	5001.48
955.122	4980.91
955.426	4960.12
955.731	4921.93
956.035	4872.44
956.339	4928.94
956.643	4848.04
956.948	4857.53
957.252	4857.3
957.556	4820.69
957.86	4812.56
958.163	4793.35
958.467	4722.84
958.771	4780.02
959.075	4719.45
959.378	4702.96
959.682	4655.5
959.985	4656.4
960.289	4624.77
960.592	4619.57
960.896	4598.55
961.199	4554.26
961.502	4612.79
961.805	4587.93
962.108	4515.62
962.411	4521.04
962.714	4457.31
963.017	4448.27
963.32	4472
963.623	4428.84
963.926	4431.32
964.228	4391.1
964.531	4401.95
964.833	4395.62
965.136	4311.1
965.438	4309.07
965.741	4270.88
966.043	4275.62
966.345	4276.3
966.648	4260.03
966.95	4253.02
967.252	4208.05
967.554	4209.18
967.856	4158.11
968.158	4154.5
968.46	4133.03
968.761	4110.88
969.063	4129.19
969.365	4060.94
969.666	4064.55
969.968	4073.82
970.269	4012.13
970.571	4039.47
970.872	3968.29
971.174	3946.37
971.475	3939.81
971.776	3938.91
972.077	3896.2
972.378	3878.34
972.679	3876.31
972.98	3899.36
973.281	3844.9
973.582	3867.05
973.883	3830.44
974.183	3809.42
974.484	3763.09
974.785	3757.44
975.085	3775.97
975.386	3782.75
975.686	3710.21
975.986	3686.03
976.287	3708.18
976.587	3665.69
976.887	3613.49
977.187	3636.77
977.487	3635.86
977.787	3617.79
978.087	3601.97
978.387	3537.11
978.687	3550.22
978.987	3540.73
979.286	3514.29
979.586	3538.47
979.885	3479.71
980.185	3491.69
980.484	3469.09
980.784	3442.88
981.083	3450.33
981.382	3420.28
981.682	3428.19
981.981	3388.64
982.28	3394.97
982.579	3344.12
982.878	3339.6
983.177	3358.81
983.475	3331.69
983.774	3325.14
984.073	3292.15
984.372	3218.7
984.67	3267.74
984.969	3274.29
985.267	3259.38
985.566	3191.58
985.864	3208.31
986.162	3195.42
986.461	3177.35
986.759	3163.79
987.057	3133.73
987.355	3106.16
987.653	3107.97
987.951	3065.71
988.249	3054.19
988.547	3072.72
988.844	3067.52
989.142	3080.17
989.44	3023.45
989.737	3007.41
990.035	2993.17
990.332	2976.67
990.63	3003.57
990.927	2945.94
991.224	2940.97
991.521	2946.17
991.819	2888.54
992.116	2891.03
992.413	2856.45
992.71	2854.42
993.006	2858.94
993.303	2902.32
993.6	2849.9
993.897	2822.78
994.193	2817.36
994.49	2827.75
994.787	2784.14
995.083	2785.49
995.379	2780.97
995.676	2731.48
995.972	2726.74
996.268	2724.02
996.565	2696.68
996.861	2698.94
997.157	2704.82
997.453	2674.08
997.749	2649.45
998.044	2662.11
998.34	2632.28
998.636	2600.86
998.932	2569.23
999.227	2557.93
999.523	2590.69
999.818	2571.94
1000.114	2537.81
1000.409	2522.9
1000.704	2552.73
1001	2520.64
1001.295	2462.56
1001.59	2486.06
1001.885	2459.85
1002.18	2444.94
1002.475	2432.96
1002.77	2443.81
1003.065	2424.37
1003.359	2432.28
1003.654	2370.81
1003.949	2358.84
1004.243	2324.26
1004.538	2361.32
1004.832	2353.19
1005.127	2351.83
1005.421	2304.37
1005.715	2288.1
1006.009	2272.74
1006.304	2314.54
1006.598	2297.59
1006.892	2270.7
1007.186	2250.14
1007.48	2255.34
1007.773	2185.06
1008.067	2197.71
1008.361	2193.64
1008.655	2169.46
1008.948	2165.17
1009.242	2164.72
1009.535	2124.94
1009.829	2128.11
1010.122	2082.91
1010.415	2135.57
1010.708	2102.57
1011.001	2078.17
1011.295	2077.04
1011.588	2044.27
1011.881	2042.46
1012.173	2038.39
1012.466	2036.58
1012.759	2011.05
1013.052	1999.98
1013.344	1973.99
1013.637	1961.33
1013.93	1950.03
1014.222	1953.2
1014.514	1949.81
1014.807	1930.15
1015.099	1886.76
1015.391	1895.12
1015.683	1870.71
1015.976	1866.87
1016.268	1875.69
1016.56	1866.65
1016.851	1824.39
1017.143	1824.84
1017.435	1818.06
1017.727	1787.33
1018.018	1762.69
1018.31	1772.64
1018.602	1767.44
1018.893	1742.81
1019.185	1766.99
1019.476	1725.18
1019.767	1719.98
1020.058	1703.03
1020.35	1706.88
1020.641	1690.83
1020.932	1694.67
1021.223	1663.71
1021.514	1627.1
1021.804	1623.94
1022.095	1632.75
1022.386	1663.71
1022.677	1581
1022.967	1614.9
1023.258	1619.87
1023.548	1573.09
1023.839	1606.99
1024.129	1557.95
1024.419	1550.95
1024.709	1546.88
1025	1558.41
1025.29	1510.5
1025.58	1519.76
1025.87	1496.26
1026.16	1488.12
1026.449	1499.42
1026.739	1454.68
1027.029	1462.81
1027.319	1471.4
1027.608	1429.37
1027.898	1459.88
1028.187	1407.22
1028.477	1411.74
1028.766	1416.49
1029.055	1398.41
1029.344	1412.65
1029.634	1396.15
1029.923	1376.94
1030.212	1358.86
1030.501	1336.04
1030.79	1323.84
1031.078	1325.64
1031.367	1324.29
1031.656	1333.55
1031.945	1301.69
1032.233	1290.62
1032.522	1305.53
1032.81	1303.5
1033.099	1265.98
1033.387	1288.58
1033.675	1251.52
1033.963	1231.63
1034.251	1235.48
1034.54	1218.98
1034.828	1227.11
1035.116	1228.02
1035.403	1186.66
1035.691	1182.37
1035.979	1198.19
1036.267	1207.45
1036.554	1173.78
1036.842	1149.83
1037.129	1182.6
1037.417	1140.11
1037.704	1165.2
1037.992	1140.56
1038.279	1138.98
1038.566	1112.09
1038.853	1112.09
1039.14	1112.09
