Data from 17-1564_FLMS001491_006.txt Node
Date: Thu Apr 19 16:31:34 BST 2018
User: hsy
Spectrometer: FLMS00149
Trigger mode: 0
Integration Time (sec): 1.000000E-2
Scans to average: 10
Electric dark correction enabled: true
Nonlinearity correction enabled: false
Boxcar width: 0
XAxis mode: Wavelengths
Number of Pixels in Spectrum: 2048
>>>>>Begin Spectral Data<<<<<
341.393	-21.52
341.776	-21.52
342.16	-21.52
342.543	-64.91
342.927	-78.7
343.31	-89.09
343.693	-64.01
344.077	-78.47
344.46	-47.96
344.843	-57.46
345.226	-49.09
345.61	-25.14
345.993	-16.55
346.376	-13.39
346.759	0.17
347.142	24.12
347.525	52.6
347.908	56.44
348.291	92.14
348.674	100.96
349.057	114.74
349.44	114.74
349.823	146.61
350.206	168.3
350.588	246.72
350.971	258.92
351.354	260.05
351.737	283.55
352.119	278.35
352.502	307.05
352.884	306.38
353.267	323.32
353.65	344.79
354.032	342.76
354.414	349.99
354.797	359.26
355.179	365.13
355.562	362.42
355.944	368.3
356.326	361.74
356.709	368.07
357.091	369.65
357.473	377.79
357.855	387.73
358.238	385.92
358.62	400.61
359.002	395.87
359.384	364.45
359.766	400.84
360.148	398.8
360.53	409.88
360.912	388.18
361.294	375.3
361.676	378.92
362.057	391.12
362.439	412.81
362.821	379.59
363.203	369.2
363.584	370.78
363.966	385.24
364.348	389.99
364.729	357.67
365.111	368.07
365.493	366.94
365.874	380.27
366.256	366.26
366.637	378.69
367.019	375.75
367.4	363.32
367.781	381.63
368.163	382.53
368.544	387.5
368.925	364.91
369.306	371.91
369.688	398.58
370.069	363.55
370.45	364.45
370.831	378.24
371.212	370.78
371.593	397.45
371.974	379.59
372.355	399.71
372.736	360.61
373.117	401.29
373.498	387.28
373.879	374.62
374.26	381.85
374.641	396.32
375.021	388.18
375.402	407.62
375.783	395.19
376.163	425.02
376.544	408.52
376.925	420.5
377.305	399.48
377.686	394.28
378.066	437.22
378.447	411.68
378.827	426.82
379.208	416.66
379.588	425.24
379.968	420.72
380.349	430.21
380.729	424.34
381.109	429.54
381.489	437.9
381.87	427.28
382.25	463.66
382.63	452.36
383.01	463.21
383.39	449.65
383.77	446.03
384.15	425.92
384.53	454.85
384.91	460.04
385.29	457.78
385.67	447.62
386.049	450.33
386.429	454.62
386.809	455.07
387.189	474.06
387.568	470.21
387.948	476.77
388.328	492.36
388.707	479.03
389.087	484.9
389.466	509.99
389.846	501.63
390.225	504.56
390.605	504.11
390.984	500.72
391.363	492.81
391.743	517.9
392.122	521.96
392.501	514.96
392.881	541.17
393.26	519.25
393.639	525.81
394.018	524.22
394.397	539.36
394.776	547.27
395.155	522.19
395.534	543.88
395.913	532.13
396.292	541.85
396.671	566.03
397.05	565.13
397.429	563.54
397.808	567.16
398.186	568.97
398.565	569.19
398.944	576.65
399.323	568.52
399.701	557.67
400.08	559.7
400.458	576.2
400.837	600.61
401.215	582.3
401.594	592.02
401.972	585.24
402.351	594.05
402.729	605.35
403.107	609.42
403.486	615.29
403.864	612.81
404.242	618.01
404.62	614.84
404.999	639.02
405.377	627.72
405.755	644.45
406.133	662.3
406.511	646.48
406.889	668.17
407.267	676.54
407.645	667.04
408.023	660.49
408.401	679.47
408.779	696.87
409.156	695.97
409.534	693.71
409.912	697.33
410.29	720.38
410.667	719.92
411.045	742.3
411.422	741.39
411.8	725.8
412.178	766.25
412.555	771.9
412.933	787.27
413.31	780.94
413.687	781.17
414.065	792.01
414.442	805.57
414.819	806.93
415.197	824.1
415.574	858.9
415.951	842.18
416.328	839.24
416.705	846.25
417.082	855.51
417.46	833.59
417.837	881.05
418.214	877.21
418.591	886.7
418.967	907.94
419.344	904.1
419.721	886.47
420.098	893.03
420.475	899.35
420.852	905.46
421.228	908.85
421.605	939.81
421.982	951.56
422.358	938.45
422.735	945.23
423.111	979.8
423.488	939.13
423.864	984.32
424.241	976.64
424.617	1021.16
424.994	994.27
425.37	1012.57
425.746	1046.92
426.123	1023.19
426.499	1034.94
426.875	1032.01
427.251	1065
427.627	1075.4
428.003	1063.64
428.379	1104.1
428.756	1091.67
429.132	1113.13
429.507	1135.28
429.883	1140.93
430.259	1156.98
430.635	1169.4
431.011	1164.21
431.387	1196.07
431.763	1206.92
432.138	1194.26
432.514	1234.71
432.89	1228.16
433.265	1254.6
433.641	1278.33
434.016	1254.6
434.392	1310.19
434.767	1314.03
435.143	1312.45
435.518	1322.17
435.894	1318.1
436.269	1352.22
436.644	1384.99
437.02	1392.45
437.395	1380.47
437.77	1387.93
438.145	1408.72
438.52	1432.22
438.895	1439.23
439.271	1459.57
439.646	1460.47
440.021	1462.5
440.395	1473.58
440.77	1498.89
441.145	1521.26
441.52	1526.01
441.895	1502.5
442.27	1533.24
442.645	1529.85
443.019	1556.51
443.394	1586.34
443.769	1598.77
444.143	1568.26
444.518	1594.03
444.892	1580.01
445.267	1595.16
445.641	1614.59
446.016	1621.82
446.39	1615.72
446.764	1622.27
447.139	1623.63
447.513	1671.99
447.887	1682.84
448.262	1676.06
448.636	1696.62
449.01	1719.67
449.384	1737.3
449.758	1702.05
450.132	1729.16
450.506	1737.07
450.88	1775.49
451.254	1783.63
451.628	1838.31
452.002	1826.11
452.376	1837.64
452.75	1864.3
453.123	1859.56
453.497	1912.44
453.871	1914.7
454.244	1933.68
454.618	1967.58
454.992	1965.99
455.365	1963.28
455.739	2014.58
456.112	2045.54
456.486	2054.58
456.859	2081.47
457.232	2140.68
457.606	2157.4
457.979	2148.14
458.352	2191.98
458.725	2183.61
459.099	2247.79
459.472	2251.86
459.845	2295.48
460.218	2297.28
460.591	2313.78
460.964	2385.19
461.337	2393.55
461.71	2441.24
462.083	2450.27
462.456	2419.31
462.829	2473.55
463.201	2513.1
463.574	2500.89
463.947	2526.43
464.32	2593.32
464.692	2603.72
465.065	2623.6
465.438	2669.93
465.81	2683.94
466.183	2726.43
466.555	2748.57
466.928	2854.56
467.3	2782.47
467.672	2794.67
468.045	2872.86
468.417	2870.6
468.789	2854.56
469.161	2955.57
469.534	2984.27
469.906	3033.54
470.278	3041.22
470.65	3081.9
471.022	3140.43
471.394	3151.5
471.766	3238.5
472.138	3259.52
472.51	3325.28
472.882	3373.19
473.253	3359.4
473.625	3426.52
473.997	3495.22
474.369	3505.61
474.74	3520.3
475.112	3613.63
475.484	3635.55
475.855	3757.58
476.227	3765.49
476.598	3844.36
476.97	3902.89
477.341	3977.69
477.713	4044.81
478.084	4094.3
478.455	4206.16
478.827	4203.22
479.198	4275.76
479.569	4301.75
479.94	4375.2
480.311	4522.54
480.682	4557.79
481.053	4637.11
481.424	4690.89
481.795	4816.54
482.166	4849.99
482.537	4972.24
482.908	5034.61
483.279	5113.48
483.65	5122.29
484.021	5287.04
484.391	5352.12
484.762	5372.46
485.133	5479.8
485.503	5564.77
485.874	5663.75
486.244	5764.54
486.615	5863.52
486.985	5906.91
487.356	6056.06
487.726	6108.03
488.097	6261.25
488.467	6282.26
488.837	6455.14
489.207	6479.55
489.578	6626.44
489.948	6737.17
490.318	6831.85
490.688	6829.82
491.058	6950.04
491.428	7066.42
491.798	7103.94
492.168	7307.55
492.538	7291.5
492.908	7530.82
493.278	7605.39
493.648	7608.11
494.017	7699.4
494.387	7818.04
494.757	7964.03
495.126	8026.4
495.496	8010.58
495.866	8128.54
496.235	8226.17
496.605	8368.31
496.974	8392.04
497.344	8481.98
497.713	8616.89
498.082	8596.78
498.452	8693.27
498.821	8785.7
499.19	8855.3
499.559	8961.06
499.928	9006.03
500.298	9042.42
500.667	9149.99
501.036	9154.73
501.405	9306.37
501.774	9252.81
502.143	9423.42
502.512	9501.84
502.88	9599.01
503.249	9622.06
503.618	9682.4
503.987	9760.14
504.356	9817.54
504.724	9869.29
505.093	9976.63
505.462	9998.32
505.83	10121.26
506.199	10168.26
506.567	10288.71
506.936	10238.54
507.304	10368.94
507.672	10409.84
508.041	10484.87
508.409	10571.87
508.777	10746.33
509.145	10689.83
509.514	10728.7
509.882	10827
510.25	10868.13
510.618	10979.77
510.986	10983.61
511.354	11112.65
511.722	11210.72
512.09	11358.51
512.458	11329.59
512.826	11382.92
513.193	11459.98
513.561	11606.42
513.929	11592.63
514.297	11750.59
514.664	11785.17
515.032	11817.71
515.4	11944.04
515.767	11984.71
516.135	12136.12
516.502	12049.34
516.869	12215.89
517.237	12295.44
517.604	12287.98
517.972	12523.23
518.339	12563.91
518.706	12653.85
519.073	12741.98
519.44	12788.76
519.808	12912.15
520.175	12975.65
520.542	13172.93
520.909	13182.87
521.276	13280.27
521.643	13508.06
522.009	13511
522.376	13684.56
522.743	13625.12
523.11	13976.53
523.477	13910.09
523.843	14117.31
524.21	14241.6
524.577	14354.82
524.943	14373.58
525.31	14535.38
525.676	14789.16
526.043	14776.05
526.409	14901.7
526.776	15033.9
527.142	15162.03
527.508	15238.64
527.874	15384.17
528.241	15486.54
528.607	15548.91
528.973	15723.82
529.339	15812.86
529.705	15946.42
530.071	16004.95
530.437	16161.1
530.803	16321.77
531.169	16366.97
531.535	16421.66
531.901	16513.41
532.267	16669.56
532.632	16744.81
532.998	16903
533.364	17029.1
533.73	17036.78
534.095	17221.86
534.461	17161.75
534.826	17386.38
535.192	17377.57
535.557	17580.27
535.923	17508.64
536.288	17583.66
536.653	17766.48
537.019	17802.19
537.384	17893.71
537.749	17941.39
538.114	18037.44
538.479	18047.15
538.845	18071.11
539.21	18160.82
539.575	18330.53
539.94	18403.08
540.305	18483.75
540.67	18497.08
541.034	18590.19
541.399	18639.23
541.764	18680.58
542.129	18765.33
542.494	18948.82
542.858	18967.81
543.223	18974.59
543.587	19016.39
543.952	19117.86
544.316	19141.59
544.681	19102.72
545.045	19342.03
545.41	19406.44
545.774	19452.54
546.138	19415.7
546.503	19447.34
546.867	19550.62
547.231	19692.53
547.595	19735.47
547.959	19809.37
548.324	19829.7
548.688	19841
549.052	20035.57
549.416	19923.49
549.779	20059.53
550.143	20138.4
550.507	20269.69
550.871	20279.86
551.235	20403.93
551.599	20455.68
551.962	20583.81
552.326	20644.6
552.689	20664.26
553.053	20664.71
553.417	20743.8
553.78	21034.42
554.143	20978.83
554.507	21097.02
554.87	21135.66
555.234	21340.63
555.597	21197.35
555.96	21347.4
556.323	21544.01
556.686	21473.96
557.05	21828.3
557.413	21735.19
557.776	21787.62
558.139	21876.66
558.502	21990.78
558.865	21972.02
559.228	22193.03
559.59	22357.1
559.953	22443.87
560.316	22636.41
560.679	22629.18
561.041	22826.91
561.404	22945.1
561.767	23034.82
562.129	23060.58
562.492	23265.09
562.854	23348.93
563.217	23428.25
563.579	23484.52
563.941	23751.86
564.304	23811.75
564.666	24056.71
565.028	24095.58
565.39	24109.14
565.753	24386.19
566.115	24427.78
566.477	24472.29
566.839	24727.88
567.201	24939.4
567.563	24956.35
567.925	25207.42
568.287	25273.86
568.648	25408.54
569.01	25535.32
569.372	25773.73
569.734	25761.75
570.095	26100.5
570.457	26105.92
570.819	26249.65
571.18	26236.32
571.542	26638.11
571.903	26635.85
572.265	26725.79
572.626	27015.73
572.987	27015.05
573.349	27204.65
573.71	27356.96
574.071	27531.87
574.432	27688.03
574.794	27966.67
575.155	27974.8
575.516	27920.57
575.877	28177.73
576.238	28200.33
576.599	28446.43
576.96	28657.04
577.32	28708.34
577.681	28810.26
578.042	29000.08
578.403	29044.6
578.763	29087.31
579.124	29289.79
579.485	29670.8
579.845	29807.75
580.206	29776.34
580.566	29965.03
580.927	30226.04
581.287	30347.85
581.648	30296.55
582.008	30731.56
582.368	30666.93
582.728	30933.82
583.089	31130.42
583.449	31265.79
583.809	31461.26
584.169	31691.31
584.529	31801.37
584.889	32171.98
585.249	32236.84
585.609	32381.01
585.969	32805.41
586.329	32952.3
586.688	33436.8
587.048	33595.44
587.408	33870.01
587.768	34147.75
588.127	34452.6
588.487	34782.76
588.846	35456.41
589.206	35394.95
589.565	35792.22
589.925	36457.52
590.284	36591.07
590.643	37146.09
591.003	37494.78
591.362	38148.09
591.721	38466.28
592.08	38807.06
592.44	39296.09
592.799	39542.18
593.158	40002.96
593.517	40426.23
593.876	40955.02
594.235	41417.61
594.593	41713.2
594.952	42331.94
595.311	42686.96
595.67	43084.91
596.029	43829.07
596.387	44220.93
596.746	44765.55
597.104	44934.81
597.463	45369.37
597.822	46057.94
598.18	46285.96
598.538	46722.1
598.897	47442.31
599.255	47587.84
599.613	48339.01
599.972	48412.46
600.33	48824.87
600.688	49205.66
601.046	49722.48
601.404	50239.3
601.762	50429.8
602.12	50891.71
602.478	51122.89
602.836	51459.16
603.194	51576.21
603.552	52027.95
603.91	52153.83
604.268	52547.26
604.625	52851.66
604.983	53175.27
605.341	53375.72
605.698	53723.05
606.056	54067.9
606.413	54223.6
606.771	54509.7
607.128	54768.9
607.485	54863.81
607.843	55006.63
608.2	55365.72
608.557	55712.6
608.914	55800.28
609.272	56064.23
609.629	56353.94
609.986	56577.89
610.343	56626.25
610.7	56985.79
611.057	57047.71
611.414	57095.62
611.771	57490.86
612.127	57614.47
612.484	57715.26
612.841	57955.93
613.198	57992.09
613.554	58092.43
613.911	58346.43
614.267	58478.86
614.624	58599.76
614.98	58731.96
615.337	59027.32
615.693	59082.91
616.05	59168.33
616.406	59365.61
616.762	59468.66
617.118	59493.29
617.475	59616
617.831	59768.54
618.187	59870.23
618.543	59970.34
618.899	60113.39
619.255	60225.93
619.611	60262.09
619.967	60411.46
620.323	60509.99
620.678	60496.88
621.034	60583.44
621.39	60593.38
621.746	60726.48
622.101	61027.49
622.457	60793.15
622.812	61021.16
623.168	61014.16
623.523	61098.45
623.879	61226.13
624.234	61114.04
624.589	61288.5
624.945	61293.7
625.3	61370.08
625.655	61394.71
626.01	61389.06
626.365	61485.78
626.72	61510.64
627.075	61522.85
627.43	61584.54
627.785	61631.09
628.14	61609.4
628.495	61646.91
628.85	61711.99
629.205	61693.46
629.559	61782.73
629.914	61715.16
630.269	61753.35
630.623	61714.48
630.978	61683.52
631.332	61861.14
631.687	61828.15
632.041	61827.92
632.396	61810.97
632.75	61804.65
633.104	61898.65
633.459	61799.45
633.813	61792.67
634.167	61781.37
634.521	61789.73
634.875	61827.02
635.229	61765.33
635.583	61695.27
635.937	61729.17
636.291	61768.71
636.645	61769.62
636.999	61667.47
637.352	61727.81
637.706	61634.03
638.06	61787.02
638.413	61666.57
638.767	61570.3
639.121	61626.57
639.474	61538.89
639.828	61568.27
640.181	61519.68
640.534	61595.61
640.888	61463.41
641.241	61407.37
641.594	61394.26
641.947	61563.75
642.301	61401.04
642.654	61470.87
643.007	61433.13
643.36	61452.34
643.713	61407.37
644.066	61547.93
644.419	61306.13
644.771	61090.99
645.124	60878.57
645.477	60832.24
645.83	60775.07
646.182	60799.47
646.535	60735.52
646.888	60746.37
647.24	60667.95
647.593	60834.73
647.945	60702.3
648.298	60616.88
648.65	60563.77
649.002	60454.63
649.355	60431.57
649.707	60301.18
650.059	60287.17
650.411	60628.18
650.763	60755.41
651.115	61077.89
651.467	61012.35
651.819	60992.69
652.171	60907.49
652.523	60856.65
652.875	60861.62
653.227	60796.31
653.578	60929.41
653.93	60822.75
654.282	60707.5
654.633	60772.36
654.985	60782.07
655.337	60739.36
655.688	60741.17
656.039	60843.09
656.391	60626.37
656.742	60652.36
657.094	60629.31
657.445	60654.17
657.796	60685.13
658.147	60649.65
658.498	60615.75
658.849	60733.04
659.2	60594.06
659.551	60551.57
659.902	60742.75
660.253	60545.47
660.604	60611.68
660.955	60493.72
661.306	60609.42
661.656	60503.66
662.007	60563.55
662.358	60545.02
662.708	60617.11
663.059	60487.62
663.409	60342.76
663.76	60526.71
664.11	60507.28
664.461	60554.51
664.811	60615.75
665.161	60490.33
665.511	60503.89
665.862	60477.9
666.212	60525.81
666.562	60521.29
666.912	60462.53
667.262	60412.82
667.612	60385.47
667.962	60439.71
668.312	60415.98
668.662	60499.6
669.011	60438.81
669.361	60378.92
669.711	60434.74
670.06	60353.84
670.41	60257.34
670.76	60265.03
671.109	60391.35
671.459	60338.7
671.808	60304.12
672.157	60383.21
672.507	60190.9
672.856	60262.09
673.205	60365.81
673.554	60362.2
673.904	60201.07
674.253	60445.13
674.602	60217.12
674.951	59968.54
675.3	59840.86
675.649	60203.78
675.998	60192.71
676.346	60219.15
676.695	60277.23
677.044	60095.99
677.393	60188.42
677.741	60222.09
678.09	60145.25
678.438	60126.05
678.787	60168.76
679.135	60128.98
679.484	60034.3
679.832	60094.63
680.181	60011.92
680.529	60013.73
680.877	59955.66
681.225	59935.09
681.573	60106.84
681.922	59994.98
682.27	59921.08
682.618	59857.58
682.966	59781.42
683.314	59848.54
683.661	59775.55
684.009	59755.66
684.357	59745.49
684.705	59659.84
685.053	59719.96
685.4	59587.98
685.748	59542.78
686.095	59490.36
686.443	59398.61
686.79	59442.45
687.138	59456.91
687.485	59399.51
687.832	59407.2
688.18	59392.05
688.527	59310.25
688.874	59247.2
689.221	59239.52
689.568	59110.71
689.915	59051.5
690.262	59108.67
690.609	59031.39
690.956	58895.8
691.303	58922.91
691.65	58829.13
691.997	58772.64
692.344	58773.99
692.69	58651.51
693.037	58715.01
693.383	58507.33
693.73	58553.88
694.077	58382.59
694.423	58444.51
694.769	58341.91
695.116	58298.07
695.462	58195.93
695.808	58173.1
696.155	58159.54
696.501	57935.6
696.847	58034.35
697.193	57876.16
697.539	58034.12
697.885	57698.54
698.231	57686.79
698.577	57658.77
698.923	57564.53
699.269	57474.36
699.614	57470.3
699.96	57337.42
700.306	57390.98
700.651	57220.81
700.997	57177.65
701.342	57095.39
701.688	57074.83
702.033	56973.81
702.379	56941.27
702.724	56793.93
703.069	56897.43
703.415	56558.68
703.76	56651.34
704.105	56611.34
704.45	56581.05
704.795	56423.77
705.14	56285.02
705.485	56293.15
705.83	56160.73
706.175	56297.45
706.52	56066.94
706.865	56038.24
707.209	56005.25
707.554	56022.2
707.899	55900.62
708.243	55814.07
708.588	55732.94
708.932	55574.98
709.277	55581.31
709.621	55576.34
709.966	55412.72
710.31	55419.28
710.654	55347.19
710.998	55299.05
711.342	55307.64
711.687	55212.05
712.031	55101.09
712.375	55003.47
712.719	54935
713.063	54832.85
713.407	54949.46
713.75	54830.82
714.094	54828.56
714.438	54730.71
714.782	54659.52
715.125	54600.09
715.469	54665.4
715.812	54425.18
716.156	54455.46
716.499	54463.37
716.843	54400.32
717.186	54240.55
717.53	54353.32
717.873	54346.31
718.216	54223.15
718.559	54138.41
718.902	53948.36
719.246	53972.31
719.589	53940.22
719.932	53883.72
720.275	53859.32
720.617	53868.13
720.96	53749.72
721.303	53842.82
721.646	53811.18
721.989	53670.85
722.331	53679.44
722.674	53617.29
723.016	53564.41
723.359	53474.02
723.701	53508.59
724.044	53365.77
724.386	53244.19
724.729	53358.31
725.071	53383.62
725.413	53249.39
725.755	53189.73
726.097	53170.3
726.439	53047.81
726.782	52998.78
727.124	53177.98
727.465	53067.47
727.807	52897.08
728.149	52956.52
728.491	52835.39
728.833	52862.96
729.175	52876.75
729.516	52740.48
729.858	52674.94
730.199	52774.6
730.541	52810.53
730.882	52630.65
731.224	52672.68
731.565	52579.58
731.906	52508.17
732.248	52538
732.589	52379.81
732.93	52307.49
733.271	52422.97
733.612	52391.33
733.953	52505.68
734.294	52325.12
734.635	52253.03
734.976	52402.86
735.317	52276.54
735.658	52227.72
735.999	52074.28
736.339	52100.49
736.68	52149.76
737.021	52003.55
737.361	51939.37
737.702	52079.93
738.042	51871.12
738.383	51942.08
738.723	52090.55
739.063	51924.45
739.404	51999.03
739.744	51895.08
740.084	51833.16
740.424	51878.81
740.764	51737.11
741.104	51972.59
741.444	51715.87
741.784	51713.16
742.124	51763.55
742.464	51654.4
742.804	51655.76
743.143	51566.05
743.483	51651.47
743.823	51507.52
744.162	51474.97
744.502	51476.78
744.841	51362.89
745.181	51547.29
745.52	51343.68
745.86	51434.52
746.199	51362.43
746.538	51349.55
746.877	51609.89
747.216	51357.01
747.556	51254.19
747.895	51301.19
748.234	51284.7
748.573	51244.92
748.911	51188.88
749.25	51105.49
749.589	51013.97
749.928	51063.91
750.267	51049.45
750.605	51119.96
750.944	51023.91
751.283	51058.49
751.621	51058.26
751.96	50881.54
752.298	50860.08
752.636	50916.57
752.975	50734.65
753.313	50693.98
753.651	50900.75
753.989	50666.63
754.327	50745.73
754.666	50404.95
755.004	50602.91
755.342	50675.67
755.679	50532.4
756.017	50340.99
756.355	50432.74
756.693	50288.11
757.031	50390.93
757.368	50062.13
757.706	50208.34
758.044	50070.72
758.381	50027.78
758.719	50063.26
759.056	49963.6
759.394	49935.81
759.731	49627.11
760.068	49619.66
760.405	49566.55
760.743	49455.14
761.08	49554.35
761.417	49246.78
761.754	49232.77
762.091	49185.54
762.428	49011.08
762.765	48858.32
763.102	48991.65
763.438	48896.96
763.775	48622.17
764.112	48580.59
764.449	48608.61
764.785	48464.66
765.122	48168.85
765.458	48053.14
765.795	47997.78
766.131	48102.18
766.467	47893.83
766.804	47718.69
767.14	47539.48
767.476	47393.5
767.812	47450.9
768.148	47418.13
768.485	47315.08
768.821	46956.67
769.157	46892.27
769.492	46745.38
769.828	46776.79
770.164	46401.66
770.5	46307.43
770.836	46278.73
771.171	46157.15
771.507	46078.05
771.842	45838.74
772.178	45748.57
772.513	45667.9
772.849	45427.9
773.184	45365.98
773.519	45341.8
773.855	45069.72
774.19	45046.67
774.525	44837.18
774.86	44705.21
775.195	44572.1
775.53	44516.51
775.865	44199.23
776.2	43985.91
776.535	43766.7
776.87	43747.72
777.205	43653.94
777.539	43362.19
777.874	43535.52
778.209	43131.01
778.543	43165.36
778.878	42948.64
779.212	42870
779.547	42552.95
779.881	42673.85
780.215	42160.19
780.55	42320.41
780.884	41942.12
781.218	41853.08
781.552	41948.45
781.886	41645.18
782.22	41516.37
782.554	41293.77
782.888	40960.9
783.222	41020.56
783.556	40725.2
783.889	40680.91
784.223	40281.37
784.557	40288.83
784.89	40494.7
785.224	40226.91
785.557	39914.37
785.891	39922.74
786.224	39759.58
786.558	39752.34
786.891	39475.97
787.224	39203.43
787.557	39187.84
787.891	39110.1
788.224	38869.43
788.557	38879.6
788.89	38610
789.223	38642.09
789.556	38398.93
789.888	38219.28
790.221	38120.07
790.554	37956.01
790.887	38027.87
791.219	37654.32
791.552	37686.86
791.884	37553.53
792.217	37415.46
792.549	37144.5
792.882	36932.98
793.214	36769.37
793.546	36874.45
793.879	36783.84
794.211	36445.76
794.543	36650.05
794.875	36339.33
795.207	36365.77
795.539	36203.29
795.871	36114.7
796.203	36031.76
796.535	35704.32
796.867	35746.57
797.198	35650.31
797.53	35490.99
797.862	35216.19
798.193	35293.7
798.525	34876.99
798.856	35097.1
799.188	34752.25
799.519	34679.03
799.85	34433.84
800.182	34606.04
800.513	34541.63
800.844	34003.8
801.175	34406.27
801.506	34288.31
801.837	34103.23
802.168	33954.08
802.499	33900.07
802.83	33634.99
803.161	33531.27
803.491	33418.27
803.822	33731.49
804.153	33388.67
804.483	33229.35
804.814	33104.61
805.145	33074.1
805.475	33062.58
805.805	32909.59
806.136	32874.33
806.466	32682.02
806.796	32674.34
807.126	32446.77
807.457	32468.02
807.787	32520.67
808.117	32284.97
808.447	32222.37
808.777	32261.92
809.107	31960.69
809.436	31976.28
809.766	31922.27
810.096	31958.43
810.426	31642.28
810.755	31801.14
811.085	31514.82
811.414	31629.17
811.744	31474.82
812.073	31447.7
812.403	31307.14
812.732	31184.21
813.061	31429.4
813.39	30897.66
813.719	30861.5
814.049	31198.45
814.378	30957.32
814.707	30746.03
815.036	30734.95
815.365	30578.57
815.693	30501.97
816.022	30426.04
816.351	30358.69
816.68	30180.17
817.008	30266.94
817.337	29972.49
817.665	30048.42
817.994	30024.92
818.322	30040.06
818.651	29995.99
818.979	29792.15
819.307	29857.01
819.636	29691.59
819.964	29677.36
820.292	29720.52
820.62	29603.68
820.948	29632.16
821.276	29763.68
821.604	29571.14
821.932	29831.25
822.259	29551.03
822.587	29622.67
822.915	29535.89
823.243	29616.11
823.57	29391.04
823.898	29503.35
824.225	29405.72
824.553	29471.94
824.88	29452.5
825.207	29621.09
825.535	29462.45
825.862	29398.94
826.189	29431.94
826.516	29713.96
826.843	29720.97
827.17	29692.27
827.497	29633.97
827.824	29482.33
828.151	29631.71
828.478	29544.25
828.805	29698.6
829.131	29476.46
829.458	29536.57
829.785	29313.07
830.111	29353.52
830.438	29789.89
830.764	29558.71
831.09	29542.22
831.417	29453.41
831.743	29652.95
832.069	29414.99
832.395	29412.28
832.722	29414.76
833.048	29313.3
833.374	29379.74
833.7	29193.07
834.026	29355.33
834.351	29188.78
834.677	29291.83
835.003	29181.1
835.329	29265.61
835.654	29130.7
835.98	29174.09
836.306	29232.4
836.631	29061.78
836.956	29209.12
837.282	29196.01
837.607	29022.23
837.932	28987.43
838.258	28815.68
838.583	28930.93
838.908	28766.42
839.233	28853.2
839.558	28707.89
839.883	28652.75
840.208	28532.98
840.533	28600.32
840.858	28526.88
841.182	28585.86
841.507	28520.55
841.832	28403.49
842.156	28329.37
842.481	28408.69
842.805	28186.55
843.13	28153.55
843.454	28217.28
843.778	28042.82
844.103	27939.32
844.427	27941.58
844.751	27920.34
845.075	27809.61
845.399	27848.02
845.723	27530.97
846.047	27598.31
846.371	27488.03
846.695	27239.68
847.019	27179.57
847.343	27040.81
847.666	27057.31
847.99	26963.53
848.313	26817.77
848.637	26715.85
848.96	26754.49
849.284	26699.58
849.607	26461.39
849.931	26302.98
850.254	26185.47
850.577	25936.66
850.9	25851.92
851.223	25933.27
851.546	25703.67
851.869	25617.35
852.192	25756.55
852.515	25472.27
852.838	25439.95
853.161	25356.79
853.483	25174.2
853.806	25199.05
854.129	25135.78
854.451	25003.35
854.774	24778.73
855.096	24817.37
855.419	24686.98
855.741	24666.64
856.063	24452.41
856.385	24394.1
856.708	24402.92
857.03	24342.35
857.352	24219.65
857.674	24186.88
857.996	24068.01
858.318	23851.07
858.64	23998.18
858.961	23919.31
859.283	23852.88
859.605	23589.38
859.926	23780.34
860.248	23636.61
860.57	23669.6
860.891	23553.22
861.212	23546.44
861.534	23342.61
861.855	23230.52
862.176	23255.6
862.498	23315.94
862.819	23254.47
863.14	23287.24
863.461	23123.4
863.782	23108.71
864.103	23096.51
864.424	22915.05
864.745	23042.05
865.065	22975.16
865.386	22788.27
865.707	22856.97
866.027	22869.4
866.348	22775.84
866.668	22769.29
866.989	22688.84
867.309	22491.78
867.63	22539.69
867.95	22656.75
868.27	22448.39
868.59	22453.82
868.91	22378.11
869.23	22432.57
869.55	22346.47
869.87	22438.68
870.19	22227.61
870.51	22280.94
870.83	22299.24
871.15	22084.79
871.469	22087.95
871.789	22199.36
872.109	22098.57
872.428	21908.29
872.748	22060.61
873.067	21962.76
873.386	21995.07
873.706	21966.37
874.025	21793.49
874.344	21863.1
874.663	21839.37
874.982	21735.42
875.301	21829.88
875.62	21494.97
875.939	21596.89
876.258	21678.92
876.577	21487.06
876.896	21570.9
877.214	21486.16
877.533	21544.69
877.852	21398.93
878.17	21483.22
878.489	21501.75
878.807	21320.96
879.125	21344.69
879.444	21274.19
879.762	21189.89
880.08	21196.9
880.398	21100.86
880.716	21192.38
881.034	21025.61
881.352	21083.23
881.67	21015.44
881.988	20849.79
882.306	20852.5
882.624	20845.05
882.941	20716.01
883.259	20749.68
883.577	20706.52
883.894	20636.46
884.212	20524.38
884.529	20496.81
884.846	20434.43
885.164	20287.09
885.481	20336.13
885.798	20421.78
886.115	20320.99
886.432	20302.46
886.75	20231.28
887.067	20280.54
887.383	20045.29
887.7	20085.97
888.017	19918.97
888.334	19965.52
888.651	19897.5
888.967	19858.86
889.284	19784.51
889.6	19647.79
889.917	19622.48
890.233	19740.67
890.55	19525.08
890.866	19561.92
891.182	19506.55
891.498	19491.86
891.815	19270.85
892.131	19313.79
892.447	19240.79
892.763	19229.72
893.079	19183.17
893.395	18975.49
893.71	19078.09
894.026	18982.27
894.342	19000.12
894.657	18720.13
894.973	18686.01
895.289	18683.52
895.604	18622.73
895.92	18643.07
896.235	18493.24
896.55	18505.45
896.865	18439.68
897.181	18378.67
897.496	18399.69
897.811	18198.34
898.126	18094.38
898.441	18086.47
898.756	18161.73
899.071	18056.64
899.386	18116.76
899.7	17928.06
900.015	17788.85
900.33	17628.41
900.644	17677.9
900.959	17672.93
901.273	17610.1
901.588	17595.87
901.902	17445.13
902.216	17365.59
902.531	17328.53
902.845	17292.6
903.159	17111.36
903.473	17116.56
903.787	17114.52
904.101	17046.05
904.415	17019.61
904.729	16978.93
905.042	16780.07
905.356	16802.67
905.67	16744.81
905.984	16687.64
906.297	16652.61
906.611	16399.96
906.924	16453.07
907.237	16529.45
907.551	16408.33
907.864	16230.25
908.177	16227.09
908.491	16178.28
908.804	16061.89
909.117	15944.83
909.43	15936.93
909.743	15811.73
910.056	15772.41
910.368	15732.41
910.681	15615.8
910.994	15561.79
911.307	15504.85
911.619	15342.36
911.932	15355.25
912.244	15224.4
912.557	15331.52
912.869	15160.9
913.181	15067.57
913.494	15129.49
913.806	14967.69
914.118	14972.88
914.43	14900.57
914.742	14802.72
915.054	14685.66
915.366	14691.99
915.678	14571.09
915.99	14486.12
916.302	14431.65
916.613	14416.51
916.925	14359.57
917.236	14311.21
917.548	14251.55
917.859	14287.48
918.171	14198.67
918.482	14122.51
918.794	14052.46
919.105	14044.55
919.416	13867.15
919.727	13816.98
920.038	13802.07
920.349	13695.85
920.66	13685.23
920.971	13649.53
921.282	13520.27
921.593	13536.76
921.903	13376.54
922.214	13353.49
922.525	13261.29
922.835	13198.01
923.146	13258.35
923.456	13107.4
923.767	12953.28
924.077	13055.19
924.387	13011.13
924.697	12956.66
925.008	12790.12
925.318	12809.32
925.628	12796.9
925.938	12768.87
926.248	12578.6
926.558	12567.75
926.867	12559.39
927.177	12504.93
927.487	12430.58
927.796	12378.15
928.106	12330.24
928.416	12224.03
928.725	12204.82
929.034	12164.14
929.344	12174.31
929.653	12097.7
929.962	11984.04
930.271	11992.62
930.581	11921.66
930.89	11812.74
931.199	11804.83
931.508	11851.16
931.817	11764.83
932.125	11684.38
932.434	11625.17
932.743	11529.58
933.051	11436.7
933.36	11480.32
933.669	11391.51
933.977	11387.21
934.286	11368.46
934.594	11285.52
934.902	11178.18
935.21	11122.36
935.519	11119.43
935.827	11030.84
936.135	10985.87
936.443	10930.28
936.751	10836.49
937.059	10829.49
937.367	10779.55
937.674	10796.95
937.982	10685.54
938.29	10639.66
938.597	10663.62
938.905	10511.53
939.213	10525.32
939.52	10466.79
939.827	10465.66
940.135	10390.4
940.442	10381.82
940.749	10257.07
941.056	10339.78
941.363	10243.06
941.67	10221.82
941.977	10117.42
942.284	10062.73
942.591	10038.55
942.898	10110.86
943.205	9984.99
943.511	9898.44
943.818	9936.41
944.125	9832.68
944.431	9796.52
944.738	9806.92
945.044	9643.76
945.35	9623.19
945.657	9615.51
945.963	9583.87
946.269	9476.98
946.575	9551.1
946.881	9450.32
947.187	9422.97
947.493	9347.27
947.799	9327.16
948.105	9218.23
948.41	9196.99
948.716	9104.79
949.022	9138.69
949.327	9178.69
949.633	9001.51
949.938	9055.98
950.244	9034.73
950.549	8961.97
950.854	8889.65
951.16	8893.04
951.465	8771.46
951.77	8784.35
952.075	8735.31
952.38	8710.45
952.685	8664.8
952.99	8614.18
953.294	8558.14
953.599	8492.15
953.904	8490.79
954.209	8386.16
954.513	8444.24
954.818	8358.14
955.122	8353.85
955.426	8300.29
955.731	8306.17
956.035	8206.51
956.339	8181.2
956.643	8179.16
956.948	8117.02
957.252	8099.39
957.556	8050.35
957.86	7955.67
958.163	7926.29
958.467	7914.76
958.771	7919.28
959.075	7891.71
959.378	7744.15
959.682	7812.17
959.985	7734.88
960.289	7680.65
960.592	7655.79
960.896	7652.4
961.199	7599.74
961.502	7575.11
961.805	7500.54
962.108	7443.59
962.411	7499.86
962.714	7388.22
963.017	7401.1
963.32	7371.95
963.623	7360.65
963.926	7336.7
964.228	7257.61
964.531	7189.36
964.833	7219.64
965.136	7157.27
965.438	7123.15
965.741	7076.14
966.043	7032.75
966.345	7048.35
966.648	7077.72
966.95	6997.05
967.252	6867.56
967.554	6946.88
967.856	6896.94
968.158	6786.43
968.46	6828.69
968.761	6776.94
969.063	6759.31
969.365	6746.66
969.666	6675.47
969.968	6641.12
970.269	6603.61
970.571	6562.71
970.872	6566.1
971.174	6597.74
971.475	6502.82
971.776	6512.77
972.077	6433.45
972.378	6471.41
972.679	6361.13
972.98	6392.32
973.281	6349.83
973.582	6306.22
973.883	6299.89
974.183	6267.12
974.484	6230.06
974.785	6195.71
975.085	6181.7
975.386	6179.44
975.686	6094.7
975.986	6056.06
976.287	6034.81
976.587	6025.77
976.887	5967.47
977.187	5965.66
977.487	5941.48
977.787	5914.82
978.087	5878.43
978.387	5849.28
978.687	5864.87
978.987	5789.4
979.286	5765.44
979.586	5752.56
979.885	5718.21
980.185	5666.91
980.484	5629.4
980.784	5663.98
981.083	5613.13
981.382	5576.97
981.682	5583.53
981.981	5555.96
982.28	5471.21
982.579	5431.21
982.878	5480.93
983.177	5438.22
983.475	5389.63
983.774	5341.72
984.073	5313.02
984.372	5295.85
984.67	5284.32
984.969	5263.99
985.267	5268.73
985.566	5251.78
985.864	5202.29
986.162	5186.93
986.461	5101.5
986.759	5115.29
987.057	5049.53
987.355	5037.1
987.653	5054.27
987.951	5026.7
988.249	4999.59
988.547	4993.03
988.844	4935.86
989.142	4928.63
989.44	4895.63
989.737	4861.28
990.035	4871.68
990.332	4823.32
990.63	4762.3
990.927	4791.46
991.224	4809.76
991.521	4778.8
991.819	4724.79
992.116	4729.76
992.413	4650.44
992.71	4629.43
993.006	4608.86
993.303	4603.44
993.6	4538.13
993.897	4569.09
994.193	4551.69
994.49	4500.39
994.787	4455.87
995.083	4443.44
995.379	4447.74
995.676	4428.75
995.972	4413.16
996.268	4364.57
996.565	4330.68
996.861	4322.54
997.157	4322.09
997.453	4288.42
997.749	4266.5
998.044	4193.51
998.34	4245.48
998.636	4197.35
998.932	4190.12
999.227	4140.4
999.523	4118.48
999.818	4068.09
1000.114	4086.16
1000.409	4028.76
1000.704	4043.9
1001	3958.48
1001.295	3993.28
1001.59	3948.54
1001.885	3938.6
1002.18	3898.6
1002.475	3874.64
1002.77	3867.86
1003.065	3856.57
1003.359	3819.73
1003.654	3819.05
1003.949	3784.93
1004.243	3745.38
1004.538	3721.65
1004.832	3713.74
1005.127	3717.81
1005.421	3671.94
1005.715	3651.15
1006.009	3629
1006.304	3604.37
1006.598	3587.19
1006.892	3547.65
1007.186	3531.38
1007.48	3559.85
1007.773	3462.23
1008.067	3488.21
1008.361	3425.84
1008.655	3422.9
1008.948	3428.78
1009.242	3431.49
1009.535	3382.45
1009.829	3332.06
1010.122	3322.79
1010.415	3253.42
1010.708	3236.24
1011.001	3276.02
1011.295	3216.36
1011.588	3212.97
1011.881	3178.17
1012.173	3167.54
1012.466	3205.51
1012.759	3107.88
1013.052	3137.26
1013.344	3115.79
1013.637	3113.76
1013.93	3042.35
1014.222	3049.35
1014.514	3037.38
1014.807	3021.56
1015.099	2974.33
1015.391	2943.82
1015.683	2952.41
1015.976	2931.17
1016.268	2937.72
1016.56	2858.85
1016.851	2901.34
1017.143	2855.46
1017.435	2828.12
1017.727	2828.34
1018.018	2803.26
1018.31	2745.86
1018.602	2733.88
1018.893	2728.23
1019.185	2710.15
1019.476	2725.3
1019.767	2694.79
1020.058	2637.16
1020.35	2633.55
1020.641	2601.91
1020.932	2607.78
1021.223	2593.32
1021.514	2575.69
1021.804	2517.84
1022.095	2560.78
1022.386	2527.11
1022.677	2517.17
1022.967	2443.72
1023.258	2484.4
1023.548	2446.88
1023.839	2382.25
1024.129	2390.16
1024.419	2373.89
1024.709	2363.72
1025	2361.46
1025.29	2333.44
1025.58	2318.53
1025.87	2289.6
1026.16	2290.05
1026.449	2286.66
1026.739	2238.08
1027.029	2258.19
1027.319	2233.56
1027.608	2202.37
1027.898	2209.6
1028.187	2170.28
1028.477	2153.56
1028.766	2162.37
1029.055	2114.46
1029.344	2114.69
1029.634	2079.66
1029.923	2099.55
1030.212	2071.3
1030.501	2049.83
1030.79	2071.08
1031.078	2011.64
1031.367	1998.31
1031.656	1992.89
1031.945	1975.48
1032.233	1971.42
1032.522	1944.3
1032.81	1906.56
1033.099	1902.72
1033.387	1917.86
1033.675	1889.39
1033.963	1834.47
1034.251	1855.49
1034.54	1821.36
1034.828	1820.46
1035.116	1828.37
1035.403	1821.14
1035.691	1787.92
1035.979	1791.08
1036.267	1755.83
1036.554	1752.21
1036.842	1737.3
1037.129	1713.8
1037.417	1709.28
1037.704	1703.4
1037.992	1681.26
1038.279	1665.89
1038.566	1655.72
1038.853	1655.72
1039.14	1655.72
