Data from 17-1456_FLMS001491_010.txt Node
Date: Thu Apr 19 16:30:51 BST 2018
User: hsy
Spectrometer: FLMS00149
Trigger mode: 0
Integration Time (sec): 1.000000E-2
Scans to average: 10
Electric dark correction enabled: true
Nonlinearity correction enabled: false
Boxcar width: 0
XAxis mode: Wavelengths
Number of Pixels in Spectrum: 2048
>>>>>Begin Spectral Data<<<<<
341.393	-0.69
341.776	-0.69
342.16	-0.69
342.543	-37.08
342.927	-77.53
343.31	-61.93
343.693	-70.07
344.077	-76.17
344.46	-50.63
344.843	-56.96
345.226	-50.41
345.61	-40.01
345.993	-27.13
346.376	-1.14
346.759	17.61
347.142	25.07
347.525	76.82
347.908	55.8
348.291	60.78
348.674	94.9
349.057	103.49
349.44	118.63
349.823	135.8
350.206	185.52
350.588	247.66
350.971	253.54
351.354	265.74
351.737	262.58
352.119	317.04
352.502	322.46
352.884	324.27
353.267	334.21
353.65	334.67
354.032	366.08
354.414	357.26
354.797	358.17
355.179	382.35
355.562	362.01
355.944	380.99
356.326	402.24
356.709	378.06
357.091	387.09
357.473	409.01
357.855	382.12
358.238	394.1
358.62	394.1
359.002	385.96
359.384	397.26
359.766	396.36
360.148	394.33
360.53	390.48
360.912	404.95
361.294	402.24
361.676	392.52
362.057	407.88
362.439	372.86
362.821	359.98
363.203	376.7
363.584	399.3
363.966	373.31
364.348	390.48
364.729	371.28
365.111	374.67
365.493	393.65
365.874	382.12
366.256	374.44
366.637	366.08
367.019	403.37
367.4	398.17
367.781	387.09
368.163	391.61
368.544	394.1
368.925	368.56
369.306	393.87
369.688	390.03
370.069	396.81
370.45	400.88
370.831	394.33
371.212	385.74
371.593	383.93
371.974	381.9
372.355	378.73
372.736	403.14
373.117	403.37
373.498	390.71
373.879	393.87
374.26	391.61
374.641	391.84
375.021	388.9
375.402	404.27
375.783	398.62
376.163	407.21
376.544	426.87
376.925	413.31
377.305	427.77
377.686	417.83
378.066	411.05
378.447	439.75
378.827	425.74
379.208	424.83
379.588	422.12
379.968	430.26
380.349	428
380.729	410.37
381.109	450.14
381.489	422.12
381.87	470.93
382.25	459.18
382.63	421.9
383.01	432.06
383.39	457.15
383.77	462.12
384.15	460.31
384.53	430.26
384.91	465.74
385.29	459.18
385.67	448.79
386.049	472.52
386.429	474.32
386.809	475.91
387.189	463.25
387.568	484.04
387.948	485.62
388.328	494.66
388.707	481.1
389.087	491.95
389.466	491.5
389.846	477.04
390.225	476.58
390.605	518.62
390.984	502.57
391.363	508.22
391.743	519.75
392.122	538.05
392.501	520.2
392.881	539.63
393.26	545.28
393.639	521.55
394.018	529.46
394.397	532.63
394.776	558.62
395.155	544.38
395.534	539.18
395.913	562.23
396.292	580.31
396.671	559.97
397.05	573.08
397.429	582.8
397.808	596.35
398.186	589.57
398.565	581.89
398.944	561.55
399.323	597.48
399.701	603.59
400.08	604.26
400.458	585.73
400.837	596.58
401.215	598.16
401.594	622.12
401.972	623.47
402.351	601.1
402.729	602.68
403.107	616.69
403.486	646.97
403.864	648.1
404.242	640.65
404.62	635
404.999	643.36
405.377	644.26
405.755	644.04
406.133	665.73
406.511	658.5
406.889	694.43
407.267	706.63
407.645	700.53
408.023	669.57
408.401	686.07
408.779	698.5
409.156	707.76
409.534	741.66
409.912	711.83
410.29	745.73
410.667	777.82
411.045	756.8
411.422	781.66
411.8	770.14
412.178	787.76
412.555	791.15
412.933	806.29
413.31	793.19
413.687	831.83
414.065	818.72
414.442	797.71
414.819	856.91
415.197	849.23
415.574	867.31
415.951	853.07
416.328	878.83
416.705	850.13
417.082	890.36
417.46	870.02
417.837	918.61
418.214	903.46
418.591	918.15
418.967	923.58
419.344	901.21
419.721	936.46
420.098	949.79
420.475	947.76
420.852	942.56
421.228	950.7
421.605	974.2
421.982	972.39
422.358	976.68
422.735	999.96
423.111	987.53
423.488	1011.48
423.864	1010.35
424.241	1033.63
424.617	1025.04
424.994	1021.65
425.37	1038.6
425.746	1050.81
426.123	1065.27
426.499	1069.56
426.875	1079.73
427.251	1095.32
427.627	1129.22
428.003	1119.05
428.379	1099.39
428.756	1125.61
429.132	1166.96
429.507	1178.49
429.883	1191.37
430.259	1192.5
430.635	1193.17
431.011	1213.29
431.387	1244.7
431.763	1259.84
432.138	1265.72
432.514	1280.63
432.89	1297.35
433.265	1315.88
433.641	1318.14
434.016	1337.13
434.392	1348.65
434.767	1397.92
435.143	1371.93
435.518	1377.12
435.894	1401.76
436.269	1431.59
436.644	1465.03
437.02	1465.94
437.395	1484.92
437.77	1493.96
438.145	1507.74
438.52	1476.56
438.895	1541.19
439.271	1513.62
439.646	1496.9
440.021	1522.66
440.395	1559.04
440.77	1549.78
441.145	1571.7
441.52	1606.5
441.895	1613.73
442.27	1589.77
442.645	1630.68
443.019	1594.52
443.394	1615.99
443.769	1655.31
444.143	1628.42
444.518	1680.17
444.892	1654.18
445.267	1689.66
445.641	1647.63
446.016	1703.22
446.39	1694.4
446.764	1750
447.139	1710.68
447.513	1730.79
447.887	1734.4
448.262	1766.49
448.636	1780.73
449.01	1792.26
449.384	1786.61
449.758	1809.88
450.132	1810.11
450.506	1837.45
450.88	1869.77
451.254	1854.85
451.628	1867.73
452.002	1872.48
452.376	1907.51
452.75	1937.79
453.123	1918.13
453.497	1974.17
453.871	1990.22
454.244	2026.15
454.618	2064.56
454.992	2091.68
455.365	2100.72
455.739	2108.86
456.112	2114.28
456.486	2153.6
456.859	2151.34
457.232	2241.51
457.606	2214.16
457.979	2257.1
458.352	2272.02
458.725	2315.86
459.099	2333.94
459.472	2379.81
459.845	2381.62
460.218	2396.98
460.591	2431.11
460.964	2460.26
461.337	2477.43
461.71	2527.83
462.083	2582.74
462.456	2586.81
462.829	2584.55
463.201	2612.35
463.574	2627.94
463.947	2684.44
464.32	2682.63
464.692	2693.47
465.065	2769.86
465.438	2744.77
465.81	2829.97
466.183	2820.02
466.555	2874.94
466.928	2906.8
467.3	2900.02
467.672	2892.11
468.045	2988.83
468.417	3003.75
468.789	3013.24
469.161	3053.69
469.534	3097.08
469.906	3135.04
470.278	3159.45
470.65	3185.66
471.022	3281.26
471.394	3290.29
471.766	3316.73
472.138	3380.01
472.51	3404.19
472.882	3481.25
473.253	3486.22
473.625	3568.71
473.997	3601.93
474.369	3610.96
474.74	3692.32
475.112	3732.09
475.484	3820.22
475.855	3868.58
476.227	3932.54
476.598	3976.83
476.97	4007.34
477.341	4114.68
477.713	4107.45
478.084	4204.17
478.455	4295.69
478.827	4344.96
479.198	4441.9
479.569	4467.67
479.94	4609.36
480.311	4629.47
480.682	4709.24
481.053	4876.47
481.424	4887.77
481.795	4941.55
482.166	5047.31
482.537	5115.11
482.908	5224.26
483.279	5248.44
483.65	5420.63
484.021	5448.2
484.391	5552.83
484.762	5640.52
485.133	5699.05
485.503	5761.87
485.874	5918.25
486.244	5951.92
486.615	6075.31
486.985	6200.95
487.356	6230.56
487.726	6325.24
488.097	6475.07
488.467	6535.18
488.837	6734.27
489.207	6749.86
489.578	6866.25
489.948	6958.22
490.318	7041.83
490.688	7078.9
491.058	7290.64
491.428	7317.99
491.798	7448.15
492.168	7609.73
492.538	7683.4
492.908	7884.98
493.278	7899.67
493.648	7962.71
494.017	8085.65
494.387	8197.74
494.757	8286.32
495.126	8391.18
495.496	8467.56
495.866	8567.67
496.235	8622.13
496.605	8794.1
496.974	8827.55
497.344	8871.84
497.713	8977.38
498.082	9112.51
498.452	9209.46
498.821	9296.01
499.19	9300.53
499.559	9454.43
499.928	9555.21
500.298	9585.04
500.667	9733.52
501.036	9742.1
501.405	9894.87
501.774	9973.73
502.143	10016.22
502.512	10086.95
502.88	10224.58
503.249	10166.27
503.618	10390.9
503.987	10340.5
504.356	10525.58
504.724	10611.23
505.093	10634.96
505.462	10687.61
505.83	10843.54
506.199	10900.04
506.567	11056.64
506.936	11081.5
507.304	11157.43
507.672	11265.9
508.041	11346.58
508.409	11377.31
508.777	11542.28
509.145	11551.32
509.514	11568.04
509.882	11655.27
510.25	11803.52
510.618	11890.52
510.986	11849.84
511.354	12026.56
511.722	12221.13
512.09	12288.93
512.458	12271.53
512.826	12386.1
513.193	12500.9
513.561	12638.75
513.929	12602.82
514.297	12666.32
514.664	12822.25
515.032	12981.79
515.4	13060.43
515.767	13154.67
516.135	13195.57
516.502	13159.87
516.869	13446.41
517.237	13560.53
517.604	13462
517.972	13646.41
518.339	13668.55
518.706	13790.81
519.073	13898.83
519.44	13920.07
519.808	14146.51
520.175	14127.98
520.542	14326.16
520.909	14460.4
521.276	14404.35
521.643	14676.21
522.009	14698.36
522.376	14831.91
522.743	14986.48
523.11	15106.48
523.477	15225.57
523.843	15376.76
524.21	15579.46
524.577	15645.45
524.943	15757.76
525.31	15799.8
525.676	16050.19
526.043	16103.52
526.409	16282.72
526.776	16469.16
527.142	16524.75
527.508	16710.96
527.874	16923.61
528.241	16859.88
528.607	16938.3
528.973	17212.64
529.339	17172.87
529.705	17428.23
530.071	17536.25
530.437	17615.12
530.803	17755
531.169	17957.25
531.535	17851.95
531.901	17999.06
532.267	18148.66
532.632	18283.57
532.998	18284.93
533.364	18431.14
533.73	18570.8
534.095	18762.2
534.461	18821.19
534.826	18902.31
535.192	18979.6
535.557	19081.52
535.923	19141.63
536.288	19232.93
536.653	19299.59
537.019	19324.22
537.384	19484.22
537.749	19567.15
538.114	19643.54
538.479	19615.29
538.845	19777.32
539.21	19797.43
539.575	19959.91
539.94	20022.74
540.305	20086.24
540.67	20204.88
541.034	20177.08
541.399	20254.14
541.764	20370.52
542.129	20509.96
542.494	20501.37
542.858	20620.91
543.223	20572.33
543.587	20674.92
543.952	20767.35
544.316	20894.35
544.681	20820.23
545.045	20960.11
545.41	21052.77
545.774	21143.61
546.138	21168.24
546.503	21177.06
546.867	21239.43
547.231	21448.01
547.595	21465.64
547.959	21498.4
548.324	21659.76
548.688	21745.63
549.052	21709.25
549.416	21769.36
549.779	21818.17
550.143	21908.56
550.507	22071.5
550.871	22134.77
551.235	22166.86
551.599	22163.7
551.962	22326.4
552.326	22453.18
552.689	22396.23
553.053	22402.11
553.417	22556.23
553.78	22733.85
554.143	22801.65
554.507	22982.21
554.87	22869.22
555.234	23122.77
555.597	22973.85
555.96	23146.72
556.323	23233.73
556.686	23387.85
557.05	23372.03
557.413	23439.82
557.776	23652.7
558.139	23751.9
558.502	23814.05
558.865	23885.91
559.228	24015.63
559.59	24074.16
559.953	24255.85
560.316	24477.53
560.679	24461.72
561.041	24588.72
561.404	24762.95
561.767	24964.08
562.129	24835.27
562.492	25096.28
562.854	25076.39
563.217	25193.9
563.579	25263.5
563.941	25472.99
564.304	25630.05
564.666	25794.34
565.028	25738.52
565.39	25880.21
565.753	26233.65
566.115	26267.32
566.477	26354.77
566.839	26501.66
567.201	26795.67
567.563	26794.31
567.925	27078.14
568.287	27083.34
568.648	27208.31
569.01	27448.3
569.372	27681.97
569.734	27606.94
570.095	27903.88
570.457	28199.47
570.819	28142.52
571.18	28237.89
571.542	28575.73
571.903	28655.96
572.265	28891.66
572.626	29021.6
572.987	29083.51
573.349	29336.16
573.71	29459.78
574.071	29596.72
574.432	29761.24
574.794	29994.9
575.155	29987.67
575.516	30155.13
575.877	30311.51
576.238	30471.05
576.599	30733.42
576.96	30856.35
577.32	30876.46
577.681	31148.77
578.042	31314.19
578.403	31334.53
578.763	31552.83
579.124	31668.98
579.485	31989.2
579.845	32111.91
580.206	32212.47
580.566	32282.07
580.927	32481.17
581.287	32691.56
581.648	32819.01
582.008	33259.22
582.368	33359.11
582.728	33500.8
583.089	33667.12
583.449	33888.36
583.809	34065.08
584.169	34489.47
584.529	34477.27
584.889	35176.46
585.249	35109.35
585.609	35281.09
585.969	35798.14
586.329	35830.91
586.688	36370.33
587.048	36641.06
587.408	37019.13
587.768	37210.53
588.127	37494.59
588.487	37888.93
588.846	38525.3
589.206	38508.13
589.565	38959.64
589.925	39519.85
590.284	39843.23
590.643	40259.72
591.003	40747.39
591.362	41381.27
591.721	41786.46
592.08	42076.17
592.44	42642.71
592.799	42925.64
593.158	43490.82
593.517	43715.9
593.876	44386.16
594.235	44667.29
594.593	45182.75
594.952	45753.13
595.311	46050.53
595.67	46579.33
596.029	47066.77
596.387	47492.52
596.746	48014.32
597.104	48167.31
597.463	48620.4
597.822	49170.22
598.18	49485.01
598.538	49773.59
598.897	50473.91
599.255	50526.34
599.613	51233.67
599.972	51341.69
600.33	51756.59
600.688	51964.27
601.046	52352.28
601.404	52893.96
601.762	53025.94
602.12	53465.47
602.478	53613.04
602.836	53915.4
603.194	54075.4
603.552	54445.79
603.91	54535.5
604.268	55023.17
604.625	55202.83
604.983	55529.15
605.341	55490.5
605.698	56048.23
606.056	56276.47
606.413	56379.07
606.771	56738.38
607.128	56880.98
607.485	56962.1
607.843	57218.14
608.2	57552.6
608.557	57758.47
608.914	57816.54
609.272	58119.14
609.629	58318.23
609.986	58589.41
610.343	58645.45
610.7	58991.2
611.057	59030.3
611.414	59155.94
611.771	59438.2
612.127	59636.16
612.484	59772.65
612.841	59912.08
613.198	59917.28
613.554	60112.3
613.911	60377.16
614.267	60463.71
614.624	60574.44
614.98	60730.59
615.337	61001.09
615.693	60980.98
616.05	61097.36
616.406	61309.79
616.762	61330.58
617.118	61458.26
617.475	61518.82
617.831	61723.79
618.187	61841.98
618.543	61924.91
618.899	62053.5
619.255	62095.53
619.611	62203.77
619.967	62345.92
620.323	62448.51
620.678	62392.47
621.034	62441.96
621.39	62507.72
621.746	62623.65
622.101	62948.16
622.457	62755.4
622.812	62960.36
623.168	63016.41
623.523	63016.63
623.879	63179.79
624.234	63044.88
624.589	63175.27
624.945	63248.94
625.3	63289.17
625.655	63335.5
626.01	63325.55
626.365	63486.9
626.72	63441.48
627.075	63459.11
627.43	63450.97
627.785	63496.17
628.14	63501.59
628.495	63517.64
628.85	63520.8
629.205	63506.11
629.559	63522.16
629.914	63522.16
630.269	63515.38
630.623	63522.16
630.978	63522.16
631.332	63522.16
631.687	63522.16
632.041	63522.16
632.396	63522.16
632.75	63522.16
633.104	63522.16
633.459	63522.16
633.813	63521.25
634.167	63522.16
634.521	63522.16
634.875	63522.16
635.229	63522.16
635.583	63514.93
635.937	63518.32
636.291	63521.93
636.645	63522.16
636.999	63515.15
637.352	63522.16
637.706	63488.71
638.06	63521.93
638.413	63494.36
638.767	63473.8
639.121	63506.79
639.474	63435.83
639.828	63430.18
640.181	63435.61
640.534	63501.14
640.888	63389.05
641.241	63333.01
641.594	63413.91
641.947	63469.73
642.301	63362.61
642.654	63372.78
643.007	63294.59
643.36	63424.53
643.713	63307.93
644.066	63401.93
644.419	63213.46
644.771	63028.16
645.124	62793.36
645.477	62771.44
645.83	62648.51
646.182	62660.03
646.535	62586.81
646.888	62674.27
647.24	62567.61
647.593	62677.43
647.945	62591.56
648.298	62487.16
648.65	62428.63
649.002	62314.73
649.355	62227.28
649.707	62238.12
650.059	62248.74
650.411	62576.19
650.763	62674.72
651.115	62952.23
651.467	62867.49
651.819	62912.68
652.171	62832.01
652.523	62763.31
652.875	62776.64
653.227	62695.96
653.578	62844.21
653.93	62786.36
654.282	62700.71
654.633	62625.46
654.985	62699.35
655.337	62655.97
655.688	62686.47
656.039	62730.77
656.391	62540.71
656.742	62559.7
657.094	62495.74
657.445	62614.38
657.796	62582.52
658.147	62501.17
658.498	62477.67
658.849	62551.56
659.2	62517.66
659.551	62416.88
659.902	62593.82
660.253	62415.52
660.604	62472.69
660.955	62336.65
661.306	62447.38
661.656	62403.32
662.007	62426.82
662.358	62368.74
662.708	62338.23
663.059	62388.18
663.409	62246.26
663.76	62349.53
664.11	62342.08
664.461	62373.49
664.811	62379.59
665.161	62357.44
665.511	62260.5
665.862	62326.71
666.212	62331
666.562	62337.78
666.912	62270.44
667.262	62273.15
667.612	62305.24
667.962	62281.06
668.312	62224.34
668.662	62343.88
669.011	62278.57
669.361	62232.47
669.711	62251.46
670.06	62148.18
670.41	62146.37
670.76	62153.38
671.109	62212.36
671.459	62227.73
671.808	62165.36
672.157	62260.95
672.507	62067.05
672.856	62104.79
673.205	62093.49
673.554	62144.11
673.904	62082.42
674.253	62248.07
674.602	62099.14
674.951	61788.87
675.3	61723.33
675.649	62090.56
675.998	62018.92
676.346	62089.65
676.695	62071.12
677.044	61939.83
677.393	62031.35
677.741	62091.46
678.09	61964.91
678.438	61882.88
678.787	62037
679.135	61984.12
679.484	61876.78
679.832	61976.21
680.181	61838.36
680.529	61867.96
680.877	61824.35
681.225	61821.64
681.573	62024.12
681.922	61781.19
682.27	61723.11
682.618	61740.74
682.966	61695.76
683.314	61704.35
683.661	61708.87
684.009	61583.45
684.357	61516.33
684.705	61525.37
685.053	61554.75
685.4	61470.23
685.748	61413.06
686.095	61394.53
686.443	61261.2
686.79	61230.47
687.138	61324.48
687.485	61327.64
687.832	61165.84
688.18	61191.6
688.527	61126.74
688.874	61143.46
689.221	61117.47
689.568	61066.4
689.915	60986.18
690.262	61004.26
690.609	60951.38
690.956	60919.06
691.303	60921.77
691.65	60776.69
691.997	60743.02
692.344	60651.27
692.69	60636.58
693.037	60631.39
693.383	60437.72
693.73	60525.85
694.077	60451.28
694.423	60451.05
694.769	60326.76
695.116	60337.61
695.462	60232.3
695.808	60190.27
696.155	60208.12
696.501	60007.45
696.847	60070.95
697.193	59880.9
697.539	60035.24
697.885	59765.65
698.231	59752.54
698.577	59757.96
698.923	59718.64
699.269	59492.21
699.614	59436.16
699.96	59445.65
700.306	59412.89
700.651	59348.71
700.997	59275.26
701.342	59248.37
701.688	59216.96
702.033	59090.41
702.379	59073.69
702.724	58929.96
703.069	59022.39
703.415	58715.5
703.76	58764.99
704.105	58788.5
704.45	58643.64
704.795	58633.25
705.14	58529.52
705.485	58541.72
705.83	58320.03
706.175	58451.78
706.52	58395.51
706.865	58216.08
707.209	58209.75
707.554	58190.32
707.899	58240.71
708.243	58046.37
708.588	58009.08
708.932	57911.91
709.277	57911.68
709.621	57795.3
709.966	57609.32
710.31	57681.86
710.654	57558.7
710.998	57559.6
711.342	57661.97
711.687	57529.77
712.031	57403.9
712.375	57336.33
712.719	57281.42
713.063	57225.6
713.407	57317.57
713.75	57177.47
714.094	57176.34
714.438	57078.03
714.782	57078.71
715.125	56874.65
715.469	57026.28
715.812	56848.21
716.156	56701.09
716.499	56718.49
716.843	56819.06
717.186	56682.56
717.53	56774.09
717.873	56697.7
718.216	56647.08
718.559	56556.01
718.902	56371.16
719.246	56421.78
719.589	56279.18
719.932	56256.13
720.275	56253.42
720.617	56287.77
720.96	56218.62
721.303	56185.4
721.646	56197.6
721.989	56017.72
722.331	56067.21
722.674	55961
723.016	55913.09
723.359	55877.16
723.701	55878.06
724.044	55832.87
724.386	55681.23
724.729	55752.87
725.071	55719.42
725.413	55621.12
725.755	55636.94
726.097	55560.11
726.439	55404.63
726.782	55297.97
727.124	55467.91
727.465	55442.6
727.807	55331.41
728.149	55380.45
728.491	55300.9
728.833	55317.85
729.175	55283.5
729.516	55148.37
729.858	55147.01
730.199	55214.81
730.541	55133.9
730.882	54938.65
731.224	54979.33
731.565	54890.29
731.906	54922.84
732.248	54932.1
732.589	54795.16
732.93	54796.96
733.271	54798.09
733.612	54667.48
733.953	54750.86
734.294	54589.51
734.635	54502.28
734.976	54664.54
735.317	54638.78
735.658	54491.66
735.999	54513.81
736.339	54428.61
736.68	54323.53
737.021	54351.1
737.361	54244.21
737.702	54437.65
738.042	54193.59
738.383	54297.54
738.723	54260.48
739.063	54058.9
739.404	54229.75
739.744	54155.85
740.084	54075.85
740.424	54006.25
740.764	53986.36
741.104	54055.06
741.444	54018.23
741.784	53836.31
742.124	53796.99
742.464	53822.98
742.804	53795.41
743.143	53641.97
743.483	53767.61
743.823	53570.33
744.162	53602.87
744.502	53643.55
744.841	53541.4
745.181	53589.09
745.52	53509.99
745.86	53578.01
746.199	53432.03
746.538	53378.24
746.877	53533.27
747.216	53397.9
747.556	53348.19
747.895	53354.97
748.234	53306.83
748.573	53205.14
748.911	53158.36
749.25	53139.15
749.589	52975.09
749.928	52960.18
750.267	53024.13
750.605	52906.84
750.944	52903.91
751.283	52810.57
751.621	52874.53
751.96	52681.54
752.298	52644.7
752.636	52600.18
752.975	52556.8
753.313	52498.72
753.651	52533.75
753.989	52394.09
754.327	52370.81
754.666	52125.62
755.004	52332.17
755.342	52268.89
755.679	52236.8
756.017	51913.2
756.355	52067.54
756.693	51813.54
757.031	51897.15
757.368	51710.72
757.706	51683.15
758.044	51601.11
758.381	51616.71
758.719	51399.76
759.056	51394.34
759.394	51337.17
759.731	51004.07
760.068	51097.63
760.405	51014.01
760.743	50858.54
761.08	50908.25
761.417	50793.45
761.754	50673.68
762.091	50590.07
762.428	50384.42
762.765	50297.42
763.102	50275.5
763.438	50219.91
763.775	50046.58
764.112	49972.91
764.449	49948.05
764.785	49855.85
765.122	49529.98
765.458	49413.6
765.795	49461.96
766.131	49455.63
766.467	49282.31
766.804	48932.48
767.14	48850.68
767.476	48822.2
767.812	48661.53
768.148	48640.74
768.485	48468.09
768.821	48224.48
769.157	48227.64
769.492	48087.08
769.828	47970.02
770.164	47713.08
770.5	47556.48
770.836	47517.15
771.171	47356.25
771.507	47250.72
771.842	47091.18
772.178	46979.32
772.513	46695.03
772.849	46679.89
773.184	46535.26
773.519	46421.82
773.855	46357.19
774.19	46252.33
774.525	46066.12
774.86	45954.26
775.195	45868.61
775.53	45666.13
775.865	45478.11
776.2	45063.43
776.535	44878.13
776.87	45039.93
777.205	44732.59
777.539	44517.69
777.874	44657.12
778.209	44264.81
778.543	44354.07
778.878	43936.46
779.212	43948.21
779.547	43693.53
779.881	43686.07
780.215	43350.48
780.55	43503.47
780.884	43087.21
781.218	43010.61
781.552	42963.15
781.886	42704.17
782.22	42374.92
782.554	42282.49
782.888	42095.38
783.222	41952.33
783.556	41688.38
783.889	41631.43
784.223	41467.37
784.557	41365.45
784.89	41419.46
785.224	41024.22
785.557	40887.72
785.891	40858.8
786.224	40840.04
786.558	40788.97
786.891	40466.27
787.224	40285.71
787.557	40062.66
787.891	40111.02
788.224	39931.37
788.557	39873.51
788.89	39723.24
789.223	39600.3
789.556	39238.28
789.888	39297.26
790.221	39052.74
790.554	38996.7
790.887	38891.17
791.219	38648.01
791.552	38504.96
791.884	38423.83
792.217	38337.73
792.549	38255.7
792.882	37935.03
793.214	37942.04
793.546	37820.01
793.879	37529.85
794.211	37284.43
794.543	37590.41
794.875	37353.81
795.207	37239.46
795.539	37149.52
795.871	37267.71
796.203	36988.17
796.535	36600.61
796.867	36673.82
797.198	36387.28
797.53	36327.62
797.862	36192.93
798.193	36203.78
798.525	35843.56
798.856	36141.63
799.188	35560.86
799.519	35707.07
799.85	35458.04
800.182	35449
800.513	35444.48
800.844	35038.84
801.175	35346.85
801.506	35060.98
801.837	35041.55
802.168	34880.88
802.499	34850.59
802.83	34573.99
803.161	34510.26
803.491	34474.79
803.822	34626.87
804.153	34211.74
804.483	34021.24
804.814	33892.2
805.145	33953.22
805.475	33881.81
805.805	33699.21
806.136	33800.23
806.466	33464.42
806.796	33476.39
807.126	33356.4
807.457	33350.97
807.787	33325.89
808.117	33131.32
808.447	33125.67
808.777	33115.95
809.107	32811.1
809.436	32765.9
809.766	32770.2
810.096	32698.79
810.426	32479.36
810.755	32554.16
811.085	32392.13
811.414	32362.07
811.744	32252.25
812.073	32196.2
812.403	32014.29
812.732	31992.82
813.061	32101.97
813.39	31788.98
813.719	31778.59
814.049	32007.96
814.378	31725.93
814.707	31531.13
815.036	31639.61
815.365	31297.92
815.693	31251.59
816.022	31115.1
816.351	31036.91
816.68	30880.76
817.008	30990.58
817.337	30791.04
817.665	30864.03
817.994	30719.4
818.322	30758.95
818.651	30730.03
818.979	30402.12
819.307	30553.76
819.636	30491.84
819.964	30436.93
820.292	30503.59
820.62	30312.41
820.948	30330.26
821.276	30371.84
821.604	30342.69
821.932	30364.84
822.259	30255.69
822.587	30145.41
822.915	30244.16
823.243	30274.44
823.57	30158.74
823.898	30391.96
824.225	30199.42
824.553	30125.52
824.88	30258.85
825.207	30243.94
825.535	30041
825.862	30293.43
826.189	30177.95
826.516	30371.39
826.843	30335.69
827.17	30302.69
827.497	30366.87
827.824	30148.12
828.151	30312.18
828.478	30165.52
828.805	30396.25
829.131	30305.63
829.458	30243.03
829.785	29993.32
830.111	30174.79
830.438	30276.25
830.764	30128.01
831.09	30248.91
831.417	30128.69
831.743	30112.64
832.069	30134.33
832.395	30127.56
832.722	30175.69
833.048	30061.12
833.374	30236.7
833.7	29952.87
834.026	30125.3
834.351	30038.74
834.677	30134.56
835.003	30131.85
835.329	30094.79
835.654	30025.86
835.98	29824.06
836.306	30113.54
836.631	29859.09
836.956	29946.32
837.282	29923.27
837.607	29805.3
837.932	29751.75
838.258	29661.8
838.583	29733.44
838.908	29620.68
839.233	29648.02
839.558	29399.89
839.883	29408.48
840.208	29137.07
840.533	29292.32
840.858	29455.71
841.182	29332.32
841.507	29319.67
841.832	29060.69
842.156	29036.96
842.481	28991.09
842.805	28914.93
843.13	28847.81
843.454	28847.59
843.778	28819.34
844.103	28627.93
844.427	28694.6
844.751	28634.04
845.075	28572.79
845.399	28394.27
845.723	28305
846.047	28275.63
846.371	28059.81
846.695	28006.71
847.019	27911.57
847.343	27808.07
847.666	27670.44
847.99	27560.84
848.313	27458.92
848.637	27392.71
848.96	27213.96
849.284	27370.11
849.607	27033.17
849.931	26914.08
850.254	26773.52
850.577	26744.14
850.9	26539.85
851.223	26429.57
851.546	26196.81
851.869	26179.41
852.192	26412.62
852.515	26025.52
852.838	25919.53
853.161	26020.09
853.483	25760.89
853.806	25710.27
854.129	25702.36
854.451	25580.1
854.774	25414.23
855.096	25403.39
855.419	25275.71
855.741	25215.59
856.063	25061.02
856.385	24950.29
856.708	24938.54
857.03	24815.15
857.352	24888.6
857.674	24878.43
857.996	24731.76
858.318	24636.85
858.64	24570.41
858.961	24454.94
859.283	24401.6
859.605	24369.29
859.926	24306.01
860.248	24109.63
860.57	24078
860.891	24119.8
861.212	24075.06
861.534	23981.95
861.855	23918.68
862.176	23911.22
862.498	23862.86
862.819	23806.37
863.14	23711.45
863.461	23605.92
863.782	23614.51
864.103	23592.36
864.424	23538.8
864.745	23630.78
865.065	23427.17
865.386	23232.6
865.707	23352.59
866.027	23295.64
866.348	23201.18
866.668	23266.49
866.989	23250.45
867.309	23087.51
867.63	23104.92
867.95	23109.21
868.27	22896.11
868.59	23166.38
868.91	23024.69
869.23	22931.36
869.55	22854.53
869.87	22932.72
870.19	22744.92
870.51	22665.15
870.83	22837.35
871.15	22607.3
871.469	22636.68
871.789	22673.51
872.109	22652.95
872.428	22516
872.748	22590.13
873.067	22573.63
873.386	22541.31
873.706	22438.27
874.025	22195.79
874.344	22346.52
874.663	22299.96
874.982	22243.92
875.301	22199.18
875.62	22184.94
875.939	22126.18
876.258	22180.87
876.577	22076.02
876.896	22015.23
877.214	21931.16
877.533	21968
877.852	21963.48
878.17	21960.09
878.489	21859.98
878.807	21818.17
879.125	21829.69
879.444	21776.36
879.762	21701.56
880.08	21755.35
880.398	21637.61
880.716	21632.19
881.034	21457.27
881.352	21508.8
881.67	21542.7
881.988	21456.14
882.306	21416.6
882.624	21368.46
882.941	21224.74
883.259	21173.21
883.577	21248.92
883.894	21213.44
884.212	21028.59
884.529	21125.08
884.846	21083.27
885.164	20960.11
885.481	20882.37
885.798	20807.12
886.115	20710.4
886.432	20840.79
886.75	20746.33
887.067	20766.9
887.383	20593.12
887.7	20584.3
888.017	20390.41
888.334	20439.45
888.651	20423.63
888.967	20421.14
889.284	20307.02
889.6	20192.9
889.917	20162.85
890.233	20132.79
890.55	20013.02
890.866	20064.32
891.182	19992.91
891.498	19993.81
891.815	19950.87
892.131	19695.74
892.447	19789.52
892.763	19645.35
893.079	19533.48
893.395	19567.61
893.71	19409.65
894.026	19381.85
894.342	19354.73
894.657	19217.11
894.973	19241.74
895.289	19199.26
895.604	19204
895.92	19061.41
896.235	19032.03
896.55	19025.02
896.865	18903.9
897.181	18801.3
897.496	18917.23
897.811	18667.29
898.126	18618.71
898.441	18566.28
898.756	18571.93
899.071	18470.46
899.386	18599.95
899.7	18373.51
900.015	18233.4
900.33	18078.38
900.644	18076.35
900.959	18043.35
901.273	18079.28
901.588	17950.93
901.902	17881.78
902.216	17775.11
902.531	17817.6
902.845	17755.68
903.159	17553.2
903.473	17576.7
903.787	17527.66
904.101	17331.96
904.415	17361.79
904.729	17315.24
905.042	17216.48
905.356	17188.69
905.67	17063.72
905.984	17039.31
906.297	16999.76
906.611	16850.39
906.924	16859.66
907.237	16890.16
907.551	16806.78
907.864	16638.64
908.177	16656.05
908.491	16472.77
908.804	16354.36
909.117	16373.11
909.43	16281.37
909.743	16164.76
910.056	16243.4
910.368	16129.51
910.681	16036.17
910.994	15943.52
911.307	15862.62
911.619	15759.35
911.932	15810.64
912.244	15669.4
912.557	15647.03
912.869	15502.63
913.181	15442.52
913.494	15459.24
913.806	15348.28
914.118	15302.63
914.43	15238.46
914.742	15191.22
915.054	15074.17
915.366	14989.2
915.678	15020.38
915.99	14965.24
916.302	14899.93
916.613	14758.47
916.925	14693.61
917.236	14669.66
917.548	14562.77
917.859	14548.3
918.171	14460.17
918.482	14427.63
918.794	14410.23
919.105	14361.64
919.416	14182.66
919.727	14250.01
920.038	14178.37
920.349	13979.28
920.66	14055.21
920.971	13957.13
921.282	13894.31
921.593	13841.88
921.903	13794.88
922.214	13722.11
922.525	13659.97
922.835	13560.53
923.146	13549.01
923.456	13380.43
923.767	13316.02
924.077	13367.77
924.387	13307.43
924.697	13271.95
925.008	13250.26
925.318	13133.43
925.628	13149.92
925.938	13029.02
926.248	12935.92
926.558	12866.09
926.867	12856.15
927.177	12757.39
927.487	12711.74
927.796	12629.26
928.106	12677.84
928.416	12601.91
928.725	12579.32
929.034	12488.47
929.344	12478.3
929.653	12445.31
929.962	12344.29
930.271	12285.76
930.581	12152.66
930.89	12153.56
931.199	12078.31
931.508	12048.48
931.817	11992.66
932.125	11954.7
932.434	11926.68
932.743	11798.55
933.051	11791.09
933.36	11699.34
933.669	11650.75
933.977	11639.23
934.286	11575.27
934.594	11477.42
934.902	11452.11
935.21	11402.4
935.519	11346.58
935.827	11321.5
936.135	11243.08
936.443	11148.17
936.751	11175.51
937.059	11097.32
937.367	11079.47
937.674	11056.19
937.982	10961.73
938.29	10896.42
938.597	10914.28
938.905	10745.92
939.213	10797.44
939.52	10675.86
939.827	10714.96
940.135	10648.52
940.442	10631.34
940.749	10544.12
941.056	10566.94
941.363	10459.37
941.67	10424.8
941.977	10393.84
942.284	10289.88
942.591	10290.56
942.898	10263.22
943.205	10217.8
943.511	10086.27
943.818	10138.93
944.125	10025.26
944.431	9954.75
944.738	9972.83
945.044	9901.87
945.35	9887.41
945.657	9773.74
945.963	9776.68
946.269	9692.84
946.575	9748.88
946.881	9593.86
947.187	9639.05
947.493	9496.91
947.799	9539.17
948.105	9562.67
948.41	9428.21
948.716	9443.58
949.022	9352.73
949.327	9330.14
949.633	9229.8
949.938	9235.45
950.244	9205.39
950.549	9137.15
950.854	9077.49
951.16	9039.07
951.465	8989.58
951.77	8858.28
952.075	8927.89
952.38	8922.24
952.685	8929.24
952.99	8775.35
953.294	8803.6
953.599	8732.41
953.904	8651.74
954.209	8542.13
954.513	8607.44
954.818	8585.3
955.122	8569.93
955.426	8550.27
955.731	8468.92
956.035	8408.58
956.339	8376.94
956.643	8310.73
956.948	8246.77
957.252	8284.29
957.556	8283.61
957.86	8162.26
958.163	8170.17
958.467	8147.79
958.771	8115.25
959.075	8081.81
959.378	8005.43
959.682	7971.75
959.985	7900.8
960.289	7885.43
960.592	7908.48
960.896	7801.81
961.199	7842.94
961.502	7810.18
961.805	7783.28
962.108	7658.99
962.411	7649.95
962.714	7609.05
963.017	7500.35
963.32	7569.28
963.623	7495.61
963.926	7542.61
964.228	7435.5
964.531	7415.61
964.833	7377.87
965.136	7296.07
965.438	7295.39
965.741	7251.77
966.043	7245.22
966.345	7204.77
966.648	7149.63
966.95	7193.92
967.252	7112.79
967.554	7077.99
967.856	7070.31
968.158	7031.67
968.46	6950.99
968.761	6983.08
969.063	6957.09
969.365	6957.54
969.666	6833.03
969.968	6823.76
970.269	6817.66
970.571	6758.23
970.872	6744.89
971.174	6735.85
971.475	6608.17
971.776	6647.95
972.077	6615.63
972.378	6591.68
972.679	6602.3
972.98	6568.85
973.281	6527.95
973.582	6466.26
973.883	6409.76
974.183	6384
974.484	6366.82
974.785	6346.03
975.085	6310.55
975.386	6282.98
975.686	6239.14
975.986	6231.69
976.287	6226.49
976.587	6102.65
976.887	6156.21
977.187	6119.15
977.487	6034.18
977.787	6033.5
978.087	5959.83
978.387	5963.22
978.687	5941.3
978.987	5919.83
979.286	5887.97
979.586	5848.87
979.885	5803
980.185	5788.53
980.484	5831.47
980.784	5783.34
981.083	5726.61
981.382	5744.69
981.682	5692.94
981.981	5671.7
982.28	5615.66
982.579	5611.14
982.878	5594.19
983.177	5566.17
983.475	5560.74
983.774	5475.55
984.073	5432.16
984.372	5459.28
984.67	5442.55
984.969	5392.61
985.267	5370.47
985.566	5338.6
985.864	5307.87
986.162	5337.7
986.461	5289.79
986.759	5233.07
987.057	5193.52
987.355	5144.26
987.653	5149.91
987.951	5073.07
988.249	5113.3
988.547	5104.03
988.844	5070.14
989.142	5045.5
989.44	5028.55
989.737	4990.14
990.035	4968.44
990.332	4934.55
990.63	4911.95
990.927	4911.5
991.224	4860.65
991.521	4817.03
991.819	4789.01
992.116	4804.15
992.413	4722.57
992.71	4761.44
993.006	4758.05
993.303	4709.47
993.6	4711.5
993.897	4703.37
994.193	4626.53
994.49	4621.33
994.787	4583.37
995.083	4515.57
995.379	4546.31
995.676	4474.22
995.972	4517.61
996.268	4503.14
996.565	4469.47
996.861	4386.99
997.157	4398.29
997.453	4386.54
997.749	4382.7
998.044	4342.24
998.34	4284.39
998.636	4237.84
998.932	4271.74
999.227	4221.12
999.523	4232.42
999.818	4177.28
1000.114	4186.99
1000.409	4157.39
1000.704	4141.8
1001	4067.68
1001.295	4102.93
1001.59	4035.59
1001.885	4000.56
1002.18	3967.34
1002.475	3964.63
1002.77	3981.35
1003.065	3889.15
1003.359	3950.84
1003.654	3867.68
1003.949	3856.61
1004.243	3821.35
1004.538	3806.21
1004.832	3801.24
1005.127	3776.61
1005.421	3781.36
1005.715	3759.21
1006.009	3713.56
1006.304	3678.31
1006.598	3653.22
1006.892	3622.72
1007.186	3588.59
1007.48	3608.7
1007.773	3574.13
1008.067	3571.64
1008.361	3520.35
1008.655	3533.68
1008.948	3508.82
1009.242	3419.56
1009.535	3421.14
1009.829	3455.71
1010.122	3419.11
1010.415	3398.54
1010.708	3344.98
1011.001	3312.22
1011.295	3299.33
1011.588	3333.46
1011.881	3264.76
1012.173	3270.63
1012.466	3251.43
1012.759	3223.18
1013.052	3214.36
1013.344	3169.39
1013.637	3171.88
1013.93	3102.28
1014.222	3116.29
1014.514	3100.02
1014.807	3086.46
1015.099	3055.27
1015.391	3043.75
1015.683	3061.83
1015.976	3005.33
1016.268	2969.85
1016.56	2963.75
1016.851	2939.34
1017.143	2898.21
1017.435	2897.08
1017.727	2845.56
1018.018	2836.97
1018.31	2849.85
1018.602	2777.77
1018.893	2789.52
1019.185	2835.84
1019.476	2751.55
1019.767	2758.78
1020.058	2702.29
1020.35	2700.71
1020.641	2732.57
1020.932	2635.17
1021.223	2647.37
1021.514	2611.22
1021.804	2597.88
1022.095	2549.07
1022.386	2577.09
1022.677	2524.67
1022.967	2495.51
1023.258	2512.24
1023.548	2480.37
1023.839	2475.4
1024.129	2477.21
1024.419	2415.29
1024.709	2424.33
1025	2390.66
1025.29	2401.05
1025.58	2366.7
1025.87	2327.83
1026.16	2291.23
1026.449	2347.04
1026.739	2330.77
1027.029	2308.4
1027.319	2268.4
1027.608	2265.46
1027.898	2233.6
1028.187	2220.04
1028.477	2186.14
1028.766	2173.04
1029.055	2167.84
1029.344	2135.97
1029.634	2132.81
1029.923	2113.15
1030.212	2089.42
1030.501	2084.45
1030.79	2079.25
1031.078	2048.07
1031.367	2036.99
1031.656	2002.65
1031.945	2012.14
1032.233	2029.54
1032.522	1967.17
1032.81	1993.61
1033.099	1942.53
1033.387	1933.72
1033.675	1922.42
1033.963	1920.84
1034.251	1917.68
1034.54	1887.17
1034.828	1869.77
1035.116	1865.93
1035.403	1853.95
1035.691	1822.54
1035.979	1817.57
1036.267	1794.06
1036.554	1795.87
1036.842	1781.86
1037.129	1777.79
1037.417	1765.36
1037.704	1716.78
1037.992	1733.27
1038.279	1696.66
1038.566	1708.87
1038.853	1708.87
1039.14	1708.87
