Data from 17-1436_FLMS001491_002.txt Node
Date: Thu Apr 19 16:28:58 BST 2018
User: hsy
Spectrometer: FLMS00149
Trigger mode: 0
Integration Time (sec): 1.000000E-2
Scans to average: 10
Electric dark correction enabled: true
Nonlinearity correction enabled: false
Boxcar width: 0
XAxis mode: Wavelengths
Number of Pixels in Spectrum: 2048
>>>>>Begin Spectral Data<<<<<
341.393	-12.02
341.776	-12.02
342.16	-12.02
342.543	-65.58
342.927	-62.41
343.31	-72.13
343.693	-77.33
344.077	-57.44
344.46	-50.21
344.843	-62.19
345.226	-39.59
345.61	-21.96
345.993	-16.77
346.376	-1.62
346.759	-4.34
347.142	34.98
347.525	49.22
347.908	53.06
348.291	75.44
348.674	90.35
349.057	100.52
349.44	133.51
349.823	129.9
350.206	180.97
350.588	231.82
350.971	236.34
351.354	258.71
351.737	263.23
352.119	288.99
352.502	312.94
352.884	293.28
353.267	323.11
353.65	325.37
354.032	339.38
354.414	357.01
354.797	345.49
355.179	358.14
355.562	376.9
355.944	361.53
356.326	359.04
356.709	385.03
357.091	374.41
357.473	376.22
357.855	382.77
358.238	365.6
358.62	395.2
359.002	376.44
359.384	378.25
359.766	378.48
360.148	374.64
360.53	376.9
360.912	362.21
361.294	381.87
361.676	363.79
362.057	380.96
362.439	384.81
362.821	351.36
363.203	384.13
363.584	370.57
363.966	351.81
364.348	349.33
364.729	381.64
365.111	362.21
365.493	362.89
365.874	378.93
366.256	356.33
366.637	378.7
367.019	380.74
367.4	369.44
367.781	369.89
368.163	369.44
368.544	366.28
368.925	362.66
369.306	353.17
369.688	382.55
370.069	367.18
370.45	361.98
370.831	385.48
371.212	367.86
371.593	368.54
371.974	362.43
372.355	360.4
372.736	366.73
373.117	372.83
373.498	378.48
373.879	347.29
374.26	373.96
374.641	371.25
375.021	374.41
375.402	377.57
375.783	379.83
376.163	385.48
376.544	395.2
376.925	399.72
377.305	397.01
377.686	397.91
378.066	401.98
378.447	389.33
378.827	398.59
379.208	400.85
379.588	403.11
379.968	397.24
380.349	412.83
380.729	399.5
381.109	401.08
381.489	422.32
381.87	415.09
382.25	407.86
382.63	425.26
383.01	419.61
383.39	409.66
383.77	419.16
384.15	425.48
384.53	425.71
384.91	444.47
385.29	425.94
385.67	438.36
386.049	435.43
386.429	415.09
386.809	479.27
387.189	475.43
387.568	440.17
387.948	458.7
388.328	456.22
388.707	450.12
389.087	464.8
389.466	485.37
389.846	472.49
390.225	485.37
390.605	488.31
390.984	479.95
391.363	467.97
391.743	504.13
392.122	479.04
392.501	503.67
392.881	500.28
393.26	491.92
393.639	492.83
394.018	514.07
394.397	504.13
394.776	514.52
395.155	505.71
395.534	496.22
395.913	505.26
396.292	524.69
396.671	522.43
397.05	518.14
397.429	538.7
397.808	559.49
398.186	547.29
398.565	554.97
398.944	541.86
399.323	531.02
399.701	533.73
400.08	574.18
400.458	552.49
400.837	571.92
401.215	552.26
401.594	569.89
401.972	586.38
402.351	588.42
402.729	588.64
403.107	610.79
403.486	597.91
403.864	611.92
404.242	615.53
404.62	608.98
404.999	607.17
405.377	633.61
405.755	600.85
406.133	647.85
406.511	633.61
406.889	634.74
407.267	639.26
407.645	662.77
408.023	654.63
408.401	658.92
408.779	656.66
409.156	696.44
409.534	696.89
409.912	678.36
410.29	698.02
410.667	698.02
411.045	705.48
411.422	717
411.8	736.89
412.178	752.48
412.555	777.34
412.933	742.09
413.31	782.31
413.687	784.8
414.065	790.22
414.442	794.74
414.819	788.41
415.197	806.94
415.574	825.92
415.951	810.33
416.328	828.64
416.705	838.35
417.082	826.6
417.46	846.49
417.837	846.72
418.214	843.55
418.591	868.18
418.967	844.23
419.344	883.78
419.721	865.7
420.098	873.83
420.475	904.57
420.852	880.84
421.228	917.9
421.605	908.63
421.982	921.97
422.358	932.81
422.735	920.16
423.111	953.83
423.488	966.03
423.864	987.73
424.241	981.63
424.617	991.8
424.994	968.07
425.37	1004.45
425.746	1008.29
426.123	1017.33
426.499	1030.44
426.875	1038.35
427.251	1060.27
427.627	1055.52
428.003	1040.83
428.379	1101.85
428.756	1101.62
429.132	1104.11
429.507	1101.85
429.883	1142.3
430.259	1126.03
430.635	1155.41
431.011	1176.42
431.387	1192.24
431.763	1201.73
432.138	1203.99
432.514	1208.06
432.89	1219.13
433.265	1247.83
433.641	1283.99
434.016	1293.03
434.392	1293.71
434.767	1333.26
435.143	1327.38
435.518	1309.98
435.894	1380.71
436.269	1354.5
436.644	1385.46
437.02	1392.24
437.395	1394.5
437.77	1421.16
438.145	1438.79
438.52	1458.45
438.895	1442.63
439.271	1457.09
439.646	1462.07
440.021	1493.25
440.395	1471.33
440.77	1467.72
441.145	1486.47
441.52	1526.02
441.895	1520.14
442.27	1519.92
442.645	1534.83
443.019	1566.7
443.394	1565.34
443.769	1548.17
444.143	1553.14
444.518	1598.79
444.892	1582.51
445.267	1604.44
445.641	1613.93
446.016	1639.01
446.39	1620.93
446.764	1649.18
447.139	1641.04
447.513	1665.9
447.887	1693.7
448.262	1664.77
448.636	1684.89
449.01	1732.79
449.384	1707.71
449.758	1705.45
450.132	1769.18
450.506	1754.26
450.88	1762.17
451.254	1771.89
451.628	1801.04
452.002	1800.14
452.376	1841.49
452.75	1842.4
453.123	1850.53
453.497	1903.18
453.871	1909.96
454.244	1932.79
454.618	1929.4
454.992	1963.97
455.365	1987.7
455.739	2036.97
456.112	2038.77
456.486	2056.85
456.859	2104.08
457.232	2115.61
457.606	2139.34
457.979	2170.3
458.352	2185.66
458.725	2205.78
459.099	2262.05
459.472	2257.3
459.845	2288.26
460.218	2305.66
460.591	2329.61
460.964	2345.66
461.337	2383.17
461.71	2423.85
462.083	2454.58
462.456	2441.7
462.829	2479.21
463.201	2538.2
463.574	2530.06
463.947	2589.04
464.32	2639.89
464.692	2625.65
465.065	2655.71
465.438	2668.14
465.81	2699.1
466.183	2718.53
466.555	2754.46
466.928	2792.88
467.3	2804.18
467.672	2843.27
468.045	2887.57
468.417	2922.82
468.789	2935.25
469.161	2957.39
469.534	3013.21
469.906	3057.05
470.278	3072.19
470.65	3087.79
471.022	3180.89
471.394	3202.36
471.766	3195.81
472.138	3278.74
472.51	3356.03
472.882	3349.47
473.253	3421.79
473.625	3442.13
473.997	3514.44
474.369	3525.97
474.74	3584.72
475.112	3609.81
475.484	3708.79
475.855	3782.46
476.227	3775.68
476.598	3887.77
476.97	3944.71
477.341	3981.32
477.713	4067.42
478.084	4072.62
478.455	4199.4
478.827	4227.42
479.198	4312.39
479.569	4358.04
479.94	4431.71
480.311	4525.49
480.682	4650
481.053	4727.74
481.424	4803
481.795	4839.15
482.166	4913.05
482.537	4999.6
482.908	5079.6
483.279	5128.64
483.65	5211.57
484.021	5382.87
484.391	5389.42
484.762	5458.57
485.133	5512.36
485.503	5623.54
485.874	5777.88
486.244	5804.32
486.615	5935.62
486.985	5990.99
487.356	6199.12
487.726	6214.71
488.097	6345.33
488.467	6348.72
488.837	6512.55
489.207	6588.94
489.578	6673.45
489.948	6791.19
490.318	6941.02
490.688	6944.18
491.058	7071.64
491.428	7181.92
491.798	7275.92
492.168	7383.49
492.538	7536.71
492.908	7635.46
493.278	7668
493.648	7755.46
494.017	7846.98
494.387	7972.86
494.757	7952.74
495.126	8090.59
495.496	8202.23
495.866	8299.4
496.235	8474.09
496.605	8489.9
496.974	8559.51
497.344	8655.32
497.713	8727.41
498.082	8827.75
498.452	8942.32
498.821	9057.57
499.19	9070
499.559	9179.6
499.928	9176.89
500.298	9342.76
500.667	9437.68
501.036	9451.01
501.405	9601.97
501.774	9566.94
502.143	9670.89
502.512	9824.78
502.88	9959.92
503.249	9964.22
503.618	10111.33
503.987	10088.96
504.356	10185.9
504.724	10295.28
505.093	10373.47
505.462	10395.84
505.83	10524.43
506.199	10646.91
506.567	10789.5
506.936	10839.45
507.304	10926.45
507.672	11004.19
508.041	11048.93
508.409	11182.49
508.777	11316.5
509.145	11385.42
509.514	11383.61
509.882	11509.03
510.25	11572.53
510.618	11719.2
510.986	11802.13
511.354	11848.01
511.722	12013.88
512.09	12094.55
512.458	12201.67
512.826	12190.15
513.193	12339.07
513.561	12425.85
513.929	12520.08
514.297	12656.12
514.664	12682.79
515.032	12749.23
515.4	12944.7
515.767	12983.35
516.135	13019.28
516.502	12960.52
516.869	13281.64
517.237	13340.17
517.604	13330.91
517.972	13545.14
518.339	13677.11
518.706	13748.3
519.073	13811.57
519.44	13907.39
519.808	14073.03
520.175	14148.51
520.542	14320.49
520.909	14392.57
521.276	14495.62
521.643	14610.42
522.009	14712.57
522.376	14861.49
522.743	14906.68
523.11	15154.14
523.477	15288.6
523.843	15334.02
524.21	15609.04
524.577	15658.98
524.943	15754.8
525.31	15849.71
525.676	16043.38
526.043	16204.05
526.409	16263.48
526.776	16414.89
527.142	16567.66
527.508	16598.84
527.874	16885.39
528.241	16864.15
528.607	17018.04
528.973	17207.87
529.339	17276.57
529.705	17537.58
530.071	17561.3
530.437	17749.55
530.803	17668.19
531.169	17946.83
531.535	17913.84
531.901	18130.1
532.267	18158.12
532.632	18305.47
532.998	18367.61
533.364	18493.03
533.73	18578
534.095	18780.25
534.461	18797.2
534.826	18942.96
535.192	19090.98
535.557	19110.64
535.923	19239.45
536.288	19298.66
536.653	19389.28
537.019	19464.76
537.384	19476.06
537.749	19615.71
538.114	19723.96
538.479	19797.86
538.845	19855.48
539.21	19846.89
539.575	19952.43
539.94	20123.5
540.305	20177.51
540.67	20165.76
541.034	20325.3
541.399	20268.58
541.764	20484.16
542.129	20569.13
542.494	20612.52
542.858	20618.17
543.223	20690.49
543.587	20775.46
543.952	20800.99
544.316	20942.68
544.681	20897.04
545.045	21009.12
545.41	21166.86
545.774	21120.08
546.138	21132.51
546.503	21289.57
546.867	21348.55
547.231	21411.6
547.595	21570.24
547.959	21651.59
548.324	21635.55
548.688	21563.91
549.052	21746.73
549.416	21831.7
549.779	21871.47
550.143	22039.6
550.507	22157.34
550.871	22232.59
551.235	22221.75
551.599	22341.07
551.962	22398.46
552.326	22570.44
552.689	22702.86
553.053	22488.41
553.417	22660.83
553.78	22907.38
554.143	22815.4
554.507	22977.88
554.87	23058.33
555.234	23247.71
555.597	23256.52
555.96	23407.25
556.323	23379.68
556.686	23517.76
557.05	23678.43
557.413	23773.12
557.776	23821.7
558.139	23938.99
558.502	24122.71
558.865	24102.6
559.228	24304.18
559.59	24419.65
559.953	24467.79
560.316	24764.05
560.679	24675.47
561.041	24816.25
561.404	25042.24
561.767	25229.12
562.129	25086.3
562.492	25424.83
562.854	25470.25
563.217	25509.34
563.579	25660.3
563.941	25823.69
564.304	26003.57
564.666	26262.09
565.028	26188.87
565.39	26294.86
565.753	26558.81
566.115	26539.37
566.477	26695.75
566.839	26937.55
567.201	27150.66
567.563	27123.54
567.925	27340.03
568.287	27350.65
568.648	27596.75
569.01	27739.57
569.372	27994.25
569.734	27988.15
570.095	28280.34
570.457	28394.69
570.819	28573.22
571.18	28598.3
571.542	28916.49
571.903	28921.91
572.265	29017.5
572.626	29208.68
572.987	29306.53
573.349	29548.11
573.71	29632.17
574.071	29938.15
574.432	30050.92
574.794	30320.29
575.155	30263.12
575.516	30340.85
575.877	30590.79
576.238	30595.76
576.599	30741.52
576.96	30888.41
577.32	31123.43
577.681	31172.25
578.042	31375.4
578.403	31303.32
578.763	31555.29
579.124	31491.11
579.485	31901.04
579.845	32008.16
580.206	32024.88
580.566	32174.48
580.927	32326.57
581.287	32529.95
581.648	32442.72
582.008	32733.56
582.368	32828.47
582.728	32988.92
583.089	33127.9
583.449	33105.53
583.809	33341.45
584.169	33416.71
584.529	33554.33
584.889	33986.86
585.249	33858.5
585.609	33854.66
585.969	34210.58
586.329	34300.3
586.688	34540.52
587.048	34669.1
587.408	34669.78
587.768	34915.42
588.127	35030.22
588.487	35069.09
588.846	35431.79
589.206	35522.64
589.565	35717.89
589.925	35989.97
590.284	36206.01
590.643	36409.85
591.003	36506.57
591.362	36987.69
591.721	37074.01
592.08	37234.01
592.44	37549.03
592.799	37575.24
593.158	37905.85
593.517	38057.71
593.876	38395.11
594.235	38400.76
594.593	38577.47
594.952	39062.89
595.311	39144.69
595.67	39293.84
596.029	39719.37
596.387	39794.17
596.746	40207.26
597.104	40155.29
597.463	40262.85
597.822	40746.23
598.18	40684.76
598.538	41069.84
598.897	41462.14
599.255	41399.1
599.613	42095.12
599.972	41969.48
600.33	42249.47
600.688	42444.72
601.046	42622.57
601.404	43023.01
601.762	43029.56
602.12	43381.64
602.478	43495.99
602.836	43839.26
603.194	43576.89
603.552	43926.71
603.91	44062.53
604.268	44469.52
604.625	44538.22
604.983	44866.12
605.341	44796.29
605.698	45242.16
606.056	45527.8
606.413	45413.9
606.771	45846.21
607.128	45902.03
607.485	45866.32
607.843	46074.23
608.2	46344.95
608.557	46754.43
608.914	46651.61
609.272	47059.96
609.629	47253.63
609.986	47386.28
610.343	47401.65
610.7	47853.16
611.057	47869.66
611.414	47998.47
611.771	48166.6
612.127	48250.67
612.484	48349.65
612.841	48623.54
613.198	48549.42
613.554	48680.71
613.911	48925.45
614.267	49044.54
614.624	49140.81
614.98	49259.45
615.337	49556.85
615.693	49605.88
616.05	49625.09
616.406	49992.99
616.762	49970.17
617.118	49924.29
617.475	50007.68
617.831	50239.99
618.187	50168.81
618.543	50331.29
618.899	50585.29
619.255	50480.44
619.611	50553.2
619.967	50806.98
620.323	50902.8
620.678	50653.32
621.034	50777.61
621.39	50851.5
621.746	50979.18
622.101	51301.21
622.457	50945.28
622.812	51164.04
623.168	51243.36
623.523	51300.53
623.879	51328.55
624.234	51345.27
624.589	51367.87
624.945	51411.26
625.3	51532.61
625.655	51573.52
626.01	51483.58
626.365	51524.7
626.72	51494.87
627.075	51571.48
627.43	51578.94
627.785	51624.36
628.14	51639.28
628.495	51526.74
628.85	51640.86
629.205	51576.91
629.559	51759.73
629.914	51479.28
630.269	51601.76
630.623	51490.81
630.978	51530.13
631.332	51680.18
631.687	51583.01
632.041	51576
632.396	51559.05
632.75	51506.63
633.104	51561.09
633.459	51423.92
633.813	51512.5
634.167	51429.11
634.521	51439.74
634.875	51412.39
635.229	51314.99
635.583	51220.31
635.937	51212.85
636.291	51258.27
636.645	51227.99
636.999	51041.55
637.352	51138.5
637.706	51002.46
638.06	51053.76
638.413	50944.38
638.767	50808.57
639.121	50954.55
639.474	50885.17
639.828	50761.56
640.181	50756.36
640.534	50782.13
640.888	50659.64
641.241	50500.1
641.594	50655.57
641.947	50690.83
642.301	50639.76
642.654	50526.99
643.007	50450.16
643.36	50517.5
643.713	50413.55
644.066	50573.09
644.419	50190.5
644.771	49910.28
645.124	49665.32
645.477	49563.17
645.83	49436.17
646.182	49496.96
646.535	49277.53
646.888	49305.33
647.24	49203.41
647.593	49477.3
647.945	49302.62
648.298	49231.88
648.65	48954.15
649.002	48840.03
649.355	48804.32
649.707	48657.89
650.059	48661.95
650.411	49174.26
650.763	49360.92
651.115	49852.21
651.467	49703.28
651.819	49626.9
652.171	49658.76
652.523	49468.49
652.875	49488.83
653.227	49389.17
653.578	49612.44
653.93	49478.43
654.282	49404.99
654.633	49254.26
654.985	49438.66
655.337	49411.77
655.688	49254.93
656.039	49446.57
656.391	49112.34
656.742	49215.39
657.094	49171.32
657.445	49099.23
657.796	49140.59
658.147	49141.72
658.498	49103.75
658.849	49206.35
659.2	49140.81
659.551	49063.53
659.902	49146.01
660.253	48914.38
660.604	49142.62
660.955	48899.01
661.306	49131.77
661.656	48970.2
662.007	48994.15
662.358	48879.12
662.708	48946.24
663.059	48871.67
663.409	48761.16
663.76	48815.85
664.11	48980.36
664.461	48894.49
664.811	48994.6
665.161	48871.67
665.511	48731.78
665.862	48952.34
666.212	48932.68
666.562	48913.93
666.912	48771.78
667.262	48706.25
667.612	48589.41
667.962	48825.57
668.312	48747.83
668.662	48899.91
669.011	48767.71
669.361	48719.13
669.711	48826.24
670.06	48746.47
670.41	48581.51
670.76	48616.31
671.109	48811.56
671.459	48680.26
671.808	48777.43
672.157	48677.32
672.507	48541.05
672.856	48446.59
673.205	48536.31
673.554	48562.75
673.904	48553.03
674.253	48752.8
674.602	48653.14
674.951	48162.99
675.3	47808.64
675.649	48454.05
675.998	48554.84
676.346	48544.44
676.695	48523.2
677.044	48305.58
677.393	48388.06
677.741	48477.55
678.09	48343.55
678.438	48396.88
678.787	48410.21
679.135	48353.04
679.484	48006.38
679.832	48153.95
680.181	48050.45
680.529	48159.82
680.877	48027.4
681.225	47945.14
681.573	48239.14
681.922	48032.82
682.27	47919.38
682.618	47906.72
682.966	47827.17
683.314	47793.96
683.661	47798.25
684.009	47651.36
684.357	47500.4
684.705	47488.43
685.053	47556.9
685.4	47268.09
685.748	47272.16
686.095	47376.79
686.443	47064.71
686.79	47020.42
687.138	47018.61
687.485	47107.65
687.832	46865.62
688.18	46951.49
688.527	46746.07
688.874	46645.74
689.221	46663.59
689.568	46520.99
689.915	46349.7
690.262	46531.16
690.609	46376.37
690.956	46248.23
691.303	46202.81
691.65	45981.8
691.997	45929.6
692.344	45666.55
692.69	45777.51
693.037	45716.5
693.383	45392.21
693.73	45575.26
694.077	45296.17
694.423	45377.07
694.769	45170.75
695.116	45120.81
695.462	44947.93
695.808	44861.15
696.155	44873.58
696.501	44649.18
696.847	44521.5
697.193	44260.71
697.539	44385.91
697.885	44120.61
698.231	43894.17
698.577	44086.48
698.923	44183.65
699.269	43723.33
699.614	43552.03
699.96	43505.71
700.306	43517.23
700.651	43489.89
700.997	43200.86
701.342	43152.27
701.688	43130.35
702.033	42905.04
702.379	42923.8
702.724	42759.74
703.069	42957.47
703.415	42450.14
703.76	42565.39
704.105	42493.98
704.45	42315.23
704.795	42233.65
705.14	41999.76
705.485	42051.51
705.83	41914.11
706.175	41940.1
706.52	41693.78
706.865	41662.82
707.209	41442.48
707.554	41303.96
707.899	41363.62
708.243	41222.38
708.588	41210.63
708.932	40921.82
709.277	40994.13
709.621	40934.93
709.966	40633.47
710.31	40606.57
710.654	40478.67
710.998	40492.23
711.342	40607.03
711.687	40374.49
712.031	40420.14
712.375	40186.25
712.719	40077.1
713.063	39962.3
713.407	40216.53
713.75	39901.51
714.094	39961.84
714.438	39722.98
714.782	39651.57
715.125	39546.49
715.469	39763.21
715.812	39455.42
716.156	39292.48
716.499	39276.21
716.843	39307.62
717.186	38874.64
717.53	39350.11
717.873	39304.23
718.216	39278.47
718.559	38798.94
718.902	38683.46
719.246	38749.67
719.589	38577.02
719.932	38553.29
720.275	38626.06
720.617	38571.82
720.96	38420.42
721.303	38396.24
721.646	38467.42
721.989	38142.91
722.331	38293.87
722.674	38171.84
723.016	38120.31
723.359	37927.77
723.701	38072.4
724.044	37909.92
724.386	37801.22
724.729	37861.11
725.071	37848.45
725.413	37758.51
725.755	37830.38
726.097	37461.57
726.439	37382.48
726.782	37343.38
727.124	37568.91
727.465	37401.23
727.807	37203.5
728.149	37240.11
728.491	37170.28
728.833	37088.25
729.175	37106.1
729.516	36916.73
729.858	36839.67
730.199	36968.7
730.541	36937.07
730.882	36681.25
731.224	36895.03
731.565	36689.16
731.906	36545.66
732.248	36722.61
732.589	36486
732.93	36384.99
733.271	36375.72
733.612	36373.92
733.953	36496.4
734.294	36275.61
734.635	36174.83
734.976	36449.17
735.317	36181.61
735.658	36039.24
735.999	36012.8
736.339	36083.75
736.68	35927.15
737.021	36023.64
737.361	35918.34
737.702	36049.86
738.042	35927.37
738.383	35934.38
738.723	35836.98
739.063	35676.76
739.404	35834.27
739.744	35583.2
740.084	35685.35
740.424	35702.52
740.764	35501.85
741.104	35643.99
741.444	35367.16
741.784	35434.96
742.124	35425.47
742.464	35323.77
742.804	35286.94
743.143	35152.25
743.483	35365.36
743.823	35151.12
744.162	35125.14
744.502	35247.62
744.841	34892.37
745.181	35170.11
745.52	34821.87
745.86	34842.43
746.199	34828.19
746.538	34907.51
746.877	34832.49
747.216	34857.35
747.556	34790.23
747.895	34826.16
748.234	34659.16
748.573	34536.9
748.911	34515.43
749.25	34604.02
749.589	34347.53
749.928	34546.62
750.267	34393.18
750.605	34343.01
750.944	34261.43
751.283	34267.98
751.621	34262.79
751.96	34077.71
752.298	34109.8
752.636	34082.23
752.975	34058.05
753.313	33794.78
753.651	34089.91
753.989	33755.91
754.327	33806.75
754.666	33554.78
755.004	33716.13
755.342	33599.75
755.679	33585.06
756.017	33330.15
756.355	33431.39
756.693	33210.16
757.031	33296.48
757.368	33153.21
757.706	33157.96
758.044	32972.88
758.381	33089.94
758.719	32993.67
759.056	32792.32
759.394	32748.93
759.731	32393
760.068	32543.73
760.405	32447.47
760.743	32287.24
761.08	32341.48
761.417	32251.76
761.754	32081.83
762.091	32090.19
762.428	31948.72
762.765	31750.76
763.102	31740.82
763.438	31710.08
763.775	31471.22
764.112	31412.01
764.449	31399.36
764.785	31285.01
765.122	31176.09
765.458	30899.26
765.795	30985.58
766.131	30864.23
766.467	30806.83
766.804	30620.62
767.14	30533.62
767.476	30452.72
767.812	30420.17
768.148	30403.45
768.485	30312.83
768.821	29923.01
769.157	29881.66
769.492	29903.58
769.828	29840.98
770.164	29507.43
770.5	29496.81
770.836	29555.56
771.171	29336.14
771.507	29185.63
771.842	29123.71
772.178	29097.72
772.513	29044.39
772.849	28791.97
773.184	28853.89
773.519	28737.06
773.855	28446.67
774.19	28482.37
774.525	28378.87
774.86	28256.39
775.195	28254.58
775.53	28122.38
775.865	27996.96
776.2	27789.74
776.535	27606.01
776.87	27557.65
777.205	27456.86
777.539	27435.39
777.874	27460.7
778.209	27152.24
778.543	27152.46
778.878	27037.89
779.212	27097.1
779.547	26698.46
779.881	26641.97
780.215	26532.82
780.55	26523.55
780.884	26304.58
781.218	26337.57
781.552	26364.24
781.886	26213.96
782.22	26135.54
782.554	25974.64
782.888	25705.95
783.222	25677.7
783.556	25538.27
783.889	25539.17
784.223	25204.49
784.557	25269.35
784.89	25312.29
785.224	25135.57
785.557	25004.72
785.891	24987.1
786.224	24886.53
786.558	24897.16
786.891	24677.27
787.224	24537.84
787.557	24369.49
787.891	24411.75
788.224	24248.36
788.557	24256.27
788.89	24174.24
789.223	24082.49
789.556	23896.5
789.888	23881.59
790.221	23737.41
790.554	23609.51
790.887	23627.36
791.219	23509.62
791.552	23407.48
791.884	23278.67
792.217	23224.88
792.549	23015.4
792.882	22963.42
793.214	22976.98
793.546	22901.73
793.879	22867.83
794.211	22671
794.543	22662.41
794.875	22639.36
795.207	22666.93
795.539	22452.25
795.871	22534.96
796.203	22353.72
796.535	22249.09
796.867	22329.09
797.198	22186.04
797.53	22186.04
797.862	21887.97
798.193	21979.94
798.525	21895.2
798.856	21978.36
799.188	21602.55
799.519	21558.49
799.85	21508.54
800.182	21432.61
800.513	21461.54
800.844	21196.24
801.175	21362.56
801.506	21236.69
801.837	21152.85
802.168	21015.45
802.499	21198.72
802.83	20975.9
803.161	20942.46
803.491	20880.54
803.822	20951.72
804.153	20641.22
804.483	20702.46
804.814	20477.16
805.145	20541.56
805.475	20487.78
805.805	20488.91
806.136	20444.84
806.466	20283.94
806.796	20314.68
807.126	20187
807.457	20086.44
807.787	20133.67
808.117	19963.05
808.447	19975.7
808.777	20104.74
809.107	19878.98
809.436	19871.3
809.766	19762.83
810.096	19757.63
810.426	19627.92
810.755	19619.55
811.085	19570.97
811.414	19526.22
811.744	19561.7
812.073	19429.28
812.403	19429.96
812.732	19279.22
813.061	19355.15
813.39	19265.21
813.719	19176.63
814.049	19310.64
814.378	19231.54
814.707	19036.07
815.036	19026.8
815.365	18968.05
815.693	18906.81
816.022	18739.58
816.351	18773.02
816.68	18721.5
817.008	18869.07
817.337	18567.61
817.665	18699.13
817.994	18636.08
818.322	18647.38
818.651	18500.94
818.979	18526.25
819.307	18476.76
819.636	18466.14
819.964	18350.89
820.292	18371.68
820.62	18346.59
820.948	18348.18
821.276	18529.19
821.604	18278.8
821.932	18500.04
822.259	18298.46
822.587	18309.31
822.915	18305.69
823.243	18413.48
823.57	18244.9
823.898	18374.39
824.225	18312.7
824.553	18276.09
824.88	18328.06
825.207	18328.06
825.535	18140.5
825.862	18311.79
826.189	18169.2
826.516	18371.9
826.843	18344.56
827.17	18350.44
827.497	18304.56
827.824	18347.95
828.151	18392.02
828.478	18178.01
828.805	18414.16
829.131	18450.32
829.458	18367.38
829.785	18271.12
830.111	18322.41
830.438	18307.27
830.764	18302.75
831.09	18404.22
831.417	18322.41
831.743	18393.37
832.069	18379.59
832.395	18237.9
832.722	18326.03
833.048	18240.61
833.374	18249.87
833.7	18123.55
834.026	18137.33
834.351	18223.89
834.677	18176.88
835.003	18074.96
835.329	18198.12
835.654	18072.48
835.98	17990.45
836.306	18170.55
836.631	18036.77
836.956	18126.03
837.282	18156.54
837.607	17995.19
837.932	17997.9
838.258	17981.63
838.583	17974.17
838.908	17892.37
839.233	17945.25
839.558	17830.68
839.883	17813.95
840.208	17703.45
840.533	17727.4
840.858	17770.56
841.182	17801.52
841.507	17666.39
841.832	17650.34
842.156	17563.11
842.481	17546.39
842.805	17520.17
843.13	17502.1
843.454	17462.32
843.778	17347.52
844.103	17369.22
844.427	17247.19
844.751	17357.92
845.075	17309.78
845.399	17244.48
845.723	17152.05
846.047	17157.47
846.371	17008.32
846.695	16963.13
847.019	16905.28
847.343	16847.2
847.666	16835.22
847.99	16721.1
848.313	16697.6
848.637	16664.15
848.96	16548.45
849.284	16481.33
849.607	16357.49
849.931	16381.22
850.254	16286.31
850.577	16123.15
850.9	16028.69
851.223	16049.48
851.546	16055.81
851.869	15924.74
852.192	16014
852.515	15722.71
852.838	15716.61
853.161	15719.54
853.483	15569.27
853.806	15662.6
854.129	15539.66
854.451	15486.56
854.774	15332.21
855.096	15331.08
855.419	15301.48
855.741	15267.8
856.063	15118.43
856.385	15160.24
856.708	15122.27
857.03	15049.28
857.352	15086.57
857.674	14996.17
857.996	14947.14
858.318	14802.96
858.64	14842.28
858.961	14929.06
859.283	14812.22
859.605	14753.69
859.926	14692.9
860.248	14606.58
860.57	14540.14
860.891	14657.65
861.212	14536.75
861.534	14439.13
861.855	14481.16
862.176	14428.05
862.498	14506.69
862.819	14485.9
863.14	14332.69
863.461	14390.09
863.782	14251.56
864.103	14250.2
864.424	14240.26
864.745	14280.03
865.065	14190.54
865.386	14101.28
865.707	14174.5
866.027	14121.39
866.348	14154.16
866.668	14072.13
866.989	13977.44
867.309	13932.47
867.63	13975.64
867.95	14000.27
868.27	13884.79
868.59	13958.91
868.91	13960.72
869.23	13927.28
869.55	13832.81
869.87	13900.61
870.19	13836.66
870.51	13791.46
870.83	13791.69
871.15	13734.74
871.469	13729.77
871.789	13804.11
872.109	13739.03
872.428	13669.65
872.748	13700.39
873.067	13622.42
873.386	13702.87
873.706	13649.32
874.025	13550.79
874.344	13468.53
874.663	13613.61
874.982	13542.2
875.301	13544.91
875.62	13478.7
875.939	13423.79
876.258	13438.47
876.577	13390.57
876.896	13421.75
877.214	13293.62
877.533	13351.92
877.852	13250.91
878.17	13210.46
878.489	13346.05
878.807	13294.07
879.125	13282.77
879.444	13173.62
879.762	13265.15
880.08	13236.9
880.398	13149.44
880.716	13113.06
881.034	13107.41
881.352	13122.32
881.67	13022.21
881.988	13047.52
882.306	12993.29
882.624	12919.39
882.941	12864.03
883.259	12859.73
883.577	12871.26
883.894	12818.6
884.212	12809.56
884.529	12773.86
884.846	12741.09
885.164	12671.94
885.481	12658.38
885.798	12678.49
886.115	12607.31
886.432	12623.35
886.75	12618.16
887.067	12597.59
887.383	12549.23
887.7	12483.7
888.017	12426.3
888.334	12465.84
888.651	12394.43
888.967	12336.81
889.284	12273.08
889.6	12277.15
889.917	12242.57
890.233	12255
890.55	12151.05
890.866	12093.2
891.182	12135.01
891.498	11996.93
891.815	12038.51
892.131	11887.55
892.447	11962.13
892.763	11901.11
893.079	11893.2
893.395	11845.52
893.71	11829.7
894.026	11851.4
894.342	11839.42
894.657	11634
894.973	11721.01
895.289	11669.71
895.604	11567.11
895.92	11557.85
896.235	11503.38
896.55	11497.96
896.865	11477.62
897.181	11455.7
897.496	11465.19
897.811	11380
898.126	11281.47
898.441	11343.16
898.756	11245.99
899.071	11210.06
899.386	11237.4
899.7	11059.33
900.015	10984.53
900.33	10968.48
900.644	10954.92
900.959	10956.96
901.273	10946.11
901.588	10903.4
901.902	10909.95
902.216	10778.43
902.531	10758.77
902.845	10757.87
903.159	10654.37
903.473	10727.13
903.787	10572.79
904.101	10521.26
904.415	10585.89
904.729	10505.22
905.042	10471.09
905.356	10421.15
905.67	10459.8
905.984	10368.27
906.297	10403.07
906.611	10261.61
906.924	10246.69
907.237	10262.06
907.551	10251.67
907.864	10132.35
908.177	10141.61
908.491	10062.74
908.804	9948.4
909.117	9985.01
909.43	9929.87
909.743	9865.01
910.056	9891.67
910.368	9863.88
910.681	9752.47
910.994	9737.55
911.307	9727.16
911.619	9689.19
911.932	9662.75
912.244	9596.54
912.557	9626.82
912.869	9477.67
913.181	9449.43
913.494	9482.19
913.806	9337.34
914.118	9329.66
914.43	9302.54
914.742	9262.76
915.054	9211.47
915.366	9230.22
915.678	9210.79
915.99	9194.29
916.302	9093.28
916.613	9053.73
916.925	9026.16
917.236	9036.33
917.548	8951.36
917.859	8912.49
918.171	8896.45
918.482	8792.72
918.794	8832.72
919.105	8784.13
919.416	8689.22
919.727	8749.56
920.038	8662.33
920.349	8626.4
920.66	8642.44
920.971	8590.69
921.282	8597.7
921.593	8485.38
921.903	8391.6
922.214	8434.76
922.525	8412.62
922.835	8307.76
923.146	8272.96
923.456	8278.61
923.767	8177.6
924.077	8206.07
924.387	8128.11
924.697	8098.28
925.008	8101.89
925.318	8026.64
925.628	8062.57
925.938	8016.92
926.248	7960.2
926.558	7898.28
926.867	7919.75
927.177	7824.16
927.487	7802.92
927.796	7698.29
928.106	7761.11
928.416	7769.7
928.725	7679.3
929.034	7652.64
929.344	7686.31
929.653	7596.14
929.962	7572.41
930.271	7533.32
930.581	7493.77
930.89	7525.41
931.199	7448.58
931.508	7426.2
931.817	7345.75
932.125	7376.03
932.434	7305.75
932.743	7292.65
933.051	7213.55
933.36	7175.81
933.669	7109.6
933.977	7122.71
934.286	7091.52
934.594	7070.28
934.902	7053.78
935.21	6942.15
935.519	7002.03
935.827	6960.9
936.135	6941.24
936.443	6823.96
936.751	6837.29
937.059	6836.39
937.367	6744.19
937.674	6802.72
937.982	6711.65
938.29	6706.22
938.597	6649.27
938.905	6620.35
939.213	6582.84
939.52	6585.1
939.827	6625.32
940.135	6590.97
940.442	6522.05
940.749	6481.37
941.056	6528.15
941.363	6423.97
941.67	6424.65
941.977	6361.37
942.284	6316.85
942.591	6323.86
942.898	6316.85
943.205	6293.8
943.511	6214.48
943.818	6212.9
944.125	6162.06
944.431	6167.48
944.738	6111.66
945.044	6094.94
945.35	6045.9
945.657	6063.3
945.963	6032.12
946.269	5999.12
946.575	5988.27
946.881	5936.75
947.187	5956.41
947.493	5863.31
947.799	5874.38
948.105	5874.38
948.41	5813.59
948.716	5838.22
949.022	5745.12
949.327	5761.39
949.633	5682.07
949.938	5684.1
950.244	5722.07
950.549	5655.18
950.854	5591.68
951.16	5596.87
951.465	5548.96
951.77	5524.33
952.075	5580.15
952.38	5470.32
952.685	5509.64
952.99	5458.35
953.294	5454.05
953.599	5384
953.904	5372.02
954.209	5377.9
954.513	5330.66
954.818	5318.69
955.122	5293.6
955.426	5278.69
955.731	5229.88
956.035	5240.95
956.339	5241.4
956.643	5190.1
956.948	5130.9
957.252	5150.56
957.556	5149.65
957.86	5134.51
958.163	5106.49
958.467	5054.51
958.771	5035.98
959.075	4955.99
959.378	4920.96
959.682	4970.67
959.985	4944.69
960.289	4919.38
960.592	4891.35
960.896	4885.25
961.199	4856.1
961.502	4860.17
961.805	4800.28
962.108	4765.71
962.411	4764.13
962.714	4770
963.017	4700.4
963.32	4735.43
963.623	4695.43
963.926	4663.56
964.228	4657.46
964.531	4618.82
964.833	4586.5
965.136	4573.4
965.438	4575.88
965.741	4505.38
966.043	4531.82
966.345	4558.03
966.648	4482.33
966.95	4478.48
967.252	4465.38
967.554	4470.35
967.856	4438.94
968.158	4415.43
968.46	4409.11
968.761	4381.09
969.063	4304.93
969.365	4340.86
969.666	4303.12
969.968	4237.59
970.269	4256.79
970.571	4269.68
970.872	4247.53
971.174	4187.87
971.475	4211.37
971.776	4201.2
972.077	4151.94
972.378	4153.07
972.679	4138.38
972.98	4096.57
973.281	4077.82
973.582	4067.42
973.883	4038.04
974.183	4027.87
974.484	3976.8
974.785	3945.62
975.085	4009.34
975.386	3990.14
975.686	3993.07
975.986	3944.94
976.287	3919.85
976.587	3898.39
976.887	3911.95
977.187	3836.01
977.487	3865.84
977.787	3815.9
978.087	3845.96
978.387	3812.74
978.687	3764.38
978.987	3803.93
979.286	3777.26
979.586	3738.62
979.885	3730.93
980.185	3674.21
980.484	3648.22
980.784	3663.59
981.083	3607.09
981.382	3641.9
981.682	3601.9
981.981	3576.36
982.28	3591.05
982.579	3550.6
982.878	3558.73
983.177	3512.18
983.475	3507.44
983.774	3517.61
984.073	3511.96
984.372	3455.23
984.67	3457.72
984.969	3470.15
985.267	3454.56
985.566	3393.09
985.864	3375.69
986.162	3365.97
986.461	3362.13
986.759	3337.05
987.057	3279.65
987.355	3301.34
987.653	3287.1
987.951	3278.74
988.249	3260.89
988.547	3255.24
988.844	3237.39
989.142	3211.62
989.44	3175.24
989.737	3212.08
990.035	3167.78
990.332	3166.65
990.63	3131.17
990.927	3113.1
991.224	3139.31
991.521	3106.32
991.819	3126.66
992.116	3044.17
992.413	3067.67
992.71	3035.13
993.006	3043.95
993.303	3038.07
993.6	2992.2
993.897	2984.74
994.193	2994.23
994.49	2968.24
994.787	2929.6
995.083	2890.28
995.379	2946.77
995.676	2890.05
995.972	2907.68
996.268	2895.02
996.565	2867
996.861	2900.9
997.157	2829.49
997.453	2798.75
997.749	2815.25
998.044	2786.55
998.34	2785.2
998.636	2751.52
998.932	2746.1
999.227	2741.13
999.523	2706.78
999.818	2690.06
1000.114	2695.25
1000.409	2698.87
1000.704	2643.28
1001	2654.13
1001.295	2617.97
1001.59	2641.92
1001.885	2620.45
1002.18	2593.34
1002.475	2568.03
1002.77	2574.35
1003.065	2530.29
1003.359	2527.57
1003.654	2485.54
1003.949	2488.25
1004.243	2512.43
1004.538	2488.71
1004.832	2481.02
1005.127	2445.32
1005.421	2448.71
1005.715	2398.99
1006.009	2400.57
1006.304	2394.24
1006.598	2390.86
1006.892	2342.04
1007.186	2370.97
1007.48	2304.3
1007.773	2318.77
1008.067	2311.99
1008.361	2312.67
1008.655	2267.02
1008.948	2285.55
1009.242	2276.73
1009.535	2260.69
1009.829	2258.88
1010.122	2224.98
1010.415	2219.79
1010.708	2223.18
1011.001	2180.01
1011.295	2188.15
1011.588	2165.78
1011.881	2152.67
1012.173	2136.85
1012.466	2162.39
1012.759	2088.49
1013.052	2100.92
1013.344	2100.69
1013.637	2094.37
1013.93	2041.94
1014.222	2057.3
1014.514	2088.94
1014.807	2023.86
1015.099	2035.61
1015.391	1999.91
1015.683	1994.93
1015.976	1995.16
1016.268	1973.47
1016.56	1942.05
1016.851	1910.42
1017.143	1919.23
1017.435	1909.06
1017.727	1884.88
1018.018	1866.35
1018.31	1878.33
1018.602	1882.39
1018.893	1836.75
1019.185	1824.77
1019.476	1821.83
1019.767	1825.9
1020.058	1782.28
1020.35	1792.9
1020.641	1796.75
1020.932	1747.93
1021.223	1758.78
1021.514	1752.91
1021.804	1728.95
1022.095	1739.35
1022.386	1732.79
1022.677	1721.04
1022.967	1680.14
1023.258	1695.73
1023.548	1665.68
1023.839	1635.85
1024.129	1640.14
1024.419	1626.81
1024.709	1628.62
1025	1649.18
1025.29	1570.54
1025.58	1611.67
1025.87	1578.45
1026.16	1580.71
1026.449	1549.52
1026.739	1532.35
1027.029	1525.79
1027.319	1533.25
1027.608	1543.42
1027.898	1538.67
1028.187	1483.99
1028.477	1509.75
1028.766	1472.91
1029.055	1455.74
1029.344	1461.39
1029.634	1454.16
1029.923	1429.98
1030.212	1411.22
1030.501	1420.26
1030.79	1404.44
1031.078	1378.68
1031.367	1377.77
1031.656	1389.3
1031.945	1371.67
1032.233	1353.14
1032.522	1361.28
1032.81	1373.93
1033.099	1344.33
1033.387	1334.61
1033.675	1309.98
1033.963	1296.65
1034.251	1317.89
1034.54	1311.34
1034.828	1302.52
1035.116	1276.76
1035.403	1256.87
1035.691	1258.46
1035.979	1271.34
1036.267	1245.35
1036.554	1223.65
1036.842	1228.17
1037.129	1250.09
1037.417	1215.07
1037.704	1208.29
1037.992	1197.67
1038.279	1177.33
1038.566	1182.3
1038.853	1182.3
1039.14	1182.3
