Data from 17-1564_FLMS001491_003.txt Node
Date: Thu Apr 19 16:31:26 BST 2018
User: hsy
Spectrometer: FLMS00149
Trigger mode: 0
Integration Time (sec): 1.000000E-2
Scans to average: 10
Electric dark correction enabled: true
Nonlinearity correction enabled: false
Boxcar width: 0
XAxis mode: Wavelengths
Number of Pixels in Spectrum: 2048
>>>>>Begin Spectral Data<<<<<
341.393	-10.97
341.776	-10.97
342.16	-10.97
342.543	-45.32
342.927	-71.31
343.31	-57.53
343.693	-67.92
344.077	-72.67
344.46	-69.28
344.843	-68.6
345.226	-42.39
345.61	-32.67
345.993	-24.76
346.376	-13.23
346.759	5.97
347.142	39.65
347.525	25.18
347.908	64.96
348.291	84.39
348.674	107.67
349.057	121.23
349.44	106.76
349.823	123.71
350.206	184.05
350.588	260.43
350.971	241.45
351.354	266.31
351.737	266.08
352.119	297.94
352.502	311.96
352.884	319.19
353.267	355.12
353.65	349.47
354.032	325.97
354.414	355.8
354.797	351.5
355.179	362.8
355.562	348.79
355.944	362.12
356.326	385.85
356.709	375.23
357.091	395.34
357.473	402.12
357.855	389.47
358.238	410.71
358.62	391.5
359.002	396.92
359.384	407.09
359.766	365.74
360.148	388.11
360.53	401.44
360.912	398.28
361.294	396.7
361.676	385.4
362.057	380.2
362.439	404.61
362.821	390.37
363.203	384.95
363.584	394.44
363.966	403.93
364.348	378.62
364.729	382.01
365.111	369.13
365.493	379.98
365.874	376.59
366.256	384.95
366.637	391.05
367.019	384.04
367.4	351.95
367.781	390.15
368.163	363.93
368.544	393.53
368.925	395.79
369.306	394.21
369.688	389.24
370.069	376.36
370.45	388.79
370.831	369.58
371.212	392.86
371.593	383.14
371.974	375.91
372.355	403.25
372.736	384.72
373.117	384.5
373.498	393.76
373.879	393.31
374.26	385.17
374.641	389.24
375.021	389.47
375.402	391.73
375.783	385.63
376.163	435.34
376.544	419.3
376.925	420.43
377.305	401.67
377.686	415
378.066	437.38
378.447	405.51
378.827	410.48
379.208	428.79
379.588	415.23
379.968	438.73
380.349	440.31
380.729	432.18
381.109	459.07
381.489	438.51
381.87	419.52
382.25	432.63
382.63	436.92
383.01	434.89
383.39	450.48
383.77	450.03
384.15	463.82
384.53	460.43
384.91	460.2
385.29	462.01
385.67	488
386.049	479.86
386.429	478.05
386.809	484.83
387.189	465.62
387.568	495
387.948	513.31
388.328	489.8
388.707	496.58
389.087	504.72
389.466	504.49
389.846	501.78
390.225	502.68
390.605	494.78
390.984	516.47
391.363	511.72
391.743	519.18
392.122	547.43
392.501	529.35
392.881	548.79
393.26	532.29
393.639	533.42
394.018	555.11
394.397	531.38
394.776	530.93
395.155	525.73
395.534	554.89
395.913	546.3
396.292	546.07
396.671	541.78
397.05	570.71
397.429	562.8
397.808	570.25
398.186	593.3
398.565	573.87
398.944	580.2
399.323	590.14
399.701	589.91
400.08	609.35
400.458	602.79
400.837	603.02
401.215	615.45
401.594	599.18
401.972	620.65
402.351	631.49
402.729	644.6
403.107	627.65
403.486	634.66
403.864	648.22
404.242	626.52
404.62	639.63
404.999	649.57
405.377	652.74
405.755	669.46
406.133	675.34
406.511	672.62
406.889	689.12
407.267	671.27
407.645	701.1
408.023	713.07
408.401	710.36
408.779	713.3
409.156	742.23
409.534	713.53
409.912	746.75
410.29	771.15
410.667	748.78
411.045	797.14
411.422	762.34
411.8	776.12
412.178	814.54
412.555	793.98
412.933	809.57
413.31	821.32
413.687	826.29
414.065	835.78
414.442	830.36
414.819	840.75
415.197	854.09
415.574	856.12
415.951	866.52
416.328	867.87
416.705	858.61
417.082	868.78
417.46	889.79
417.837	926.63
418.214	916.68
418.591	915.78
418.967	924.37
419.344	921.43
419.721	918.72
420.098	951.26
420.475	947.64
420.852	955.55
421.228	953.29
421.605	963.24
421.982	966.18
422.358	992.16
422.735	1022.9
423.111	985.84
423.488	1029.9
423.864	1041.43
424.241	1043.24
424.617	1028.09
424.994	1014.99
425.37	1038.72
425.746	1062.9
426.123	1067.87
426.499	1054.99
426.875	1106.28
427.251	1115.55
427.627	1110.35
428.003	1137.47
428.379	1136.57
428.756	1159.84
429.132	1154.64
429.507	1189.45
429.883	1198.49
430.259	1207.07
430.635	1209.56
431.011	1207.3
431.387	1268.09
431.763	1259.05
432.138	1270.12
432.514	1262.89
432.89	1288.2
433.265	1329.1
433.641	1339.27
434.016	1335.21
434.392	1379.05
434.767	1384.02
435.143	1383.11
435.518	1413.17
435.894	1414.52
436.269	1407.07
436.644	1472.38
437.02	1454.75
437.395	1439.61
437.77	1508.76
438.145	1486.84
438.52	1521.41
438.895	1518.03
439.271	1519.83
439.646	1553.96
440.021	1577.23
440.395	1596.44
440.77	1538.36
441.145	1593.96
441.52	1607.97
441.895	1589.21
442.27	1622.66
442.645	1614.75
443.019	1648.87
443.394	1622.66
443.769	1642.32
444.143	1649.1
444.518	1679.6
444.892	1689.55
445.267	1718.02
445.641	1695.42
446.016	1708.75
446.39	1715.76
446.764	1723.9
447.139	1751.24
447.513	1773.61
447.887	1753.27
448.262	1774.97
448.636	1776.55
449.01	1815.42
449.384	1792.14
449.758	1836.66
450.132	1856.55
450.506	1840.28
450.88	1864.46
451.254	1870.78
451.628	1893.83
452.002	1925.92
452.376	1935.64
452.75	1956.66
453.123	1991.68
453.497	1985.36
453.871	2017.22
454.244	2001.63
454.618	2026.71
454.992	2082.3
455.365	2110.33
455.739	2143.77
456.112	2163.21
456.486	2163.43
456.859	2165.24
457.232	2214.05
457.606	2260.83
457.979	2284.33
458.352	2344.9
458.725	2357.33
459.099	2346.93
459.472	2352.81
459.845	2430.54
460.218	2402.3
460.591	2462.63
460.964	2508.06
461.337	2522.29
461.71	2556.87
462.083	2586.7
462.456	2612.46
462.829	2614.95
463.201	2690.2
463.574	2679.12
463.947	2711.89
464.32	2754.38
464.692	2758.67
465.065	2780.36
465.438	2819.69
465.81	2844.09
466.183	2854.49
466.555	2929.06
466.928	2936.74
467.3	2898.33
467.672	2969.74
468.045	3035.05
468.417	3048.83
468.789	3077.98
469.161	3094.48
469.534	3133.35
469.906	3178.55
470.278	3235.27
470.65	3236.85
471.022	3336.28
471.394	3373.12
471.766	3419.9
472.138	3444.75
472.51	3503.74
472.882	3566.11
473.253	3579.44
473.625	3611.98
473.997	3684.07
474.369	3717.06
474.74	3718.42
475.112	3852.2
475.484	3882.03
475.855	3936.72
476.227	3959.54
476.598	4072.76
476.97	4095.13
477.341	4228.01
477.713	4295.58
478.084	4289.93
478.455	4407.44
478.827	4469.59
479.198	4568.57
479.569	4586.64
479.94	4657.6
480.311	4750.71
480.682	4865.06
481.053	4952.06
481.424	5022.34
481.795	5053.3
482.166	5172.39
482.537	5186.63
482.908	5344.37
483.279	5407.87
483.65	5484.7
484.021	5648.31
484.391	5640.4
484.762	5726.95
485.133	5816.67
485.503	5877.91
485.874	6040.17
486.244	6072.71
486.615	6267.05
486.985	6317.67
487.356	6421.85
487.726	6486.03
488.097	6673.37
488.467	6711.33
488.837	6822.52
489.207	6897.77
489.578	7066.58
489.948	7144.54
490.318	7206.92
490.688	7261.15
491.058	7420.02
491.428	7534.36
491.798	7550.86
492.168	7730.29
492.538	7809.84
492.908	7882.83
493.278	8076.5
493.648	8131.64
494.017	8226.32
494.387	8305.19
494.757	8399.43
495.126	8484.4
495.496	8518.07
495.866	8636.93
496.235	8794.44
496.605	8855.23
496.974	8900.88
497.344	8990.82
497.713	9105.85
498.082	9153.98
498.452	9231.49
498.821	9345.62
499.19	9335.67
499.559	9470.36
499.928	9494.54
500.298	9572.5
500.667	9656.57
501.036	9760.97
501.405	9826.73
501.774	9804.59
502.143	9983.11
502.512	10031.93
502.88	10182.2
503.249	10166.16
503.618	10244.8
503.987	10277.57
504.356	10359.6
504.724	10501.97
505.093	10524.12
505.462	10564.11
505.83	10560.05
506.199	10714.39
506.567	10854.28
506.936	10853.37
507.304	10988.28
507.672	11067.15
508.041	11164.78
508.409	11197.54
508.777	11294.27
509.145	11374.49
509.514	11401.61
509.882	11488.84
510.25	11527.71
510.618	11613.35
510.986	11655.16
511.354	11822.61
511.722	11855.61
512.09	11921.14
512.458	11976.28
512.826	12124.53
513.193	12169.5
513.561	12233.22
513.929	12255.37
514.297	12344.63
514.664	12488.81
515.032	12562.03
515.4	12598.64
515.767	12745.53
516.135	12794.34
516.502	12732.87
516.869	12984.84
517.237	12979.19
517.604	13105.07
517.972	13271.84
518.339	13278.85
518.706	13346.41
519.073	13370.59
519.44	13505.51
519.808	13646.29
520.175	13689
520.542	13842.9
520.909	13937.81
521.276	13994.08
521.643	14196.11
522.009	14259.84
522.376	14455.54
522.743	14515.65
523.11	14681.52
523.477	14840.84
523.843	14884.68
524.21	15027.5
524.577	15158.57
524.943	15240.6
525.31	15312.69
525.676	15559.69
526.043	15716.75
526.409	15657.09
526.776	15861.83
527.142	16022.5
527.508	16108.83
527.874	16389.5
528.241	16369.61
528.607	16350.18
528.973	16637.4
529.339	16646.89
529.705	16830.62
530.071	17056.6
530.437	17083.49
530.803	17191.96
531.169	17298.18
531.535	17341.34
531.901	17436.25
532.267	17551.05
532.632	17704.49
532.998	17772.51
533.364	17949.91
533.73	18049.57
534.095	18149.9
534.461	18251.37
534.826	18337.47
535.192	18325.72
535.557	18546.28
535.923	18541.31
536.288	18688.87
536.653	18766.61
537.019	18779.04
537.384	18955.31
537.749	18917.57
538.114	19026.27
538.479	19112.82
538.845	19269.87
539.21	19183.55
539.575	19230.1
539.94	19420.38
540.305	19487.27
540.67	19516.2
541.034	19652.46
541.399	19625.57
541.764	19758.45
542.129	19787.6
542.494	19937.2
542.858	19989.18
543.223	20047.93
543.587	20195.05
543.952	20122.96
544.316	20165.67
544.681	20261.94
545.045	20394.59
545.41	20518.2
545.774	20542.84
546.138	20576.73
546.503	20609.05
546.867	20593.68
547.231	20897.63
547.595	20832.32
547.959	20911.19
548.324	20920.23
548.688	21066.21
549.052	21041.13
549.416	21107.34
549.779	21204.06
550.143	21296.26
550.507	21414
550.871	21484.96
551.235	21381.23
551.599	21731.28
551.962	21692.18
552.326	21752.52
552.689	21800.2
553.053	21740.09
553.417	21870.26
553.78	22145.28
554.143	22143.25
554.507	22207.42
554.87	22362.67
555.234	22511.6
555.597	22318.16
555.96	22604.02
556.323	22674.3
556.686	22712.5
557.05	22968.31
557.413	22987.52
557.776	22994.3
558.139	23204.23
558.502	23253.5
558.865	23263.44
559.228	23463.44
559.59	23571.91
559.953	23564.45
560.316	23907.04
560.679	23930.09
561.041	24060.48
561.404	24302.06
561.767	24392.45
562.129	24236.3
562.492	24645.78
562.854	24568.04
563.217	24616.4
563.579	24850.07
563.941	25024.53
564.304	25189.04
564.666	25502.03
565.028	25297.06
565.39	25512.2
565.753	25777.73
566.115	25881.45
566.477	25995.12
566.839	26159.19
567.201	26386.98
567.563	26382.46
567.925	26653.86
568.287	26862.44
568.648	26876
569.01	27129.1
569.372	27448.87
569.734	27417.23
570.095	27595.31
570.457	27835.53
570.819	27906.94
571.18	28031.45
571.542	28285.91
571.903	28324.78
572.265	28463.08
572.626	28787.36
572.987	28709.85
573.349	29005.89
573.71	29156.85
574.071	29323.17
574.432	29509.61
574.794	29784.63
575.155	29783.04
575.516	29789.6
575.877	29975.58
576.238	30057.16
576.599	30318.85
576.96	30525.17
577.32	30611.95
577.681	30704.15
578.042	30994.76
578.403	31097.36
578.763	31189.56
579.124	31261.65
579.485	31691.69
579.845	31808.3
580.206	31826.61
580.566	31924.46
580.927	32130.78
581.287	32219.82
581.648	32315.41
582.008	32620.26
582.368	32757.43
582.728	32853.02
583.089	33070.64
583.449	33381.14
583.809	33378.88
584.169	33635.15
584.529	33771.87
584.889	34351.29
585.249	34342.92
585.609	34372.75
585.969	34796.47
586.329	34880.99
586.688	35293.18
587.048	35552.84
587.408	35830.57
587.768	36080.96
588.127	36525.69
588.487	36766.59
588.846	37257.65
589.206	37339.23
589.565	37739.22
589.925	38197.96
590.284	38609.48
590.643	38804.73
591.003	39291.04
591.362	39934.87
591.721	40125.82
592.08	40475.87
592.44	41152.69
592.799	41535.96
593.158	41825.44
593.517	42256.39
593.876	42897.05
594.235	43082.13
594.593	43497.94
594.952	44136.57
595.311	44484.8
595.67	44935.87
596.029	45704.89
596.387	46129.96
596.746	46563.62
597.104	46815.14
597.463	47197.95
597.822	47732.86
598.18	48112.96
598.538	48426.62
598.897	49114.97
599.255	49152.48
599.613	49943.19
599.972	49978.67
600.33	50387.7
600.688	50557.41
601.046	51083.5
601.404	51558.07
601.762	51769.81
602.12	52254.32
602.478	52507.19
602.836	52822.44
603.194	52877.58
603.552	53158.25
603.91	53411.12
604.268	53831.9
604.625	53955.06
604.983	54336.98
605.341	54415.39
605.698	54859.67
606.056	55262.15
606.413	55248.59
606.771	55618.07
607.128	55854.9
607.485	55940.1
607.843	56061
608.2	56370.59
608.557	56743.47
608.914	56727.87
609.272	57008.54
609.629	57323.56
609.986	57551.35
610.343	57656.89
610.7	57968.74
611.057	57994.96
611.414	58105.46
611.771	58412.8
612.127	58538.45
612.484	58676.97
612.841	58959.68
613.198	58896.18
613.554	59036.96
613.911	59359.44
614.267	59366
614.624	59427.69
614.98	59688.25
615.337	59890.5
615.693	59947.9
616.05	60059.08
616.406	60225.18
616.762	60247.78
617.118	60346.76
617.475	60469.24
617.831	60630.82
618.187	60727.77
618.543	60837.14
618.899	61034.2
619.255	61024.26
619.611	61130.02
619.967	61249.79
620.323	61343.8
620.678	61355.77
621.034	61397.58
621.39	61421.99
621.746	61566.62
622.101	61784.46
622.457	61680.51
622.812	61826.95
623.168	61852.26
623.523	61987.17
623.879	62066.94
624.234	61977.45
624.589	62085.47
624.945	62166.83
625.3	62186.49
625.655	62180.38
626.01	62274.17
626.365	62354.62
626.72	62360.27
627.075	62352.36
627.43	62360.95
627.785	62451.34
628.14	62472.13
628.495	62547.38
628.85	62594.16
629.205	62500.6
629.559	62625.12
629.914	62558
630.269	62586.48
630.623	62495.18
630.978	62483.88
631.332	62729.07
631.687	62656.53
632.041	62601.39
632.396	62631.45
632.75	62587.83
633.104	62676.19
633.459	62555.29
633.813	62597.1
634.167	62606.36
634.521	62554.39
634.875	62602.75
635.229	62579.24
635.583	62462.86
635.937	62476.65
636.291	62474.16
636.645	62481.17
636.999	62441.39
637.352	62511.45
637.706	62357.78
638.06	62506.03
638.413	62413.6
638.767	62370.44
639.121	62374.28
639.474	62325.24
639.828	62314.39
640.181	62282.3
640.534	62375.41
640.888	62272.13
641.241	62168.63
641.594	62244.11
641.947	62331.79
642.301	62229.42
642.654	62301.06
643.007	62189.65
643.36	62225.13
643.713	62151.23
644.066	62296.99
644.419	62086.38
644.771	61909.43
645.124	61612.72
645.477	61665.37
645.83	61551.93
646.182	61550.8
646.535	61485.49
646.888	61525.03
647.24	61433.29
647.593	61541.53
647.945	61434.64
648.298	61349.45
648.65	61312.61
649.002	61219.05
649.355	61163.46
649.707	61124.37
650.059	61170.24
650.411	61397.35
650.763	61520.52
651.115	61832.82
651.467	61755.09
651.819	61718.48
652.171	61658.59
652.523	61582.21
652.875	61646.39
653.227	61580.17
653.578	61714.18
653.93	61600.74
654.282	61518.48
654.633	61486.17
654.985	61512.15
655.337	61597.12
655.688	61546.05
656.039	61616.33
656.391	61358.26
656.742	61489.1
657.094	61397.58
657.445	61447.3
657.796	61451.14
658.147	61391.25
658.498	61411.14
658.849	61409.11
659.2	61375.43
659.551	61310.13
659.902	61517.35
660.253	61342.44
660.604	61381.31
660.955	61309
661.306	61358.03
661.656	61273.97
662.007	61313.51
662.358	61307.64
662.708	61298.37
663.059	61240.07
663.409	61148.1
663.76	61285.04
664.11	61269.67
664.461	61285.27
664.811	61292.95
665.161	61238.26
665.511	61189
665.862	61179.51
666.212	61229.22
666.562	61285.27
666.912	61231.48
667.262	61158.94
667.612	61089.79
667.962	61160.98
668.312	61120.53
668.662	61222.44
669.011	61163.46
669.361	61136.8
669.711	61129.79
670.06	61103.8
670.41	61109
670.76	61038.27
671.109	61141.09
671.459	61113.29
671.808	61068.1
672.157	61149
672.507	60971.83
672.856	61035.1
673.205	61089.11
673.554	61117.14
673.904	60991.04
674.253	61245.49
674.602	61062.9
674.951	60756.24
675.3	60695.68
675.649	61058.38
675.998	60997.37
676.346	60975.9
676.695	61071.71
677.044	60911.49
677.393	60969.34
677.741	60950.36
678.09	60920.76
678.438	60820.87
678.787	60917.59
679.135	60908.55
679.484	60757.37
679.832	60824.04
680.181	60822
680.529	60861.32
680.877	60759.86
681.225	60731.38
681.573	60898.16
681.922	60682.8
682.27	60689.12
682.618	60657.71
682.966	60591.73
683.314	60631.72
683.661	60596.7
684.009	60449.58
684.357	60473.76
684.705	60414.33
685.053	60447.1
685.4	60346.76
685.748	60279.42
686.095	60234.22
686.443	60133.88
686.79	60148.57
687.138	60220.21
687.485	60183.38
687.832	60073.32
688.18	60062.25
688.527	60010.27
688.874	60027.67
689.221	59977.96
689.568	59843.27
689.915	59777.74
690.262	59875.13
690.609	59797.62
690.956	59717.85
691.303	59716.95
691.65	59624.52
691.997	59601.47
692.344	59510.17
692.69	59492.09
693.037	59494.13
693.383	59314.47
693.73	59379.33
694.077	59266.34
694.423	59238.09
694.769	59080.13
695.116	59177.07
695.462	58938.89
695.808	58860.7
696.155	59010.52
696.501	58779.12
696.847	58862.05
697.193	58678.1
697.539	58719.01
697.885	58570.54
698.231	58540.48
698.577	58526.7
698.923	58427.49
699.269	58253.48
699.614	58231.11
699.96	58171.45
700.306	58173.48
700.651	58044
700.997	58012.58
701.342	57949.54
701.688	57823.66
702.033	57787.51
702.379	57786.15
702.724	57701.86
703.069	57688.98
703.415	57392.26
703.76	57339.38
704.105	57443.79
704.45	57287.18
704.795	57283.79
705.14	57070.69
705.485	57123.57
705.83	56924.93
706.175	57003.12
706.52	56952.5
706.865	56910.69
707.209	56809
707.554	56788.44
707.899	56705.95
708.243	56582.57
708.588	56518.61
708.932	56407.88
709.277	56478.84
709.621	56296.02
709.966	56222.58
710.31	56260.54
710.654	56075.01
710.998	56067.1
711.342	56064.61
711.687	55962.7
712.031	55918.4
712.375	55816.94
712.719	55806.32
713.063	55664.17
713.407	55790.27
713.75	55631.4
714.094	55557.73
714.438	55505.76
714.782	55528.36
715.125	55355.93
715.469	55527.23
715.812	55298.98
716.156	55207.23
716.499	55225.99
716.843	55211.08
717.186	55076.39
717.53	55157.52
717.873	55192.32
718.216	55052.66
718.559	54967.24
718.902	54699
719.246	54872.55
719.589	54734.48
719.932	54654.03
720.275	54710.98
720.617	54725.67
720.96	54535.61
721.303	54577.19
721.646	54616.74
721.989	54377.65
722.331	54472.79
722.674	54310.76
723.016	54289.07
723.359	54261.95
723.701	54305.56
724.044	54187.37
724.386	54063.54
724.729	54093.82
725.071	54057.66
725.413	53931.11
725.755	54078.9
726.097	53862.64
726.439	53836.2
726.782	53786.93
727.124	54000.03
727.465	53855.63
727.807	53684.79
728.149	53783.32
728.491	53696.31
728.833	53689.53
729.175	53645.69
729.516	53598.01
729.858	53537.22
730.199	53619.03
730.541	53490.22
730.882	53439.82
731.224	53463.78
731.565	53353.72
731.906	53423.78
732.248	53401.86
732.589	53168.42
732.93	53192.37
733.271	53240.73
733.612	53254.52
733.953	53352.82
734.294	53209.1
734.635	53050
734.976	53276.44
735.317	53086.16
735.658	53120.74
735.999	53059.27
736.339	52997.8
736.68	52941.76
737.021	52850.46
737.361	52763.91
737.702	53019.27
738.042	52786.73
738.383	52892.04
738.723	52937.24
739.063	52864.7
739.404	52866.73
739.744	52788.32
740.084	52632.39
740.424	52708.32
740.764	52610.01
741.104	52854.98
741.444	52558.72
741.784	52493.18
742.124	52564.37
742.464	52516.23
742.804	52444.37
743.143	52368.21
743.483	52501.54
743.823	52245.28
744.162	52263.13
744.502	52316.46
744.841	52296.35
745.181	52419.29
745.52	52212.06
745.86	52215
746.199	52247.09
746.538	52262.91
746.877	52235.56
747.216	52291.38
747.556	52122.12
747.895	52219.97
748.234	52089.35
748.573	52125.51
748.911	51989.24
749.25	52058.62
749.589	51867.66
749.928	51992.4
750.267	52005.96
750.605	51870.83
750.944	51887.32
751.283	51779.3
751.621	51850.26
751.96	51641.9
752.298	51612.3
752.636	51661.79
752.975	51634
753.313	51537.27
753.651	51801.22
753.989	51480.55
754.327	51562.36
754.666	51350.16
755.004	51321.01
755.342	51375.7
755.679	51309.94
756.017	51098.19
756.355	51263.61
756.693	51098.87
757.031	51242.37
757.368	50962.83
757.706	50902.49
758.044	50810.97
758.381	50868.14
758.719	50788.59
759.056	50886.22
759.394	50655.49
759.731	50449.17
760.068	50487.36
760.405	50550.41
760.743	50270.87
761.08	50287.82
761.417	50112.91
761.754	50094.37
762.091	50066.13
762.428	49849.64
762.765	49734.84
763.102	49761.05
763.438	49717.66
763.775	49434.28
764.112	49448.74
764.449	49444.67
764.785	49348.63
765.122	49245.13
765.458	49043.1
765.795	49045.81
766.131	49069.09
766.467	48911.13
766.804	48625.94
767.14	48498.71
767.476	48388.21
767.812	48297.81
768.148	48396.34
768.485	48201.54
768.821	47947.76
769.157	47782.57
769.492	47778.05
769.828	47633.42
770.164	47302.13
770.5	47136.03
770.836	47234.11
771.171	46894.23
771.507	46850.84
771.842	46621.25
772.178	46601.13
772.513	46359.33
772.849	46279.33
773.184	46189.62
773.519	46201.6
773.855	45911.21
774.19	45891.32
774.525	45603.87
774.86	45677.54
775.195	45472.35
775.53	45323.43
775.865	45042.98
776.2	44751.24
776.535	44579.27
776.87	44705.82
777.205	44411.81
777.539	44316.22
777.874	44266.28
778.209	43963.01
778.543	43980.64
778.878	43686.63
779.212	43647.76
779.547	43277.83
779.881	43347.89
780.215	43006.65
780.55	43205.06
780.884	42610.96
781.218	42689.37
781.552	42799.88
781.886	42364.41
782.22	42195.6
782.554	41948.37
782.888	41754.71
783.222	41808.72
783.556	41521.04
783.889	41329.86
784.223	41293.48
784.557	41160.6
784.89	41203.08
785.224	40915.86
785.557	40662.53
785.891	40521.75
786.224	40664.57
786.558	40582.31
786.891	40304.58
787.224	39989.78
787.557	39980.29
787.891	39964.25
788.224	39491.72
788.557	39687.19
788.89	39564.48
789.223	39325.84
789.556	39165.4
789.888	39085.62
790.221	38857.83
790.554	38789.59
790.887	38612.19
791.219	38555.47
791.552	38218.75
791.884	38216.72
792.217	38153.9
792.549	38098.31
792.882	37669.62
793.214	37664.42
793.546	37630.75
793.879	37408.15
794.211	37247.26
794.543	37308.95
794.875	37244.32
795.207	37092.46
795.539	36925.23
795.871	36990.54
796.203	36792.13
796.535	36434.85
796.867	36462.64
797.198	36254.74
797.53	36321.18
797.862	35898.59
798.193	36054.07
798.525	35883.45
798.856	35886.16
799.188	35407.98
799.519	35481.88
799.85	35321.43
800.182	35263.13
800.513	35365.04
800.844	34964.83
801.175	35174.54
801.506	34900.88
801.837	34841.67
802.168	34732.07
802.499	34805.29
802.83	34515.35
803.161	34402.13
803.491	34384.96
803.822	34314.22
804.153	33973.89
804.483	33922.37
804.814	33772.54
805.145	33979.77
805.475	33762.37
805.805	33669.95
806.136	33672.21
806.466	33494.13
806.796	33399.67
807.126	33205.78
807.457	33161.49
807.787	33105.9
808.117	32987.71
808.447	32893.25
808.777	32963.75
809.107	32645.79
809.436	32535.74
809.766	32586.13
810.096	32605.8
810.426	32419.59
810.755	32497.78
811.085	32275.86
811.414	32333.03
811.744	32088.97
812.073	32170.78
812.403	32069.31
812.732	31874.52
813.061	31944.12
813.39	31703.45
813.719	31603.11
814.049	31804.01
814.378	31629.55
814.707	31402.21
815.036	31400.4
815.365	31307.98
815.693	31058.04
816.022	31004.71
816.351	30952.73
816.68	30835.9
817.008	30816.69
817.337	30533.31
817.665	30724.26
817.994	30585.74
818.322	30830.02
818.651	30375.57
818.979	30484.95
819.307	30370.15
819.636	30335.35
819.964	30222.36
820.292	30290.6
820.62	30168.12
820.948	30203.37
821.276	30396.59
821.604	30201.56
821.932	30346.65
822.259	30222.13
822.587	30291.51
822.915	30231.85
823.243	30204.73
823.57	30015.13
823.898	30098.52
824.225	30091.06
824.553	30001.57
824.88	30125.86
825.207	30322.47
825.535	30001.34
825.862	30223.26
826.189	30090.61
826.516	30190.72
826.843	30251.51
827.17	30218.06
827.497	30234.33
827.824	30173.77
828.151	30285.86
828.478	30050.16
828.805	30230.26
829.131	30270.94
829.458	30185.52
829.785	30027.78
830.111	30198.63
830.438	30251.73
830.764	30224.16
831.09	30203.6
831.417	30064.17
831.743	30215.8
832.069	30074.11
832.395	30067.1
832.722	29935.36
833.048	29859.88
833.374	30008.35
833.7	29890.39
834.026	29983.72
834.351	30038.63
834.677	29877.96
835.003	29950.95
835.329	29995.24
835.654	29810.16
835.98	29654.91
836.306	29784.63
836.631	29700.33
836.956	29848.35
837.282	29760.67
837.607	29744.18
837.932	29570.62
838.258	29422.6
838.583	29441.13
838.908	29392.09
839.233	29365.88
839.558	29376.28
839.883	29311.64
840.208	29100.8
840.533	29245.43
840.858	29125.89
841.182	29066
841.507	29169.5
841.832	29044.08
842.156	29011.54
842.481	28954.82
842.805	28883.41
843.13	28713.47
843.454	28779.91
843.778	28642.96
844.103	28566.58
844.427	28657.42
844.751	28633.47
845.075	28480.03
845.399	28377.66
845.723	28178.12
846.047	28283.2
846.371	28055.18
846.695	27959.36
847.019	27898.57
847.343	27708.97
847.666	27653.38
847.99	27572.26
848.313	27366.16
848.637	27310.57
848.96	27243.68
849.284	27308.08
849.607	26936.34
849.931	26847.98
850.254	26797.81
850.577	26598.72
850.9	26493.87
851.223	26605.5
851.546	26414.32
851.869	26266.07
852.192	26375.68
852.515	26028.34
852.838	25866.76
853.161	25968
853.483	25739.76
853.806	25751.29
854.129	25627
854.451	25587.22
854.774	25339.09
855.096	25338.19
855.419	25243.05
855.741	25185.2
856.063	25005.54
856.385	25013
856.708	24964.87
857.03	24818.66
857.352	24822.05
857.674	24736.62
857.996	24703.4
858.318	24491.88
858.64	24557.19
858.961	24440.59
859.283	24355.39
859.605	24305
859.926	24263.64
860.248	24292.34
860.57	24118.56
860.891	24144.32
861.212	23946.36
861.534	23907.94
861.855	23942.97
862.176	23951.11
862.498	23951.79
862.819	23792.24
863.14	23803.77
863.461	23638.8
863.782	23718.12
864.103	23598.35
864.424	23638.12
864.745	23565.58
865.065	23386.15
865.386	23371.46
865.707	23424.57
866.027	23347.51
866.348	23319.71
866.668	23355.42
866.989	23205.59
867.309	22988.19
867.63	23102.54
867.95	23125.37
868.27	22996.33
868.59	23045.37
868.91	22836.33
869.23	22848.99
869.55	22833.85
869.87	22886.05
870.19	22747.52
870.51	22702.1
870.83	22708.65
871.15	22631.59
871.469	22638.37
871.789	22650.58
872.109	22600.86
872.428	22398.61
872.748	22549.56
873.067	22455.78
873.386	22443.12
873.706	22423.01
874.025	22327.65
874.344	22270.02
874.663	22236.12
874.982	22223.02
875.301	22134.66
875.62	22074.32
875.939	22029.12
876.258	22025.73
876.577	21920.43
876.896	21997.26
877.214	21898.05
877.533	21955.91
877.852	21816.7
878.17	21805.4
878.489	21816.93
878.807	21733.54
879.125	21705.74
879.444	21754.78
879.762	21658.06
880.08	21699.42
880.398	21641.79
880.716	21478.4
881.034	21490.83
881.352	21448.12
881.67	21344.4
881.988	21407.22
882.306	21253.55
882.624	21361.8
882.941	21182.37
883.259	21127.68
883.577	21115.7
883.894	21096.72
884.212	20934.46
884.529	20875.26
884.846	20881.13
885.164	20827.57
885.481	20783.96
885.798	20743.96
886.115	20602.27
886.432	20772.66
886.75	20635.49
887.067	20611.53
887.383	20524.3
887.7	20473.91
888.017	20364.08
888.334	20393.01
888.651	20393.46
888.967	20336.74
889.284	20205.44
889.6	20166.12
889.917	20063.07
890.233	20172.9
890.55	19993.92
890.866	19940.59
891.182	19944.66
891.498	19969.29
891.815	19787.6
892.131	19776.53
892.447	19792.12
892.763	19725.91
893.079	19655.4
893.395	19547.61
893.71	19496.08
894.026	19470.1
894.342	19440.72
894.657	19230.1
894.973	19210.22
895.289	19228.75
895.604	19155.75
895.92	19109.88
896.235	19036.89
896.55	18958.7
896.865	18886.16
897.181	18907.62
897.496	18825.37
897.811	18783.79
898.126	18653.62
898.441	18617.24
898.756	18488.43
899.071	18399.16
899.386	18475.55
899.7	18308.54
900.015	18184.48
900.33	18062.9
900.644	18094.31
900.959	18135.67
901.273	17942
901.588	18037.36
901.902	17797.6
902.216	17743.81
902.531	17766.19
902.845	17696.81
903.159	17468.79
903.473	17509.24
903.787	17373.2
904.101	17309.47
904.415	17372.3
904.729	17190.38
905.042	17091.63
905.356	17074.23
905.67	17052.53
905.984	17012.53
906.297	17032.65
906.611	16922.14
906.924	16763.95
907.237	16634.24
907.551	16730.05
907.864	16596.27
908.177	16538.2
908.491	16484.19
908.804	16463.39
909.117	16306.79
909.43	16153.8
909.743	16096.85
910.056	16171.65
910.368	16068.6
910.681	16031.77
910.994	15936.18
911.307	15902.51
911.619	15769.4
911.932	15742.06
912.244	15545.68
912.557	15625.9
912.869	15415.29
913.181	15416.19
913.494	15363.54
913.806	15260.71
914.118	15175.52
914.43	15214.61
914.742	15084
915.054	15027.27
915.366	15035.18
915.678	14911.35
915.99	14834.96
916.302	14752.25
916.613	14691.24
916.925	14754.51
917.236	14561.3
917.548	14505.03
917.859	14570.11
918.171	14454.63
918.482	14319.95
918.794	14291.47
919.105	14254.87
919.416	14131.93
919.727	14148.43
920.038	14062.78
920.349	13952.95
920.66	13954.99
920.971	13925.38
921.282	13888.77
921.593	13800.41
921.903	13715.44
922.214	13721.32
922.525	13588.44
922.835	13647.42
923.146	13487.2
923.456	13401.78
923.767	13386.41
924.077	13346.41
924.387	13358.39
924.697	13208.79
925.008	13195.68
925.318	13101.45
925.628	13067.55
925.938	13034.33
926.248	12962.02
926.558	12904.39
926.867	12806.99
927.177	12732.42
927.487	12738.3
927.796	12592.31
928.106	12614.46
928.416	12616.26
928.725	12533.78
929.034	12404.97
929.344	12457.17
929.653	12391.86
929.962	12263.73
930.271	12195.03
930.581	12184.41
930.89	12096.28
931.199	11980.8
931.508	11960.46
931.817	11999.11
932.125	11905.1
932.434	11887.02
932.743	11761.15
933.051	11757.3
933.36	11682.05
933.669	11582.17
933.977	11571.77
934.286	11482.51
934.594	11505.33
934.902	11368.84
935.21	11296.07
935.519	11360.93
935.827	11248.84
936.135	11140.6
936.443	11156.42
936.751	11104.67
937.059	11105.8
937.367	10986.48
937.674	10995.74
937.982	10948.51
938.29	10902.19
938.597	10862.64
938.905	10773.83
939.213	10723.21
939.52	10679.37
939.827	10745.58
940.135	10545.58
940.442	10616.77
940.749	10524.79
941.056	10540.61
941.363	10404.8
941.67	10445.02
941.977	10344.91
942.284	10249.55
942.591	10238.25
942.898	10110.57
943.205	10177.23
943.511	10115.54
943.818	10148.53
944.125	9962.77
944.431	9928.88
944.738	9910.35
945.044	9877.13
945.35	9787.19
945.657	9795.77
945.963	9750.35
946.269	9694.99
946.575	9585.16
946.881	9533.41
947.187	9629.45
947.493	9492.05
947.799	9456.57
948.105	9485.05
948.41	9386.74
948.716	9383.81
949.022	9380.42
949.327	9293.19
949.633	9139.07
949.938	9220.65
950.244	9197.37
950.549	9077.37
950.854	9041.9
951.16	9013.65
951.465	9005.51
951.77	8880.54
952.075	8958.73
952.38	8837.61
952.685	8833.99
952.99	8808.91
953.294	8810.71
953.599	8640.32
953.904	8611.4
954.209	8613.21
954.513	8577.95
954.818	8559.2
955.122	8540.44
955.426	8496.15
955.731	8426.77
956.035	8374.57
956.339	8359.88
956.643	8370.73
956.948	8287.34
957.252	8274.01
957.556	8232.88
957.86	8191.3
958.163	8171.64
958.467	8101.58
958.771	8124.86
959.075	8033.11
959.378	7954.69
959.682	7940.46
959.985	7881.25
960.289	7845.09
960.592	7853.9
960.896	7823.62
961.199	7765.32
961.502	7780.91
961.805	7740.01
962.108	7608.03
962.411	7605.32
962.714	7563.74
963.017	7554.93
963.32	7578.2
963.623	7484.65
963.926	7501.82
964.228	7434.03
964.531	7335.27
964.833	7394.03
965.136	7307.7
965.438	7307.48
965.741	7192
966.043	7264.54
966.345	7227.48
966.648	7128.05
966.95	7110.65
967.252	7107.03
967.554	7056.41
967.856	7055.51
968.158	6951.55
968.46	6958.56
968.761	6911.1
969.063	6928.5
969.365	6833.37
969.666	6818.68
969.968	6740.26
970.269	6767.83
970.571	6725.57
970.872	6661.17
971.174	6648.74
971.475	6638.34
971.776	6626.14
972.077	6599.47
972.378	6608.74
972.679	6541.62
972.98	6592.02
973.281	6464.34
973.582	6443.55
973.883	6400.61
974.183	6368.52
974.484	6312.25
974.785	6314.96
975.085	6286.26
975.386	6208.52
975.686	6237.22
975.986	6205.59
976.287	6172.37
976.587	6155.64
976.887	6112.03
977.187	6048.3
977.487	6045.59
977.787	6025.93
978.087	5996.78
978.387	6029.54
978.687	5971.47
978.987	5891.7
979.286	5913.16
979.586	5873.62
979.885	5858.7
980.185	5817.35
980.484	5784.58
980.784	5780.74
981.083	5761.53
981.382	5710.91
981.682	5677.24
981.981	5690.12
982.28	5646.5
982.579	5593.4
982.878	5591.82
983.177	5564.47
983.475	5477.47
983.774	5547.75
984.073	5478.15
984.372	5415.32
984.67	5439.05
984.969	5438.83
985.267	5395.44
985.566	5389.56
985.864	5326.74
986.162	5323.57
986.461	5283.12
986.759	5256.01
987.057	5177.36
987.355	5158.61
987.653	5158.16
987.951	5143.47
988.249	5063.47
988.547	5104.6
988.844	5011.72
989.142	5016.24
989.44	4995.9
989.737	4977.82
990.035	4908.22
990.332	4997.26
990.63	4962.23
990.927	4920.87
991.224	4905.05
991.521	4866.41
991.819	4792.29
992.116	4797.94
992.413	4809.01
992.71	4731.27
993.006	4719.3
993.303	4714.33
993.6	4672.29
993.897	4641.56
994.193	4633.42
994.49	4649.47
994.787	4592.29
995.083	4601.79
995.379	4579.64
995.676	4557.04
995.972	4487.89
996.268	4462.81
996.565	4461
996.861	4396.37
997.157	4374.45
997.453	4380.55
997.749	4334
998.044	4320.44
998.34	4319.76
998.636	4324.96
998.932	4277.5
999.227	4227.78
999.523	4205.64
999.818	4166.09
1000.114	4124.51
1000.409	4131.52
1000.704	4109.82
1001	4063.49
1001.295	4036.6
1001.59	4043.38
1001.885	3993.44
1002.18	3986.89
1002.475	3991.41
1002.77	3969.03
1003.065	3961.8
1003.359	3909.83
1003.654	3920.22
1003.949	3887
1004.243	3818.3
1004.538	3800
1004.832	3788.7
1005.127	3804.29
1005.421	3722.94
1005.715	3771.53
1006.009	3697.18
1006.304	3689.72
1006.598	3672.54
1006.892	3675.48
1007.186	3610.17
1007.48	3619.89
1007.773	3561.59
1008.067	3551.64
1008.361	3518.2
1008.655	3538.08
1008.948	3482.04
1009.242	3491.08
1009.535	3420.35
1009.829	3424.87
1010.122	3403.85
1010.415	3376.06
1010.708	3360.69
1011.001	3341.93
1011.295	3300.13
1011.588	3299.45
1011.881	3242.73
1012.173	3266.45
1012.466	3268.26
1012.759	3235.04
1013.052	3236.17
1013.344	3174.7
1013.637	3181.48
1013.93	3141.03
1014.222	3110.98
1014.514	3096.74
1014.807	3078.44
1015.099	3058.1
1015.391	3009.74
1015.683	2995.27
1015.976	2976.07
1016.268	2946.24
1016.56	2945.56
1016.851	2935.16
1017.143	2921.15
1017.435	2906.69
1017.727	2859.68
1018.018	2821.04
1018.31	2825.56
1018.602	2813.36
1018.893	2775.62
1019.185	2783.3
1019.476	2745.34
1019.767	2698.78
1020.058	2713.47
1020.35	2699.46
1020.641	2675.73
1020.932	2682.29
1021.223	2619.92
1021.514	2634.61
1021.804	2587.38
1022.095	2606.13
1022.386	2553.93
1022.677	2530.43
1022.967	2556.87
1023.258	2523.2
1023.548	2472.58
1023.839	2512.12
1024.129	2455.63
1024.419	2444.1
1024.709	2422.86
1025	2413.82
1025.29	2389.87
1025.58	2351.9
1025.87	2346.93
1026.16	2301.51
1026.449	2304.45
1026.739	2299.93
1027.029	2287.04
1027.319	2260.38
1027.608	2204.33
1027.898	2209.31
1028.187	2186.26
1028.477	2198.23
1028.766	2176.99
1029.055	2167.73
1029.344	2117.11
1029.634	2118.91
1029.923	2140.61
1030.212	2085.02
1030.501	2075.3
1030.79	2075.98
1031.078	2073.49
1031.367	2032.81
1031.656	2013.15
1031.945	2005.02
1032.233	2023.1
1032.522	1973.15
1032.81	1962.99
1033.099	1943.55
1033.387	1934.96
1033.675	1959.6
1033.963	1886.83
1034.251	1897
1034.54	1877.56
1034.828	1883.67
1035.116	1856.55
1035.403	1858.13
1035.691	1838.47
1035.979	1809.54
1036.267	1799.37
1036.554	1776.78
1036.842	1771.13
1037.129	1732.48
1037.417	1744.01
1037.704	1718.47
1037.992	1734.29
1038.279	1704.23
1038.566	1705.14
1038.853	1705.14
1039.14	1705.14
