Data from 17-1436_FLMS001491_010.txt Node
Date: Thu Apr 19 16:29:17 BST 2018
User: hsy
Spectrometer: FLMS00149
Trigger mode: 0
Integration Time (sec): 1.000000E-2
Scans to average: 10
Electric dark correction enabled: true
Nonlinearity correction enabled: false
Boxcar width: 0
XAxis mode: Wavelengths
Number of Pixels in Spectrum: 2048
>>>>>Begin Spectral Data<<<<<
341.393	-8.05
341.776	-8.05
342.16	-8.05
342.543	-42.17
342.927	-86.24
343.31	-85.56
343.693	-60.93
344.077	-76.75
344.46	-50.76
344.843	-58.67
345.226	-38.56
345.61	-53.25
345.993	-27.03
346.376	-15.51
346.759	26.75
347.142	45.51
347.525	44.38
347.908	52.06
348.291	75.34
348.674	99.29
349.057	123.7
349.44	131.38
349.823	150.36
350.206	155.79
350.588	215.9
350.971	239.17
351.354	236.01
351.737	267.87
352.119	267.2
352.502	297.25
352.884	312.62
353.267	313.52
353.65	316.91
354.032	334.99
354.414	342
354.797	330.25
355.179	338.83
355.562	346.29
355.944	366.18
356.326	349.68
356.709	345.61
357.091	384.26
357.473	374.31
357.855	365.5
358.238	370.92
358.62	341.54
359.002	379.51
359.384	386.06
359.766	345.84
360.148	389
360.53	388.55
360.912	360.75
361.294	365.95
361.676	398.27
362.057	375.67
362.439	360.3
362.821	383.58
363.203	389.68
363.584	366.63
363.966	365.72
364.348	368.44
364.729	367.76
365.111	370.24
365.493	352.84
365.874	356.23
366.256	363.69
366.637	373.86
367.019	351.71
367.4	368.66
367.781	359.85
368.163	357.59
368.544	366.85
368.925	370.24
369.306	351.49
369.688	360.98
370.069	354.43
370.45	370.92
370.831	352.17
371.212	358.04
371.593	378.15
371.974	371.37
372.355	387.42
372.736	375.44
373.117	381.54
373.498	384.93
373.879	365.27
374.26	368.44
374.641	353.52
375.021	370.24
375.402	393.07
375.783	375.44
376.163	408.44
376.544	414.31
376.925	416.57
377.305	398.49
377.686	395.55
378.066	396.23
378.447	403.01
378.827	392.62
379.208	419.51
379.588	409.34
379.968	399.4
380.349	413.18
380.729	403.46
381.109	398.04
381.489	420.41
381.87	417.25
382.25	410.02
382.63	420.19
383.01	430.36
383.39	435.1
383.77	425.38
384.15	447.53
384.53	434.42
384.91	417.93
385.29	440.98
385.67	443.69
386.049	429.45
386.429	444.59
386.809	442.78
387.189	477.36
387.568	463.35
387.948	460.41
388.328	461.32
388.707	470.35
389.087	498.38
389.466	492.05
389.846	476.23
390.225	485.04
390.605	476.91
390.984	463.8
391.363	492.95
391.743	485.95
392.122	496.79
392.501	517.36
392.881	509.9
393.26	516.68
393.639	521.2
394.018	523.91
394.397	497.25
394.776	521.88
395.155	541.77
395.534	520.98
395.913	527.08
396.292	525.95
396.671	536.57
397.05	535.21
397.429	553.52
397.808	544.93
398.186	577.02
398.565	547.41
398.944	574.98
399.323	559.62
399.701	551.48
400.08	564.82
400.458	562.1
400.837	574.76
401.215	565.27
401.594	604.59
401.972	576.79
402.351	596
402.729	599.17
403.107	567.3
403.486	638.71
403.864	609.79
404.242	609.33
404.62	614.08
404.999	638.71
405.377	622.67
405.755	634.42
406.133	633.29
406.511	648.66
406.889	661.31
407.267	645.94
407.645	671.71
408.023	667.86
408.401	697.02
408.779	722.78
409.156	706.96
409.534	715.32
409.912	701.76
410.29	726.39
410.667	730.24
411.045	741.99
411.422	732.95
411.8	753.51
412.178	752.16
412.555	759.16
412.933	753.06
413.31	786.73
413.687	818.14
414.065	804.36
414.442	793.06
414.819	823.57
415.197	809.55
415.574	845.94
415.951	833.28
416.328	835.77
416.705	841.87
417.082	851.81
417.46	866.05
417.837	872.38
418.214	874.19
418.591	896.11
418.967	878.93
419.344	898.37
419.721	897.24
420.098	890.46
420.475	928.42
420.852	890.68
421.228	927.29
421.605	928.42
421.982	943.34
422.358	925.26
422.735	952.6
423.111	971.58
423.488	951.92
423.864	975.2
424.241	978.59
424.617	988.76
424.994	988.31
425.37	1009.1
425.746	1019.94
426.123	1042.32
426.499	1041.87
426.875	1061.75
427.251	1080.28
427.627	1065.37
428.003	1108.3
428.379	1084.35
428.756	1091.13
429.132	1133.61
429.507	1130.9
429.883	1126.61
430.259	1174.29
430.635	1160.73
431.011	1186.95
431.387	1202.76
431.763	1216.1
432.138	1224.69
432.514	1245.7
432.89	1261.97
433.265	1286.6
433.641	1265.59
434.016	1298.36
434.392	1300.39
434.767	1360.05
435.143	1330.22
435.518	1361.63
435.894	1351.69
436.269	1394.17
436.644	1374.29
437.02	1410.44
437.395	1390.1
437.77	1440.27
438.145	1438.69
438.52	1474.62
438.895	1460.16
439.271	1462.19
439.646	1492.25
440.021	1528.18
440.395	1500.61
440.77	1512.59
441.145	1515.98
441.52	1543.77
441.895	1573.15
442.27	1561.63
442.645	1561.17
443.019	1580.38
443.394	1573.38
443.769	1584.22
444.143	1610.44
444.518	1600.49
444.892	1635.07
445.267	1631.45
445.641	1660.38
446.016	1615.18
446.39	1662.41
446.764	1631.45
447.139	1631.91
447.513	1668.52
447.887	1679.81
448.262	1685.01
448.636	1696.99
449.01	1734.5
449.384	1746.71
449.758	1766.82
450.132	1795.52
450.506	1789.64
450.88	1817.44
451.254	1793.26
451.628	1790.09
452.002	1851.56
452.376	1870.32
452.75	1876.87
453.123	1899.7
453.497	1917.32
453.871	1931.33
454.244	1944.21
454.618	1985.12
454.992	2001.61
455.365	2034.61
455.739	2050.65
456.112	2091.1
456.486	2101.72
456.859	2106.02
457.232	2158.9
457.606	2183.98
457.979	2181.72
458.352	2198.22
458.725	2266.47
459.099	2264.21
459.472	2299.91
459.845	2334.71
460.218	2316.86
460.591	2376.07
460.964	2371.77
461.337	2419.91
461.71	2484.31
462.083	2518.44
462.456	2524.31
462.829	2493.8
463.201	2587.59
463.574	2568.83
463.947	2613.12
464.32	2641.6
464.692	2663.97
465.065	2683.86
465.438	2719.34
465.81	2754.59
466.183	2744.87
466.555	2833.68
466.928	2814.93
467.3	2821.71
467.672	2918.65
468.045	2939.89
468.417	2948.71
468.789	2986.67
469.161	2976.5
469.534	3047.01
469.906	3126.33
470.278	3088.82
470.65	3174.01
471.022	3211.07
471.394	3248.13
471.766	3284.97
472.138	3347.57
472.51	3417.4
472.882	3420.11
473.253	3488.81
473.625	3532.42
473.997	3559.77
474.369	3605.19
474.74	3638.63
475.112	3706.65
475.484	3783.71
475.855	3826.2
476.227	3845.41
476.598	3962.24
476.97	3999.98
477.341	4049.02
477.713	4082.24
478.084	4127.66
478.455	4253.98
478.827	4255.11
479.198	4419.4
479.569	4402.68
479.94	4529.68
480.311	4621.21
480.682	4721.77
481.053	4812.84
481.424	4815.33
481.795	4868.66
482.166	4978.71
482.537	5059.39
482.908	5135.99
483.279	5239.04
483.65	5368.76
484.021	5441.98
484.391	5495.76
484.762	5594.74
485.133	5662.31
485.503	5786.6
485.874	5841.74
486.244	5870.66
486.615	6065.46
486.985	6115.18
487.356	6206.48
487.726	6268.17
488.097	6431.1
488.467	6528.27
488.837	6619.8
489.207	6676.07
489.578	6849.17
489.948	6900.02
490.318	7007.58
490.688	7038.32
491.058	7156.51
491.428	7337.97
491.798	7375.71
492.168	7490.74
492.538	7646.66
492.908	7642.6
493.278	7859.31
493.648	7797.85
494.017	8031.96
494.387	8128.91
494.757	8164.62
495.126	8208.91
495.496	8274.9
495.866	8407.55
496.235	8537.49
496.605	8598.05
496.974	8653.19
497.344	8834.88
497.713	8806.41
498.082	8913.07
498.452	9078.72
498.821	9093.18
499.19	9220.18
499.559	9195.1
499.928	9356.67
500.298	9494.52
500.667	9503.34
501.036	9577.23
501.405	9670.79
501.774	9712.82
502.143	9819.94
502.512	9940.16
502.88	10020.61
503.249	10040.95
503.618	10101.74
503.987	10176.99
504.356	10286.59
504.724	10379.7
505.093	10470.77
505.462	10488.17
505.83	10562.74
506.199	10618.79
506.567	10755.51
506.936	10835.05
507.304	10985.11
507.672	11092.22
508.041	11115.05
508.409	11203.63
508.777	11279.11
509.145	11457.18
509.514	11474.36
509.882	11515.71
510.25	11600.01
510.618	11687.69
510.986	11774.92
511.354	11890.17
511.722	12044.51
512.09	12141.91
512.458	12131.29
512.826	12254.9
513.193	12370.61
513.561	12366.99
513.929	12534.67
514.297	12548
514.664	12699.41
515.032	12806.08
515.4	12882.46
515.767	12923.81
516.135	13032.51
516.502	13004.04
516.869	13253.52
517.237	13354.99
517.604	13244.71
517.972	13543.23
518.339	13613.51
518.706	13676.34
519.073	13678.82
519.44	13777.58
519.808	14027.29
520.175	14100.28
520.542	14225.7
520.909	14334.17
521.276	14386.37
521.643	14589.98
522.009	14724.44
522.376	14822.75
522.743	14816.87
523.11	15074.49
523.477	15269.51
523.843	15306.8
524.21	15499.11
524.577	15705.21
524.943	15686.9
525.31	15837.41
525.676	16070.62
526.043	16164.41
526.409	16154.01
526.776	16420.22
527.142	16480.33
527.508	16558.07
527.874	16812.75
528.241	16863.37
528.607	16974.55
528.973	17170.03
529.339	17192.18
529.705	17367.09
530.071	17574.31
530.437	17609.11
530.803	17825.38
531.169	17958.03
531.535	17859.95
531.901	18007.97
532.267	18189.89
532.632	18382.65
532.998	18400.73
533.364	18512.59
533.73	18595.75
534.095	18752.13
534.461	18855.18
534.826	18833.04
535.192	18926.82
535.557	19072.35
535.923	19158.9
536.288	19360.03
536.653	19422.4
537.019	19361.38
537.384	19539.91
537.749	19562.51
538.114	19605.44
538.479	19661.94
538.845	19801.37
539.21	19819
539.575	19884.99
539.94	19978.99
540.305	20184.19
540.67	20064.19
541.034	20263.28
541.399	20414.69
541.764	20426.67
542.129	20438.42
542.494	20411.07
542.858	20616.27
543.223	20627.79
543.587	20772.42
543.952	20780.33
544.316	20811.74
544.681	20843.83
545.045	21034.79
545.41	21106.65
545.774	21056.93
546.138	21168.57
546.503	21178.06
546.867	21370.37
547.231	21402.01
547.595	21527.65
547.959	21555.9
548.324	21634.54
548.688	21735.56
549.052	21736.69
549.416	21735.33
549.779	21785.95
550.143	21913.63
550.507	22082.89
550.871	22179.39
551.235	22050.35
551.599	22331.7
551.962	22399.27
552.326	22459.83
552.689	22489.66
553.053	22440.85
553.417	22642.2
553.78	22762.88
554.143	22976.43
554.507	22916.77
554.87	22975.75
555.234	23248.74
555.597	23229.3
555.96	23268.63
556.323	23467.94
556.686	23462.74
557.05	23568.05
557.413	23741.61
557.776	23781.15
558.139	23999
558.502	24039.45
558.865	23983.18
559.228	24248.94
559.59	24333.46
559.953	24376.39
560.316	24662.71
560.679	24706.78
561.041	24890.05
561.404	24991.97
561.767	25265.86
562.129	25225.86
562.492	25432.64
562.854	25404.39
563.217	25574.1
563.579	25724.61
563.941	25839.18
564.304	25920.99
564.666	26219.06
565.028	26096.57
565.39	26376.79
565.753	26567.07
566.115	26556.22
566.477	26770.68
566.839	26828.53
567.201	27244.79
567.563	27024.01
567.925	27312.13
568.287	27353.94
568.648	27466.71
569.01	27721.84
569.372	28044.09
569.734	27955.28
570.095	28182.17
570.457	28353.46
570.819	28404.76
571.18	28504.65
571.542	28686.11
571.903	28790.06
572.265	29055.59
572.626	29176.04
572.987	29223.72
573.349	29389.14
573.71	29668.68
574.071	29735.57
574.432	29945.51
574.794	30304.82
575.155	30211.27
575.516	30177.82
575.877	30519.28
576.238	30341.43
576.599	30772.16
576.96	30834.08
577.32	31056.67
577.681	31141.64
578.042	31328.53
578.403	31400.84
578.763	31435.64
579.124	31561.29
579.485	31862.98
579.845	31949.08
580.206	32008.51
580.566	32074.95
580.927	32283.98
581.287	32386.35
581.648	32504.77
582.008	32718.77
582.368	32919.22
582.728	32826.79
583.089	33119.67
583.449	33096.39
583.809	33210.06
584.169	33443.05
584.529	33466.55
584.889	33743.83
585.249	33706.77
585.609	33819.76
585.969	34144.95
586.329	34224.27
586.688	34479.63
587.048	34482.12
587.408	34714.2
587.768	34774.99
588.127	34929.79
588.487	35013.63
588.846	35438.02
589.206	35271.7
589.565	35512.6
589.925	36038.23
590.284	35948.29
590.643	36151.9
591.003	36394.83
591.362	36792.56
591.721	36911.43
592.08	36952.79
592.44	37327.69
592.799	37528.36
593.158	37607.23
593.517	37876.15
593.876	38043.83
594.235	38176.48
594.593	38432.75
594.952	38693.98
595.311	38748.22
595.67	39098.27
596.029	39452.61
596.387	39688.08
596.746	40041.74
597.104	40035.64
597.463	40142.08
597.822	40730.54
598.18	40573.71
598.538	40804.44
598.897	41244.42
599.255	41310.86
599.613	41815.48
599.972	41763.96
600.33	41891.19
600.688	42152.87
601.046	42378.41
601.404	42784.04
601.762	42854.55
602.12	43304.71
602.478	43404.59
602.836	43604.36
603.194	43353.3
603.552	43709.22
603.91	43777.92
604.268	44031.02
604.625	44334.29
604.983	44562.3
605.341	44503.77
605.698	45035.06
606.056	45186.69
606.413	45127.03
606.771	45474.37
607.128	45601.82
607.485	45589.17
607.843	45753.91
608.2	46086.33
608.557	46387.11
608.914	46288.13
609.272	46598.18
609.629	46909.59
609.986	46917.27
610.343	47037.72
610.7	47359.97
611.057	47455.11
611.414	47435.45
611.771	47730.13
612.127	47983
612.484	48063.23
612.841	48256.44
613.198	48240.85
613.554	48294.86
613.911	48629.77
614.267	48731.23
614.624	48737.11
614.98	48972.36
615.337	49205.57
615.693	49152.69
616.05	49340.48
616.406	49502.06
616.762	49461.16
617.118	49672.9
617.475	49483.76
617.831	49850.75
618.187	49897.08
618.543	49927.36
618.899	50173.45
619.255	50277.41
619.611	50183.85
619.967	50413.9
620.323	50514.69
620.678	50393.34
621.034	50414.13
621.39	50461.13
621.746	50494.35
622.101	50876.71
622.457	50581.35
622.812	50878.52
623.168	50889.14
623.523	50894.57
623.879	50979.08
624.234	50825.64
624.589	51015.69
624.945	51050.04
625.3	51072.64
625.655	51130.27
626.01	51084.62
626.365	51280.09
626.72	51126.2
627.075	51107.89
627.43	51099.76
627.785	51250.04
628.14	51150.6
628.495	51186.08
628.85	51379.07
629.205	51225.86
629.559	51337.94
629.914	51274.22
630.269	51178.17
630.623	51129.81
630.978	51126.42
631.332	51290.26
631.687	51217.27
632.041	51132.75
632.396	51258.62
632.75	51057.95
633.104	51168.46
633.459	51019.76
633.813	50980.89
634.167	50845.08
634.521	50965.75
634.875	51073.09
635.229	50890.72
635.583	50751.07
635.937	50799.65
636.291	50725.76
636.645	50768.02
636.999	50613.44
637.352	50693.67
637.706	50544.52
638.06	50723.72
638.413	50509.49
638.767	50461.36
639.121	50580.22
639.474	50434.92
639.828	50338.87
640.181	50390.85
640.534	50459.77
640.888	50176.62
641.241	50201.25
641.594	50152.89
641.947	50313.34
642.301	50053.46
642.654	50210.97
643.007	50183.4
643.36	50112.44
643.713	50096.62
644.066	50193.79
644.419	49919.22
644.771	49635.16
645.124	49122.18
645.477	49172.58
645.83	48954.96
646.182	49007.16
646.535	48908.86
646.888	48928.97
647.24	48766.03
647.593	49059.81
647.945	48819.82
648.298	48766.03
648.65	48589.32
649.002	48406.04
649.355	48269.32
649.707	48202.21
650.059	48188.87
650.411	48759.48
650.763	48895.52
651.115	49445.11
651.467	49254.16
651.819	49264.1
652.171	49162.18
652.523	49125.35
652.875	49088.74
653.227	48913.37
653.578	49162.41
653.93	49035.63
654.282	48867.95
654.633	48824.56
654.985	48890.55
655.337	48817.56
655.688	48895.07
656.039	48945.92
656.391	48608.3
656.742	48763.55
657.094	48647.62
657.445	48814.62
657.796	48665.47
658.147	48578.24
658.498	48647.62
658.849	48726.04
659.2	48691.23
659.551	48379.83
659.902	48712.25
660.253	48425.7
660.604	48637.22
660.955	48355.42
661.306	48608.3
661.656	48449.43
662.007	48517.23
662.358	48412.82
662.708	48357.91
663.059	48285.37
663.409	48050.12
663.76	48298.02
664.11	48284.24
664.461	48419.83
664.811	48460.05
665.161	48368.53
665.511	48309.55
665.862	48284.46
666.212	48401.52
666.562	48353.84
666.912	48283.33
667.262	48096.45
667.612	48095.09
667.962	48252.83
668.312	48203.11
668.662	48349.1
669.011	48294.63
669.361	48263.67
669.711	48248.08
670.06	48125.82
670.41	48159.27
670.76	48060.97
671.109	48306.61
671.459	48122.21
671.808	48008.31
672.157	48218.25
672.507	47923.34
672.856	48011.48
673.205	48099.39
673.554	48128.54
673.904	48058.26
674.253	48166.73
674.602	48016.9
674.951	47487.88
675.3	47299.63
675.649	47910.69
675.998	47949.33
676.346	47927.64
676.695	48061.19
677.044	47764.48
677.393	47783.24
677.741	48006.51
678.09	47850.8
678.438	47656.01
678.787	47869.33
679.135	47727.42
679.484	47631.37
679.832	47749.34
680.181	47575.56
680.529	47681.77
680.877	47459.4
681.225	47393.41
681.573	47670.7
681.922	47558.38
682.27	47370.36
682.618	47275
682.966	47299.63
683.314	47217.15
683.661	47436.8
684.009	47225.06
684.357	47072.07
684.705	46897.16
685.053	47059.19
685.4	46845.63
685.748	46881.79
686.095	46860.32
686.443	46690.38
686.79	46664.39
687.138	46760.44
687.485	46644.28
687.832	46387.79
688.18	46517.28
688.527	46229.38
688.874	46293.78
689.221	46206.33
689.568	46067.35
689.915	45871.2
690.262	46004.3
690.609	45876.84
690.956	45659.68
691.303	45789.39
691.65	45527.25
691.997	45610.41
692.344	45159.35
692.69	45230.31
693.037	45382.17
693.383	44721.85
693.73	45072.57
694.077	44767.72
694.423	44875.97
694.769	44660.38
695.116	44680.72
695.462	44441.63
695.808	44341.74
696.155	44426.26
696.501	44102.2
696.847	44133.84
697.193	43948.76
697.539	44008.19
697.885	43763.68
698.231	43571.37
698.577	43519.62
698.923	43425.84
699.269	43203.02
699.614	43193.3
699.96	42928
700.306	43068.56
700.651	42819.98
700.997	42838.51
701.342	42724.61
701.688	42624.05
702.033	42505.41
702.379	42359.87
702.724	42288.24
703.069	42337.73
703.415	41864.52
703.76	42002.82
704.105	42006.44
704.45	41833.79
704.795	41698.88
705.14	41463.18
705.485	41531.42
705.83	41164.43
706.175	41426.57
706.52	41162.84
706.865	41106.57
707.209	41020.7
707.554	40982.06
707.899	40869.97
708.243	40713.36
708.588	40740.93
708.932	40532.58
709.277	40554.05
709.621	40321.51
709.966	40222.53
710.31	40263.66
710.654	39971.24
710.998	40043.1
711.342	39992.71
711.687	39702.77
712.031	39796.33
712.375	39597.24
712.719	39546.84
713.063	39469.1
713.407	39580.06
713.75	39414.42
714.094	39314.76
714.438	38973.3
714.782	39244.93
715.125	38950.25
715.469	39165.61
715.812	38891.49
716.156	38889.46
716.499	38696.47
716.843	38746.64
717.186	38637.94
717.53	38701.21
717.873	38827.99
718.216	38619.41
718.559	38467.55
718.902	38156.82
719.246	38360.43
719.589	38164.73
719.932	38017.84
720.275	38015.13
720.617	38008.35
720.96	37876.83
721.303	37948.69
721.646	37887.9
721.989	37670.05
722.331	37900.33
722.674	37661.92
723.016	37715.7
723.359	37531.53
723.701	37456.28
724.044	37333.11
724.386	37294.47
724.729	37319.78
725.071	37180.12
725.413	37221.03
725.755	37078.66
726.097	37146.45
726.439	36891.54
726.782	36814.26
727.124	37033.01
727.465	37008.83
727.807	36646.13
728.149	36804.31
728.491	36596.86
728.833	36744.2
729.175	36609.74
729.516	36582.63
729.858	36573.36
730.199	36578.33
730.541	36554.38
730.882	36444.1
731.224	36445.45
731.565	36081.85
731.906	36149.19
732.248	36332.46
732.589	36026.71
732.93	36027.61
733.271	36075.97
733.612	35928.18
733.953	35967.27
734.294	35874.62
734.635	35899.03
734.976	35928.63
735.317	35788.75
735.658	35623.33
735.999	35582.43
736.339	35644.12
736.68	35748.75
737.021	35621.75
737.361	35598.02
737.702	35676.43
738.042	35477.57
738.383	35601.63
738.723	35522.99
739.063	35396.22
739.404	35470.34
739.744	35463.33
740.084	35262.21
740.424	35339.04
740.764	35187.86
741.104	35261.3
741.444	35084.36
741.784	35033.74
742.124	35036.9
742.464	35111.93
742.804	34967.53
743.143	34842.33
743.483	34878.94
743.823	34864.93
744.162	34794.65
744.502	34812.05
744.841	34590.14
745.181	34857.7
745.52	34556.69
745.86	34579.29
746.199	34552.85
746.538	34510.14
746.877	34561.89
747.216	34498.84
747.556	34344.04
747.895	34428.56
748.234	34300.2
748.573	34201.9
748.911	34207.55
749.25	34156.7
749.589	33854.56
749.928	34061.79
750.267	34131.16
750.605	33888.01
750.944	33876.26
751.283	33825.41
751.621	33904.73
751.96	33609.82
752.298	33679.88
752.636	33654.34
752.975	33617.05
753.313	33362.6
753.651	33591.07
753.989	33338.19
754.327	33496.61
754.666	33027.01
755.004	33274.24
755.342	33149.27
755.679	33148.59
756.017	32876.51
756.355	32988.37
756.693	32858.43
757.031	33010.29
757.368	32743.18
757.706	32794.25
758.044	32586.57
758.381	32669.06
758.719	32524.88
759.056	32606.91
759.394	32348.16
759.731	32093.48
760.068	32201.05
760.405	32157.21
760.743	32001.73
761.08	32059.13
761.417	31800.6
761.754	31869.98
762.091	31800.6
762.428	31552.7
762.765	31509.31
763.102	31469.31
763.438	31365.36
763.775	31070.23
764.112	31043.56
764.449	31132.6
764.785	30917.24
765.122	30785.49
765.458	30756.34
765.795	30708.2
766.131	30590.69
766.467	30453.75
766.804	30242.23
767.14	30176.01
767.476	30210.59
767.812	30046.75
768.148	30098.95
768.485	29953.87
768.821	29668.68
769.157	29657.16
769.492	29752.75
769.828	29597.5
770.164	29279.09
770.5	29194.57
770.836	29154.57
771.171	29004.97
771.507	28997.06
771.842	28818.99
772.178	28657.86
772.513	28614.25
772.849	28472.1
773.184	28407.47
773.519	28409.96
773.855	28201.83
774.19	28117.09
774.525	27948.28
774.86	27814.27
775.195	27831.22
775.53	27775.63
775.865	27473.94
776.2	27538.8
776.535	27256.32
776.87	27264.23
777.205	27179.94
777.539	26971.58
777.874	26982.65
778.209	26863.79
778.543	26722.09
778.878	26616.56
779.212	26661.98
779.547	26382.89
779.881	26357.58
780.215	26209.11
780.55	26165.5
780.884	26033.98
781.218	25879.86
781.552	25913.98
781.886	25891.38
782.22	25545.18
782.554	25531.62
782.888	25362.36
783.222	25328.01
783.556	25238.07
783.889	25216.37
784.223	24966.89
784.557	24913.1
784.89	24997.17
785.224	24858.41
785.557	24666.55
785.891	24677.18
786.224	24599.44
786.558	24486.67
786.891	24356.05
787.224	24292.55
787.557	24118.55
787.891	24156.51
788.224	24062.05
788.557	24098.43
788.89	23998.1
789.223	23869.29
789.556	23640.59
789.888	23664.77
790.221	23528.51
790.554	23410.99
790.887	23439.02
791.219	23352.47
791.552	23211.45
791.884	23219.14
792.217	23105.69
792.549	22945.24
792.882	22849.2
793.214	22773.05
793.546	22710.22
793.879	22737.79
794.211	22474.52
794.543	22573.73
794.875	22548.64
795.207	22368.31
795.539	22296.22
795.871	22284.24
796.203	22281.08
796.535	22210.57
796.867	22105.49
797.198	21926.74
797.53	21910.24
797.862	21737.14
798.193	21739.63
798.525	21595
798.856	21688.55
799.188	21348.68
799.519	21321.33
799.85	21295.12
800.182	21336.92
800.513	21239.53
800.844	20994.56
801.175	21154.78
801.506	21039.98
801.837	21016.71
802.168	20900.33
802.499	20961.12
802.83	20731.07
803.161	20701.69
803.491	20695.36
803.822	20750.27
804.153	20517.51
804.483	20398.42
804.814	20338.53
805.145	20376.72
805.475	20284.98
805.805	20329.49
806.136	20222.38
806.466	20194.58
806.796	20187.58
807.126	19929.96
807.457	19966.34
807.787	19923.85
808.117	19827.13
808.447	19680.7
808.777	19728.83
809.107	19659.91
809.436	19606.12
809.766	19589.17
810.096	19516.63
810.426	19414.72
810.755	19485
811.085	19407.94
811.414	19388.5
811.744	19215.62
812.073	19252.23
812.403	19099.7
812.732	19066.48
813.061	19061.5
813.39	19022.86
813.719	18893.83
814.049	19057.89
814.378	18952.13
814.707	18845.46
815.036	18945.58
815.365	18707.39
815.693	18674.17
816.022	18577.68
816.351	18540.39
816.68	18556.21
817.008	18530.9
817.337	18367.74
817.665	18346.72
817.994	18432.59
818.322	18508.52
818.651	18385.36
818.979	18233.05
819.307	18308.3
819.636	18290
819.964	18142.21
820.292	18282.32
820.62	18122.32
820.948	18144.01
821.276	18255.2
821.604	18112.6
821.932	18210
822.259	18158.7
822.587	18061.98
822.915	18140.4
823.243	18195.09
823.57	18123.9
823.898	18159.83
824.225	18076.9
824.553	18126.84
824.88	18169.55
825.207	18139.27
825.535	18090.91
825.862	18171.81
826.189	18122.55
826.516	18189.21
826.843	18205.03
827.17	18181.98
827.497	18113.96
827.824	18144.01
828.151	18190.57
828.478	18101.98
828.805	18219.72
829.131	18169.32
829.458	18110.79
829.785	17950.57
830.111	18106.95
830.438	18197.57
830.764	18191.92
831.09	18176.56
831.417	18049.33
831.743	18151.02
832.069	18061.53
832.395	17987.18
832.722	18033.06
833.048	17909.9
833.374	18124.58
833.7	17982.89
834.026	18043.9
834.351	17894.76
834.677	17970.23
835.003	17932.95
835.329	17922.55
835.654	17979.72
835.98	17867.19
836.306	17843.46
836.631	17827.86
836.956	17926.39
837.282	17843.01
837.607	17780.63
837.932	17820.41
838.258	17729.56
838.583	17689.34
838.908	17633.52
839.233	17756
839.558	17577.48
839.883	17579.51
840.208	17489.34
840.533	17491.38
840.858	17532.51
841.182	17530.92
841.507	17467.2
841.832	17340.42
842.156	17364.15
842.481	17382.68
842.805	17185.85
843.13	17209.12
843.454	17311.95
843.778	17227.88
844.103	17125.28
844.427	17039.41
844.751	17137.26
845.075	17081.22
845.399	17086.87
845.723	16966.19
846.047	16911.73
846.371	16803.26
846.695	16767.55
847.019	16720.1
847.343	16620.89
847.666	16519.42
847.99	16501.57
848.313	16431.97
848.637	16508.13
848.96	16478.07
849.284	16240.34
849.607	16196.5
849.931	16172.09
850.254	16078.08
850.577	15990.62
850.9	15860.68
851.223	15862.72
851.546	15773
851.869	15695.04
852.192	15815.71
852.515	15745.43
852.838	15520.58
853.161	15648.71
853.483	15462.73
853.806	15446.01
854.129	15452.56
854.451	15350.19
854.774	15183.64
855.096	15202.85
855.419	15182.28
855.741	15119.01
856.063	15119.91
856.385	14931.44
856.708	14875.63
857.03	14911.56
857.352	14874.04
857.674	14921.27
857.996	14851.45
858.318	14695.74
858.64	14733.71
858.961	14629.76
859.283	14660.72
859.605	14488.52
859.926	14500.72
860.248	14557.44
860.57	14477.9
860.891	14384.57
861.212	14351.12
861.534	14352.93
861.855	14359.93
862.176	14401.97
862.498	14378.92
862.819	14329.88
863.14	14231.57
863.461	14181.18
863.782	14239.26
864.103	14182.08
864.424	14060.96
864.745	14027.06
865.065	14042.43
865.386	14006.95
865.707	14052.82
866.027	13968.08
866.348	13984.35
866.668	13976.21
866.989	13920.62
867.309	13804.02
867.63	13786.39
867.95	13855.77
868.27	13879.95
868.59	13808.08
868.91	13702.78
869.23	13695.54
869.55	13634.08
869.87	13759.27
870.19	13690.35
870.51	13708.65
870.83	13582.55
871.15	13539.16
871.469	13499.16
871.789	13562.67
872.109	13609.44
872.428	13483.12
872.748	13496
873.067	13483.57
873.386	13533.06
873.706	13436.12
874.025	13377.13
874.344	13318.38
874.663	13296.68
874.982	13309.11
875.301	13281.32
875.62	13247.87
875.939	13179.4
876.258	13171.94
876.577	13157.03
876.896	13222.56
877.214	13188.44
877.533	13147.54
877.852	13086.97
878.17	13159.96
878.489	13066.86
878.807	13058.05
879.125	13055.11
879.444	13160.42
879.762	12986.41
880.08	13011.27
880.398	12938.5
880.716	12932.63
881.034	12885.17
881.352	12889.01
881.67	12905.51
881.988	12850.37
882.306	12738.96
882.624	12871.38
882.941	12682.46
883.259	12566.76
883.577	12641.79
883.894	12607.21
884.212	12660.54
884.529	12611.05
884.846	12555.91
885.164	12512.52
885.481	12476.14
885.798	12452.41
886.115	12415.35
886.432	12457.38
886.75	12417.84
887.067	12338.07
887.383	12343.04
887.7	12267.56
888.017	12197.96
888.334	12271.85
888.651	12131.97
888.967	12211.97
889.284	12228.24
889.6	12128.13
889.917	12074.34
890.233	12041.12
890.55	12032.54
890.866	12049.03
891.182	11934.69
891.498	11921.81
891.815	11891.75
892.131	11842.03
892.447	11788.7
892.763	11800.23
893.079	11704.86
893.395	11689.72
893.71	11653.11
894.026	11636.16
894.342	11596.84
894.657	11501.25
894.973	11558.88
895.289	11535.6
895.604	11517.75
895.92	11416.51
896.235	11437.52
896.55	11459.67
896.865	11329.5
897.181	11270.97
897.496	11307.36
897.811	11236.63
898.126	11174.93
898.441	11167.02
898.756	11089.28
899.071	10999.34
899.386	11037.53
899.7	11015.84
900.015	10908.72
900.33	10885.9
900.644	10796.64
900.959	10877.31
901.273	10803.42
901.588	10783.3
901.902	10698.33
902.216	10695.4
902.531	10708.5
902.845	10582.18
903.159	10531.56
903.473	10536.76
903.787	10498.79
904.101	10408.85
904.415	10452.92
904.729	10375.41
905.042	10315.29
905.356	10297.67
905.67	10249.53
905.984	10209.99
906.297	10276.88
906.611	10181.06
906.924	10143.55
907.237	10131.34
907.551	10171.34
907.864	10032.82
908.177	10031.01
908.491	10066.26
908.804	9892.03
909.117	9892.93
909.43	9847.51
909.743	9745.14
910.056	9744.46
910.368	9724.8
910.681	9619.72
910.994	9645.93
911.307	9623.33
911.619	9579.27
911.932	9613.17
912.244	9427.18
912.557	9452.49
912.869	9409.78
913.181	9362.32
913.494	9330.91
913.806	9221.76
914.118	9236.68
914.43	9273.06
914.742	9195.1
915.054	9095.66
915.366	9079.62
915.678	9107.19
915.99	9059.73
916.302	8969.57
916.613	8892.73
916.925	8953.07
917.236	8860.42
917.548	8877.59
917.859	8833.52
918.171	8776.35
918.482	8810.25
918.794	8759.63
919.105	8678.5
919.416	8662.46
919.727	8642.8
920.038	8639.41
920.349	8493.65
920.66	8498.62
920.971	8435.34
921.282	8513.99
921.593	8436.25
921.903	8341.79
922.214	8298.85
922.525	8351.96
922.835	8211.85
923.146	8231.73
923.456	8197.38
923.767	8161.45
924.077	8124.62
924.387	8092.98
924.697	8057.27
925.008	8019.99
925.318	7985.19
925.628	7945.19
925.938	7953.77
926.248	7864.06
926.558	7800.56
926.867	7787
927.177	7757.62
927.487	7709.49
927.796	7685.31
928.106	7659.32
928.416	7616.83
928.725	7596.95
929.034	7560.79
929.344	7609.83
929.653	7518.98
929.962	7493.67
930.271	7520.56
930.581	7474.24
930.89	7351.53
931.199	7370.96
931.508	7310.18
931.817	7283.06
932.125	7300.23
932.434	7249.84
932.743	7166.9
933.051	7135.49
933.36	7111.08
933.669	7078.09
933.977	7020.47
934.286	7082.38
934.594	7005.32
934.902	6977.53
935.21	6935.27
935.519	6869.96
935.827	6925.78
936.135	6884.88
936.443	6859.11
936.751	6824.76
937.059	6731.21
937.367	6718.78
937.674	6756.97
937.982	6724.65
938.29	6653.7
938.597	6639.01
938.905	6645.79
939.213	6573.47
939.52	6579.57
939.827	6545
940.135	6490.54
940.442	6467.26
940.749	6424.32
941.056	6493.93
941.363	6342.29
941.67	6358.11
941.977	6283.31
942.284	6318.56
942.591	6241.73
942.898	6285.12
943.205	6213.03
943.511	6203.76
943.818	6148.4
944.125	6187.04
944.431	6118.57
944.738	6076.31
945.044	6060.26
945.35	6011
945.657	5977.33
945.963	5970.55
946.269	5910.89
946.575	5916.54
946.881	5904.11
947.187	5961.06
947.493	5827.95
947.799	5801.97
948.105	5802.42
948.41	5799.25
948.716	5752.93
949.022	5746.83
949.327	5710.67
949.633	5636.32
949.938	5637
950.244	5676.09
950.549	5616.21
950.854	5587.73
951.16	5516.78
951.465	5569.2
951.77	5530.79
952.075	5488.08
952.38	5497.57
952.685	5455.31
952.99	5402.43
953.294	5447.63
953.599	5346.16
953.904	5331.7
954.209	5294.63
954.513	5347.06
954.818	5259.83
955.122	5247.4
955.426	5268.19
955.731	5209.21
956.035	5225.48
956.339	5180.74
956.643	5186.62
956.948	5100.06
957.252	5114.53
957.556	5069.1
957.86	5047.18
958.163	5087.63
958.467	4993.17
958.771	4999.73
959.075	4992.04
959.378	4937.58
959.682	4941.88
959.985	4894.87
960.289	4882.67
960.592	4865.04
960.896	4821.65
961.199	4857.13
961.502	4779.39
961.805	4767.87
962.108	4736.23
962.411	4725.61
962.714	4745.27
963.017	4715.89
963.32	4737.81
963.623	4662.56
963.926	4662.11
964.228	4599.51
964.531	4591.83
964.833	4574.43
965.136	4544.82
965.438	4529.01
965.741	4543.69
966.043	4504.15
966.345	4414.21
966.648	4457.59
966.95	4467.31
967.252	4379.86
967.554	4387.09
967.856	4322.68
968.158	4344.38
968.46	4322.46
968.761	4305.51
969.063	4275.9
969.365	4282.68
969.666	4251.95
969.968	4219.86
970.269	4203.59
970.571	4210.82
970.872	4216.7
971.174	4161.78
971.475	4156.59
971.776	4127.66
972.077	4081.11
972.378	4145.74
972.679	4146.64
972.98	4095.57
973.281	4067.32
973.582	4044.27
973.883	4007.44
974.183	4023.26
974.484	4002.92
974.785	3909.59
975.085	3977.61
975.386	3945.97
975.686	3915.91
975.986	3903.03
976.287	3867.1
976.587	3875.01
976.887	3848.8
977.187	3853.77
977.487	3796.82
977.787	3793.43
978.087	3746.2
978.387	3778.29
978.687	3755.47
978.987	3738.97
979.286	3682.93
979.586	3660.33
979.885	3672.3
980.185	3636.6
980.484	3628.69
980.784	3599.54
981.083	3599.54
981.382	3584.62
981.682	3564.96
981.981	3566.77
982.28	3576.26
982.579	3523.83
982.878	3502.82
983.177	3513.66
983.475	3489.03
983.774	3473.44
984.073	3430.28
984.372	3416.04
984.67	3442.48
984.969	3374.23
985.267	3392.76
985.566	3349.83
985.864	3328.13
986.162	3335.59
986.461	3295.82
986.759	3319.32
987.057	3233.67
987.355	3272.99
987.653	3272.99
987.951	3237.51
988.249	3233.45
988.547	3193.22
988.844	3247.46
989.142	3198.42
989.44	3155.71
989.737	3174.24
990.035	3121.13
990.332	3137.86
990.63	3099.66
990.927	3121.36
991.224	3127.23
991.521	3061.93
991.819	3017.41
992.116	3017.63
992.413	3033.45
992.71	3007.01
993.006	3003.4
993.303	2983.51
993.6	2978.09
993.897	2984.41
994.193	2947.8
994.49	2927.01
994.787	2913.45
995.083	2914.36
995.379	2904.19
995.676	2896.28
995.972	2834.59
996.268	2847.24
996.565	2854.47
996.861	2805.43
997.157	2809.28
997.453	2832.1
997.749	2779.67
998.044	2769.28
998.34	2753.23
998.636	2721.37
998.932	2739.67
999.227	2693.12
999.523	2655.83
999.818	2688.83
1000.114	2668.26
1000.409	2639.79
1000.704	2676.85
1001	2618.1
1001.295	2617.19
1001.59	2555.72
1001.885	2590.3
1002.18	2554.37
1002.475	2561.37
1002.77	2544.42
1003.065	2554.59
1003.359	2517.98
1003.654	2508.27
1003.949	2500.36
1004.243	2443.64
1004.538	2466.46
1004.832	2450.19
1005.127	2487.48
1005.421	2421.72
1005.715	2421.49
1006.009	2401.15
1006.304	2389.63
1006.598	2358.67
1006.892	2354.37
1007.186	2342.17
1007.48	2290.87
1007.773	2286.8
1008.067	2290.87
1008.361	2291.1
1008.655	2284.09
1008.948	2263.98
1009.242	2300.14
1009.535	2202.96
1009.829	2238.9
1010.122	2177.88
1010.415	2201.38
1010.708	2193.02
1011.001	2187.6
1011.295	2131.33
1011.588	2163.42
1011.881	2132.23
1012.173	2098.56
1012.466	2121.84
1012.759	2072.57
1013.052	2078.9
1013.344	2071.44
1013.637	2070.76
1013.93	2037.32
1014.222	2038.9
1014.514	2013.14
1014.807	2012.69
1015.099	2009.3
1015.391	2030.77
1015.683	1982.63
1015.976	1935.85
1016.268	1936.76
1016.56	1902.86
1016.851	1905.12
1017.143	1920.94
1017.435	1876.65
1017.727	1868.28
1018.018	1847.27
1018.31	1878
1018.602	1859.47
1018.893	1853.37
1019.185	1845.23
1019.476	1803.43
1019.767	1793.48
1020.058	1785.12
1020.35	1807.72
1020.641	1773.82
1020.932	1775.41
1021.223	1776.76
1021.514	1761.39
1021.804	1716.88
1022.095	1705.8
1022.386	1677.78
1022.677	1692.92
1022.967	1680.94
1023.258	1661.74
1023.548	1667.61
1023.839	1670.78
1024.129	1635.75
1024.419	1620.61
1024.709	1654.96
1025	1597.33
1025.29	1613.15
1025.58	1570.66
1025.87	1581.29
1026.16	1572.02
1026.449	1559.14
1026.739	1509.2
1027.029	1527.73
1027.319	1518.69
1027.608	1516.43
1027.898	1487.05
1028.187	1474.85
1028.477	1484.57
1028.766	1462.87
1029.055	1432.14
1029.344	1449.31
1029.634	1439.14
1029.923	1424.45
1030.212	1418.8
1030.501	1421.52
1030.79	1397.34
1031.078	1382.42
1031.367	1383.33
1031.656	1365.02
1031.945	1374.96
1032.233	1372.25
1032.522	1329.99
1032.81	1332.48
1033.099	1332.03
1033.387	1329.09
1033.675	1296.32
1033.963	1295.19
1034.251	1278.92
1034.54	1301.07
1034.828	1283.67
1035.116	1257.45
1035.403	1284.12
1035.691	1258.58
1035.979	1223.56
1036.267	1232.37
1036.554	1192.37
1036.842	1203.89
1037.129	1191.69
1037.417	1212.26
1037.704	1228.08
1037.992	1188.3
1038.279	1167.06
1038.566	1167.51
1038.853	1167.51
1039.14	1167.51
