Data from 17-1456_FLMS001491_004.txt Node
Date: Thu Apr 19 16:30:36 BST 2018
User: hsy
Spectrometer: FLMS00149
Trigger mode: 0
Integration Time (sec): 1.000000E-2
Scans to average: 10
Electric dark correction enabled: true
Nonlinearity correction enabled: false
Boxcar width: 0
XAxis mode: Wavelengths
Number of Pixels in Spectrum: 2048
>>>>>Begin Spectral Data<<<<<
341.393	-13.16
341.776	-13.16
342.16	-13.16
342.543	-59.94
342.927	-82.31
343.31	-65.37
343.693	-80.96
344.077	-75.31
344.46	-69.21
344.843	-42.77
345.226	-57.46
345.61	-45.48
345.993	-16.33
346.376	3.79
346.759	18.02
347.142	32.26
347.525	41.3
347.908	77.46
348.291	80.85
348.674	90.79
349.057	108.42
349.44	105.7
349.823	154.29
350.206	177.79
350.588	233.61
350.971	251.01
351.354	243.78
351.737	269.77
352.119	304.34
352.502	288.52
352.884	317.9
353.267	337.79
353.65	343.21
354.032	327.39
354.414	365.81
354.797	358.13
355.179	359.03
355.562	354.06
355.944	370.56
356.326	372.14
356.709	391.12
357.091	395.64
357.473	362.65
357.855	382.31
358.238	399.26
358.62	377.56
359.002	398.13
359.384	370.1
359.766	390.89
360.148	392.7
360.53	400.84
360.912	399.93
361.294	382.53
361.676	375.07
362.057	397.67
362.439	385.02
362.821	382.76
363.203	390.89
363.584	377.79
363.966	371.01
364.348	401.51
364.729	367.84
365.111	380.05
365.493	389.76
365.874	389.54
366.256	375.3
366.637	360.16
367.019	362.87
367.4	369.65
367.781	379.37
368.163	378.01
368.544	392.25
368.925	378.69
369.306	374.62
369.688	388.41
370.069	378.69
370.45	396.32
370.831	387.96
371.212	387.73
371.593	392.7
371.974	389.09
372.355	390.89
372.736	388.41
373.117	386.83
373.498	395.41
373.879	400.84
374.26	366.94
374.641	389.31
375.021	392.02
375.402	408.97
375.783	425.92
376.163	420.95
376.544	405.58
376.925	400.84
377.305	411.46
377.686	408.75
378.066	433.15
378.447	421.18
378.827	422.98
379.208	409.88
379.588	427.95
379.968	443.32
380.349	407.39
380.729	443.77
381.109	429.99
381.489	434.73
381.87	443.32
382.25	452.59
382.63	441.51
383.01	453.49
383.39	439.93
383.77	444.23
384.15	474.51
384.53	455.98
384.91	456.65
385.29	484.68
385.67	443.77
386.049	460.95
386.429	452.59
386.809	453.94
387.189	459.82
387.568	469.76
387.948	477.22
388.328	463.66
388.707	477.9
389.087	494.85
389.466	487.39
389.846	511.34
390.225	504.79
390.605	476.32
390.984	500.27
391.363	475.64
391.743	488.52
392.122	521.06
392.501	520.83
392.881	509.99
393.26	548.4
393.639	512.7
394.018	539.59
394.397	530.78
394.776	550.89
395.155	526.71
395.534	540.27
395.913	553.6
396.292	543.88
396.671	560.61
397.05	557.22
397.429	570.78
397.808	554.28
398.186	572.58
398.565	589.76
398.944	552.02
399.323	575.52
399.701	562.87
400.08	576.2
400.458	589.31
400.837	613.26
401.215	596.31
401.594	594.05
401.972	595.63
402.351	599.48
402.729	595.63
403.107	604.45
403.486	617.1
403.864	629.53
404.242	611
404.62	662.52
404.999	628.63
405.377	639.93
405.755	618.01
406.133	656.2
406.511	656.2
406.889	660.72
407.267	670.66
407.645	679.47
408.023	683.99
408.401	688.51
408.779	693.94
409.156	666.37
409.534	728.29
409.912	724.67
410.29	743.43
410.667	751.56
411.045	734.16
411.422	736.87
411.8	743.88
412.178	791.79
412.555	765.8
412.933	770.77
413.31	771.45
413.687	782.3
414.065	808.28
414.442	828.85
414.819	811.67
415.197	825.46
415.574	825.68
415.951	829.07
416.328	840.37
416.705	868.4
417.082	854.61
417.46	868.62
417.837	890.77
418.214	885.34
418.591	915.4
418.967	871.56
419.344	919.24
419.721	903.2
420.098	887.6
420.475	921.73
420.852	916.98
421.228	955.17
421.605	940.03
421.982	942.97
422.358	957.21
422.735	958.56
423.111	964.89
423.488	986.13
423.864	994.72
424.241	966.02
424.617	996.08
424.994	1012.12
425.37	1011.22
425.746	1009.41
426.123	1042.4
426.499	1030.88
426.875	1060.93
427.251	1060.48
427.627	1087.37
428.003	1073.81
428.379	1096.64
428.756	1116.98
429.132	1129.18
429.507	1138.67
429.883	1184.77
430.259	1161.27
430.635	1175.73
431.011	1178.22
431.387	1196.52
431.763	1185.45
432.138	1236.52
432.514	1211.44
432.89	1246.46
433.265	1248.5
433.641	1266.35
434.016	1268.84
434.392	1332.34
434.767	1332.56
435.143	1317.42
435.518	1336.86
435.894	1343.19
436.269	1374.6
436.644	1356.74
437.02	1378.66
437.395	1395.39
437.77	1419.57
438.145	1456.63
438.52	1434.03
438.895	1462.5
439.271	1459.57
439.646	1502.73
440.021	1518.32
440.395	1524.42
440.77	1491.43
441.145	1520.36
441.52	1525.1
441.895	1544.08
442.27	1549.51
442.645	1555.38
443.019	1582.5
443.394	1597.42
443.769	1590.86
444.143	1589.28
444.518	1592.9
444.892	1621.14
445.267	1620.47
445.641	1622.05
446.016	1628.83
446.39	1598.32
446.764	1642.61
447.139	1671.76
447.513	1676.96
447.887	1699.33
448.262	1684.19
448.636	1675.15
449.01	1751.31
449.384	1719.45
449.758	1730.75
450.132	1719.45
450.506	1786.79
450.88	1776.62
451.254	1775.72
451.628	1805.09
452.002	1858.65
452.376	1843.96
452.75	1848.48
453.123	1861.14
453.497	1889.16
453.871	1890.74
454.244	1957.41
454.618	1958.76
454.992	2007.8
455.365	2009.83
455.739	2074.92
456.112	2034.92
456.486	2076.05
456.859	2080.79
457.232	2162.6
457.606	2133.22
457.979	2181.58
458.352	2201.24
458.725	2243.05
459.099	2240.56
459.472	2276.72
459.845	2306.1
460.218	2311.52
460.591	2345.19
460.964	2357.4
461.337	2412.76
461.71	2431.97
462.083	2451.18
462.456	2474.91
462.829	2463.61
463.201	2550.38
463.574	2532.76
463.947	2579.31
464.32	2613.21
464.692	2634.22
465.065	2641.23
465.438	2692.53
465.81	2723.26
466.183	2704.96
466.555	2775.69
466.928	2813.88
467.3	2783.83
467.672	2838.74
468.045	2882.35
468.417	2866.31
468.789	2892.3
469.161	2921.67
469.534	2982.92
469.906	3034.44
470.278	3028.34
470.65	3083.48
471.022	3129.8
471.394	3174.32
471.766	3213.87
472.138	3214.32
472.51	3322.79
472.882	3354.66
473.253	3388.78
473.625	3426.52
473.997	3489.57
474.369	3519.4
474.74	3510.81
475.112	3571.6
475.484	3621.77
475.855	3695.89
476.227	3721.2
476.598	3841.42
476.97	3878.49
477.341	3920.74
477.713	3994.87
478.084	4016.34
478.455	4168.87
478.827	4188.08
479.198	4307.63
479.569	4301.75
479.94	4382.88
480.311	4488.41
480.682	4618.35
481.053	4684.34
481.424	4732.93
481.795	4822.19
482.166	4833.04
482.537	4898.8
482.908	5001.17
483.279	5111.9
483.65	5161.16
484.021	5263.76
484.391	5351.22
484.762	5404.1
485.133	5465.11
485.503	5563.41
485.874	5658.78
486.244	5736.29
486.615	5891.31
486.985	5931.31
487.356	6063.29
487.726	6021.93
488.097	6222.15
488.467	6299.44
488.837	6407.23
489.207	6484.74
489.578	6609.49
489.948	6766.32
490.318	6821.91
490.688	6856.26
491.058	7001.34
491.428	7108.46
491.798	7225.74
492.168	7364.27
492.538	7438.17
492.908	7497.83
493.278	7624.83
493.648	7706.63
494.017	7813.3
494.387	7937.36
494.757	7984.14
495.126	8073.86
495.496	8159.05
495.866	8295.77
496.235	8367.86
496.605	8465.03
496.974	8509.32
497.344	8580.96
497.713	8731.01
498.082	8775.53
498.452	8882.42
498.821	9012.59
499.19	9084
499.559	9193.37
499.928	9200.38
500.298	9279.7
500.667	9417.77
501.036	9509.75
501.405	9559.69
501.774	9559.01
502.143	9645.79
502.512	9792
502.88	9906.12
503.249	9888.72
503.618	9994.93
503.987	10083.52
504.356	10094.37
504.724	10241.93
505.093	10322.16
505.462	10380.01
505.83	10407.58
506.199	10522.6
506.567	10735.03
506.936	10714.24
507.304	10870.84
507.672	10998.98
508.041	11053.89
508.409	11049.6
508.777	11175.02
509.145	11311.96
509.514	11292.53
509.882	11445.74
510.25	11446.42
510.618	11652.97
510.986	11588.34
511.354	11706.53
511.722	11805.28
512.09	12001.21
512.458	11847.77
512.826	12068.55
513.193	12038.5
513.561	12140.64
513.929	12297.7
514.297	12436.9
514.664	12464.02
515.032	12505.15
515.4	12599.16
515.767	12704.24
516.135	12790.79
516.502	12779.49
516.869	12953.95
517.237	13069.43
517.604	13057.45
517.972	13272.81
518.339	13269.43
518.706	13304.68
519.073	13414.96
519.44	13512.58
519.808	13680.94
520.175	13745.34
520.542	13927.94
520.909	13935.62
521.276	14048.16
521.643	14223.3
522.009	14268.49
522.376	14409.28
522.743	14486.57
523.11	14746.22
523.477	14808.14
523.843	14900.57
524.21	15052.2
524.577	15194.57
524.943	15258.07
525.31	15292.42
525.676	15524.96
526.043	15794.1
526.409	15781.9
526.776	16049.69
527.142	16023.25
527.508	16038.39
527.874	16326.97
528.241	16308.22
528.607	16513.86
528.973	16759.95
529.339	16681.99
529.705	16922.66
530.071	17058.25
530.437	17133.96
530.803	17338.47
531.169	17384.35
531.535	17472.25
531.901	17496.43
532.267	17726.48
532.632	17802.41
532.998	17853.94
533.364	17927.38
533.73	18017.1
534.095	18164.89
534.461	18317.65
534.826	18398.56
535.192	18460.93
535.557	18591.32
535.923	18716.51
536.288	18756.29
536.653	18879.45
537.019	18816.17
537.384	18914.7
537.749	18971.87
538.114	19114.47
538.479	19162.83
538.845	19226.1
539.21	19221.81
539.575	19312.66
539.94	19520.56
540.305	19542.93
540.67	19601.01
541.034	19654.12
541.399	19694.57
541.764	19807.33
542.129	19844.85
542.494	19952.64
542.858	20051.85
543.223	19953.77
543.587	20217.94
543.952	20102.69
544.316	20162.35
544.681	20221.56
545.045	20407.32
545.41	20396.92
545.774	20414.1
546.138	20621.32
546.503	20570.7
546.867	20655.9
547.231	20843.01
547.595	20817.25
547.959	20981.31
548.324	20896.34
548.688	21057.92
549.052	21010.24
549.416	21185.15
549.779	21054.08
550.143	21217.01
550.507	21314.19
550.871	21515.31
551.235	21449.32
551.599	21673.5
551.962	21538.59
552.326	21701.29
552.689	21941.06
553.053	21720.95
553.417	21921.63
553.78	22095.63
554.143	22083.66
554.507	22172.24
554.87	22303.54
555.234	22498.56
555.597	22453.36
555.96	22461.73
556.323	22600.48
556.686	22694.26
557.05	22789.4
557.413	22869.85
557.776	22945.1
558.139	23093.35
558.502	23146.68
558.865	23239.78
559.228	23343.51
559.59	23443.85
559.953	23530.4
560.316	23747.34
560.679	23790.5
561.041	23963.38
561.404	24062.36
561.767	24172.42
562.129	24152.75
562.492	24419.87
562.854	24485.63
563.217	24515.01
563.579	24623.02
563.941	24842.23
564.304	24884.94
564.666	25139.17
565.028	25171.71
565.39	25272.05
565.753	25458.26
566.115	25510.01
566.477	25693.05
566.839	25836.55
567.201	26112.03
567.563	26078.13
567.925	26246.03
568.287	26341.62
568.648	26486.48
569.01	26696.64
569.372	26881.5
569.734	26966.47
570.095	27196.06
570.457	27335.72
570.819	27436.06
571.18	27508.6
571.542	27791.98
571.903	27865.43
572.265	28042.37
572.626	28192.65
572.987	28293.89
573.349	28464.51
573.71	28641
574.071	28824.72
574.432	28891.16
574.794	29309.46
575.155	29312.62
575.516	29302.68
575.877	29548.09
576.238	29528.66
576.599	29867.86
576.96	29955.31
577.32	30139.94
577.681	30352.59
578.042	30523.43
578.403	30541.51
578.763	30736.76
579.124	30938.57
579.485	31107.15
579.845	31411.55
580.206	31469.85
580.566	31580.81
580.927	31715.27
581.287	31986
581.648	32081.81
582.008	32296.72
582.368	32476.83
582.728	32781.91
583.089	32946.65
583.449	33127.89
583.809	33392.51
584.169	33591.83
584.529	33709.11
584.889	34156.79
585.249	34150.23
585.609	34295.31
585.969	34940.49
586.329	35117.44
586.688	35417.77
587.048	35670.19
587.408	35917.87
587.768	36343.39
588.127	36659.54
588.487	36946.32
588.846	37538.84
589.206	37498.17
589.565	38044.37
589.925	38628.76
590.284	38973.83
590.643	39364.33
591.003	39750.76
591.362	40404.98
591.721	40615.82
592.08	41109.15
592.44	41632.3
592.799	41974.89
593.158	42454.19
593.517	42689.89
593.876	43359.71
594.235	43638.12
594.593	44054.15
594.952	44589.73
595.311	44976.84
595.67	45449.14
596.029	46135.23
596.387	46544.48
596.746	46955.09
597.104	47224.69
597.463	47528.86
597.822	48227.6
598.18	48522.51
598.538	48854.48
598.897	49492.2
599.255	49633.21
599.613	50304.61
599.972	50435.45
600.33	50757.25
600.688	51045.38
601.046	51598.59
601.404	51965.58
601.762	52118.35
602.12	52565.57
602.478	52843.07
602.836	53135.04
603.194	53231.54
603.552	53628.59
603.91	53752.88
604.268	54139.76
604.625	54304.5
604.983	54709.69
605.341	54756.92
605.698	55208.21
606.056	55518.26
606.413	55616.11
606.771	55934.74
607.128	56170.9
607.485	56220.16
607.843	56498.8
608.2	56720.71
608.557	57056.52
608.914	57046.81
609.272	57355.95
609.629	57630.52
609.986	57761.81
610.343	57961.58
610.7	58231.41
611.057	58363.38
611.414	58411.51
611.771	58650.6
612.127	58896.7
612.484	59016.92
612.841	59165.39
613.198	59187.77
613.554	59353.64
613.911	59627.75
614.267	59717.7
614.624	59847.64
614.98	60006.05
615.337	60282.43
615.693	60282.65
616.05	60366.49
616.406	60582.08
616.762	60596.54
617.118	60647.16
617.475	60812.36
617.831	61018.9
618.187	61044.21
618.543	61212.12
618.899	61433.36
619.255	61430.42
619.611	61464.77
619.967	61657.53
620.323	61802.39
620.678	61722.61
621.034	61780.92
621.39	61824.76
621.746	61969.39
622.101	62205.09
622.457	62069.72
622.812	62269.94
623.168	62290.96
623.523	62297.29
623.879	62509.71
624.234	62396.95
624.589	62522.82
624.945	62512.65
625.3	62628.58
625.655	62656.6
626.01	62730.27
626.365	62813.89
626.72	62760.33
627.075	62751.06
627.43	62831.74
627.785	62826.77
628.14	62867.89
628.495	62912.87
628.85	62970.94
629.205	62973.88
629.559	63031.05
629.914	62942.24
630.269	63036.93
630.623	62926.65
630.978	62919.42
631.332	63066.99
631.687	63030.83
632.041	63021.34
632.396	63092.97
632.75	63045.74
633.104	63106.76
633.459	62983.6
633.813	63020.43
634.167	63041.9
634.521	63023.6
634.875	63076.25
635.229	63046.2
635.583	62908.12
635.937	62961.23
636.291	62908.8
636.645	62959.19
636.999	62830.16
637.352	62947.21
637.706	62798.97
638.06	62967.1
638.413	62847.56
638.767	62809.37
639.121	62898.85
639.474	62838.74
639.828	62822.92
640.181	62809.37
640.534	62868.8
640.888	62726.43
641.241	62678.07
641.594	62673.55
641.947	62801.68
642.301	62695.02
642.654	62717.16
643.007	62651.63
643.36	62682.36
643.713	62647.11
644.066	62708.8
644.419	62552.42
644.771	62327.8
645.124	62142.94
645.477	62125.54
645.83	62053.45
646.182	61985.88
646.535	61937.75
646.888	62022.72
647.24	61940.24
647.593	62056.62
647.945	61883.06
648.298	61815.04
648.65	61774.36
649.002	61721.48
649.355	61601.94
649.707	61539.34
650.059	61590.41
650.411	61882.84
650.763	61944.53
651.115	62317.85
651.467	62194.47
651.819	62239.89
652.171	62135.48
652.523	62130.97
652.875	62071.98
653.227	61995.83
653.578	62134.35
653.93	62036.5
654.282	61966.45
654.633	61956.28
654.985	61977.52
655.337	62013.68
655.688	61917.41
656.039	62003.28
656.391	61816.4
656.742	61866.57
657.094	61854.81
657.445	61875.83
657.796	61845.55
658.147	61793.35
658.498	61910.86
658.849	61863.85
659.2	61798.77
659.551	61721.03
659.902	61900.01
660.253	61724.2
660.604	61861.14
660.955	61693.69
661.306	61852.1
661.656	61731.88
662.007	61686.01
662.358	61711.32
662.708	61737.3
663.059	61693.91
663.409	61531.88
663.76	61686.01
664.11	61712.45
664.461	61738.21
664.811	61648.27
665.161	61650.07
665.511	61584.99
665.862	61687.81
666.212	61618.89
666.562	61654.59
666.912	61576.18
667.262	61553.58
667.612	61532.34
667.962	61584.31
668.312	61508.83
668.662	61623.41
669.011	61571.66
669.361	61502.96
669.711	61529.63
670.06	61490.08
670.41	61490.3
670.76	61464.77
671.109	61543.18
671.459	61490.53
671.808	61467.25
672.157	61526.24
672.507	61421.83
672.856	61367.82
673.205	61435.62
673.554	61472
673.904	61431.55
674.253	61595.16
674.602	61378.67
674.951	61144.32
675.3	60997.89
675.649	61403.53
675.998	61382.28
676.346	61376.18
676.695	61433.81
677.044	61270.65
677.393	61307.03
677.741	61438.1
678.09	61309.52
678.438	61248.28
678.787	61321.49
679.135	61298.9
679.484	61200.82
679.832	61284.43
680.181	61185.68
680.529	61216.41
680.877	61113.14
681.225	61140.93
681.573	61277.43
681.922	61126.92
682.27	61062.52
682.618	61087.83
682.966	61026.36
683.314	61023.42
683.661	61014.61
684.009	60952.92
684.357	60849.42
684.705	60907.27
685.053	60900.94
685.4	60768.74
685.748	60782.07
686.095	60708.4
686.443	60655.98
686.79	60619.14
687.138	60777.55
687.485	60624.34
687.832	60535.07
688.18	60558.58
688.527	60552.02
688.874	60496.43
689.221	60422.76
689.568	60342.99
689.915	60296.89
690.262	60337.57
690.609	60284.69
690.956	60226.38
691.303	60213.95
691.65	60125.14
691.997	60153.84
692.344	60029.33
692.69	59968.54
693.037	59989.1
693.383	59810.35
693.73	59920.18
694.077	59690.8
694.423	59744.59
694.769	59636.79
695.116	59645.83
695.462	59539.62
695.808	59470.24
696.155	59560.86
696.501	59301.21
696.847	59434.54
697.193	59204.94
697.539	59287.65
697.885	59094.21
698.231	59109.8
698.577	59074.1
698.923	58993.42
699.269	58783.93
699.614	58790.49
699.96	58696.03
700.306	58717.72
700.651	58599.76
700.997	58552.3
701.342	58479.76
701.688	58415.13
702.033	58311.86
702.379	58364.51
702.724	58285.19
703.069	58301.01
703.415	58056.95
703.76	58004.75
704.105	58018.53
704.45	57946.89
704.795	57854.92
705.14	57824.41
705.485	57738.54
705.83	57632.1
706.175	57699.9
706.52	57550.52
706.865	57433.91
707.209	57429.17
707.554	57364.76
707.899	57392.56
708.243	57200.25
708.588	57227.82
708.932	57096.97
709.277	57087.93
709.621	56986.02
709.966	56854.95
710.31	56949.63
710.654	56697.66
710.998	56762.07
711.342	56774.27
711.687	56688.17
712.031	56631.9
712.375	56519.36
712.719	56424
713.063	56394.84
713.407	56579.7
713.75	56438.01
714.094	56377.67
714.438	56316.43
714.782	56235.75
715.125	56130.45
715.469	56265.81
715.812	56005.02
716.156	56024.23
716.499	55980.84
716.843	55939.04
717.186	55815.88
717.53	55939.49
717.873	55894.07
718.216	55838.48
718.559	55727.07
718.902	55551.03
719.246	55492.27
719.589	55560.97
719.932	55424.02
720.275	55389
720.617	55400.75
720.96	55364.59
721.303	55374.76
721.646	55280.75
721.989	55153.52
722.331	55228.1
722.674	55145.61
723.016	55137.93
723.359	55019.29
723.701	55090.47
724.044	54936.58
724.386	54765.06
724.729	54980.64
725.071	54878.73
725.413	54830.82
725.755	54735.23
726.097	54669.24
726.439	54615.91
726.782	54614.1
727.124	54572.29
727.465	54556.25
727.807	54419.98
728.149	54583.14
728.491	54354.9
728.833	54423.15
729.175	54358.97
729.516	54286.88
729.858	54323.71
730.199	54332.07
730.541	54279.42
730.882	54127.79
731.224	54177.95
731.565	53966.21
731.906	54106.77
732.248	54058.18
732.589	53913.1
732.93	53878.53
733.271	53923.95
733.612	53777.74
733.953	53928.24
734.294	53785.65
734.635	53759.66
734.976	53831.75
735.317	53706.33
735.658	53640.57
735.999	53511.53
736.339	53446.22
736.68	53575.03
737.021	53399.44
737.361	53368.94
737.702	53593.79
738.042	53388.14
738.383	53470.4
738.723	53469.72
739.063	53185.44
739.404	53436.5
739.744	53242.39
740.084	53109.28
740.424	53204.87
740.764	53075.16
741.104	53187.47
741.444	53067.47
741.784	52982.05
742.124	53048.94
742.464	52975.05
742.804	52900.02
743.143	52825
743.483	52888.72
743.823	52667.71
744.162	52666.58
744.502	52705
744.841	52642.18
745.181	52768.95
745.52	52608.28
745.86	52659.12
746.199	52519.92
746.538	52511.33
746.877	52660.71
747.216	52399.92
747.556	52419.13
747.895	52492.8
748.234	52331.67
748.573	52382.29
748.911	52145.47
749.25	52167.16
749.589	52006.94
749.928	52071.12
750.267	52037.22
750.605	51962.65
750.944	51835.87
751.283	51792.03
751.621	51905.25
751.96	51736.66
752.298	51625.03
752.636	51683.33
752.975	51525.82
753.313	51425.71
753.651	51602.65
753.989	51371.02
754.327	51465.03
754.666	51165.38
755.004	51251.93
755.342	51208.31
755.679	51154.3
756.017	50974.65
756.355	51026.17
756.693	50879.51
757.031	51006.29
757.368	50767.65
757.706	50738.27
758.044	50571.72
758.381	50588.22
758.719	50358.62
759.056	50445.62
759.394	50307.1
759.731	49901.23
760.068	49966.99
760.405	49995.24
760.743	49860.33
761.08	49879.54
761.417	49711.86
761.754	49610.39
762.091	49612.88
762.428	49485.87
762.765	49136.73
763.102	49430.73
763.438	49111.65
763.775	48960.01
764.112	48866.46
764.449	48955.94
764.785	48786.01
765.122	48566.12
765.458	48435.05
765.795	48353.93
766.131	48287.04
766.467	48102.63
766.804	47891.57
767.14	47795.3
767.476	47697.67
767.812	47583.33
768.148	47609.31
768.485	47541.52
768.821	47205.48
769.157	47016.56
769.492	47024.24
769.828	46864.25
770.164	46546.52
770.5	46561.88
770.836	46530.25
771.171	46290.25
771.507	46078.51
771.842	45826.76
772.178	45845.97
772.513	45680.32
772.849	45522.59
773.184	45508.8
773.519	45289.83
773.855	45053.45
774.19	45019.78
774.525	44975.94
774.86	44770.29
775.195	44697.07
775.53	44314.94
775.865	44255.73
776.2	44045.79
776.535	43826.36
776.87	43708.4
777.205	43568.06
777.539	43457.33
777.874	43368.75
778.209	43072.71
778.543	43109.77
778.878	42926.5
779.212	42774.19
779.547	42510.46
779.881	42365.38
780.215	42123.58
780.55	42208.1
780.884	41901.21
781.218	41838.84
781.552	41821.67
781.886	41533.09
782.22	41373.54
782.554	41278.41
782.888	40890.39
783.222	40833.9
783.556	40711.19
783.889	40682.72
784.223	40284.08
784.557	40305.78
784.89	40401.37
785.224	40120.24
785.557	39814.94
785.891	39785.11
786.224	39755.51
786.558	39588.28
786.891	39477.32
787.224	39120.5
787.557	38934.29
787.891	39050.22
788.224	38855.87
788.557	38678.7
788.89	38646.16
789.223	38590.34
789.556	38265.83
789.888	38266.51
790.221	38105.16
790.554	37919.85
790.887	37850.7
791.219	37702.68
791.552	37681.44
791.884	37388.79
792.217	37310.83
792.549	37291.84
792.882	36832.87
793.214	36804.63
793.546	36777.73
793.879	36535.71
794.211	36367.35
794.543	36550.85
794.875	36260.23
795.207	36191.99
795.539	35982.05
795.871	36139.78
796.203	35861.6
796.535	35611.89
796.867	35673.81
797.198	35401.5
797.53	35361.5
797.862	35153.14
798.193	35075.63
798.525	34933.04
798.856	34945.24
799.188	34644.91
799.519	34550.9
799.85	34521.97
800.182	34455.99
800.513	34438.36
800.844	34063.45
801.175	34288.53
801.506	34011.93
801.837	34015.32
802.168	33903.46
802.499	33815.1
802.83	33597.48
803.161	33490.36
803.491	33453.08
803.822	33489.23
804.153	33110.03
804.483	32977.61
804.814	32828.01
805.145	32961.79
805.475	32886.31
805.805	32853.77
806.136	32719.08
806.466	32596.6
806.796	32553.44
807.126	32328.36
807.457	32289.72
807.787	32326.78
808.117	32147.57
808.447	32121.36
808.777	32143.51
809.107	31828.03
809.436	31807.02
809.766	31747.13
810.096	31697.87
810.426	31556.63
810.755	31677.3
811.085	31263.53
811.414	31325
811.744	31060.37
812.073	31288.16
812.403	31111.44
812.732	30945.57
813.061	31128.16
813.39	30824.44
813.719	30802.75
814.049	30884.33
814.378	30730.66
814.707	30750.32
815.036	30553.04
815.365	30433.49
815.693	30206.38
816.022	30367.28
816.351	30148.76
816.68	30040.06
817.008	30182.2
817.337	29781.31
817.665	29981.53
817.994	29769.78
818.322	29941.76
818.651	29770.23
818.979	29635.32
819.307	29691.59
819.636	29560.07
819.964	29428.77
820.292	29475.78
820.62	29488.89
820.948	29404.37
821.276	29438.94
821.604	29296.57
821.932	29438.72
822.259	29470.36
822.587	29325.5
822.915	29349
823.243	29393.52
823.57	29206.86
823.898	29384.93
824.225	29225.16
824.553	29207.31
824.88	29318.72
825.207	29330.02
825.535	29288.21
825.862	29421.32
826.189	29296.57
826.516	29414.54
826.843	29446.4
827.17	29474.42
827.497	29404.14
827.824	29344.03
828.151	29398.94
828.478	29236.91
828.805	29424.93
829.131	29374.99
829.458	29276.24
829.785	29150.82
830.111	29331.38
830.438	29490.69
830.764	29225.16
831.09	29456.57
831.417	29228.33
831.743	29436.91
832.069	29254.09
832.395	29210.02
832.722	29356.46
833.048	29123.25
833.374	29358.72
833.7	29269
834.026	29235.56
834.351	29090.93
834.677	29092.51
835.003	29007.32
835.329	29121.44
835.654	29148.56
835.98	28979.07
836.306	29026.07
836.631	28862.01
836.956	29016.36
837.282	29003.25
837.607	28817.49
837.932	28845.96
838.258	28816.36
838.583	28761
838.908	28662.92
839.233	28721.45
839.558	28584.73
839.883	28477.39
840.208	28348.35
840.533	28518.52
840.858	28473.09
841.182	28329.82
841.507	28374.11
841.832	28150.39
842.156	28259.54
842.481	28154.01
842.805	28114.46
843.13	27922.6
843.454	28016.83
843.778	27836.05
844.103	27826.33
844.427	27817.29
844.751	27770.74
845.075	27751.08
845.399	27581.37
845.723	27455.04
846.047	27541.82
846.371	27324.87
846.695	27224.54
847.019	27169.62
847.343	26885.34
847.666	26816.19
847.99	26794.95
848.313	26610.77
848.637	26593.82
848.96	26480.15
849.284	26542.75
849.607	26180.95
849.931	26212.36
850.254	26124.68
850.577	26008.07
850.9	25853.28
851.223	25797.68
851.546	25595.43
851.869	25473.85
852.192	25611.7
852.515	25405.83
852.838	25296.23
853.161	25221.43
853.483	25038.61
853.806	25065.05
854.129	24912.06
854.451	24908.44
854.774	24693.76
855.096	24652.4
855.419	24659.86
855.741	24570.14
856.063	24593.87
856.385	24381.45
856.708	24192.53
857.03	24203.83
857.352	24176.48
857.674	24174.9
857.996	23895.13
858.318	23841.35
858.64	23868.69
858.961	23698.98
859.283	23666.89
859.605	23656.95
859.926	23676.16
860.248	23580.57
860.57	23510.06
860.891	23501.92
861.212	23246.11
861.534	23292.44
861.855	23221.71
862.176	23235.26
862.498	23146.45
862.819	23122.27
863.14	23146.23
863.461	23057.42
863.782	22950.53
864.103	22951.66
864.424	22892.22
864.745	22851.77
865.065	22731.55
865.386	22730.42
865.707	22643.64
866.027	22576.07
866.348	22562.51
866.668	22554.15
866.989	22597.09
867.309	22453.59
867.63	22498.79
867.95	22508.5
868.27	22346.02
868.59	22509.86
868.91	22354.16
869.23	22302.18
869.55	22174.73
869.87	22367.72
870.19	22199.59
870.51	22217.66
870.83	22134.5
871.15	21991.91
871.469	22069.65
871.789	22075.07
872.109	22013.38
872.428	21978.57
872.748	21948.07
873.067	21786.94
873.386	21915.07
873.706	21798.24
874.025	21685.48
874.344	21711.01
874.663	21745.59
874.982	21652.71
875.301	21586.27
875.62	21550.79
875.939	21432.83
876.258	21497.68
876.577	21336.56
876.896	21423.11
877.214	21331.36
877.533	21394.18
877.852	21226.5
878.17	21154.42
878.489	21331.13
878.807	21199.16
879.125	21214.07
879.444	21223.11
879.762	21114.87
880.08	21134.76
880.398	20998.04
880.716	20930.24
881.034	20885.04
881.352	20899.06
881.67	20852.05
881.988	20777.93
882.306	20789.45
882.624	20707.65
882.941	20672.62
883.259	20680.98
883.577	20621.77
883.894	20556.92
884.212	20504.26
884.529	20521.66
884.846	20380.42
885.164	20383.81
885.481	20304.27
885.798	20256.81
886.115	20038.29
886.432	20189.7
886.75	20112.64
887.067	20081.45
887.383	19986.31
887.7	19975.24
888.017	19878.52
888.334	19852.98
888.651	19789.25
888.967	19709.26
889.284	19714
889.6	19672.87
889.917	19515.81
890.233	19550.16
890.55	19405.08
890.866	19528.47
891.182	19332.77
891.498	19329.83
891.815	19222.26
892.131	19174.81
892.447	19179.55
892.763	19031.53
893.079	19056.39
893.395	19002.16
893.71	18968.48
894.026	18929.84
894.342	18857.3
894.657	18688.27
894.973	18686.46
895.289	18623.18
895.604	18489.63
895.92	18441.27
896.235	18470.64
896.55	18476.97
896.865	18319.01
897.181	18248.28
897.496	18246.92
897.811	18161.27
898.126	18075.85
898.441	18004.67
898.756	18028.17
899.071	17920.15
899.386	17907.95
899.7	17712.47
900.015	17645.13
900.33	17571.23
900.644	17592.93
900.959	17562.42
901.273	17380.5
901.588	17397.45
901.902	17308.19
902.216	17308.87
902.531	17199.72
902.845	17163.11
903.159	17081.75
903.473	17007.86
903.787	16815.55
904.101	16824.36
904.415	16920.63
904.729	16785.04
905.042	16699.84
905.356	16686.96
905.67	16619.39
905.984	16552.05
906.297	16434.77
906.611	16353.64
906.924	16380.3
907.237	16303.7
907.551	16233.41
907.864	16103.93
908.177	16073.19
908.491	16061.67
908.804	15894.44
909.117	15850.15
909.43	15713.2
909.743	15659.64
910.056	15741.22
910.368	15638.63
910.681	15644.28
910.994	15476.37
911.307	15434.11
911.619	15257.62
911.932	15328.58
912.244	15200.45
912.557	15176.72
912.869	15071.19
913.181	15038.19
913.494	15014.69
913.806	14906.67
914.118	14812.21
914.43	14824.41
914.742	14757.75
915.054	14627.36
915.366	14626.45
915.678	14585.1
915.99	14528.15
916.302	14344.88
916.613	14374.48
916.925	14399.56
917.236	14262.17
917.548	14146.46
917.859	14231.43
918.171	14127.26
918.482	13880.03
918.794	14040.25
919.105	13950.31
919.416	13812.01
919.727	13842.07
920.038	13762.75
920.349	13655.86
920.66	13630.77
920.971	13548.97
921.282	13523.66
921.593	13466.03
921.903	13369.99
922.214	13328.86
922.525	13246.15
922.835	13172.7
923.146	13106.49
923.456	13103.33
923.767	13054.29
924.077	13051.35
924.387	12956.21
924.697	12854.29
925.008	12819.72
925.318	12671.93
925.628	12846.61
925.938	12693.17
926.248	12561.65
926.558	12553.06
926.867	12506.73
927.177	12426.51
927.487	12392.61
927.796	12295.67
928.106	12286.85
928.416	12286.4
928.725	12259.51
929.034	12052.51
929.344	12097.48
929.653	12134.54
929.962	11950.82
930.271	11879.86
930.581	11859.52
930.89	11794.44
931.199	11704.72
931.508	11753.08
931.817	11645.51
932.125	11665.17
932.434	11533.65
932.743	11430.6
933.051	11449.59
933.36	11417.72
933.669	11383.82
933.977	11347.44
934.286	11231.74
934.594	11182.93
934.902	11186.09
935.21	11083.95
935.519	11070.84
935.827	11055.25
936.135	10977.28
936.443	10841.47
936.751	10820.45
937.059	10789.04
937.367	10742.03
937.674	10659.1
937.982	10718.08
938.29	10699.1
938.597	10606.9
938.905	10455.04
939.213	10493.9
939.52	10430.18
939.827	10441.7
940.135	10406.22
940.442	10337.52
940.749	10181.37
941.056	10274.7
941.363	10105.21
941.67	10116.74
941.977	10050.75
942.284	10043.07
942.591	10040.13
942.898	9968.49
943.205	9963.3
943.511	9927.59
943.818	9842.17
944.125	9732.57
944.431	9775.51
944.738	9686.92
945.044	9649.86
945.35	9608.5
945.657	9563.08
945.963	9549.52
946.269	9518.34
946.575	9528.05
946.881	9436.53
947.187	9340.71
947.493	9361.51
947.799	9294.16
948.105	9196.09
948.41	9175.3
948.716	9167.84
949.022	9062.08
949.327	9087.39
949.633	8970.56
949.938	8920.61
950.244	8964.68
950.549	8885.36
950.854	8796.32
951.16	8756.55
951.465	8779.6
951.77	8750
952.075	8650.79
952.38	8673.16
952.685	8652.37
952.99	8545.48
953.294	8567.63
953.599	8475.65
953.904	8504.13
954.209	8416.22
954.513	8415.54
954.818	8368.99
955.122	8312.04
955.426	8258.03
955.731	8230.46
956.035	8178.49
956.339	8160.41
956.643	8109.56
956.948	8030.69
957.252	8035.21
957.556	8061.2
957.86	8019.39
958.163	7926.06
958.467	7920.41
958.771	7858.27
959.075	7818.27
959.378	7757.48
959.682	7773.75
959.985	7648.78
960.289	7647.65
960.592	7617.14
960.896	7615.11
961.199	7538.73
961.502	7559.52
961.805	7475.23
962.108	7400.65
962.411	7396.59
962.714	7357.26
963.017	7296.02
963.32	7353.2
963.623	7296.47
963.926	7256.7
964.228	7206.08
964.531	7176.25
964.833	7183.71
965.136	7133.09
965.438	7043.6
965.741	7029.14
966.043	7055.8
966.345	7007.22
966.648	7009.93
966.95	7018.52
967.252	6908.91
967.554	6876.82
967.856	6836.83
968.158	6839.31
968.46	6769.26
968.761	6707.34
969.063	6700.56
969.365	6727
969.666	6658.53
969.968	6601.8
970.269	6593.44
970.571	6591.41
970.872	6529.26
971.174	6526.33
971.475	6477.29
971.776	6382.37
972.077	6406.33
972.378	6428.25
972.679	6345.99
972.98	6313.22
973.281	6286.11
973.582	6263.51
973.883	6241.36
974.183	6188.03
974.484	6156.17
974.785	6131.76
975.085	6148.93
975.386	6136.51
975.686	6018.32
975.986	6068.26
976.287	6030.52
976.587	5931.76
976.887	5930.41
977.187	5961.14
977.487	5898.32
977.787	5877.98
978.087	5834.14
978.387	5814.93
978.687	5781.71
978.987	5733.35
979.286	5740.58
979.586	5700.13
979.885	5683.64
980.185	5656.52
980.484	5594.82
980.784	5569.97
981.083	5547.59
981.382	5562.51
981.682	5609.51
981.981	5488.39
982.28	5478.22
982.579	5478.9
982.878	5435.05
983.177	5447.71
983.475	5390.99
983.774	5307.15
984.073	5307.37
984.372	5235.96
984.67	5275.29
984.969	5289.52
985.267	5250.88
985.566	5188.06
985.864	5202.29
986.162	5115.52
986.461	5103.99
986.759	5124.33
987.057	5040.71
987.355	5005.69
987.653	5005.91
987.951	5036.42
988.249	4970.89
988.547	4981.51
988.844	4950.1
989.142	4915.97
989.44	4873.94
989.737	4842.53
990.035	4813.15
990.332	4782.19
990.63	4791
990.927	4756.88
991.224	4756.65
991.521	4720.5
991.819	4696.32
992.116	4680.95
992.413	4663.78
992.71	4580.84
993.006	4638.92
993.303	4578.13
993.6	4573.61
993.897	4560.05
994.193	4557.56
994.49	4526.6
994.787	4466.27
995.083	4454.06
995.379	4384.91
995.676	4409.09
995.972	4366.38
996.268	4324.8
996.565	4330.9
996.861	4304.01
997.157	4270.57
997.453	4254.97
997.749	4256.33
998.044	4261.07
998.34	4166.61
998.636	4217.01
998.932	4137.91
999.227	4118.03
999.523	4108.31
999.818	4061.98
1000.114	4057.69
1000.409	4022.21
1000.704	3990.57
1001	3982.21
1001.295	3996
1001.59	3952.38
1001.885	3948.99
1002.18	3906.06
1002.475	3900.41
1002.77	3848.88
1003.065	3828.09
1003.359	3835.77
1003.654	3784.7
1003.949	3763.46
1004.243	3739.28
1004.538	3726.85
1004.832	3700.41
1005.127	3716.46
1005.421	3658.38
1005.715	3650.24
1006.009	3629.45
1006.304	3629.68
1006.598	3605.05
1006.892	3553.07
1007.186	3538.83
1007.48	3462.45
1007.773	3475.11
1008.067	3448.21
1008.361	3443.24
1008.655	3424.94
1008.948	3368.89
1009.242	3394.43
1009.535	3338.84
1009.829	3350.82
1010.122	3298.84
1010.415	3311.95
1010.708	3272.85
1011.001	3250.93
1011.295	3258.39
1011.588	3188.79
1011.881	3184.27
1012.173	3195.34
1012.466	3168.9
1012.759	3091.61
1013.052	3124.83
1013.344	3117.15
1013.637	3118.51
1013.93	3042.8
1014.222	3046.42
1014.514	3016.14
1014.807	3034.21
1015.099	2966.65
1015.391	2954.22
1015.683	2968.45
1015.976	2912.64
1016.268	2941.34
1016.56	2843.48
1016.851	2868.79
1017.143	2828.12
1017.435	2789.93
1017.727	2812.3
1018.018	2812.07
1018.31	2760.32
1018.602	2717.39
1018.893	2729.82
1019.185	2729.36
1019.476	2707.22
1019.767	2670.38
1020.058	2645.52
1020.35	2620.21
1020.641	2619.31
1020.932	2594.9
1021.223	2577.95
1021.514	2564.17
1021.804	2510.61
1022.095	2489.14
1022.386	2500.89
1022.677	2491.4
1022.967	2484.62
1023.258	2433.78
1023.548	2417.28
1023.839	2415.47
1024.129	2417.96
1024.419	2389.26
1024.709	2373.44
1025	2322.59
1025.29	2360.56
1025.58	2298.87
1025.87	2336.83
1026.16	2287.12
1026.449	2268.13
1026.739	2236.95
1027.029	2215.93
1027.319	2215.93
1027.608	2221.13
1027.898	2194.69
1028.187	2206.21
1028.477	2170.06
1028.766	2133.22
1029.055	2118.08
1029.344	2110.17
1029.634	2089.61
1029.923	2062.26
1030.212	2081.24
1030.501	2028.36
1030.79	2039.21
1031.078	2016.16
1031.367	1984.52
1031.656	1991.98
1031.945	1975.48
1032.233	1978.42
1032.522	1903.4
1032.81	1936.16
1033.099	1896.84
1033.387	1876.28
1033.675	1885.77
1033.963	1877.41
1034.251	1857.07
1034.54	1849.61
1034.828	1800.12
1035.116	1818.2
1035.403	1798.31
1035.691	1751.99
1035.979	1761.48
1036.267	1755.15
1036.554	1757.64
1036.842	1724.42
1037.129	1727.81
1037.417	1714.25
1037.704	1693.01
1037.992	1687.81
1038.279	1666.34
1038.566	1652.1
1038.853	1652.1
1039.14	1652.1
