Data from 17-1456_FLMS001491_008.txt Node
Date: Thu Apr 19 16:30:46 BST 2018
User: hsy
Spectrometer: FLMS00149
Trigger mode: 0
Integration Time (sec): 1.000000E-2
Scans to average: 10
Electric dark correction enabled: true
Nonlinearity correction enabled: false
Boxcar width: 0
XAxis mode: Wavelengths
Number of Pixels in Spectrum: 2048
>>>>>Begin Spectral Data<<<<<
341.393	-4.66
341.776	-4.66
342.16	-4.66
342.543	-73.59
342.927	-67.48
343.31	-65.22
343.693	-77.65
344.077	-70.42
344.46	-75.85
344.843	-80.82
345.226	-37.2
345.61	-41.04
345.993	-24.77
346.376	-0.14
346.759	6.64
347.142	25.17
347.525	54.32
347.908	97.71
348.291	73.53
348.674	100.2
349.057	115.56
349.44	118.27
349.823	135.22
350.206	157.37
350.588	255.67
350.971	241.21
351.354	269.23
351.737	286.4
352.119	295.22
352.502	287.76
352.884	319.85
353.267	329.12
353.65	339.74
354.032	351.71
354.414	354.43
354.797	353.52
355.179	370.47
355.562	372.73
355.944	362.34
356.326	378.15
356.709	369.34
357.091	383.13
357.473	412.96
357.855	387.87
358.238	385.84
358.62	394.88
359.002	386.97
359.384	394.42
359.766	381.32
360.148	410.47
360.53	392.16
360.912	385.16
361.294	384.26
361.676	397.81
362.057	389.23
362.439	396.23
362.821	380.19
363.203	396.68
363.584	397.14
363.966	376.35
364.348	363.69
364.729	385.16
365.111	364.59
365.493	384.26
365.874	389.23
366.256	386.97
366.637	377.02
367.019	376.57
367.4	372.05
367.781	365.72
368.163	391.49
368.544	389.23
368.925	384.26
369.306	386.74
369.688	389.23
370.069	380.87
370.45	373.41
370.831	385.84
371.212	375.67
371.593	368.21
371.974	393.29
372.355	391.26
372.736	378.83
373.117	388.55
373.498	387.42
373.879	394.88
374.26	402.33
374.641	393.52
375.021	398.27
375.402	418.6
375.783	415.89
376.163	423.12
376.544	440.3
376.925	408.21
377.305	410.47
377.686	429.68
378.066	413.63
378.447	417.47
378.827	419.73
379.208	415.22
379.588	445.04
379.968	418.38
380.349	424.25
380.729	454.54
381.109	463.58
381.489	420.64
381.87	435.1
382.25	444.14
382.63	445.95
383.01	450.47
383.39	454.99
383.77	449.34
384.15	469
384.53	469.22
384.91	468.32
385.29	462.9
385.67	466.97
386.049	484.82
386.429	475.1
386.809	473.07
387.189	482.78
387.568	481.65
387.948	485.04
388.328	483.69
388.707	475.1
389.087	509
389.466	493.18
389.846	487.3
390.225	513.52
390.605	496.34
390.984	521.2
391.363	528.43
391.743	528.43
392.122	521.43
392.501	530.69
392.881	555.78
393.26	562.33
393.639	558.49
394.018	543.35
394.397	573.85
394.776	565.49
395.155	572.05
395.534	568.88
395.913	558.94
396.292	571.14
396.671	570.92
397.05	582.44
397.429	592.16
397.808	576.34
398.186	584.93
398.565	568.66
398.944	577.24
399.323	571.82
399.701	604.36
400.08	584.93
400.458	596.91
400.837	613.4
401.215	620.86
401.594	628.54
401.972	614.53
402.351	628.09
402.729	640.29
403.107	659.28
403.486	656.11
403.864	635.55
404.242	638.94
404.62	646.4
404.999	651.14
405.377	674.42
405.755	666.51
406.133	678.94
406.511	693.17
406.889	693.85
407.267	698.82
407.645	714.64
408.023	725.49
408.401	703.8
408.779	749.22
409.156	744.02
409.534	730.69
409.912	752.16
410.29	768.2
410.667	770.23
411.045	810.91
411.422	789.22
411.8	788.76
412.178	797.58
412.555	822.66
412.933	820.18
413.31	832.83
413.687	832.38
414.065	860.4
414.442	838.25
414.819	848.65
415.197	880.74
415.574	870.12
415.951	899.27
416.328	894.52
416.705	896.33
417.082	914.19
417.46	925.71
417.837	924.58
418.214	915.54
418.591	925.94
418.967	930
419.344	969.55
419.721	974.75
420.098	966.84
420.475	966.16
420.852	957.35
421.228	999.61
421.605	988.53
421.982	986.5
422.358	1019.27
422.735	1040.96
423.111	1020.17
423.488	1048.64
423.864	1030.79
424.241	1051.36
424.617	1078.25
424.994	1057.23
425.37	1088.42
425.746	1109.21
426.123	1136.55
426.499	1113.28
426.875	1103.56
427.251	1151.69
427.627	1152.37
428.003	1169.77
428.379	1164.57
428.756	1195.76
429.132	1214.29
429.507	1217
429.883	1220.62
430.259	1245.93
430.635	1255.87
431.011	1275.98
431.387	1319.15
431.763	1314.4
432.138	1342.65
432.514	1328.41
432.89	1325.02
433.265	1376.55
433.641	1361.86
434.016	1395.98
434.392	1397.34
434.767	1469.42
435.143	1441.18
435.518	1449.31
435.894	1461.52
436.269	1496.32
436.644	1521.17
437.02	1482.53
437.395	1530.21
437.77	1558.46
438.145	1549.87
438.52	1553.04
438.895	1604.56
439.271	1583.09
439.646	1611.34
440.021	1638.69
440.395	1638.69
440.77	1606.14
441.145	1649.08
441.52	1691.79
441.895	1678.23
442.27	1660.61
442.645	1681.85
443.019	1692.24
443.394	1697.22
443.769	1709.87
444.143	1737.67
444.518	1751.9
444.892	1729.76
445.267	1766.14
445.641	1763.2
446.016	1763.88
446.39	1789.87
446.764	1801.39
447.139	1778.12
447.513	1823.99
447.887	1829.19
448.262	1823.99
448.636	1858.57
449.01	1886.81
449.384	1865.8
449.758	1919.81
450.132	1920.26
450.506	1951.9
450.88	1925.46
451.254	1944.89
451.628	2007.26
452.002	2012.24
452.376	2003.87
452.75	2050.2
453.123	2031.22
453.497	2052.01
453.871	2051.56
454.244	2123.64
454.618	2145.34
454.992	2183.76
455.365	2198.22
455.739	2216.3
456.112	2223.53
456.486	2273.7
456.859	2295.84
457.232	2348.72
457.606	2340.59
457.979	2376.75
458.352	2394.6
458.725	2437.31
459.099	2470.75
459.472	2469.4
459.845	2521.83
460.218	2580.81
460.591	2589.62
460.964	2564.09
461.337	2619.22
461.71	2646.57
462.083	2690.64
462.456	2693.12
462.829	2725.21
463.201	2781.71
463.574	2791.88
463.947	2840.69
464.32	2841.14
464.692	2873.68
465.065	2897.18
465.438	2946
465.81	2944.19
466.183	2972.21
466.555	3062.38
466.928	3082.04
467.3	3063.06
467.672	3110.29
468.045	3200.9
468.417	3174.46
468.789	3234.8
469.161	3247.23
469.534	3245.65
469.906	3365.87
470.278	3353.67
470.65	3416.27
471.022	3493.78
471.394	3528.35
471.766	3555.92
472.138	3606.54
472.51	3656.71
472.882	3696.26
473.253	3717.5
473.625	3755.47
473.997	3847.67
474.369	3887.89
474.74	3949.59
475.112	3991.84
475.484	4041.56
475.855	4118.85
476.227	4185.74
476.598	4262.35
476.97	4265.96
477.341	4381.21
477.713	4458.5
478.084	4461.89
478.455	4579.17
478.827	4624.82
479.198	4773.29
479.569	4779.39
479.94	4887.64
480.311	4985.94
480.682	5058.03
481.053	5153.62
481.424	5230
481.795	5317.69
482.166	5404.24
482.537	5460.73
482.908	5562.2
483.279	5608.98
483.65	5720.61
484.021	5837.45
484.391	5909.99
484.762	6016.42
485.133	6088.74
485.503	6169.64
485.874	6368.28
486.244	6431.33
486.615	6485.79
486.985	6590.65
487.356	6701.38
487.726	6736.63
488.097	6893.69
488.467	6953.35
488.837	7144.08
489.207	7214.58
489.578	7369.38
489.948	7454.13
490.318	7570.73
490.688	7695.48
491.058	7791.97
491.428	7889.14
491.798	7951.97
492.168	8200.1
492.538	8202.35
492.908	8324.16
493.278	8421.56
493.648	8531.61
494.017	8652.74
494.387	8705.39
494.757	8813.64
495.126	8924.14
495.496	9031.94
495.866	9087.3
496.235	9202.33
496.605	9294.08
496.974	9399.39
497.344	9496.78
497.713	9560.74
498.082	9715.54
498.452	9813.16
498.821	9885.7
499.19	9906.49
499.559	10032.14
499.928	10119.37
500.298	10220.38
500.667	10303.99
501.036	10315.97
501.405	10478.91
501.774	10569.52
502.143	10616.75
502.512	10750.54
502.88	10868.05
503.249	10901.27
503.618	10991.66
503.987	11003.41
504.356	11147.59
504.724	11233.69
505.093	11261.03
505.462	11326.11
505.83	11431.65
506.199	11492.89
506.567	11717.29
506.936	11771.98
507.304	11861.69
507.672	11962.48
508.041	11994.8
508.409	12108.01
508.777	12248.58
509.145	12326.99
509.514	12356.37
509.882	12451.06
510.25	12500.32
510.618	12639.75
510.986	12616.02
511.354	12757.04
511.722	12885.4
512.09	12977.6
512.458	12973.3
512.826	13172.39
513.193	13236.8
513.561	13247.19
513.929	13430.69
514.297	13539.16
514.664	13641.99
515.032	13634.98
515.4	13810.34
515.767	13812.38
516.135	13888.53
516.502	13919.27
516.869	14144.8
517.237	14260.05
517.604	14107.51
517.972	14477.9
518.339	14469.08
518.706	14599.02
519.073	14635.63
519.44	14732.35
519.808	14928.28
520.175	14957.88
520.542	15175.5
520.909	15281.94
521.276	15329.63
521.643	15488.94
522.009	15565.1
522.376	15752.44
522.743	15844.87
523.11	16061.58
523.477	16260
523.843	16193.11
524.21	16424.06
524.577	16584.06
524.943	16675.13
525.31	16707.44
525.676	17020.43
526.043	17074.44
526.409	17179.97
526.776	17377.03
527.142	17493.86
527.508	17639.17
527.874	17735.89
528.241	17868.99
528.607	18030.57
528.973	18217.68
529.339	18242.54
529.705	18455.87
530.071	18564.79
530.437	18687.73
530.803	18736.99
531.169	18863.54
531.535	19001.17
531.901	19009.98
532.267	19203.65
532.632	19350.99
532.998	19449.29
533.364	19589.17
533.73	19544.66
534.095	19912.56
534.461	19825.78
534.826	19941.71
535.192	20078.65
535.557	20229.16
535.923	20147.35
536.288	20423.05
536.653	20427.12
537.019	20460.56
537.384	20546.66
537.749	20636.83
538.114	20689.71
538.479	20770.61
538.845	20884.06
539.21	20889.03
539.575	21015.8
539.94	21099.19
540.305	21182.13
540.67	21345.51
541.034	21362.23
541.399	21403.36
541.764	21412.18
542.129	21637.93
542.494	21578.05
542.858	21701.89
543.223	21684.26
543.587	21836.12
543.952	21855.78
544.316	21966.51
544.681	21926.29
545.045	22167.19
545.41	22124.93
545.774	22148.65
546.138	22285.6
546.503	22361.76
546.867	22410.79
547.231	22556.78
547.595	22502.77
547.959	22617.34
548.324	22725.59
548.688	22708.87
549.052	22841.07
549.416	22746.38
549.779	22866.15
550.143	22949.54
550.507	23152.7
550.871	23240.15
551.235	23197.89
551.599	23434.04
551.962	23476.3
552.326	23453.71
552.689	23570.31
553.053	23505.91
553.417	23721.27
553.78	23905.44
554.143	23869.29
554.507	23945.67
554.87	23928.04
555.234	24259.79
555.597	24224.08
555.96	24216.85
556.323	24423.62
556.686	24459.1
557.05	24734.35
557.413	24742.49
557.776	24660.68
558.139	24934.57
558.502	24933.21
558.865	25001.69
559.228	25318.97
559.59	25281
559.953	25464.05
560.316	25653.2
560.679	25640.77
561.041	25897.03
561.404	26060.42
561.767	26188.1
562.129	26152.62
562.492	26430.35
562.854	26253.41
563.217	26522.33
563.579	26624.02
563.941	26796.67
564.304	26991.69
564.666	27183.1
565.028	27295.64
565.39	27287.28
565.753	27530.66
566.115	27586.25
566.477	27927.03
566.839	28008.61
567.201	28174.94
567.563	28373.8
567.925	28344.65
568.287	28599.33
568.648	28625.32
569.01	28892.88
569.372	29187.11
569.734	29104.86
570.095	29454
570.457	29713.88
570.819	29722.02
571.18	29766.08
571.542	30176.24
571.903	30212.17
572.265	30419.4
572.626	30517.7
572.987	30623.46
573.349	30861.19
573.71	31178.02
574.071	31321.75
574.432	31467.96
574.794	31685.35
575.155	31729.19
575.516	31744.11
575.877	31976.42
576.238	32118.11
576.599	32182.52
576.96	32565.56
577.32	32560.81
577.681	32659.11
578.042	32981.14
578.403	33119.89
578.763	33121.7
579.124	33371.64
579.485	33807.11
579.845	33925.75
580.206	33963.71
580.566	33974.11
580.927	34307.88
581.287	34521.89
581.648	34613.41
582.008	34974.98
582.368	35080.52
582.728	35234.19
583.089	35398.25
583.449	35624.01
583.809	35973.83
584.169	36113.71
584.529	36167.27
584.889	36836.86
585.249	36863.07
585.609	36809.29
585.969	37357.52
586.329	37458.99
586.688	37971.29
587.048	38154.11
587.408	38480.2
587.768	38712.74
588.127	39048.1
588.487	39272.95
588.846	40002.42
589.206	39952.03
589.565	40288.97
589.925	41063.86
590.284	41261.37
590.643	41709.04
591.003	42048.92
591.362	42676.7
591.721	43034.66
592.08	43313.75
592.44	43841.64
592.799	44088.19
593.158	44691.34
593.517	44973.59
593.876	45443.41
594.235	45830.07
594.593	46124.97
594.952	46732.19
595.311	47073.88
595.67	47497.82
596.029	48071.14
596.387	48404.24
596.746	48906.14
597.104	49096.19
597.463	49474.49
597.822	50093
598.18	50241.48
598.538	50575.48
598.897	51109.48
599.255	51217.95
599.613	51981.09
599.972	52007.08
600.33	52332.04
600.688	52576.78
601.046	52890.45
601.404	53456.08
601.762	53531.56
602.12	53889.06
602.478	54222.16
602.836	54435.49
603.194	54436.62
603.552	54769.49
603.91	55081.35
604.268	55352.08
604.625	55581.45
604.983	55898.73
605.341	55939.4
605.698	56300.98
606.056	56677.46
606.413	56662.55
606.771	57053.5
607.128	57189.32
607.485	57233.38
607.843	57456.65
608.2	57775.29
608.557	57971.44
608.914	58060.71
609.272	58304.99
609.629	58579.11
609.986	58789.73
610.343	58892.55
610.7	59190.84
611.057	59205.08
611.414	59358.98
611.771	59585.41
612.127	59780.89
612.484	59914.22
612.841	60130.71
613.198	60128
613.554	60243.47
613.911	60533.63
614.267	60595.1
614.624	60630.35
614.98	60857.47
615.337	61021.31
615.693	61071.93
616.05	61226.72
616.406	61406.38
616.762	61423.33
617.118	61541.07
617.475	61598.24
617.831	61805.01
618.187	61880.94
618.543	62042.52
618.899	62190.54
619.255	62242.06
619.611	62270.09
619.967	62445.9
620.323	62548.27
620.678	62547.82
621.034	62556.63
621.39	62590.3
621.746	62759.34
622.101	63016.96
622.457	62792.11
622.812	62968.6
623.168	63128.37
623.523	63103.06
623.879	63249.5
624.234	63092.21
624.589	63274.13
624.945	63341.47
625.3	63378.53
625.655	63392.77
626.01	63497.4
626.365	63471.64
626.72	63481.81
627.075	63493.78
627.43	63510.51
627.785	63517.51
628.14	63506.89
628.495	63517.51
628.85	63517.51
629.205	63517.51
629.559	63517.51
629.914	63517.51
630.269	63517.51
630.623	63517.51
630.978	63517.51
631.332	63517.51
631.687	63517.51
632.041	63517.51
632.396	63517.51
632.75	63517.51
633.104	63517.51
633.459	63517.51
633.813	63517.51
634.167	63517.51
634.521	63517.51
634.875	63517.51
635.229	63517.51
635.583	63517.51
635.937	63517.51
636.291	63511.18
636.645	63517.51
636.999	63508.47
637.352	63517.51
637.706	63490.62
638.06	63517.51
638.413	63508.92
638.767	63510.05
639.121	63517.51
639.474	63470.96
639.828	63499.88
640.181	63503.95
640.534	63517.51
640.888	63483.84
641.241	63429.15
641.594	63478.64
641.947	63483.84
642.301	63386.89
642.654	63430.51
643.007	63378.31
643.36	63416.95
643.713	63345.99
644.066	63407.91
644.419	63240
644.771	63068.71
645.124	62828.94
645.477	62818.55
645.83	62714.37
646.182	62705.1
646.535	62640.92
646.888	62667.36
647.24	62634.14
647.593	62754.82
647.945	62603.64
648.298	62609.29
648.65	62489.29
649.002	62334.72
649.355	62314.38
649.707	62311.44
650.059	62312.12
650.411	62601.6
650.763	62732.9
651.115	63056.96
651.467	62967.47
651.819	62936.06
652.171	62889.96
652.523	62838.43
652.875	62810.18
653.227	62706.46
653.578	62965.66
653.93	62854.03
654.282	62678.21
654.633	62683.18
654.985	62763.18
655.337	62721.6
655.688	62673.24
656.039	62794.82
656.391	62524.77
656.742	62633.47
657.094	62578.1
657.445	62643.18
657.796	62667.36
658.147	62583.52
658.498	62611.09
658.849	62633.92
659.2	62536.97
659.551	62520.7
659.902	62596.18
660.253	62529.29
660.604	62581.26
660.955	62429.63
661.306	62518.89
661.656	62461.72
662.007	62414.94
662.358	62483.41
662.708	62428.27
663.059	62387.14
663.409	62273.7
663.76	62402.51
664.11	62445.22
664.461	62405.68
664.811	62375.17
665.161	62410.65
665.511	62336.07
665.862	62372.68
666.212	62393.02
666.562	62406.58
666.912	62284.1
667.262	62266.92
667.612	62310.54
667.962	62303.98
668.312	62268.73
668.662	62367.94
669.011	62365.45
669.361	62303.76
669.711	62303.76
670.06	62288.84
670.41	62227.6
670.76	62210.65
671.109	62305.79
671.459	62243.87
671.808	62265.79
672.157	62280.48
672.507	62143.76
672.856	62129.3
673.205	62145.8
673.554	62238.22
673.904	62186.92
674.253	62367.26
674.602	62137.66
674.951	61887.72
675.3	61816.99
675.649	62162.52
675.998	62130.88
676.346	62178.79
676.695	62202.74
677.044	61986.93
677.393	62008.4
677.741	62094.05
678.09	62031.67
678.438	61971.34
678.787	62043.43
679.135	62029.19
679.484	61888.17
679.832	61955.07
680.181	61923.65
680.529	61927.04
680.877	61846.59
681.225	61857.44
681.573	62028.06
681.922	61834.84
682.27	61766.37
682.618	61761.17
682.966	61760.95
683.314	61788.29
683.661	61776.54
684.009	61667.84
684.357	61594.4
684.705	61563.89
685.053	61604.79
685.4	61504.23
685.748	61491.35
686.095	61521.63
686.443	61423.55
686.79	61423.33
687.138	61444.34
687.485	61414.29
687.832	61281.86
688.18	61350.34
688.527	61220.62
688.874	61188.76
689.221	61224.46
689.568	61137.91
689.915	61057.24
690.262	61060.4
690.609	61016.11
690.956	60974.53
691.303	60959.84
691.65	60833.29
691.997	60810.24
692.344	60717.81
692.69	60691.6
693.037	60755.78
693.383	60492.73
693.73	60657.47
694.077	60491.38
694.423	60494.99
694.769	60386.75
695.116	60383.36
695.462	60277.37
695.808	60213.64
696.155	60274.43
696.501	60083.02
696.847	60115.79
697.193	59932.07
697.539	60013.42
697.885	59828.57
698.231	59857.72
698.577	59838.51
698.923	59771.85
699.269	59528.24
699.614	59537.28
699.96	59470.84
700.306	59491.18
700.651	59377.28
700.997	59274.91
701.342	59340.22
701.688	59212.09
702.033	59107.68
702.379	59127.12
702.724	58982.94
703.069	59017.97
703.415	58814.36
703.76	58782.72
704.105	58801.7
704.45	58715.6
704.795	58622.5
705.14	58567.13
705.485	58548.83
705.83	58385.22
706.175	58483.07
706.52	58354.93
706.865	58262.96
707.209	58233.81
707.554	58152.23
707.899	58163.08
708.243	58060.03
708.588	58007.83
708.932	57859.35
709.277	57926.92
709.621	57872.46
709.966	57631.34
710.31	57806.02
710.654	57559.93
710.998	57661.85
711.342	57659.59
711.687	57486.71
712.031	57452.81
712.375	57291.46
712.719	57265.47
713.063	57284
713.407	57421.85
713.75	57255.53
714.094	57148.41
714.438	56995.42
714.782	57047.4
715.125	56937.12
715.469	57073.39
715.812	56890.57
716.156	56847.63
716.499	56791.81
716.843	56807.4
717.186	56637.92
717.53	56804.24
717.873	56690.35
718.216	56641.53
718.559	56504.59
718.902	56323.58
719.246	56398.15
719.589	56317.93
719.932	56232.96
720.275	56274.99
720.617	56268.21
720.96	56114.09
721.303	56216.01
721.646	56158.61
721.989	56015.56
722.331	56085.16
722.674	55978.5
723.016	56005.62
723.359	55933.53
723.701	55955.22
724.044	55737.38
724.386	55686.76
724.729	55751.84
725.071	55723.14
725.413	55667.77
725.755	55650.15
726.097	55568.79
726.439	55514.78
726.782	55431.62
727.124	55566.08
727.465	55485.41
727.807	55383.26
728.149	55401.57
728.491	55264.17
728.833	55332.64
729.175	55204.73
729.516	55147.56
729.858	55115.7
730.199	55215.58
730.541	55129.93
730.882	55061.01
731.224	55054.23
731.565	54896.95
731.906	54953.67
732.248	54913.9
732.589	54787.12
732.93	54755.26
733.271	54751.19
733.612	54736.95
733.953	54745.99
734.294	54511.87
734.635	54503.96
734.976	54755.71
735.317	54492.66
735.658	54489.95
735.999	54429.16
736.339	54466.9
736.68	54469.84
737.021	54388.71
737.361	54282.05
737.702	54528.82
738.042	54358.43
738.383	54316.85
738.723	54275.72
739.063	54177.87
739.404	54280.92
739.744	54154.37
740.084	54077.31
740.424	54084.09
740.764	54020.36
741.104	54183.97
741.444	53853.36
741.784	53889.06
742.124	53949.17
742.464	53835.28
742.804	53745.34
743.143	53730.2
743.483	53813.13
743.823	53635.28
744.162	53658.56
744.502	53686.13
744.841	53585.57
745.181	53577.21
745.52	53472.13
745.86	53539.92
746.199	53490.66
746.538	53430.77
746.877	53487.27
747.216	53349.42
747.556	53300.15
747.895	53309.64
748.234	53266.71
748.573	53120.04
748.911	53098.58
749.25	53110.33
749.589	53009.09
749.928	53088.86
750.267	52992.59
750.605	52950.78
750.944	52951.01
751.283	52741.52
751.621	52889.32
751.96	52620.17
752.298	52748.08
752.636	52636.44
752.975	52552.6
753.313	52465.6
753.651	52600.96
753.989	52402.55
754.327	52372.27
754.666	52156.68
755.004	52203.46
755.342	52166.85
755.679	52203.46
756.017	51913.52
756.355	52049.34
756.693	51818.84
757.031	51960.98
757.368	51706.97
757.706	51605.73
758.044	51579.75
758.381	51495.23
758.719	51377.04
759.056	51524.61
759.394	51257.04
759.731	51098.18
760.068	51114.9
760.405	51046.65
760.743	50859.31
761.08	50973.43
761.417	50747.22
761.754	50617.28
762.091	50562.82
762.428	50469.04
762.765	50351.08
763.102	50355.14
763.438	50167.13
763.775	49992.44
764.112	49999.67
764.449	50064.76
764.785	49846.23
765.122	49682.17
765.458	49452.12
765.795	49368.96
766.131	49474.04
766.467	49185.68
766.804	49071.79
767.14	48844
767.476	48777.33
767.812	48778.69
768.148	48720.39
768.485	48592.25
768.821	48358.36
769.157	48171.7
769.492	48234.97
769.828	48090.35
770.164	47720.86
770.5	47660.53
770.836	47600.64
771.171	47525.84
771.507	47430.48
771.842	47044.5
772.178	47003.82
772.513	46920.66
772.849	46776.48
773.184	46651.97
773.519	46572.65
773.855	46288.81
774.19	46123.39
774.525	46036.84
774.86	45901.48
775.195	45685.44
775.53	45740.13
775.865	45456.74
776.2	45284.77
776.535	45016.75
776.87	44867.83
777.205	44751
777.539	44632.81
777.874	44580.61
778.209	44269.88
778.543	44256.77
778.878	44006.61
779.212	43855.88
779.547	43719.16
779.881	43560.52
780.215	43481.43
780.55	43411.6
780.884	43023.59
781.218	43057.94
781.552	43112.85
781.886	42708.79
782.22	42605.07
782.554	42328.01
782.888	41943.16
783.222	42028.81
783.556	41890.73
783.889	41644.41
784.223	41409.17
784.557	41384.76
784.89	41572.1
785.224	41315.38
785.557	41048.72
785.891	40900.25
786.224	40836.07
786.558	40829.75
786.891	40590.88
787.224	40247.61
787.557	40179.59
787.891	40204.45
788.224	40040.16
788.557	39785.71
788.89	39886.04
789.223	39719.04
789.556	39326.06
789.888	39379.16
790.221	39145.27
790.554	38903.92
790.887	38944.82
791.219	38879.51
791.552	38608.79
791.884	38620.31
792.217	38397.72
792.549	38198.18
792.882	37952.76
793.214	37881.8
793.546	37923.83
793.879	37661.69
794.211	37446.11
794.543	37592.77
794.875	37381.02
795.207	37254.25
795.539	37195.04
795.871	37131.54
796.203	37021.71
796.535	36704.43
796.867	36748.95
797.198	36509.63
797.53	36454.04
797.862	36260.83
798.193	36322.29
798.525	35999.14
798.856	36101.73
799.188	35446.84
799.519	35596.89
799.85	35460.17
800.182	35418.81
800.513	35380.62
800.844	35048.65
801.175	35373.17
801.506	35200.97
801.837	35024.02
802.168	34797.36
802.499	34982.89
802.83	34512.62
803.161	34557.37
803.491	34456.35
803.822	34514.21
804.153	34237.15
804.483	33938.18
804.814	33790.38
805.145	33972.98
805.475	33802.81
805.805	33725.98
806.136	33716.26
806.466	33605.98
806.796	33521.92
807.126	33285.31
807.457	33161.25
807.787	33219.32
808.117	33111.76
808.447	32932.1
808.777	32987.47
809.107	32742.5
809.436	32706.57
809.766	32662.05
810.096	32721.71
810.426	32376.18
810.755	32495.95
811.085	32421.61
811.414	32394.04
811.744	32163.98
812.073	32124.21
812.403	32096.19
812.732	31915.86
813.061	32181.16
813.39	31818.46
813.719	31693.94
814.049	31817.78
814.378	31687.16
814.707	31544.57
815.036	31580.95
815.365	31275.19
815.693	31090.34
816.022	31159.94
816.351	31087.18
816.68	31000.4
817.008	31079.49
817.337	30774.87
817.665	30862.55
817.994	30766.51
818.322	30865.71
818.651	30665.27
818.979	30591.6
819.307	30602.22
819.636	30537.59
819.964	30411.04
820.292	30459.85
820.62	30336.69
820.948	30462.11
821.276	30479.28
821.604	30329.46
821.932	30476.35
822.259	30447.19
822.587	30313.64
822.915	30252.4
823.243	30359.29
823.57	30156.58
823.898	30362.22
824.225	30199.06
824.553	30109.58
824.88	30211.27
825.207	30249.91
825.535	30122.68
825.862	30339.4
826.189	30193.19
826.516	30418.27
826.843	30308.67
827.17	30356.57
827.497	30339.63
827.824	30249.01
828.151	30386.63
828.478	30262.34
828.805	30598.15
829.131	30333.07
829.458	30284.03
829.785	30097.37
830.111	30149.12
830.438	30296.92
830.764	30174.43
831.09	30183.7
831.417	30086.75
831.743	30344.15
832.069	30245.17
832.395	30089.01
832.722	30215.79
833.048	30104.83
833.374	30297.37
833.7	30055.34
834.026	30204.04
834.351	30038.84
834.677	30067.54
835.003	29953.65
835.329	29996.81
835.654	29956.81
835.98	29829.58
836.306	29952.52
836.631	29766.08
836.956	29955
837.282	29813.09
837.607	29731.05
837.932	29685.86
838.258	29686.31
838.583	29656.71
838.908	29560.21
839.233	29597.05
839.558	29468.69
839.883	29390.95
840.208	29275.02
840.533	29254.46
840.858	29259.88
841.182	29258.3
841.507	29263.5
841.832	28995.93
842.156	29051.98
842.481	29062.37
842.805	28888.82
843.13	28768.37
843.454	28889.27
843.778	28761.81
844.103	28720.01
844.427	28580.8
844.751	28604.3
845.075	28488.15
845.399	28461.94
845.723	28189.85
846.047	28306.69
846.371	28146.92
846.695	28007.03
847.019	27988.73
847.343	27832.35
847.666	27799.13
847.99	27465.13
848.313	27358.01
848.637	27476.88
848.96	27311.91
849.284	27277.33
849.607	27019.49
849.931	27030.79
850.254	26901.75
850.577	26619.05
850.9	26420.63
851.223	26544.02
851.546	26319.17
851.869	26179.96
852.192	26382.67
852.515	26128.66
852.838	26007.08
853.161	25955.79
853.483	25717.37
853.806	25761.89
854.129	25770.03
854.451	25598.51
854.774	25453.43
855.096	25387.67
855.419	25275.58
855.741	25214.79
856.063	25089.59
856.385	24984.06
856.708	25004.63
857.03	24871.75
857.352	24781.81
857.674	24742.49
857.996	24760.11
858.318	24583.62
858.64	24673.56
858.961	24463.85
859.283	24443.28
859.605	24417.75
859.926	24283.06
860.248	24227.47
860.57	24186.12
860.891	24160.13
861.212	23965.56
861.534	24015.72
861.855	23939.12
862.176	23936.63
862.498	23959.45
862.819	23993.13
863.14	23764.21
863.461	23729.63
863.782	23588.62
864.103	23657.32
864.424	23581.61
864.745	23631.1
865.065	23441.28
865.386	23381.39
865.707	23478.11
866.027	23427.49
866.348	23361.05
866.668	23289.87
866.989	23170.55
867.309	23033.83
867.63	23096.65
867.95	23126.26
868.27	22925.36
868.59	23131.68
868.91	22957.22
869.23	22938.69
869.55	22790.67
869.87	22916.77
870.19	22740.96
870.51	22875.64
870.83	22804
871.15	22633.39
871.469	22680.39
871.789	22709.09
872.109	22808.98
872.428	22526.05
872.748	22688.08
873.067	22601.3
873.386	22550.45
873.706	22443.11
874.025	22317.46
874.344	22352.49
874.663	22255.54
874.982	22192.5
875.301	22207.86
875.62	22169.22
875.939	22070.92
876.258	22182.33
876.577	22108.66
876.896	22013.74
877.214	21970.35
877.533	22025.72
877.852	21991.6
878.17	21946.17
878.489	21905.95
878.807	21754.09
879.125	21766.07
879.444	21722.23
879.762	21699.18
880.08	21771.49
880.398	21605.39
880.716	21600.42
881.034	21502.8
881.352	21560.2
881.67	21402.46
881.988	21340.77
882.306	21402.01
882.624	21309.35
882.941	21188.68
883.259	21203.82
883.577	21276.36
883.894	21136.48
884.212	21077.95
884.529	21062.81
884.846	21003.37
885.164	20857.16
885.481	20771.97
885.798	20874.79
886.115	20599.54
886.432	20684.96
886.75	20698.07
887.067	20682.03
887.383	20473.44
887.7	20583.72
888.017	20395.71
888.334	20455.14
888.651	20428.47
888.967	20273.68
889.284	20280.68
889.6	20106.22
889.917	20168.82
890.233	20177.86
890.55	19927.24
890.866	20068.48
891.182	19891.77
891.498	19886.34
891.815	19846.57
892.131	19703.75
892.447	19695.16
892.763	19650.87
893.079	19620.36
893.395	19498.56
893.71	19487.03
894.026	19477.31
894.342	19436.86
894.657	19236.19
894.973	19230.54
895.289	19237.77
895.604	19211.11
895.92	19060.37
896.235	19020.6
896.55	18947.84
896.865	18838.01
897.181	18688.18
897.496	18801.4
897.811	18618.35
898.126	18554.17
898.441	18534.06
898.756	18404.12
899.071	18344.91
899.386	18446.61
899.7	18211.13
900.015	18200.51
900.33	18101.3
900.644	18011.14
900.959	18003
901.273	17882.78
901.588	17850.01
901.902	17812.05
902.216	17791.03
902.531	17784.7
902.845	17678.04
903.159	17535.22
903.473	17524.37
903.787	17327.09
904.101	17253.19
904.415	17283.25
904.729	17313.98
905.042	17142.01
905.356	17065.17
905.67	16970.03
905.984	17076.25
906.297	16923.26
906.611	16852.97
906.924	16849.13
907.237	16716.48
907.551	16619.99
907.864	16565.98
908.177	16675.58
908.491	16489.82
908.804	16332.08
909.117	16381.12
909.43	16106.55
909.743	16144.97
910.056	16129.38
910.368	16099.55
910.681	15976.84
910.994	15922.83
911.307	15840.8
911.619	15739.78
911.932	15733.46
912.244	15622.05
912.557	15600.58
912.869	15539.79
913.181	15491.2
913.494	15507.47
913.806	15283.98
914.118	15261.83
914.43	15252.34
914.742	15198.1
915.054	15143.87
915.366	15013.02
915.678	14959.01
915.99	14897.09
916.302	14747.27
916.613	14820.03
916.925	14699.36
917.236	14685.12
917.548	14544.79
917.859	14540.27
918.171	14531.45
918.482	14392.25
918.794	14288.52
919.105	14335.53
919.416	14228.41
919.727	14223.21
920.038	14173.05
920.349	14067.96
920.66	14010.11
920.971	13864.8
921.282	13906.84
921.593	13851.47
921.903	13768.31
922.214	13635.66
922.525	13699.61
922.835	13627.75
923.146	13434.76
923.456	13438.15
923.767	13424.14
924.077	13333.29
924.387	13377.36
924.697	13294.2
925.008	13151.38
925.318	13119.97
925.628	13133.3
925.938	13076.58
926.248	12868.67
926.558	12838.84
926.867	12837.49
927.177	12756.36
927.487	12603.37
927.796	12710.26
928.106	12633.2
928.416	12557.49
928.725	12627.32
929.034	12445.86
929.344	12472.07
929.653	12397.95
929.962	12284.28
930.271	12249.03
930.581	12234.57
930.89	12150.5
931.199	12098.52
931.508	12057.39
931.817	11980.11
932.125	12012.2
932.434	11870.96
932.743	11749.61
933.051	11761.58
933.36	11736.95
933.669	11653.56
933.977	11582.83
934.286	11665.31
934.594	11471.65
934.902	11397.53
935.21	11473
935.519	11310.3
935.827	11394.36
936.135	11278.88
936.443	11123.63
936.751	11043.64
937.059	11085.67
937.367	11007.93
937.674	11079.12
937.982	11046.12
938.29	10939.91
938.597	10877.09
938.905	10741.5
939.213	10689.75
939.52	10716.64
939.827	10691.56
940.135	10611.56
940.442	10609.75
940.749	10468.74
941.056	10596.64
941.363	10460.15
941.67	10417.89
941.977	10299.7
942.284	10309.87
942.591	10246.14
942.898	10185.81
943.205	10154.39
943.511	10046.37
943.818	10060.61
944.125	10038.69
944.431	9986.49
944.738	9983.33
945.044	9877.57
945.35	9878.24
945.657	9716.44
945.963	9787.62
946.269	9668.08
946.575	9733.84
946.881	9584.92
947.187	9605.48
947.493	9525.71
947.799	9448.88
948.105	9509.89
948.41	9365.04
948.716	9331.36
949.022	9339.27
949.327	9288.43
949.633	9212.5
949.938	9236.45
950.244	9148.32
950.549	9084.59
950.854	9112.61
951.16	9006.63
951.465	9029.9
951.77	8979.96
952.075	8904.48
952.38	8828.55
952.685	8864.94
952.99	8796.69
953.294	8741.32
953.599	8687.09
953.904	8698.84
954.209	8613.42
954.513	8656.58
954.818	8562.35
955.122	8549.69
955.426	8581.55
955.731	8482.35
956.035	8444.38
956.339	8380.88
956.643	8306.53
956.948	8294.56
957.252	8257.49
957.556	8212.3
957.86	8212.52
958.163	8176.14
958.467	8154.22
958.771	8118.29
959.075	8094.11
959.378	7979.76
959.682	7996.94
959.985	7932.53
960.289	7943.15
960.592	7827.45
960.896	7873.78
961.199	7790.39
961.502	7803.27
961.805	7691.18
962.108	7659.09
962.411	7658.19
962.714	7593.11
963.017	7594.46
963.32	7565.08
963.623	7534.12
963.926	7495.48
964.228	7409.83
964.531	7434.69
964.833	7410.51
965.136	7266.56
965.438	7260.68
965.741	7224.53
966.043	7257.3
966.345	7188.82
966.648	7150.86
966.95	7139.33
967.252	7125.77
967.554	7149.73
967.856	7074.25
968.158	6999.45
968.46	6973.46
968.761	6920.35
969.063	6917.42
969.365	6888.04
969.666	6821.6
969.968	6804.88
970.269	6762.17
970.571	6704.09
970.872	6702.06
971.174	6672.9
971.475	6619.57
971.776	6639.91
972.077	6635.84
972.378	6587.26
972.679	6526.69
972.98	6496.19
973.281	6496.19
973.582	6476.3
973.883	6434.94
974.183	6430.88
974.484	6404.89
974.785	6365.34
975.085	6347.94
975.386	6280.82
975.686	6212.12
975.986	6188.4
976.287	6173.26
976.587	6162.18
976.887	6139.36
977.187	6081.28
977.487	6108.17
977.787	6061.62
978.087	5994.96
978.387	5986.14
978.687	5977.78
978.987	5921.06
979.286	5879.48
979.586	5837.67
979.885	5857.33
980.185	5763.32
980.484	5796.77
980.784	5773.27
981.083	5756.77
981.382	5705.25
981.682	5684.23
981.981	5622.76
982.28	5636.55
982.579	5608.52
982.878	5580.05
983.177	5589.77
983.475	5556.32
983.774	5458.25
984.073	5461.41
984.372	5473.39
984.67	5431.35
984.969	5396.55
985.267	5362.43
985.566	5326.72
985.864	5299.83
986.162	5254.18
986.461	5248.76
986.759	5251.47
987.057	5163.56
987.355	5157.92
987.653	5157.24
987.951	5174.41
988.249	5156.11
988.547	5070.01
988.844	5047.18
989.142	5061.42
989.44	5010.8
989.737	4966.06
990.035	4986.39
990.332	4953.4
990.63	4879.96
990.927	4877.92
991.224	4844.03
991.521	4809.68
991.819	4877.47
992.116	4774.42
992.413	4779.17
992.71	4712.05
993.006	4724.25
993.303	4676.12
993.6	4674.09
993.897	4703.69
994.193	4674.54
994.49	4587.53
994.787	4589.79
995.083	4592.51
995.379	4518.61
995.676	4506.86
995.972	4465.96
996.268	4471.15
996.565	4421.66
996.861	4394.09
997.157	4409.69
997.453	4359.29
997.749	4385.96
998.044	4337.37
998.34	4323.59
998.636	4274.32
998.932	4298.5
999.227	4242.23
999.523	4173.99
999.818	4176.7
1000.114	4142.35
1000.409	4109.58
1000.704	4127.21
1001	4066.19
1001.295	4075.46
1001.59	4002.92
1001.885	4027.32
1002.18	3993.43
1002.475	3949.81
1002.77	3948
1003.065	3934.22
1003.359	3947.1
1003.654	3879.76
1003.949	3833.2
1004.243	3870.72
1004.538	3828.68
1004.832	3819.19
1005.127	3783.04
1005.421	3741.91
1005.715	3761.34
1006.009	3732.87
1006.304	3682.47
1006.598	3661.91
1006.892	3649.48
1007.186	3611.06
1007.48	3566.77
1007.773	3527.45
1008.067	3548.92
1008.361	3508.69
1008.655	3451.52
1008.948	3456.04
1009.242	3459.65
1009.535	3417.4
1009.829	3448.13
1010.122	3378.08
1010.415	3396.38
1010.708	3370.84
1011.001	3328.81
1011.295	3287.23
1011.588	3304.4
1011.881	3250.17
1012.173	3236.61
1012.466	3204.97
1012.759	3205.65
1013.052	3228.47
1013.344	3172.66
1013.637	3144.86
1013.93	3122.94
1014.222	3091.53
1014.514	3091.75
1014.807	3050.17
1015.099	3044.52
1015.391	2992.77
1015.683	3031.19
1015.976	2949.39
1016.268	2958.88
1016.56	2896.51
1016.851	2883.85
1017.143	2897.18
1017.435	2895.83
1017.727	2826
1018.018	2866.45
1018.31	2853.34
1018.602	2836.62
1018.893	2806.79
1019.185	2790.29
1019.476	2743.97
1019.767	2706.23
1020.058	2684.99
1020.35	2658.77
1020.641	2633.91
1020.932	2637.98
1021.223	2606.12
1021.514	2600.69
1021.804	2545.1
1022.095	2568.6
1022.386	2568.38
1022.677	2525.67
1022.967	2529.74
1023.258	2512.56
1023.548	2504.2
1023.839	2472.11
1024.129	2469.17
1024.419	2453.35
1024.709	2413.58
1025	2383.52
1025.29	2351.66
1025.58	2359.57
1025.87	2362.06
1026.16	2288.61
1026.449	2314.15
1026.739	2261.49
1027.029	2271.21
1027.319	2262.62
1027.608	2242.96
1027.898	2205.45
1028.187	2185.11
1028.477	2183.53
1028.766	2167.94
1029.055	2156.86
1029.344	2134.27
1029.634	2141.27
1029.923	2117.77
1030.212	2086.13
1030.501	2069.18
1030.79	2059.47
1031.078	2026.92
1031.367	1998
1031.656	2020.82
1031.945	1994.83
1032.233	1981.73
1032.522	1958.23
1032.81	1970.88
1033.099	1937.89
1033.387	1950.99
1033.675	1911.9
1033.963	1914.16
1034.251	1891.79
1034.54	1882.3
1034.828	1883.65
1035.116	1848.17
1035.403	1870.09
1035.691	1811.56
1035.979	1809.75
1036.267	1780.6
1036.554	1776.08
1036.842	1747.61
1037.129	1747.84
1037.417	1750.55
1037.704	1689.76
1037.992	1725.92
1038.279	1714.84
1038.566	1646.14
1038.853	1646.14
1039.14	1646.14
