Data from 17-1456_FLMS001491_005.txt Node
Date: Thu Apr 19 16:30:38 BST 2018
User: hsy
Spectrometer: FLMS00149
Trigger mode: 0
Integration Time (sec): 1.000000E-2
Scans to average: 10
Electric dark correction enabled: true
Nonlinearity correction enabled: false
Boxcar width: 0
XAxis mode: Wavelengths
Number of Pixels in Spectrum: 2048
>>>>>Begin Spectral Data<<<<<
341.393	-18.63
341.776	-18.63
342.16	-18.63
342.543	-40.78
342.927	-69.25
343.31	-63.6
343.693	-76.71
344.077	-88.68
344.46	-35.35
344.843	-51.4
345.226	-34.22
345.61	-46.2
345.993	-21.34
346.376	-3.71
346.759	6
347.142	38.54
347.525	55.04
347.908	55.04
348.291	66.79
348.674	92.55
349.057	107.24
349.44	139.11
349.823	139.33
350.206	180.46
350.588	243.28
350.971	264.3
351.354	264.75
351.737	295.03
352.119	288.48
352.502	317.63
352.884	338.2
353.267	360.12
353.65	340.01
354.032	356.05
354.414	329.61
354.797	357.18
355.179	362.6
355.562	349.95
355.944	385.43
356.326	386.11
356.709	367.12
357.091	406.22
357.473	394.24
357.855	391.76
358.238	397.4
358.62	393.56
359.002	393.79
359.384	396.95
359.766	405.99
360.148	403.28
360.53	396.95
360.912	385.88
361.294	372.55
361.676	376.61
362.057	375.71
362.439	384.75
362.821	387.91
363.203	388.59
363.584	401.92
363.966	375.94
364.348	392.43
364.729	388.59
365.111	371.87
365.493	406.22
365.874	380.91
366.256	385.2
366.637	382.04
367.019	379.78
367.4	389.27
367.781	378.2
368.163	383.39
368.544	384.07
368.925	392.21
369.306	389.27
369.688	374.58
370.069	384.98
370.45	368.03
370.831	367.8
371.212	397.18
371.593	396.5
371.974	401.25
372.355	383.85
372.736	398.31
373.117	390.63
373.498	418.87
373.879	392.89
374.26	374.13
374.641	404.64
375.021	372.55
375.402	403.73
375.783	415.26
376.163	401.47
376.544	446.9
376.925	416.84
377.305	410.29
377.686	404.86
378.066	389.95
378.447	403.96
378.827	431.53
379.208	427.46
379.588	444.64
379.968	434.69
380.349	418.87
380.729	439.89
381.109	432.88
381.489	457.06
381.87	438.99
382.25	432.88
382.63	453.45
383.01	447.57
383.39	462.71
383.77	455.71
384.15	448.48
384.53	466.78
384.91	466.1
385.29	460.23
385.67	465.65
386.049	483.96
386.429	454.8
386.809	463.17
387.189	476.72
387.568	489.83
387.948	485.31
388.328	483.05
388.707	486.22
389.087	485.09
389.466	471.75
389.846	505.88
390.225	507.01
390.605	525.09
390.984	535.03
391.363	516.95
391.743	521.47
392.122	509.72
392.501	506.1
392.881	517.4
393.26	541.81
393.639	543.62
394.018	543.84
394.397	518.98
394.776	535.48
395.155	542.49
395.534	555.37
395.913	563.73
396.292	549.94
396.671	562.15
397.05	565.76
397.429	563.73
397.808	544.07
398.186	572.32
398.565	580.9
398.944	569.83
399.323	585.87
399.701	574.35
400.08	577.51
400.458	593.78
400.837	606.44
401.215	583.39
401.594	586.55
401.972	593.78
402.351	612.54
402.729	621.13
403.107	606.89
403.486	649.83
403.864	657.28
404.242	630.62
404.62	648.7
404.999	650.73
405.377	648.7
405.755	632.88
406.133	671.07
406.511	645.53
406.889	680.11
407.267	668.81
407.645	705.42
408.023	702.03
408.401	713.55
408.779	717.4
409.156	724.85
409.534	714.91
409.912	723.5
410.29	744.74
410.667	763.04
411.045	770.28
411.422	779.54
411.8	780.67
412.178	790.84
412.555	767.11
412.933	796.04
413.31	792.42
413.687	826.55
414.065	832.87
414.442	845.53
414.819	843.72
415.197	852.53
415.574	870.39
415.951	855.25
416.328	875.58
416.705	861.35
417.082	904.96
417.46	881.91
417.837	871.74
418.214	914.91
418.591	900.67
418.967	937.5
419.344	901.8
419.721	930.95
420.098	956.71
420.475	951.06
420.852	960.1
421.228	961.23
421.605	961.46
421.982	1000.33
422.358	977.73
422.735	994.45
423.111	999.2
423.488	988.58
423.864	1020.89
424.241	1033.77
424.617	1041.23
424.994	1032.19
425.37	1045.75
425.746	1051.62
426.123	1062.92
426.499	1053.43
426.875	1098.4
427.251	1104.73
427.627	1124.84
428.003	1143.37
428.379	1143.6
428.756	1137.5
429.132	1169.81
429.507	1190.83
429.883	1184.05
430.259	1227.44
430.635	1232.19
431.011	1222.02
431.387	1223.6
431.763	1263.14
432.138	1281
432.514	1300.43
432.89	1290.49
433.265	1338.17
433.641	1336.59
434.016	1315.12
434.392	1380.2
434.767	1378.85
435.143	1400.77
435.518	1406.19
435.894	1425.85
436.269	1423.37
436.644	1434.44
437.02	1463.82
437.395	1451.39
437.77	1464.95
438.145	1484.61
438.52	1520.54
438.895	1499.3
439.271	1528
439.646	1555.79
440.021	1565.74
440.395	1600.54
440.77	1550.59
441.145	1590.14
441.52	1612.74
441.895	1583.14
442.27	1615.45
442.645	1573.65
443.019	1635.34
443.394	1632.63
443.769	1620.42
444.143	1677.6
444.518	1657.26
444.892	1647.09
445.267	1692.51
445.641	1700.2
446.016	1714.43
446.39	1714.66
446.764	1704.26
447.139	1708.78
447.513	1720.08
447.887	1746.3
448.262	1760.31
448.636	1771.38
449.01	1800.31
449.384	1798.72
449.758	1819.97
450.132	1813.19
450.506	1845.28
450.88	1850.93
451.254	1862.23
451.628	1888.21
452.002	1883.47
452.376	1944.03
452.75	1927.76
453.123	1959.62
453.497	1983.13
453.871	1977.25
454.244	2050.02
454.618	2059.06
454.992	2090.24
455.365	2112.61
455.739	2142.67
456.112	2153.97
456.486	2171.6
456.859	2185.38
457.232	2226.06
457.606	2250.69
457.979	2296.56
458.352	2300.63
458.725	2305.83
459.099	2312.83
459.472	2397.35
459.845	2389.89
460.218	2440.97
460.591	2436.45
460.964	2449.33
461.337	2481.42
461.71	2559.61
462.083	2597.12
462.456	2593.73
462.829	2628.53
463.201	2627.63
463.574	2639.61
463.947	2673.28
464.32	2737
464.692	2746.27
465.065	2710.56
465.438	2759.38
465.81	2830.11
466.183	2816.1
466.555	2887.51
466.928	2923.21
467.3	2939.03
467.672	2950.33
468.045	3036.66
468.417	3026.94
468.789	3037.79
469.161	3093.38
469.534	3164.34
469.906	3168.41
470.278	3221.51
470.65	3221.74
471.022	3273.71
471.394	3337.89
471.766	3363.2
472.138	3393.71
472.51	3447.49
472.882	3516.64
473.253	3556.64
473.625	3614.04
473.997	3608.62
474.369	3666.02
474.74	3736.07
475.112	3810.87
475.484	3825.79
475.855	3956.86
476.227	3962.28
476.598	3985.56
476.97	4070.08
477.341	4152.79
477.713	4199.56
478.084	4223.52
478.455	4348.49
478.827	4403.4
479.198	4555.26
479.569	4520.69
479.94	4644.75
480.311	4647.24
480.682	4785.09
481.053	4898.53
481.424	4962.71
481.795	4981.24
482.166	5117.28
482.537	5145.98
482.908	5284.28
483.279	5353.21
483.65	5435.01
484.021	5538.96
484.391	5602.01
484.762	5703.48
485.133	5781.67
485.503	5849.01
485.874	6012.62
486.244	6042.91
486.615	6099.63
486.985	6239.74
487.356	6294.42
487.726	6413.29
488.097	6561.99
488.467	6620.52
488.837	6805.6
489.207	6833.39
489.578	6983.22
489.948	7107.51
490.318	7161.75
490.688	7223.89
491.058	7317.9
491.428	7497.56
491.798	7543.88
492.168	7758.12
492.538	7757.21
492.908	7886.25
493.278	8024.55
493.648	8062.29
494.017	8210.76
494.387	8264.09
494.757	8402.17
495.126	8543.63
495.496	8540.02
495.866	8682.61
496.235	8763.06
496.605	8884.87
496.974	8911.31
497.344	9047.57
497.713	9181.81
498.082	9246.21
498.452	9305.65
498.821	9443.95
499.19	9435.81
499.559	9576.15
499.928	9593.77
500.298	9705.86
500.667	9883.71
501.036	9853.43
501.405	9957.38
501.774	10052.97
502.143	10180.88
502.512	10242.34
502.88	10348.1
503.249	10460.42
503.618	10468.1
503.987	10577.02
504.356	10565.73
504.724	10687.98
505.093	10818.15
505.462	10824.7
505.83	10885.04
506.199	11062.66
506.567	11198.7
506.936	11292.26
507.304	11324.58
507.672	11409.09
508.041	11442.99
508.409	11561.86
508.777	11637.79
509.145	11836.65
509.514	11774.73
509.882	11884.56
510.25	11941.06
510.618	12054.95
510.986	12117.55
511.354	12224.89
511.722	12329.75
512.09	12401.61
512.458	12384.21
512.826	12649.74
513.193	12587.82
513.561	12723.18
513.929	12804.99
514.297	12965.44
514.664	13057.41
515.032	13095.15
515.4	13225.54
515.767	13208.82
516.135	13274.81
516.502	13209.95
516.869	13525.42
517.237	13611.29
517.604	13549.38
517.972	13865.3
518.339	13815.58
518.706	14027.55
519.073	14032.75
519.44	14049.7
519.808	14287.89
520.175	14329.69
520.542	14563.81
520.909	14578.95
521.276	14647.65
521.643	14820.3
522.009	14939.4
522.376	15074.98
522.743	15060.52
523.11	15361.31
523.477	15498.48
523.843	15505.93
524.21	15693.73
524.577	15846.49
524.943	15912.03
525.31	16070.67
525.676	16223.66
526.043	16369.19
526.409	16572.12
526.776	16702.74
527.142	16817.31
527.508	16868.16
527.874	17067.93
528.241	17175.04
528.607	17234.93
528.973	17391.99
529.339	17455.04
529.705	17707.68
530.071	17806.21
530.437	17932.31
530.803	18045.3
531.169	18151.97
531.535	18195.13
531.901	18339.53
532.267	18410.49
532.632	18556.25
532.998	18675.34
533.364	18841.44
533.73	18773.42
534.095	19043.24
534.461	19117.36
534.826	19234.65
535.192	19294.54
535.557	19428.09
535.923	19466.06
536.288	19445.04
536.653	19705.82
537.019	19731.36
537.384	19793.96
537.749	19932.03
538.114	19933.61
538.479	19965.03
538.845	20035.53
539.21	20089.32
539.575	20205.7
539.94	20254.74
540.305	20400.27
540.67	20419.7
541.034	20582.41
541.399	20565.91
541.764	20637.78
542.129	20711.67
542.494	20792.8
542.858	20912.57
543.223	20814.27
543.587	20915.74
543.952	21037.54
544.316	21140.14
544.681	21047.71
545.045	21197.54
545.41	21401.82
545.774	21297.65
546.138	21434.59
546.503	21433.69
546.867	21588.03
547.231	21604.53
547.595	21770.85
547.959	21888.59
548.324	21795.94
548.688	21927.23
549.052	21983.96
549.416	22025.76
549.779	22103.5
550.143	22040
550.507	22200.45
550.871	22312.99
551.235	22339.65
551.599	22533.09
551.962	22565.86
552.326	22627.55
552.689	22706.2
553.053	22562.02
553.417	22725.18
553.78	22975.12
554.143	22954.1
554.507	23080.65
554.87	23244.26
555.234	23360.64
555.597	23226.41
555.96	23374.65
556.323	23598.6
556.686	23640.41
557.05	23822.1
557.413	23696.23
557.776	23867.75
558.139	24047.18
558.502	24085.82
558.865	24184.8
559.228	24317.45
559.59	24425.02
559.953	24550.89
560.316	24718.8
560.679	24831.34
561.041	24954.5
561.404	25105.68
561.767	25255.73
562.129	25223.42
562.492	25453.47
562.854	25492.34
563.217	25504.09
563.579	25679
563.941	25862.5
564.304	25972.78
564.666	26180
565.028	26249.15
565.39	26368.02
565.753	26458.87
566.115	26586.32
566.477	26793.32
566.839	26937.72
567.201	27300.88
567.563	27293.42
567.925	27251.61
568.287	27378.62
568.648	27608.67
569.01	27878.04
569.372	28120.74
569.734	28036.68
570.095	28243.23
570.457	28585.59
570.819	28548.08
571.18	28521.19
571.542	28893.15
571.903	28953.72
572.265	29034.17
572.626	29271.22
572.987	29452.46
573.349	29577.65
573.71	29822.85
574.071	29914.14
574.432	30073.23
574.794	30383.06
575.155	30391.87
575.516	30524.52
575.877	30726.1
576.238	30734.91
576.599	31086.32
576.96	31116.37
577.32	31191.85
577.681	31398.85
578.042	31709.8
578.403	31791.38
578.763	31882.68
579.124	31962.45
579.485	32363.12
579.845	32498.26
580.206	32540.97
580.566	32650.12
580.927	32912.71
581.287	33172.14
581.648	33131.91
582.008	33490.32
582.368	33606.02
582.728	33814.83
583.089	33931.21
583.449	34164.65
583.809	34381.37
584.169	34558.99
584.529	34644.41
584.889	35267.9
585.249	35175.93
585.609	35459.99
585.969	35796.02
586.329	36098.16
586.688	36537.02
587.048	36665.6
587.408	36959.83
587.768	37090.45
588.127	37582.19
588.487	37795.07
588.846	38422.39
589.206	38553.24
589.565	38830.97
589.925	39494.91
590.284	39837.5
590.643	39987.55
591.003	40526.52
591.362	40957.92
591.721	41424.57
592.08	41810.78
592.44	42387.26
592.799	42587.48
593.158	43041.48
593.517	43351.76
593.876	44078.97
594.235	44183.82
594.593	44726.86
594.952	45194.19
595.311	45631.92
595.67	46006.15
596.029	46726.36
596.387	47098.32
596.746	47588.25
597.104	47569.05
597.463	48068.69
597.822	48628.68
598.18	48955.68
598.538	49179.62
598.897	49826.61
599.255	49906.39
599.613	50726.93
599.972	50719.25
600.33	51180.25
600.688	51353.13
601.046	51853.45
601.404	52337.51
601.762	52450.5
602.12	52901.79
602.478	53040.09
602.836	53411.15
603.194	53444.37
603.552	53776.79
603.91	54019.27
604.268	54405.02
604.625	54504.91
604.983	54944.22
605.341	54978.34
605.698	55401.83
606.056	55693.35
606.413	55809.06
606.771	56167.69
607.128	56280.68
607.485	56431.19
607.843	56611.75
608.2	56932.42
608.557	57122.69
608.914	57260.54
609.272	57527.65
609.629	57794.99
609.986	58055.55
610.343	58127.41
610.7	58385.94
611.057	58469.55
611.414	58513.62
611.771	58804.91
612.127	58959.48
612.484	59073.6
612.841	59267.27
613.198	59317.44
613.554	59370.32
613.911	59748.16
614.267	59849.63
614.624	59867.48
614.98	60055.5
615.337	60388.14
615.693	60378.65
616.05	60546.11
616.406	60638.76
616.762	60734.8
617.118	60786.1
617.475	60870.39
617.831	61135.92
618.187	61160.33
618.543	61331.4
618.899	61506.08
619.255	61574.1
619.611	61544.95
619.967	61743.36
620.323	61883.02
620.678	61816.13
621.034	61906.97
621.39	61945.17
621.746	62006.86
622.101	62292.27
622.457	62106.74
622.812	62332.73
623.168	62411.14
623.523	62388.77
623.879	62519.16
624.234	62464.93
624.589	62602.55
624.945	62640.06
625.3	62754.18
625.655	62737.46
626.01	62808.65
626.365	62829.44
626.72	62798.25
627.075	62811.58
627.43	62871.24
627.785	62901.3
628.14	62935.42
628.495	63002.54
628.85	62984.46
629.205	63012.71
629.559	63094.29
629.914	62995.98
630.269	63068.75
630.623	63027.85
630.978	62959.6
631.332	63162.08
631.687	63111.24
632.041	63092.03
632.396	63072.14
632.75	63047.06
633.104	63142.65
633.459	62974.29
633.813	63004.8
634.167	63000.05
634.521	63070.11
634.875	63069.66
635.229	63031.24
635.583	62941.97
635.937	62932.48
636.291	63000.05
636.645	63028.75
636.999	62952.37
637.352	62958.7
637.706	62776.78
638.06	62987.62
638.413	62898.59
638.767	62806.61
639.121	62836.89
639.474	62765.93
639.828	62792.83
640.181	62781.98
640.534	62856.1
640.888	62741.3
641.241	62667.41
641.594	62665.15
641.947	62722.09
642.301	62663.56
642.654	62694.98
643.007	62597.58
643.36	62653.39
643.713	62670.12
644.066	62659.5
644.419	62561.87
644.771	62303.35
645.124	62151.26
645.477	62122.79
645.83	62000.08
646.182	62054.31
646.535	61948.55
646.888	62051.38
647.24	61947.42
647.593	62105.16
647.945	61972.73
648.298	61842.57
648.65	61805.28
649.002	61702.46
649.355	61735
649.707	61636.02
650.059	61624.72
650.411	61905.17
650.763	62033.75
651.115	62384.93
651.467	62262.67
651.819	62267.19
652.171	62245.27
652.523	62161.66
652.875	62236.23
653.227	62115.1
653.578	62251.37
653.93	62141.77
654.282	62071.72
654.633	61988.55
654.985	62032.39
655.337	62059.96
655.688	62019.51
656.039	62087.76
656.391	61892.29
656.742	61932.74
657.094	61894.77
657.445	61927.54
657.796	61950.36
658.147	61853.42
658.498	61876.24
658.849	61958.05
659.2	61894.77
659.551	61740.88
659.902	61908.33
660.253	61776.13
660.604	61837.6
660.955	61778.16
661.306	61896.35
661.656	61718.05
662.007	61773.19
662.358	61776.13
662.708	61737.03
663.059	61710.82
663.409	61598.51
663.76	61670.37
664.11	61719.41
664.461	61758.73
664.811	61737.49
665.161	61657.04
665.511	61663.36
665.862	61683.93
666.212	61709.24
666.562	61735.68
666.912	61678.51
667.262	61609.81
667.612	61580.2
667.962	61633.31
668.312	61499.3
668.662	61695.45
669.011	61602.35
669.361	61605.29
669.711	61572.52
670.06	61503.37
670.41	61513.31
670.76	61475.35
671.109	61661.1
671.459	61546.08
671.808	61467.66
672.157	61552.86
672.507	61396.93
672.856	61465.86
673.205	61516.02
673.554	61547.44
673.904	61429.47
674.253	61615.91
674.602	61435.57
674.951	61134.56
675.3	61035.58
675.649	61457.72
675.998	61426.76
676.346	61484.39
676.695	61443.94
677.044	61306.54
677.393	61392.64
677.741	61423.37
678.09	61334.56
678.438	61285.07
678.787	61348.8
679.135	61399.64
679.484	61219.08
679.832	61350.38
680.181	61203.26
680.529	61271.06
680.877	61172.76
681.225	61132.31
681.573	61322.81
681.922	61176.15
682.27	61076.49
682.618	61081.01
682.966	61036.04
683.314	61111.51
683.661	61081.01
684.009	60923.95
684.357	60916.94
684.705	60876.94
685.053	60937.51
685.4	60824.29
685.748	60827.23
686.095	60775.7
686.443	60651.41
686.79	60744.97
687.138	60825.87
687.485	60778.64
687.832	60639.89
688.18	60563.28
688.527	60496.84
688.874	60497.75
689.221	60496.62
689.568	60356.96
689.915	60352.44
690.262	60308.37
690.609	60313.34
690.956	60220.92
691.303	60182.27
691.65	60138.88
691.997	60102.95
692.344	59949.74
692.69	59944.09
693.037	59993.35
693.383	59755.17
693.73	59887.59
694.077	59670.42
694.423	59691.44
694.769	59660.71
695.116	59581.84
695.462	59583.65
695.808	59512.46
696.155	59515.85
696.501	59299.81
696.847	59432.69
697.193	59248.74
697.539	59228.4
697.885	59112.25
698.231	59049.42
698.577	59055.98
698.923	58963.32
699.269	58799.26
699.614	58830.44
699.96	58690.11
700.306	58723.78
700.651	58612.82
700.997	58491.24
701.342	58448.08
701.688	58503
702.033	58353.17
702.379	58346.84
702.724	58279.95
703.069	58361.08
703.415	58089.67
703.76	58074.76
704.105	58116.34
704.45	58054.19
704.795	57905.72
705.14	57817.59
705.485	57907.53
705.83	57645.39
706.175	57738.27
706.52	57669.57
706.865	57565.62
707.209	57570.36
707.554	57466.19
707.899	57445.17
708.243	57358.17
708.588	57246.31
708.932	57151.84
709.277	57197.04
709.621	56998.85
709.966	56929.03
710.31	56988.46
710.654	56696.94
710.998	56778.97
711.342	56833.66
711.687	56768.35
712.031	56627.34
712.375	56499.21
712.719	56494.23
713.063	56419.89
713.407	56648.81
713.75	56442.48
714.094	56461.02
714.438	56254.92
714.782	56292.88
715.125	56168.37
715.469	56291.08
715.812	56037.52
716.156	55964.31
716.499	55997.98
716.843	55949.84
717.186	55837.3
717.53	56004.3
717.873	55985.1
718.216	55850.18
718.559	55751.66
718.902	55550.3
719.246	55573.13
719.589	55559.34
719.932	55476.41
720.275	55491.55
720.617	55499.01
720.96	55434.83
721.303	55406.13
721.646	55449.74
721.989	55194.16
722.331	55270.31
722.674	55174.72
723.016	55241.39
723.359	55048.4
723.701	55064.44
724.044	54966.37
724.386	54900.6
724.729	54986.03
725.071	54981.51
725.413	54832.81
725.755	54776.99
726.097	54747.84
726.439	54640.72
726.782	54579.26
727.124	54723.21
727.465	54651.35
727.807	54471.01
728.149	54552.37
728.491	54454.06
728.833	54483.89
729.175	54363.22
729.516	54312.37
729.858	54281.64
730.199	54322.31
730.541	54305.14
730.882	54167.52
731.224	54196.44
731.565	54154.64
731.906	54074.41
732.248	54136.1
732.589	53880.29
732.93	53828.54
733.271	53852.72
733.612	53816.79
733.953	54014.75
734.294	53754.65
734.635	53699.05
734.976	53774.98
735.317	53636.68
735.658	53588.1
735.999	53497.48
736.339	53540.41
736.68	53616.8
737.021	53548.55
737.361	53440.98
737.702	53608.21
738.042	53356.24
738.383	53400.3
738.723	53404.37
739.063	53285.73
739.404	53377.48
739.744	53309.46
740.084	53193.08
740.424	53148.33
740.764	53182.68
741.104	53282.79
741.444	53090.03
741.784	53005.06
742.124	53137.26
742.464	52982.24
742.804	53030.37
743.143	52945.18
743.483	52966.64
743.823	52845.52
744.162	52824.5
744.502	52795.35
744.841	52739.31
745.181	52857.27
745.52	52561.91
745.86	52654.79
746.199	52641.23
746.538	52680.55
746.877	52673.09
747.216	52579.31
747.556	52433.78
747.895	52513.77
748.234	52499.99
748.573	52432.65
748.911	52338.86
749.25	52297.28
749.589	52169.38
749.928	52259.54
750.267	52201.47
750.605	52110.17
750.944	52025.43
751.283	52030.17
751.621	51947.01
751.96	51853
752.298	51839.89
752.636	51874.02
752.975	51735.72
753.313	51655.04
753.651	51734.13
753.989	51517.87
754.327	51606
754.666	51395.61
755.004	51434.03
755.342	51350.19
755.679	51378.21
756.017	51090.76
756.355	51246.46
756.693	51053.7
757.031	51118.33
757.368	50812.35
757.706	50944.1
758.044	50679.7
758.381	50634.5
758.719	50499.36
759.056	50648.51
759.394	50373.49
759.731	50091.24
760.068	50101.41
760.405	50167.85
760.743	49925.82
761.08	49900.74
761.417	49755.43
761.754	49742.1
762.091	49618.03
762.428	49413.52
762.765	49324.25
763.102	49252.17
763.438	49231.38
763.775	49013.98
764.112	49007.88
764.449	48856.92
764.785	48753.2
765.122	48459.87
765.458	48408.8
765.795	48383.94
766.131	48342.58
766.467	48172.65
766.804	47866.89
767.14	47758.65
767.476	47766.55
767.812	47550.74
768.148	47670.51
768.485	47428.26
768.821	47179.9
769.157	47164.08
769.492	46941.72
769.828	47062.39
770.164	46600.48
770.5	46534.95
770.836	46567.26
771.171	46290.44
771.507	46139.93
771.842	45927.96
772.178	45858.58
772.513	45650.9
772.849	45597.57
773.184	45488.42
773.519	45273.96
773.855	45193.97
774.19	45017.47
774.525	44877.37
774.86	44784.03
775.195	44812.96
775.53	44505.85
775.865	44264.73
776.2	43990.38
776.535	43942.93
776.87	43888.69
777.205	43556.27
777.539	43532.32
777.874	43513.33
778.209	43192.21
778.543	43223.17
778.878	42992.67
779.212	42859.57
779.547	42591.1
779.881	42552
780.215	42236.98
780.55	42323.31
780.884	41989.31
781.218	41852.81
781.552	42083.77
781.886	41595.42
782.22	41400.39
782.554	41318.36
782.888	40945.72
783.222	40836.34
783.556	40724.25
783.889	40566.74
784.223	40392.96
784.557	40321.33
784.89	40462.34
785.224	40107.55
785.557	39943.94
785.891	39772.87
786.224	39660.33
786.558	39646.77
786.891	39316.16
787.224	39235.48
787.557	38885.88
787.891	39061.7
788.224	38844.98
788.557	38760.01
788.89	38823.74
789.223	38550.53
789.556	38286.8
789.888	38117.54
790.221	38085.45
790.554	37819.92
790.887	37754.61
791.219	37694.05
791.552	37468.29
791.884	37344.68
792.217	37230.56
792.549	37233.95
792.882	36733.4
793.214	36830.8
793.546	36758.03
793.879	36627.41
794.211	36424.93
794.543	36529.11
794.875	36480.98
795.207	36238.04
795.539	36096.13
795.871	36175
796.203	36071.5
796.535	35658.85
796.867	35689.81
797.198	35512.87
797.53	35373.43
797.862	35240.56
798.193	35266.32
798.525	35076.49
798.856	35196.26
799.188	34597.86
799.519	34661.81
799.85	34563.29
800.182	34478.32
800.513	34606.22
800.844	34058.21
801.175	34401.48
801.506	34160.36
801.837	34047.14
802.168	33915.39
802.499	33949.06
802.83	33643.76
803.161	33599.47
803.491	33635.4
803.822	33602.86
804.153	33153.61
804.483	33251.46
804.814	33046.04
805.145	33166.49
805.475	33034.74
805.805	32912.03
806.136	32887.62
806.466	32742.09
806.796	32642.43
807.126	32538.93
807.457	32452.61
807.787	32480.4
808.117	32315.66
808.447	32118.38
808.777	32214.87
809.107	31940.08
809.436	31861.89
809.766	31890.36
810.096	31773.3
810.426	31670.48
810.755	31733.3
811.085	31489.02
811.414	31496.7
811.744	31292.86
812.073	31303.03
812.403	31135.13
812.732	30919.99
813.061	31201.57
813.39	30744.86
813.719	30873.44
814.049	30890.16
814.378	30828.24
814.707	30449.5
815.036	30662.82
815.365	30487.69
815.693	30257.41
816.022	30298.54
816.351	30193.91
816.68	30036.4
817.008	30286.11
817.337	29920.92
817.665	29969.06
817.994	29761.15
818.322	30030.3
818.651	29670.76
818.979	29701.95
819.307	29633.25
819.636	29609.07
819.964	29416.08
820.292	29556.41
820.62	29543.31
820.948	29623.98
821.276	29523.19
821.604	29456.98
821.932	29662.4
822.259	29484.78
822.587	29437.55
822.915	29449.97
823.243	29419.24
823.57	29251.11
823.898	29492.46
824.225	29363.87
824.553	29476.19
824.88	29524.1
825.207	29329.98
825.535	29294.95
825.862	29407.49
826.189	29360.49
826.516	29508.96
826.843	29471.44
827.17	29532.46
827.497	29515.96
827.824	29498.56
828.151	29607.26
828.478	29330.43
828.805	29593.7
829.131	29515.96
829.458	29456.75
829.785	29369.98
830.111	29351.45
830.438	29590.54
830.764	29359.81
831.09	29608.61
831.417	29334.5
831.743	29495.62
832.069	29309.41
832.395	29281.39
832.722	29402.52
833.048	29327.04
833.374	29379.69
833.7	29290.2
834.026	29314.61
834.351	29253.6
834.677	29329.53
835.003	29201.39
835.329	29103.99
835.654	29105.35
835.98	28971.12
836.306	29035.97
836.631	28905.58
836.956	29172.02
837.282	29078.01
837.607	28863.77
837.932	28854.51
838.258	28845.24
838.583	28805.7
838.908	28655.64
839.233	28787.84
839.558	28676.89
839.883	28537.91
840.208	28514.86
840.533	28642.54
840.858	28522.77
841.182	28485.71
841.507	28462.88
841.832	28223.34
842.156	28288.2
842.481	28368.42
842.805	28107.64
843.13	28120.07
843.454	28141.76
843.778	28116.68
844.103	27988.54
844.427	27859.51
844.751	27907.19
845.075	27717.36
845.399	27722.56
845.723	27545.62
846.047	27600.98
846.371	27362.8
846.695	27253.87
847.019	27192.18
847.343	26878.29
847.666	27004.39
847.99	26794.45
848.313	26751.06
848.637	26688.69
848.96	26620.44
849.284	26659.09
849.607	26313.79
849.931	26356.27
850.254	26213.45
850.577	25924.42
850.9	25841.93
851.223	25785.89
851.546	25729.62
851.869	25597.19
852.192	25605.56
852.515	25282.4
852.838	25195.62
853.161	25276.75
853.483	25149.52
853.806	25108.17
854.129	25073.37
854.451	24960.15
854.774	24856.2
855.096	24755.41
855.419	24623.66
855.741	24544.57
856.063	24473.38
856.385	24456.89
856.708	24279.26
857.03	24261.18
857.352	24258.25
857.674	24082.21
857.996	24002.89
858.318	23903
858.64	23894.41
858.961	23749.11
859.283	23698.71
859.605	23543.91
859.926	23534.88
860.248	23603.57
860.57	23433.41
860.891	23411.04
861.212	23247.65
861.534	23346.18
861.855	23021.44
862.176	23242
862.498	23245.17
862.819	23241.55
863.14	23114.77
863.461	23083.14
863.782	23004.04
864.103	22883.59
864.424	22916.59
864.745	22915
865.065	22801.34
865.386	22702.13
865.707	22764.27
866.027	22765.63
866.348	22624.84
866.668	22671.62
866.989	22516.37
867.309	22465.53
867.63	22397.28
867.95	22536.71
868.27	22294.23
868.59	22437.73
868.91	22343.72
869.23	22291.07
869.55	22247.23
869.87	22314.34
870.19	22167.68
870.51	22155.48
870.83	22150.05
871.15	21956.61
871.469	21983.73
871.789	22165.65
872.109	21999.77
872.428	21857.18
872.748	21888.82
873.067	21917.06
873.386	21767.01
873.706	21839.78
874.025	21736.5
874.344	21590.52
874.663	21745.32
874.982	21676.62
875.301	21610.18
875.62	21575.61
875.939	21516.62
876.258	21445.21
876.577	21291.32
876.896	21338.1
877.214	21310.53
877.533	21414.03
877.852	21247.93
878.17	21362.5
878.489	21365.67
878.807	21240.7
879.125	21199.57
879.444	21139.68
879.762	21054.94
880.08	21200.7
880.398	20987.6
880.716	21065.79
881.034	20958.22
881.352	20977.2
881.67	20828.73
881.988	20802.29
882.306	20847.94
882.624	20780.6
882.941	20603.2
883.259	20645.23
883.577	20694.5
883.894	20558.91
884.212	20657.89
884.529	20453.37
884.846	20368.41
885.164	20346.48
885.481	20358.69
885.798	20351.46
886.115	20212.93
886.432	20373.6
886.75	20067.62
887.067	20197.11
887.383	20055.64
887.7	20106.94
888.017	19981.52
888.334	19962.77
888.651	19866.27
888.967	19925.25
889.284	19770.68
889.6	19746.05
889.917	19663.79
890.233	19617.24
890.55	19516.45
890.866	19555.55
891.182	19448.88
891.498	19365.04
891.815	19198.27
892.131	19143.35
892.447	19210.47
892.763	19126.4
893.079	19054.99
893.395	19028.55
893.71	19075.56
894.026	18911.49
894.342	18818.16
894.657	18693.65
894.973	18639.86
895.289	18735.91
895.604	18677.15
895.92	18569.13
896.235	18607.32
896.55	18491.17
896.865	18384.73
897.181	18434.44
897.496	18351.06
897.811	18168.24
898.126	18147.45
898.441	18026.55
898.756	17976.6
899.071	17964.17
899.386	18003.5
899.7	17745.88
900.015	17674.69
900.33	17497.07
900.644	17598.31
900.959	17502.04
901.273	17477.63
901.588	17495.94
901.902	17312.44
902.216	17226.11
902.531	17340.24
902.845	17277.41
903.159	17068.15
903.473	17066.35
903.787	17041.71
904.101	16923.07
904.415	17041.71
904.729	16899.34
905.042	16703.19
905.356	16758.33
905.67	16650.76
905.984	16687.6
906.297	16516.53
906.611	16467.94
906.924	16373.03
907.237	16396.53
907.551	16317.44
907.864	16177.55
908.177	16275.63
908.491	16118.57
908.804	16020.95
909.117	15907.51
909.43	15840.61
909.743	15794.06
910.056	15840.61
910.368	15705.7
910.681	15615.99
910.994	15528.53
911.307	15462.32
911.619	15330.57
911.932	15324.02
912.244	15156.11
912.557	15205.38
912.869	15078.6
913.181	15154.3
913.494	15048.77
913.806	14987.98
914.118	14963.8
914.43	14832.96
914.742	14824.6
915.054	14713.41
915.366	14699.63
915.678	14530.37
915.99	14601.78
916.302	14438.39
916.613	14352.97
916.925	14418.05
917.236	14402.01
917.548	14227.32
917.859	14204.5
918.171	14142.58
918.482	14041.79
918.794	14010.15
919.105	13893.55
919.416	13752.31
919.727	13877.5
920.038	13748.69
920.349	13635.47
920.66	13648.58
920.971	13608.81
921.282	13506.21
921.593	13526.55
921.903	13456.72
922.214	13400.23
922.525	13229.38
922.835	13204.98
923.146	13104.19
923.456	13127.01
923.767	12992.78
924.077	12994.14
924.387	12921.6
924.697	12842.73
925.008	12884.08
925.318	12718.44
925.628	12743.52
925.938	12724.09
926.248	12631.66
926.558	12473.47
926.867	12506.01
927.177	12447.71
927.487	12364.1
927.796	12410.65
928.106	12278.9
928.416	12246.36
928.725	12216.3
929.034	12109.64
929.344	12054.5
929.653	12136.08
929.962	11903.77
930.271	11925.24
930.581	11891.79
930.89	11835.3
931.199	11764.79
931.508	11755.52
931.817	11705.13
932.125	11657.67
932.434	11600.27
932.743	11489.32
933.051	11455.42
933.36	11397.79
933.669	11297.91
933.977	11250.23
934.286	11248.87
934.594	11290.45
934.902	11186.27
935.21	11166.39
935.519	11061.31
935.827	11054.3
936.135	10952.61
936.443	10860.86
936.751	10849.11
937.059	10854.3
937.367	10756
937.674	10724.36
937.982	10741.77
938.29	10697.7
938.597	10637.36
938.905	10521.66
939.213	10497.03
939.52	10357.82
939.827	10465.39
940.135	10368.89
940.442	10309.46
940.749	10209.8
941.056	10236.69
941.363	10202.8
941.67	10135.91
941.977	10073.99
942.284	10032.63
942.591	9991.95
942.898	10020.43
943.205	9978.62
943.511	9811.17
943.818	9876.48
944.125	9724.84
944.431	9725.75
944.738	9710.83
945.044	9641.68
945.35	9570.95
945.657	9552.19
945.963	9567.56
946.269	9452.99
946.575	9458.86
946.881	9429.48
947.187	9331.18
947.493	9310.62
947.799	9269.94
948.105	9178.42
948.41	9157.85
948.716	9155.82
949.022	9095.48
949.327	9070.62
949.633	8951.76
949.938	8940.91
950.244	8938.42
950.549	8894.81
950.854	8858.65
951.16	8806
951.465	8763.29
951.77	8705.66
952.075	8710.86
952.38	8712.44
952.685	8646
952.99	8522.61
953.294	8566.23
953.599	8504.76
953.904	8508.38
954.209	8390.19
954.513	8421.83
954.818	8349.96
955.122	8374.37
955.426	8314.03
955.731	8257.54
956.035	8224.77
956.339	8192
956.643	8130.76
956.948	8098.9
957.252	7982.97
957.556	8021.84
957.86	7995.62
958.163	7929.18
958.467	7908.17
958.771	7924.44
959.075	7833.14
959.378	7791.33
959.682	7782.07
959.985	7751.34
960.289	7646.48
960.592	7688.51
960.896	7621.62
961.199	7544.34
961.502	7555.63
961.805	7486.71
962.108	7451.68
962.411	7424.56
962.714	7410.78
963.017	7376.88
963.32	7305.7
963.623	7251.01
963.926	7355.87
964.228	7262.54
964.531	7229.32
964.833	7210.11
965.136	7194.06
965.438	7174.18
965.741	7044.01
966.043	7064.35
966.345	6958.36
966.648	6985.03
966.95	6970.34
967.252	6901.41
967.554	6886.95
967.856	6847.63
968.158	6871.13
968.46	6796.78
968.761	6757.69
969.063	6727.86
969.365	6720.63
969.666	6663.45
969.968	6629.33
970.269	6611.93
970.571	6576.23
970.872	6592.5
971.174	6580.07
971.475	6506.17
971.776	6484.48
972.077	6412.84
972.378	6415.33
972.679	6383.91
972.98	6388.66
973.281	6342.11
973.582	6267.31
973.883	6270.92
974.183	6232.05
974.484	6214.2
974.785	6195.9
975.085	6173.98
975.386	6119.06
975.686	5996.58
975.986	6086.29
976.287	6039.29
976.587	5936.47
976.887	5982.34
977.187	5966.3
977.487	5925.85
977.787	5897.83
978.087	5858.73
978.387	5827.54
978.687	5846.98
978.987	5803.14
979.286	5819.64
979.586	5745.96
979.885	5690.6
980.185	5676.14
980.484	5611.28
980.784	5605.4
981.083	5560.21
981.382	5616.48
981.682	5558.4
981.981	5512.75
982.28	5526.99
982.579	5426.2
982.878	5452.64
983.177	5432.53
983.475	5409.93
983.774	5325.18
984.073	5385.75
984.372	5253.1
984.67	5258.52
984.969	5250.16
985.267	5209.93
985.566	5207.9
985.864	5158.41
986.162	5163.38
986.461	5111.18
986.759	5149.37
987.057	5079.54
987.355	4993.44
987.653	5025.08
987.951	4985.31
988.249	5049.71
988.547	5001.35
988.844	4955.25
989.142	4904.4
989.44	4904.18
989.737	4870.28
990.035	4840.45
990.332	4839.55
990.63	4794.58
990.927	4808.36
991.224	4742.15
991.521	4715.71
991.819	4686.56
992.116	4703.96
992.413	4684.98
992.71	4602.27
993.006	4634.36
993.303	4621.7
993.6	4570.4
993.897	4549.61
994.193	4574.7
994.49	4514.36
994.787	4480.46
995.083	4456.06
995.379	4394.59
995.676	4405.89
995.972	4413.34
996.268	4346.45
996.565	4328.15
996.861	4329.28
997.157	4303.74
997.453	4312.56
997.749	4282.5
998.044	4208.83
998.34	4253.57
998.636	4165.44
998.932	4187.36
999.227	4098.1
999.523	4115.5
999.818	4063.07
1000.114	4080.47
1000.409	4061.94
1000.704	4056.29
1001	4014.71
1001.295	3949.63
1001.59	3982.4
1001.885	3910.31
1002.18	3905.79
1002.475	3917.31
1002.77	3867.14
1003.065	3861.49
1003.359	3831.21
1003.654	3833.25
1003.949	3795.28
1004.243	3709.86
1004.538	3741.72
1004.832	3731.1
1005.127	3739.92
1005.421	3675.06
1005.715	3637.32
1006.009	3634.38
1006.304	3616.08
1006.598	3610.65
1006.892	3569.75
1007.186	3572.24
1007.48	3515.97
1007.773	3479.36
1008.067	3463.54
1008.361	3456.08
1008.655	3428.06
1008.948	3426.7
1009.242	3388.06
1009.535	3356.65
1009.829	3327.05
1010.122	3282.98
1010.415	3273.26
1010.708	3316.65
1011.001	3237.1
1011.295	3251.79
1011.588	3204.56
1011.881	3186.94
1012.173	3190.1
1012.466	3161.63
1012.759	3154.85
1013.052	3150.55
1013.344	3122.98
1013.637	3103.55
1013.93	3066.26
1014.222	3064.68
1014.514	3038.24
1014.807	2960.05
1015.099	3013.83
1015.391	2937
1015.683	2970.9
1015.976	2910.11
1016.268	2934.29
1016.56	2866.04
1016.851	2877.79
1017.143	2831.47
1017.435	2791.92
1017.727	2800.51
1018.018	2816.1
1018.31	2783.56
1018.602	2758.92
1018.893	2774.07
1019.185	2709.89
1019.476	2711.92
1019.767	2690.23
1020.058	2634.63
1020.35	2635.09
1020.641	2660.62
1020.932	2588.53
1021.223	2599.15
1021.514	2601.64
1021.804	2537.24
1022.095	2506.05
1022.386	2511.7
1022.677	2504.24
1022.967	2496.56
1023.258	2469.67
1023.548	2447.52
1023.839	2467.18
1024.129	2412.04
1024.419	2389.44
1024.709	2371.59
1025	2370.01
1025.29	2316.22
1025.58	2322.1
1025.87	2325.26
1026.16	2294.76
1026.449	2264.02
1026.739	2263.8
1027.029	2237.81
1027.319	2209.11
1027.608	2205.72
1027.898	2174.99
1028.187	2179.96
1028.477	2180.63
1028.766	2152.16
1029.055	2128.66
1029.344	2092.05
1029.634	2084.82
1029.923	2067.87
1030.212	2059.06
1030.501	2046.18
1030.79	2024.03
1031.078	2003.24
1031.367	2000.75
1031.656	1996.23
1031.945	1991.94
1032.233	1966.4
1032.522	1959.4
1032.81	1918.72
1033.099	1922.11
1033.387	1895.9
1033.675	1882.56
1033.963	1856.35
1034.251	1853.41
1034.54	1877.14
1034.828	1822.45
1035.116	1816.12
1035.403	1803.92
1035.691	1791.94
1035.979	1794.2
1036.267	1760.53
1036.554	1769.35
1036.842	1735.22
1037.129	1726.86
1037.417	1722.57
1037.704	1697.26
1037.992	1676.47
1038.279	1681.21
1038.566	1617.49
1038.853	1617.49
1039.14	1617.49
