Data from 17-1456_FLMS001491_006.txt Node
Date: Thu Apr 19 16:30:41 BST 2018
User: hsy
Spectrometer: FLMS00149
Trigger mode: 0
Integration Time (sec): 1.000000E-2
Scans to average: 10
Electric dark correction enabled: true
Nonlinearity correction enabled: false
Boxcar width: 0
XAxis mode: Wavelengths
Number of Pixels in Spectrum: 2048
>>>>>Begin Spectral Data<<<<<
341.393	-23.4
341.776	-23.4
342.16	-23.4
342.543	-46.68
342.927	-77.87
343.31	-62.05
343.693	-83.06
344.077	-54.36
344.46	-62.72
344.843	-53.01
345.226	-37.64
345.61	-33.57
345.993	-24.76
346.376	0.32
346.759	13.88
347.142	32.87
347.525	49.59
347.908	28.12
348.291	63.37
348.674	109.25
349.057	113.77
349.44	157.83
349.823	132.98
350.206	175.46
350.588	232.18
350.971	235.12
351.354	274.22
351.737	308.11
352.119	272.63
352.502	295.01
352.884	309.24
353.267	313.31
353.65	339.75
354.032	343.14
354.414	372.97
354.797	368.22
355.179	358.73
355.562	362.12
355.944	351.95
356.326	358.96
356.709	391.95
357.091	394.44
357.473	407.32
357.855	380.88
358.238	396.92
358.62	368.9
359.002	410.03
359.384	372.74
359.766	388.79
360.148	378.62
360.53	396.25
360.912	375.91
361.294	400.09
361.676	381.78
362.057	360.54
362.439	350.15
362.821	376.81
363.203	384.04
363.584	380.2
363.966	386.3
364.348	382.24
364.729	364.84
365.111	387.66
365.493	377.26
365.874	384.95
366.256	359.86
366.637	353.08
367.019	355.57
367.4	340.43
367.781	373.42
368.163	387.21
368.544	361.22
368.925	368.22
369.306	367.09
369.688	356.25
370.069	378.62
370.45	382.24
370.831	372.97
371.212	359.64
371.593	359.64
371.974	375.23
372.355	368.68
372.736	372.29
373.117	407.09
373.498	400.31
373.879	379.98
374.26	383.37
374.641	383.37
375.021	379.3
375.402	406.19
375.783	410.71
376.163	426.08
376.544	401.22
376.925	387.21
377.305	406.42
377.686	392.4
378.066	389.47
378.447	393.99
378.827	415
379.208	396.7
379.588	425.17
379.968	409.35
380.349	436.92
380.729	411.61
381.109	444.15
381.489	413.65
381.87	416.59
382.25	412.97
382.63	399.64
383.01	424.95
383.39	413.2
383.77	412.29
384.15	432.63
384.53	459.75
384.91	441.9
385.29	436.92
385.67	444.38
386.049	460.2
386.429	469.92
386.809	470.59
387.189	446.41
387.568	477.6
387.948	461.78
388.328	489.58
388.707	459.97
389.087	485.28
389.466	479.41
389.846	483.25
390.225	478.96
390.605	483.02
390.984	492.97
391.363	495.45
391.743	496.36
392.122	510.59
392.501	509.69
392.881	488.45
393.26	501.78
393.639	530.71
394.018	508.79
394.397	507.66
394.776	501.55
395.155	527.32
395.534	525.73
395.913	535
396.292	518.05
396.671	510.82
397.05	537.26
397.429	531.84
397.808	535.23
398.186	517.6
398.565	543.14
398.944	550.37
399.323	542.46
399.701	567.77
400.08	570.03
400.458	572.51
400.837	559.18
401.215	579.97
401.594	579.52
401.972	575
402.351	594.21
402.729	579.74
403.107	588.11
403.486	584.26
403.864	600.99
404.242	615.45
404.62	615.22
404.999	610.03
405.377	616.35
405.755	617.03
406.133	640.76
406.511	640.08
406.889	651.16
407.267	667.2
407.645	657.03
408.023	676.69
408.401	674.88
408.779	658.16
409.156	660.65
409.534	696.35
409.912	689.35
410.29	706.75
410.667	714.2
411.045	695.67
411.422	704.04
411.8	721.21
412.178	756.46
412.555	730.93
412.933	752.17
413.31	762.34
413.687	777.25
414.065	793.98
414.442	779.51
414.819	798.72
415.197	796.01
415.574	814.99
415.951	830.81
416.328	807.31
416.705	843.24
417.082	833.98
417.46	825.39
417.837	838.49
418.214	848.21
418.591	866.74
418.967	850.25
419.344	861.32
419.721	869
420.098	862
420.475	865.61
420.852	899.06
421.228	911.71
421.605	914.65
421.982	923.01
422.358	921.66
422.735	898.38
423.111	915.78
423.488	952.84
423.864	934.31
424.241	952.62
424.617	979.28
424.994	953.75
425.37	967.53
425.746	982.9
426.123	995.33
426.499	1000.3
426.875	1025.61
427.251	1031.71
427.627	1057.47
428.003	1058.83
428.379	1023.57
428.756	1046.4
429.132	1107.87
429.507	1098.15
429.883	1090.69
430.259	1117.58
430.635	1148.77
431.011	1148.77
431.387	1159.62
431.763	1178.6
432.138	1182.89
432.514	1201.88
432.89	1199.16
433.265	1210.24
433.641	1236
434.016	1246.39
434.392	1281.65
434.767	1291.82
435.143	1277.35
435.518	1290.91
435.894	1305.38
436.269	1303.57
436.644	1351.7
437.02	1326.17
437.395	1356
437.77	1363.9
438.145	1392.83
438.52	1418.82
438.895	1438.03
439.271	1416.56
439.646	1430.8
440.021	1452.49
440.395	1445.03
440.77	1433.28
441.145	1468.99
441.52	1492.49
441.895	1473.51
442.27	1483.9
442.645	1461.08
443.019	1523.67
443.394	1511.02
443.769	1514.18
444.143	1505.37
444.518	1540.17
444.892	1530.45
445.267	1562.77
445.641	1542.88
446.016	1561.87
446.39	1572.49
446.764	1616.1
447.139	1612.03
447.513	1606.84
447.887	1621.75
448.262	1638.7
448.636	1642.77
449.01	1679.6
449.384	1671.02
449.758	1639.15
450.132	1695.65
450.506	1717.34
450.88	1732.03
451.254	1727.29
451.628	1716.44
452.002	1777.23
452.376	1784.46
452.75	1812.48
453.123	1809.99
453.497	1804.57
453.871	1833.5
454.244	1894.74
454.618	1883.44
454.992	1906.72
455.365	1907.17
455.739	1941.97
456.112	1949.88
456.486	1981.29
456.859	2005.92
457.232	2055.41
457.606	2076.43
457.979	2096.54
458.352	2136.09
458.725	2127.95
459.099	2122.53
459.472	2176.09
459.845	2195.52
460.218	2243.43
460.591	2250.89
460.964	2205.69
461.337	2280.26
461.71	2367.95
462.083	2336.76
462.456	2335.86
462.829	2384.22
463.201	2419.7
463.574	2413.59
463.947	2447.49
464.32	2513.48
464.692	2496.08
465.065	2524.78
465.438	2524.33
465.81	2573.59
466.183	2579.92
466.555	2663.98
466.928	2646.13
467.3	2692.91
467.672	2711.89
468.045	2723.19
468.417	2756.64
468.789	2807.26
469.161	2817.2
469.534	2826.69
469.906	2878.44
470.278	2890.64
470.65	2972.9
471.022	2983.75
471.394	3057.65
471.766	3106.23
472.138	3108.04
472.51	3140.81
472.882	3186.91
473.253	3235.49
473.625	3264.87
473.997	3307.58
474.369	3321.37
474.74	3374.25
475.112	3425.55
475.484	3488.59
475.855	3558.2
476.227	3573.79
476.598	3673.45
476.97	3748.02
477.341	3767.91
477.713	3801.81
478.084	3818.3
478.455	3929.49
478.827	3987.34
479.198	4094.23
479.569	4052.42
479.94	4188.24
480.311	4237.05
480.682	4289.48
481.053	4374.22
481.424	4469.81
481.795	4537.38
482.166	4590.94
482.537	4679.07
482.908	4732.4
483.279	4786.64
483.65	4923.59
484.021	5052.4
484.391	5091.26
484.762	5139.62
485.133	5214.65
485.503	5320.18
485.874	5416.23
486.244	5452.61
486.615	5565.6
486.985	5665.03
487.356	5805.6
487.726	5838.36
488.097	5981.41
488.467	5972.15
488.837	6141.86
489.207	6247.62
489.578	6318.35
489.948	6384.56
490.318	6570.32
490.688	6468.4
491.058	6637.21
491.428	6774.84
491.798	6865.68
492.168	7002.63
492.538	7099.35
492.908	7168.95
493.278	7304.54
493.648	7301.15
494.017	7375.05
494.387	7506.79
494.757	7625.44
495.126	7683.51
495.496	7775.04
495.866	7890.51
496.235	7973
496.605	8084.86
496.974	8142.71
497.344	8235.14
497.713	8365.75
498.082	8321.91
498.452	8392.42
498.821	8585.86
499.19	8577.27
499.559	8698.63
499.928	8796.03
500.298	8859.07
500.667	8936.59
501.036	9012.07
501.405	9064.04
501.774	9133.87
502.143	9211.38
502.512	9339.97
502.88	9394.2
503.249	9403.69
503.618	9523.92
503.987	9588.55
504.356	9712.84
504.724	9794.64
505.093	9838.71
505.462	9924.58
505.83	9965.03
506.199	10068.99
506.567	10199.38
506.936	10194.41
507.304	10319.15
507.672	10389.43
508.041	10476.43
508.409	10586.49
508.777	10649.31
509.145	10689.31
509.514	10683.21
509.882	10872.13
510.25	10891.34
510.618	10962.52
510.986	10998.91
511.354	11111.22
511.722	11280.93
512.09	11307.15
512.458	11281.84
512.826	11421.04
513.193	11526.58
513.561	11585.33
513.929	11638.89
514.297	11758.43
514.664	11848.15
515.032	11866.91
515.4	12013.79
515.767	12055.83
516.135	12207.91
516.502	12114.13
516.869	12345.76
517.237	12474.57
517.604	12401.35
517.972	12631.86
518.339	12664.85
518.706	12749.82
519.073	12801.12
519.44	12905.07
519.808	12914.11
520.175	13139.87
520.542	13162.24
520.909	13277.72
521.276	13287.89
521.643	13510.25
522.009	13618.95
522.376	13696.69
522.743	13773.75
523.11	13931.03
523.477	13975.55
523.843	14131.7
524.21	14326.5
524.577	14438.36
524.943	14559.72
525.31	14615.08
525.676	14783.89
526.043	14836.54
526.409	14963.1
526.776	15102.3
527.142	15149.53
527.508	15293.26
527.874	15517.43
528.241	15545
528.607	15646.92
528.973	15778.67
529.339	15784.54
529.705	15957.87
530.071	16159.45
530.437	16185.44
530.803	16309.05
531.169	16478.31
531.535	16463.62
531.901	16608.7
532.267	16692.32
532.632	16807.57
532.998	16859.99
533.364	17068.12
533.73	17116.03
534.095	17253.43
534.461	17248.68
534.826	17417.04
535.192	17439.19
535.557	17592.4
535.923	17634.89
536.288	17693.87
536.653	17848.67
537.019	17894.54
537.384	17939.29
537.749	17987.2
538.114	18080.98
538.479	18113.29
538.845	18219.51
539.21	18187.64
539.575	18415.89
539.94	18403.46
540.305	18514.87
540.67	18478.94
541.034	18611.36
541.399	18648.65
541.764	18711.92
542.129	18728.65
542.494	18853.39
542.858	19058.35
543.223	18841.41
543.587	19093.83
543.952	19160.5
544.316	19147.62
544.681	19160.5
545.045	19380.83
545.41	19445.69
545.774	19396.65
546.138	19400.72
546.503	19526.59
546.867	19583.09
547.231	19764.78
547.595	19706.25
547.959	19884.55
548.324	19851.1
548.688	19838.67
549.052	19816.75
549.416	20008.84
549.779	20010.42
550.143	20029.85
550.507	20233.47
550.871	20353.46
551.235	20210.64
551.599	20456.74
551.962	20553.91
552.326	20582.16
552.689	20644.08
553.053	20546
553.417	20652.66
553.78	20848.36
554.143	20913.22
554.507	20991.41
554.87	20988.47
555.234	21196.38
555.597	21108.24
555.96	21291.06
556.323	21366.09
556.686	21419.87
557.05	21598.85
557.413	21613.77
557.776	21572.64
558.139	21873.87
558.502	21871.39
558.865	21932.4
559.228	22110.93
559.59	22131.72
559.953	22272.06
560.316	22549.34
560.679	22380.53
561.041	22592.5
561.404	22703.91
561.767	22877.92
562.129	22860.51
562.492	23038.14
562.854	23088.98
563.217	23128.08
563.579	23225.25
563.941	23424.12
564.304	23673.6
564.666	23756.31
565.028	23735.75
565.39	23936.87
565.753	24095.51
566.115	24268.39
566.477	24265.45
566.839	24519.91
567.201	24741.14
567.563	24802.84
567.925	24936.39
568.287	24961.48
568.648	24934.13
569.01	25254.35
569.372	25495.7
569.734	25502.25
570.095	25662.02
570.457	25972.75
570.819	25952.64
571.18	25981.11
571.542	26216.13
571.903	26215.45
572.265	26502.68
572.626	26673.52
572.987	26798.94
573.349	27039.84
573.71	27149.22
574.071	27384.69
574.432	27454.07
574.794	27691.8
575.155	27773.61
575.516	27793.49
575.877	28034.16
576.238	27988.97
576.599	28261.95
576.96	28362.29
577.32	28527.03
577.681	28627.82
578.042	28848.38
578.403	29005.89
578.763	29121.59
579.124	29228.48
579.485	29497.18
579.845	29727.68
580.206	29811.52
580.566	29976.03
580.927	30133.77
581.287	30404.27
581.648	30388
582.008	30686.52
582.368	30898.72
582.728	31131.94
583.089	31107.53
583.449	31335.55
583.809	31561.75
584.169	31844.69
584.529	32115.86
584.889	32510.2
585.249	32598.11
585.609	32699.8
585.969	33168.04
586.329	33263.86
586.688	33772.77
587.048	33965.53
587.408	34215.47
587.768	34537.27
588.127	34946.75
588.487	35262
588.846	35811.59
589.206	35738.82
589.565	36254.06
589.925	37005
590.284	37173.13
590.643	37630.07
591.003	37959.33
591.362	38668.01
591.721	38930.37
592.08	39379.63
592.44	39974.19
592.799	40306.84
593.158	40787.05
593.517	41004.9
593.876	41553.81
594.235	41917.87
594.593	42438.98
594.952	42892.53
595.311	43281.22
595.67	43931.6
596.029	44388.31
596.387	44827.85
596.746	45392.8
597.104	45569.52
597.463	46069.17
597.822	46731.53
598.18	46912.31
598.538	47290.15
598.897	48064.37
599.255	48140.3
599.613	49070.67
599.972	49152.25
600.33	49581.85
600.688	49771.45
601.046	50122.85
601.404	50802.83
601.762	50943.62
602.12	51473.77
602.478	51776.14
602.836	51992.18
603.194	52104.04
603.552	52513.97
603.91	52785.15
604.268	53226.95
604.625	53365.7
604.983	53715.75
605.341	53797.1
605.698	54199.13
606.056	54672.79
606.413	54622.84
606.771	55040.69
607.128	55254.01
607.485	55368.13
607.843	55612.42
608.2	55864.39
608.557	56144.16
608.914	56242.69
609.272	56515.68
609.629	56791.83
609.986	56992.72
610.343	57152.95
610.7	57399.04
611.057	57526.72
611.414	57587.74
611.771	57898.24
612.127	58039.25
612.484	58145.46
612.841	58359.47
613.198	58441.05
613.554	58528.96
613.911	58851.88
614.267	58980.92
614.624	59002.62
614.98	59214.59
615.337	59481.7
615.693	59539.1
616.05	59672.2
616.406	59803.95
616.762	59833.1
617.118	60005.98
617.475	60019.99
617.831	60266.54
618.187	60320.09
618.543	60434.67
618.899	60624.04
619.255	60706.53
619.611	60720.31
619.967	60863.81
620.323	60986.29
620.678	60981.09
621.034	61022
621.39	61117.59
621.746	61139.73
622.101	61502.66
622.457	61279.62
622.812	61503.57
623.168	61581.98
623.523	61611.81
623.879	61715.54
624.234	61638.03
624.589	61819.49
624.945	61845.7
625.3	61868.98
625.655	61947.17
626.01	62041.63
626.365	62016.55
626.72	62004.57
627.075	62034.85
627.43	62025.81
627.785	62125.92
628.14	62111.69
628.495	62230.55
628.85	62211.57
629.205	62181.97
629.559	62298.35
629.914	62247.05
630.269	62304
630.623	62193.94
630.978	62169.31
631.332	62341.74
631.687	62360.27
632.041	62240.04
632.396	62303.55
632.75	62298.35
633.104	62361.62
633.459	62238.46
633.813	62266.03
634.167	62200.05
634.521	62259.93
634.875	62286.14
635.229	62265.13
635.583	62166.15
635.937	62223.77
636.291	62156.88
636.645	62205.47
636.999	62092.03
637.352	62199.37
637.706	62063.1
638.06	62164.57
638.413	62119.37
638.767	62049.77
639.121	62063.1
639.474	61985.59
639.828	61961.86
640.181	62002.08
640.534	62094.51
640.888	61972.03
641.241	61883.9
641.594	61871.47
641.947	61941.97
642.301	61854.29
642.654	61910.79
643.007	61859.04
643.36	61933.39
643.713	61907.4
644.066	61969.99
644.419	61802.09
644.771	61539.27
645.124	61370.91
645.477	61313.97
645.83	61268.09
646.182	61231.71
646.535	61187.19
646.888	61246.4
647.24	61132.28
647.593	61247.3
647.945	61156.68
648.298	61053.63
648.65	61039.4
649.002	60872.17
649.355	60830.59
649.707	60806.18
650.059	60812.06
650.411	61080.3
650.763	61254.53
651.115	61568.42
651.467	61457.92
651.819	61494.98
652.171	61410.01
652.523	61356.68
652.875	61372.95
653.227	61281.43
653.578	61489.78
653.93	61334.76
654.282	61283.01
654.633	61256.57
654.985	61285.49
655.337	61279.17
655.688	61237.81
656.039	61318.03
656.391	61082.11
656.742	61122.56
657.094	61090.02
657.445	61181.99
657.796	61204.14
658.147	61087.76
658.498	61119.62
658.849	61159.62
659.2	61019.51
659.551	61017.93
659.902	61192.16
660.253	61018.83
660.604	61078.04
660.955	60975.22
661.306	61066.52
661.656	60971.15
662.007	60981.09
662.358	60989.91
662.708	60940.64
663.059	60950.81
663.409	60828.33
663.76	60915.79
664.11	60951.04
664.461	60964.6
664.811	60985.16
665.161	60833.08
665.511	60860.87
665.862	60869.23
666.212	60907.2
666.562	60900.19
666.912	60914.43
667.262	60756.69
667.612	60833.98
667.962	60782.68
668.312	60762.12
668.662	60888.67
669.011	60856.35
669.361	60797.6
669.711	60884.15
670.06	60793.98
670.41	60741.1
670.76	60678.5
671.109	60787.2
671.459	60731.84
671.808	60726.64
672.157	60808.44
672.507	60627.21
672.856	60648.67
673.205	60744.26
673.554	60704.04
673.904	60655.45
674.253	60815
674.602	60694.77
674.951	60360.32
675.3	60187.89
675.649	60679.18
675.998	60663.59
676.346	60623.36
676.695	60689.35
677.044	60511.05
677.393	60579.52
677.741	60685.73
678.09	60586.3
678.438	60507.21
678.787	60586.75
679.135	60562.12
679.484	60461.79
679.832	60558.73
680.181	60458.62
680.529	60488.9
680.877	60327.78
681.225	60334.11
681.573	60514.89
681.922	60354.22
682.27	60342.47
682.618	60310.6
682.966	60242.58
683.314	60249.36
683.661	60275.8
684.009	60188.8
684.357	60116.48
684.705	60060.89
685.053	60120.33
685.4	59996.04
685.748	59994.91
686.095	59987.9
686.443	59927.34
686.79	59879.65
687.138	59954.68
687.485	59910.61
687.832	59809.37
688.18	59734.8
688.527	59733.9
688.874	59760.79
689.221	59698.42
689.568	59623.39
689.915	59532.09
690.262	59569.83
690.609	59497.52
690.956	59406.67
691.303	59406.22
691.65	59318.09
691.997	59338.43
692.344	59140.24
692.69	59100.92
693.037	59193.12
693.383	59046.91
693.73	59089.84
694.077	58955.16
694.423	58924.88
694.769	58856.4
695.116	58874.26
695.462	58754.71
695.808	58667.93
696.155	58742.28
696.501	58517.88
696.847	58644.43
697.193	58441.95
697.539	58493.25
697.885	58308.17
698.231	58268.4
698.577	58285.57
698.923	58234.73
699.269	58086.93
699.614	58059.36
699.96	57890.55
700.306	57974.17
700.651	57867.96
700.997	57765.81
701.342	57712.03
701.688	57695.76
702.033	57577.57
702.379	57577.79
702.724	57524.69
703.069	57555.65
703.415	57251.25
703.76	57230.46
704.105	57321.76
704.45	57203.79
704.795	57112.72
705.14	57010.13
705.485	57017.58
705.83	56848.1
706.175	56994.76
706.52	56849.68
706.865	56741.21
707.209	56683.81
707.554	56645.39
707.899	56669.34
708.243	56593.41
708.588	56455.79
708.932	56264.61
709.277	56375.34
709.621	56261.67
709.966	56112.75
710.31	56120.21
710.654	55949.36
710.998	56061
711.342	56112.75
711.687	55947.55
712.031	55790.95
712.375	55631.18
712.719	55748.24
713.063	55611.97
713.407	55728.35
713.75	55567.68
714.094	55555.25
714.438	55422.37
714.782	55435.7
715.125	55318.64
715.469	55461.47
715.812	55132.43
716.156	55135.37
716.499	55119.55
716.843	55185.54
717.186	55011.08
717.53	55070.06
717.873	55128.14
718.216	54943.51
718.559	54878.2
718.902	54664.88
719.246	54674.59
719.589	54692.45
719.932	54498.1
720.275	54512.79
720.617	54576.97
720.96	54445.45
721.303	54495.39
721.646	54516.63
721.989	54251.1
722.331	54324.77
722.674	54321.38
723.016	54239.58
723.359	54150.77
723.701	54170.88
724.044	54022.18
724.386	53911
724.729	54022.86
725.071	53988.74
725.413	53916.65
725.755	53878.46
726.097	53783.54
726.439	53598.46
726.782	53727.27
727.124	53771.11
727.465	53707.39
727.807	53506.71
728.149	53574.28
728.491	53462.2
728.833	53499.71
729.175	53425.13
729.516	53322.76
729.858	53301.3
730.199	53375.19
730.541	53269.66
730.882	53229.66
731.224	53248.64
731.565	53178.14
731.906	53144.46
732.248	53205.03
732.589	53022.66
732.93	52957.8
733.271	53017.46
733.612	52986.05
733.953	52999.16
734.294	52839.39
734.635	52829.44
734.976	52910.12
735.317	52688.66
735.658	52687.08
735.999	52614.31
736.339	52500.87
736.68	52652.5
737.021	52647.3
737.361	52402.56
737.702	52690.24
738.042	52404.14
738.383	52371.15
738.723	52497.93
739.063	52382.45
739.404	52455.67
739.744	52333.64
740.084	52242.12
740.424	52282.34
740.764	52181.1
741.104	52316.24
741.444	52066.98
741.784	52004.83
742.124	52085.51
742.464	52031.95
742.804	52012.74
743.143	51923.03
743.483	51917.38
743.823	51753.31
744.162	51798.96
744.502	51868.79
744.841	51596.03
745.181	51793.99
745.52	51534.34
745.86	51612.75
746.199	51625.41
746.538	51623.37
746.877	51619.31
747.216	51541.34
747.556	51454.57
747.895	51481.68
748.234	51328.92
748.573	51316.49
748.911	51247.56
749.25	51284.4
749.589	51140.45
749.928	51190.62
750.267	51225.87
750.605	51041.02
750.944	50964.63
751.283	50945.88
751.621	50931.19
751.96	50841.25
752.298	50743.4
752.636	50790.4
752.975	50602.84
753.313	50559
753.651	50645.77
753.989	50399
754.327	50477.87
754.666	50262.51
755.004	50300.7
755.342	50231.09
755.679	50156.29
756.017	49992
756.355	50097.54
756.693	49859.13
757.031	50026.81
757.368	49849.86
757.706	49692.35
758.044	49595.4
758.381	49611.22
758.719	49458.69
759.056	49415.07
759.394	49256.43
759.731	49111.8
760.068	49011.24
760.405	49042.88
760.743	48844.69
761.08	48912.94
761.417	48644.47
761.754	48563.34
762.091	48530.12
762.428	48399.73
762.765	48216.91
763.102	48242.67
763.438	48046.97
763.775	47738.05
764.112	47859.63
764.449	47858.5
764.785	47565.18
765.122	47422.35
765.458	47265.75
765.795	47203.6
766.131	47222.13
766.467	47021.91
766.804	46736.72
767.14	46571.08
767.476	46412.44
767.812	46360.01
768.148	46323.17
768.485	46186.46
768.821	45815.39
769.157	45844.32
769.492	45720.25
769.828	45685.23
770.164	45409.98
770.5	45203.66
770.836	45283.43
771.171	45058.35
771.507	44865.36
771.842	44724.12
772.178	44619.94
772.513	44480.29
772.849	44383.11
773.184	44213.4
773.519	44106.28
773.855	43875.56
774.19	43756.91
774.525	43610.7
774.86	43578.16
775.195	43517.6
775.53	43361.67
775.865	43060.89
776.2	42848.46
776.535	42572.09
776.87	42475.37
777.205	42215.26
777.539	42188.59
777.874	42272.21
778.209	41907.92
778.543	41838.77
778.878	41580.02
779.212	41635.16
779.547	41419.35
779.881	41425.22
780.215	40952.24
780.55	41248.28
780.884	40803.55
781.218	40733.72
781.552	40830.89
781.886	40619.14
782.22	40334.18
782.554	40102.1
782.888	39744.36
783.222	39741.43
783.556	39661.88
783.889	39438.84
784.223	39170.59
784.557	39161.78
784.89	39185.51
785.224	38922.01
785.557	38763.6
785.891	38615.81
786.224	38624.17
786.558	38569.48
786.891	38275.93
787.224	37962.49
787.557	37937.86
787.891	37834.58
788.224	37667.36
788.557	37681.82
788.89	37510.53
789.223	37385.1
789.556	37118.44
789.888	37110.99
790.221	36781.5
790.554	36690.21
790.887	36727.04
791.219	36539.93
791.552	36520.04
791.884	36386.03
792.217	36276.66
792.549	36014.75
792.882	35712.83
793.214	35645.72
793.546	35664.92
793.879	35467.64
794.211	35216.12
794.543	35541.09
794.875	35244.82
795.207	35214.54
795.539	35045.28
795.871	34935.68
796.203	34863.14
796.535	34678.06
796.867	34668.11
797.198	34443.71
797.53	34291.17
797.862	34159.2
798.193	34250.05
798.525	33968.47
798.856	34080.56
799.188	33673.34
799.519	33540.01
799.85	33462.5
800.182	33495.26
800.513	33611.19
800.844	33114.03
801.175	33250.75
801.506	33211.88
801.837	32876.3
802.168	32863.19
802.499	32866.13
802.83	32705
803.161	32466.36
803.491	32511.79
803.822	32570.54
804.153	32171.23
804.483	32207.84
804.814	32006.26
805.145	32030.22
805.475	31925.14
805.805	31826.38
806.136	31737.34
806.466	31613.5
806.796	31613.05
807.126	31433.4
807.457	31351.82
807.787	31436.56
808.117	31185.49
808.447	31051.26
808.777	31266.17
809.107	30892.62
809.436	30861.66
809.766	30831.15
810.096	30835.67
810.426	30613.31
810.755	30668.9
811.085	30508.22
811.414	30533.31
811.744	30336.48
812.073	30254.67
812.403	30142.81
812.732	30085.64
813.061	30190.27
813.39	29846.77
813.719	29945.98
814.049	29980.55
814.378	29983.04
814.707	29693.1
815.036	29737.17
815.365	29455.6
815.693	29364.07
816.022	29350.97
816.351	29290.85
816.68	29143.29
817.008	29264.41
817.337	28975.83
817.665	28952.56
817.994	28993.46
818.322	29076.4
818.651	28884.54
818.979	28689.97
819.307	28640.02
819.636	28741.26
819.964	28439.35
820.292	28703.07
820.62	28469.18
820.948	28585.34
821.276	28663.53
821.604	28593.25
821.932	28653.81
822.259	28482.97
822.587	28645.45
822.915	28400.48
823.243	28510.99
823.57	28389.86
823.898	28589.18
824.225	28396.64
824.553	28485.45
824.88	28468.28
825.207	28524.09
825.535	28369.07
825.862	28527.26
826.189	28425.57
826.516	28690.87
826.843	28638.67
827.17	28697.65
827.497	28688.61
827.824	28621.49
828.151	28648.61
828.478	28486.13
828.805	28595.05
829.131	28609.06
829.458	28536.3
829.785	28382.18
830.111	28482.06
830.438	28664.88
830.764	28470.31
831.09	28525.45
831.417	28377.88
831.743	28592.34
832.069	28536.75
832.395	28378.79
832.722	28453.59
833.048	28273.71
833.374	28570.42
833.7	28310.09
834.026	28320.26
834.351	28378.34
834.677	28395.51
835.003	28209.3
835.329	28218.57
835.654	28145.12
835.98	28081.62
836.306	28285.91
836.631	28112.58
836.956	28350.31
837.282	28165.01
837.607	28044.56
837.932	28116.2
838.258	27911.91
838.583	27941.29
838.908	27935.41
839.233	27962.08
839.558	27863.55
839.883	27776.77
840.208	27694.96
840.533	27667.39
840.858	27655.87
841.182	27636.66
841.507	27644.8
841.832	27524.57
842.156	27460.17
842.481	27492.71
842.805	27368.19
843.13	27349.89
843.454	27214.98
843.778	27065.83
844.103	27284.35
844.427	27129.33
844.751	27096.79
845.075	27009.33
845.399	26965.04
845.723	26841.88
846.047	26897.24
846.371	26620.19
846.695	26507.2
847.019	26512.17
847.343	26270.82
847.666	26131.62
847.99	26025.18
848.313	25916.48
848.637	25848.23
848.96	25670.84
849.284	25717.84
849.607	25523.5
849.931	25497.96
850.254	25331.64
850.577	25216.61
850.9	25031.08
851.223	25110.17
851.546	25047.58
851.869	24827.92
852.192	24982.49
852.515	24691.88
852.838	24615.72
853.161	24556.97
853.483	24436.74
853.806	24352.9
854.129	24296.18
854.451	24226.58
854.774	24104.55
855.096	24073.14
855.419	23935.06
855.741	23898
856.063	23755.18
856.385	23757.67
856.708	23618.46
857.03	23575.98
857.352	23529.88
857.674	23476.77
857.996	23420.73
858.318	23254.85
858.64	23286.94
858.961	23196.78
859.283	23105.03
859.605	23009.44
859.926	23020.96
860.248	22881.76
860.57	22853.28
860.891	22856
861.212	22686.73
861.534	22626.62
861.855	22646.74
862.176	22634.53
862.498	22562.44
862.819	22481.54
863.14	22448.32
863.461	22447.87
863.782	22348.89
864.103	22350.7
864.424	22259.63
864.745	22336.23
865.065	22132.85
865.386	22028.45
865.707	22251.94
866.027	22049.69
866.348	22042.46
866.668	22038.62
866.989	21854.67
867.309	21875.91
867.63	21754.56
867.95	21884.5
868.27	21670.94
868.59	21739.19
868.91	21604.73
869.23	21647.89
869.55	21530.15
869.87	21646.08
870.19	21548.68
870.51	21534.45
870.83	21437.73
871.15	21451.96
871.469	21345.98
871.789	21513.88
872.109	21311.85
872.428	21261.01
872.748	21242.48
873.067	21244.51
873.386	21260.33
873.706	21137.4
874.025	21025.99
874.344	21080.67
874.663	21022.82
874.982	20994.58
875.301	20916.16
875.62	20888.82
875.939	20780.34
876.258	20877.06
876.577	20824.86
876.896	20777.86
877.214	20739.44
877.533	20814.01
877.852	20655.15
878.17	20652.44
878.489	20768.59
878.807	20621.48
879.125	20613.12
879.444	20543.97
879.762	20450.63
880.08	20512.78
880.398	20278.44
880.716	20489.96
881.034	20349.39
881.352	20337.64
881.67	20207.03
881.988	20175.39
882.306	20118.67
882.624	20193.92
882.941	19984.43
883.259	19979.23
883.577	19897.43
883.894	19930.42
884.212	19884.32
884.529	19812.69
884.846	19823.76
885.164	19726.59
885.481	19682.29
885.798	19718.45
886.115	19640.94
886.432	19679.36
886.75	19476.42
887.067	19448.4
887.383	19462.64
887.7	19428.06
888.017	19313.49
888.334	19274.85
888.651	19289.76
888.967	19225.58
889.284	19164.79
889.6	19099.48
889.917	19050.45
890.233	18991.24
890.55	18907.85
890.866	18945.14
891.182	18800.28
891.498	18732.71
891.815	18715.31
892.131	18630.8
892.447	18650.91
892.763	18614.52
893.079	18527.52
893.395	18440.74
893.71	18352.61
894.026	18321.2
894.342	18349.9
894.657	18084.37
894.973	18090.02
895.289	18185.84
895.604	18061.32
895.92	18039.4
896.235	17965.28
896.55	17825.84
896.865	17802.12
897.181	17868.33
897.496	17785.62
897.811	17680.31
898.126	17589.24
898.441	17550.82
898.756	17511.5
899.071	17356.7
899.386	17418.62
899.7	17242.36
900.015	17163.49
900.33	17005.53
900.644	17034.23
900.959	17066.77
901.273	16975.25
901.588	16894.57
901.902	16833.1
902.216	16830.16
902.531	16690.06
902.845	16743.39
903.159	16467.69
903.473	16477.63
903.787	16350.18
904.101	16424.07
904.415	16450.06
904.729	16317.41
905.042	16193.57
905.356	16191.31
905.67	16196.28
905.984	16082.39
906.297	16049.85
906.611	15919.68
906.924	15962.62
907.237	15840.36
907.551	15777.76
907.864	15716.52
908.177	15686.24
908.491	15612.12
908.804	15605.79
909.117	15463.87
909.43	15262.52
909.743	15222.3
910.056	15269.98
910.368	15123.09
910.681	15215.74
910.994	14972.81
911.307	14981.17
911.619	14894.62
911.932	14880.84
912.244	14743.21
912.557	14751.12
912.869	14585.7
913.181	14611.01
913.494	14534.18
913.806	14530.11
914.118	14457.12
914.43	14367.4
914.742	14336.45
915.054	14160.86
915.366	14121.76
915.678	14110.69
915.99	14113.4
916.302	13911.6
916.613	13937.81
916.925	13999.5
917.236	13885.84
917.548	13768.78
917.859	13754.77
918.171	13664.6
918.482	13564.94
918.794	13621.44
919.105	13569.01
919.416	13395.45
919.727	13432.29
920.038	13404.04
920.349	13196.81
920.66	13273.2
920.971	13165.85
921.282	13173.31
921.593	13076.82
921.903	12979.19
922.214	12971.96
922.525	12845.41
922.835	12883.6
923.146	12752.98
923.456	12684.51
923.767	12654.46
924.077	12604.29
924.387	12564.06
924.697	12532.65
925.008	12515.02
925.318	12409.49
925.628	12397.74
925.938	12382.15
926.248	12141.93
926.558	12138.54
926.867	12159.1
927.177	12048.6
927.487	11981.03
927.796	11895.15
928.106	11904.64
928.416	11850.63
928.725	11813.8
929.034	11809.96
929.344	11766.8
929.653	11742.61
929.962	11675.72
930.271	11590.53
930.581	11543.52
930.89	11515.05
931.199	11413.58
931.508	11374.26
931.817	11342.63
932.125	11325.22
932.434	11244.55
932.743	11138.11
933.051	11054.5
933.36	11081.84
933.669	10932.24
933.977	10980.6
934.286	10909.64
934.594	10820.38
934.902	10834.16
935.21	10801.17
935.519	10706.03
935.827	10759.14
936.135	10662.42
936.443	10615.41
936.751	10535.19
937.059	10514.85
937.367	10354.63
937.674	10431.46
937.982	10410.67
938.29	10315.76
938.597	10257.91
938.905	10263.78
939.213	10195.76
939.52	10047.74
939.827	10137.01
940.135	10102.21
940.442	10020.63
940.749	9967.29
941.056	10013.17
941.363	9921.19
941.67	9836.45
941.977	9725.27
942.284	9780.86
942.591	9766.4
942.898	9699.5
943.205	9619.73
943.511	9549.23
943.818	9494.54
944.125	9473.52
944.431	9412.28
944.738	9392.85
945.044	9430.13
945.35	9343.81
945.657	9282.34
945.963	9253.19
946.269	9182.46
946.575	9191.72
946.881	9102.46
947.187	9171.16
947.493	9054.78
947.799	9045.51
948.105	8947.43
948.41	8908.79
948.716	8871.96
949.022	8832.86
949.327	8829.02
949.633	8775.69
949.938	8727.55
950.244	8732.07
950.549	8624.5
950.854	8560.33
951.16	8518.97
951.465	8524.39
951.77	8540.21
952.075	8460.89
952.38	8414.79
952.685	8395.81
952.99	8274.46
953.294	8382.7
953.599	8255.7
953.904	8189.49
954.209	8174.12
954.513	8157.4
954.818	8047.12
955.122	8072.88
955.426	8075.14
955.731	7998.98
956.035	7994.01
956.339	7929.16
956.643	7895.26
956.948	7918.53
957.252	7809.61
957.556	7827.46
957.86	7714.25
958.163	7787.92
958.467	7721.93
958.771	7671.31
959.075	7693.91
959.378	7557.87
959.682	7550.18
959.985	7473.57
960.289	7435.61
960.592	7452.33
960.896	7434.03
961.199	7406.01
961.502	7377.31
961.805	7372.79
962.108	7286.46
962.411	7261.83
962.714	7175.96
963.017	7103.41
963.32	7162.4
963.623	7126.92
963.926	7109.97
964.228	7067.71
964.531	7079.46
964.833	7019.35
965.136	6924.66
965.438	6947.03
965.741	6922.18
966.043	6889.64
966.345	6824.55
966.648	6805.8
966.95	6770.09
967.252	6742.52
967.554	6726.25
967.856	6697.78
968.158	6667.72
968.46	6640.38
968.761	6597.44
969.063	6596.08
969.365	6574.39
969.666	6520.38
969.968	6457.56
970.269	6380.04
970.571	6427.5
970.872	6385.92
971.174	6306.15
971.475	6308.18
971.776	6249.88
972.077	6267.28
972.378	6252.36
972.679	6235.42
972.98	6185.92
973.281	6134.17
973.582	6103.44
973.883	6094.85
974.183	6058.02
974.484	6053.95
974.785	5990
975.085	5979.83
975.386	5971.24
975.686	5907.74
975.986	5903.45
976.287	5887.85
976.587	5825.03
976.887	5821.19
977.187	5790.68
977.487	5729.67
977.787	5759.04
978.087	5752.49
978.387	5657.13
978.687	5654.41
978.987	5607.18
979.286	5582.55
979.586	5634.98
979.885	5591.36
980.185	5533.74
980.484	5462.55
980.784	5444.02
981.083	5406.96
981.382	5426.17
981.682	5396.34
981.981	5392.73
982.28	5325.83
982.579	5338.49
982.878	5296.23
983.177	5259.4
983.475	5290.13
983.774	5202.9
984.073	5163.58
984.372	5184.6
984.67	5129.46
984.969	5126.29
985.267	5084.71
985.566	5110.02
985.864	5011.72
986.162	5027.99
986.461	4981.89
986.759	4971.04
987.057	4926.52
987.355	4901.44
987.653	4880.42
987.951	4873.19
988.249	4842.01
988.547	4836.58
988.844	4820.54
989.142	4825.96
989.44	4737.15
989.737	4716.13
990.035	4707.55
990.332	4682.01
990.63	4707.55
990.927	4684.72
991.224	4664.38
991.521	4605.63
991.819	4567.89
992.116	4549.36
992.413	4542.8
992.71	4504.39
993.006	4515.69
993.303	4491.51
993.6	4489.02
993.897	4444.5
994.193	4409.02
994.49	4331.06
994.787	4336.26
995.083	4350.04
995.379	4307.33
995.676	4304.62
995.972	4285.86
996.268	4254.68
996.565	4204.06
996.861	4172.87
997.157	4138.52
997.453	4155.92
997.749	4123.61
998.044	4056.49
998.34	4106.66
998.636	4061.91
998.932	4077.96
999.227	4028.92
999.523	3968.36
999.818	3962.03
1000.114	3970.39
1000.409	3942.14
1000.704	3896.95
1001	3960.22
1001.295	3871.18
1001.59	3839.55
1001.885	3844.07
1002.18	3785.08
1002.475	3777.85
1002.77	3796.16
1003.065	3685.43
1003.359	3705.09
1003.654	3664.41
1003.949	3642.04
1004.243	3616.05
1004.538	3653.34
1004.832	3593
1005.127	3531.31
1005.421	3571.53
1005.715	3545.99
1006.009	3501.25
1006.304	3501.02
1006.598	3481.59
1006.892	3467.8
1007.186	3456.05
1007.48	3435.49
1007.773	3359.78
1008.067	3397.3
1008.361	3329.5
1008.655	3364.53
1008.948	3303.51
1009.242	3288.37
1009.535	3329.28
1009.829	3283.85
1010.122	3190.52
1010.415	3235.95
1010.708	3161.82
1011.001	3155.27
1011.295	3131.32
1011.588	3151.2
1011.881	3117.08
1012.173	3104.42
1012.466	3071.66
1012.759	3105.33
1013.052	3026.46
1013.344	2995.5
1013.637	2999.34
1013.93	2931.32
1014.222	2961.6
1014.514	2948.04
1014.807	2915.28
1015.099	2886.8
1015.391	2882.28
1015.683	2882.51
1015.976	2847.71
1016.268	2850.19
1016.56	2801.38
1016.851	2813.58
1017.143	2774.04
1017.435	2768.16
1017.727	2723.64
1018.018	2686.58
1018.31	2720.03
1018.602	2657.2
1018.893	2643.87
1019.185	2643.42
1019.476	2624.21
1019.767	2616.08
1020.058	2603.42
1020.35	2558.22
1020.641	2552.57
1020.932	2496.76
1021.223	2527.04
1021.514	2527.49
1021.804	2484.55
1022.095	2434.84
1022.386	2491.78
1022.677	2432.35
1022.967	2410.43
1023.258	2379.25
1023.548	2362.52
1023.839	2368.4
1024.129	2349.19
1024.419	2336.31
1024.709	2317.33
1025	2288.63
1025.29	2277.55
1025.58	2235.52
1025.87	2256.08
1026.16	2214.28
1026.449	2221.51
1026.739	2181.51
1027.029	2168.63
1027.319	2165.24
1027.608	2144.45
1027.898	2121.63
1028.187	2106.48
1028.477	2113.26
1028.766	2064.45
1029.055	2078.24
1029.344	2063.55
1029.634	2061.74
1029.923	2024.45
1030.212	2005.7
1030.501	1994.62
1030.79	1991.68
1031.078	1974.96
1031.367	1936.09
1031.656	1949.65
1031.945	1915.3
1032.233	1910.33
1032.522	1904.46
1032.81	1889.09
1033.099	1825.81
1033.387	1856.1
1033.675	1818.36
1033.963	1829.88
1034.251	1809.09
1034.54	1786.49
1034.828	1771.58
1035.116	1769.09
1035.403	1771.35
1035.691	1739.49
1035.979	1707.4
1036.267	1700.62
1036.554	1720.51
1036.842	1699.94
1037.129	1689.55
1037.417	1690.68
1037.704	1670.56
1037.992	1651.35
1038.279	1618.81
1038.566	1632.37
1038.853	1632.37
1039.14	1632.37
