Data from 17-1456_FLMS001491_002.txt Node
Date: Thu Apr 19 16:30:30 BST 2018
User: hsy
Spectrometer: FLMS00149
Trigger mode: 0
Integration Time (sec): 1.000000E-2
Scans to average: 10
Electric dark correction enabled: true
Nonlinearity correction enabled: false
Boxcar width: 0
XAxis mode: Wavelengths
Number of Pixels in Spectrum: 2048
>>>>>Begin Spectral Data<<<<<
341.393	-18.84
341.776	-18.84
342.16	-18.84
342.543	-56.58
342.927	-71.27
343.31	-85.96
343.693	-67.88
344.077	-44.83
344.46	-67.88
344.843	-65.17
345.226	-41.44
345.61	-32.85
345.993	-5.73
346.376	1.05
346.759	12.34
347.142	31.55
347.525	36.07
347.908	43.53
348.291	83.53
348.674	98.9
349.057	104.77
349.44	126.92
349.823	156.75
350.206	166.92
350.588	231.55
350.971	253.24
351.354	266.57
351.737	281.49
352.119	295.05
352.502	314.71
352.884	310.42
353.267	327.14
353.65	344.54
354.032	339.57
354.414	345.44
354.797	346.12
355.179	356.06
355.562	364.43
355.944	359.91
356.326	379.11
356.709	387.25
357.091	379.57
357.473	395.61
357.855	366.91
358.238	380.47
358.62	404.2
359.002	370.3
359.384	376.18
359.766	374.82
360.148	413.69
360.53	396.51
360.912	389.28
361.294	393.58
361.676	374.59
362.057	374.59
362.439	381.6
362.821	367.14
363.203	365.78
363.584	387.93
363.966	393.58
364.348	364.88
364.729	389.51
365.111	383.41
365.493	367.14
365.874	386.57
366.256	377.76
366.637	370.08
367.019	371.43
367.4	371.2
367.781	363.97
368.163	395.39
368.544	370.98
368.925	382.28
369.306	399
369.688	376.63
370.069	382.05
370.45	371.66
370.831	375.72
371.212	372.56
371.593	379.79
371.974	399.9
372.355	379.79
372.736	398.55
373.117	397.87
373.498	377.98
373.879	371.88
374.26	372.56
374.641	386.57
375.021	378.44
375.402	404.65
375.783	403.75
376.163	413.24
376.544	412.56
376.925	402.39
377.305	404.65
377.686	403.07
378.066	416.4
378.447	420.47
378.827	410.98
379.208	409.4
379.588	400.36
379.968	410.75
380.349	410.53
380.729	408.49
381.109	414.14
381.489	416.4
381.87	424.31
382.25	418.44
382.63	400.81
383.01	432.9
383.39	446.23
383.77	421.6
384.15	441.49
384.53	429.73
384.91	439
385.29	441.49
385.67	449.17
386.049	455.95
386.429	447.81
386.809	464.08
387.189	462.95
387.568	462.5
387.948	471.09
388.328	471.54
388.707	494.59
389.087	479.45
389.466	453.46
389.846	479
390.225	478.09
390.605	518.09
390.984	514.03
391.363	482.16
391.743	500.47
392.122	494.82
392.501	520.13
392.881	524.87
393.26	478.32
393.639	506.57
394.018	525.55
394.397	516.29
394.776	512.44
395.155	525.55
395.534	513.57
395.913	536.17
396.292	527.13
396.671	530.07
397.05	529.62
397.429	531.2
397.808	530.07
398.186	538.88
398.565	548.15
398.944	556.28
399.323	558.77
399.701	570.75
400.08	568.94
400.458	571.43
400.837	560.8
401.215	590.63
401.594	605.78
401.972	602.39
402.351	594.93
402.729	585.66
403.107	603.74
403.486	604.19
403.864	601.03
404.242	606.68
404.62	627.47
404.999	616.17
405.377	632.44
405.755	645.77
406.133	636.28
406.511	627.92
406.889	633.8
407.267	683.29
407.645	648.94
408.023	659.78
408.401	708.6
408.779	679.22
409.156	685.55
409.534	712.21
409.912	693.68
410.29	711.31
410.667	730.97
411.045	719.67
411.422	737.97
411.8	735.04
412.178	733
412.555	749.95
412.933	750.4
413.31	749.95
413.687	761.03
414.065	765.77
414.442	769.84
414.819	779.56
415.197	793.79
415.574	792.21
415.951	811.87
416.328	790.63
416.705	838.31
417.082	815.26
417.46	836.5
417.837	880.34
418.214	872.66
418.591	874.92
418.967	861.59
419.344	902.72
419.721	883.06
420.098	881.7
420.475	872.89
420.852	907.24
421.228	903.85
421.605	921.25
421.982	923.51
422.358	923.73
422.735	928.25
423.111	950.4
423.488	946.33
423.864	963.73
424.241	968.25
424.617	983.39
424.994	970.74
425.37	985.43
425.746	986.33
426.123	1018.19
426.499	1015.48
426.875	1013.22
427.251	1028.36
427.627	1050.96
428.003	1048.02
428.379	1081.24
428.756	1066.1
429.132	1091.64
429.507	1114.01
429.883	1120.34
430.259	1137.51
430.635	1142.94
431.011	1164.86
431.387	1161.69
431.763	1187.23
432.138	1196.04
432.514	1178.87
432.89	1206.21
433.265	1221.35
433.641	1232.43
434.016	1248.47
434.392	1276.27
434.767	1287.79
435.143	1261.58
435.518	1318.98
435.894	1342.48
436.269	1330.95
436.644	1340.44
437.02	1357.85
437.395	1362.82
437.77	1379.99
438.145	1408.24
438.52	1393.1
438.895	1420.89
439.271	1399.88
439.646	1424.28
440.021	1441.69
440.395	1449.82
440.77	1445.75
441.145	1446.2
441.52	1500.89
441.895	1497.05
442.27	1514.68
442.645	1490.72
443.019	1519.65
443.394	1495.02
443.769	1558.52
444.143	1544.28
444.518	1578.86
444.892	1553.09
445.267	1541.12
445.641	1568.46
446.016	1576.14
446.39	1602.81
446.764	1612.08
447.139	1614.56
447.513	1602.81
447.887	1594.9
448.262	1625.64
448.636	1620.89
449.01	1681.9
449.384	1703.83
449.758	1694.79
450.132	1707.21
450.506	1712.19
450.88	1744.28
451.254	1733.65
451.628	1756.48
452.002	1786.99
452.376	1783.15
452.75	1789.47
453.123	1823.6
453.497	1791.96
453.871	1863.82
454.244	1891.84
454.618	1891.62
454.992	1923.25
455.365	1938.85
455.739	1985.85
456.112	1977.72
456.486	1968.9
456.859	2027.43
457.232	2066.53
457.606	2056.81
457.979	2101.33
458.352	2090.26
458.725	2160.99
459.099	2176.81
459.472	2184.04
459.845	2228.56
460.218	2223.81
460.591	2255.9
460.964	2268.78
461.337	2322.11
461.71	2337.25
462.083	2385.62
462.456	2372.73
462.829	2386.52
463.201	2431.26
463.574	2433.3
463.947	2445.27
464.32	2494.54
464.692	2502.67
465.065	2531.37
465.438	2590.36
465.81	2584.93
466.183	2608.89
466.555	2680.75
466.928	2655.89
467.3	2669.22
467.672	2704.25
468.045	2768.43
468.417	2807.53
468.789	2798.94
469.161	2829.67
469.534	2871.03
469.906	2926.84
470.278	2929.78
470.65	2953.06
471.022	2981.08
471.394	3035.77
471.766	3080.51
472.138	3113.96
472.51	3186.27
472.882	3216.33
473.253	3238.02
473.625	3310.56
473.997	3327.29
474.369	3388.98
474.74	3408.64
475.112	3468.75
475.484	3504.68
475.855	3528.41
476.227	3627.39
476.598	3696.09
476.97	3703.09
477.341	3773.15
477.713	3860.38
478.084	3871.9
478.455	3974.73
478.827	3998.68
479.198	4107.83
479.569	4135.17
479.94	4246.58
480.311	4258.33
480.682	4364.55
481.053	4441.61
481.424	4531.55
481.795	4562.06
482.166	4636.4
482.537	4719.79
482.908	4818.32
483.279	4880.24
483.65	4985.55
484.021	5051.99
484.391	5110.29
484.762	5135.83
485.133	5214.02
485.503	5309.38
485.874	5406.1
486.244	5492.88
486.615	5636.38
486.985	5683.38
487.356	5806.32
487.726	5868.24
488.097	5996.82
488.467	6011.96
488.837	6172.18
489.207	6206.53
489.578	6348.9
489.948	6396.58
490.318	6566.07
490.688	6555.45
491.058	6722
491.428	6778.27
491.798	6877.02
492.168	7007.19
492.538	7061.88
492.908	7158.37
493.278	7222.1
493.648	7350
494.017	7427.06
494.387	7550.45
494.757	7619.38
495.126	7684.91
495.496	7771.69
495.866	7886.71
496.235	7990.44
496.605	8080.15
496.974	8114.73
497.344	8245.12
497.713	8324.89
498.082	8377.77
498.452	8474.49
498.821	8581.38
499.19	8636.07
499.559	8705
499.928	8770.08
500.298	8898.21
500.667	9009.17
501.036	9056.63
501.405	9091.43
501.774	9137.98
502.143	9264.08
502.512	9317.86
502.88	9403.06
503.249	9397.86
503.618	9538.87
503.987	9586.33
504.356	9761.47
504.724	9714.24
505.093	9795.14
505.462	9923.04
505.83	9932.54
506.199	10077.39
506.567	10144.96
506.936	10238.52
507.304	10318.51
507.672	10437.15
508.041	10494.78
508.409	10536.59
508.777	10647.77
509.145	10766.19
509.514	10803.92
509.882	10853.87
510.25	10839.4
510.618	10951.49
510.986	11055.67
511.354	11148.1
511.722	11166.63
512.09	11320.97
512.458	11316.91
512.826	11474.87
513.193	11542.66
513.561	11499.95
513.929	11647.52
514.297	11756.22
514.664	11803.9
515.032	11858.13
515.4	12002.99
515.767	12044.57
516.135	12152.82
516.502	12103.78
516.869	12347.16
517.237	12395.75
517.604	12380.38
517.972	12500.83
518.339	12631.45
518.706	12737.89
519.073	12756.42
519.44	12738.11
519.808	13034.6
520.175	13075.28
520.542	13175.84
520.909	13264.65
521.276	13313.69
521.643	13502.39
522.009	13489.28
522.376	13694.24
522.743	13738.99
523.11	13922.26
523.477	14027.57
523.843	14078.42
524.21	14330.84
524.577	14393.66
524.943	14467.56
525.31	14576.93
525.676	14794.55
526.043	14842.46
526.409	15033.42
526.776	15099.63
527.142	15089.01
527.508	15290.36
527.874	15423.92
528.241	15569
528.607	15620.52
528.973	15836.79
529.339	15762.44
529.705	16035.43
530.071	16213.73
530.437	16292.82
530.803	16395.64
531.169	16567.62
531.535	16499.14
531.901	16585.69
532.267	16731.68
532.632	16844.67
532.998	16904.33
533.364	17050.09
533.73	16988.85
534.095	17275.17
534.461	17296.64
534.826	17379.35
535.192	17435.61
535.557	17643.97
535.923	17727.58
536.288	17787.92
536.653	17787.7
537.019	17873.12
537.384	18060.46
537.749	17966.45
538.114	18068.14
538.479	18127.57
538.845	18236.72
539.21	18257.97
539.575	18348.59
539.94	18471.07
540.305	18577.05
540.67	18500.9
541.034	18624.96
541.399	18617.96
541.764	18798.97
542.129	18882.36
542.494	18829.48
542.858	19030.38
543.223	19010.49
543.587	19157.6
543.952	19131.39
544.316	19167.09
544.681	19223.82
545.045	19284.83
545.41	19429.46
545.774	19321.67
546.138	19473.08
546.503	19609.57
546.867	19664.93
547.231	19798.72
547.595	19798.26
547.959	19917.81
548.324	19982.21
548.688	20011.14
549.052	19963.46
549.416	20005.49
549.779	20106.73
550.143	20164.58
550.507	20260.17
550.871	20301.3
551.235	20321.41
551.599	20519.15
551.962	20532.03
552.326	20605.25
552.689	20686.6
553.053	20639.6
553.417	20762.53
553.78	21062.19
554.143	21002.07
554.507	21004.33
554.87	21194.16
555.234	21364.55
555.597	21271.45
555.96	21293.14
556.323	21354.83
556.686	21433.48
557.05	21665.79
557.413	21669.18
557.776	21642.51
558.139	21883.18
558.502	21949.85
558.865	21977.87
559.228	22210.4
559.59	22202.27
559.953	22236.39
560.316	22475.26
560.679	22560.45
561.041	22779.43
561.404	22774.46
561.767	22944.4
562.129	22935.81
562.492	23129.7
562.854	23153.66
563.217	23311.39
563.579	23249.02
563.941	23502.57
564.304	23633.87
564.666	23746.41
565.028	23819.63
565.39	23885.16
565.753	24158.6
566.115	24199.5
566.477	24361.31
566.839	24575.54
567.201	24780.73
567.563	24768.3
567.925	24907.28
568.287	25055.53
568.648	25098.69
569.01	25290.32
569.372	25463.65
569.734	25467.04
570.095	25726.24
570.457	26020.47
570.819	26024.99
571.18	26061.6
571.542	26328.26
571.903	26327.81
572.265	26610.06
572.626	26737.52
572.987	26759.21
573.349	26943.39
573.71	27172.53
574.071	27188.13
574.432	27509.93
574.794	27645.97
575.155	27736.59
575.516	27743.14
575.877	27912.85
576.238	28141.55
576.599	28247.76
576.96	28375.89
577.32	28474.19
577.681	28634.64
578.042	28845.94
578.403	28942.43
578.763	29099.94
579.124	29240.28
579.485	29517.33
579.845	29522.75
580.206	29723.2
580.566	29819.02
580.927	30045.9
581.287	30120.03
581.648	30205.9
582.008	30644.53
582.368	30715.72
582.728	30913.68
583.089	31047.01
583.449	31213.11
583.809	31463.72
584.169	31826.42
584.529	31798.18
584.889	32471.15
585.249	32299.63
585.609	32474.54
585.969	33104.13
586.329	32950.91
586.688	33480.39
587.048	33765.13
587.408	34019.81
587.768	34300.71
588.127	34714.71
588.487	35058.65
588.846	35656.6
589.206	35539.32
589.565	35956.03
589.925	36626.07
590.284	36937.7
590.643	37235.09
591.003	37825.59
591.362	38246.37
591.721	38618.11
592.08	39069.4
592.44	39638.87
592.799	39854.23
593.158	40152.08
593.517	40653.08
593.876	41232.96
594.235	41526.06
594.593	41968.3
594.952	42540.04
595.311	42910.88
595.67	43518.32
596.029	44097.74
596.387	44562.13
596.746	45120.99
597.104	45117.6
597.463	45527.53
597.822	46293.84
598.18	46475.08
598.538	47054.95
598.897	47677.31
599.255	47767.92
599.613	48496.72
599.972	48622.37
600.33	49105.52
600.688	49442.68
601.046	49960.86
601.404	50386.39
601.762	50599.49
602.12	51059.36
602.478	51312.01
602.836	51720.14
603.194	51801.04
603.552	52057.08
603.91	52334.58
604.268	52677.63
604.625	53015.92
604.983	53314.9
605.341	53447.1
605.698	53825.39
606.056	54147.87
606.413	54350.35
606.771	54665.6
607.128	54910.34
607.485	54996.89
607.843	55216.54
608.2	55570.66
608.557	55857.88
608.914	55962.51
609.272	56264.65
609.629	56513.01
609.986	56738.99
610.343	56799.78
610.7	57170.62
611.057	57268.92
611.414	57298.07
611.771	57667.78
612.127	57824.16
612.484	57937.6
612.841	58166.52
613.198	58202
613.554	58289
613.911	58547.53
614.267	58708.65
614.624	58864.36
614.98	59097.57
615.337	59297.11
615.693	59297.34
616.05	59421.63
616.406	59634.05
616.762	59665.01
617.118	59776.2
617.475	59847.61
617.831	60001.95
618.187	60189.52
618.543	60245.11
618.899	60386.8
619.255	60443.3
619.611	60537.98
619.967	60730.75
620.323	60838.09
620.678	60788.15
621.034	60819.11
621.39	60945.88
621.746	60915.83
622.101	61258.87
622.457	61074.92
622.812	61269.72
623.168	61352.88
623.523	61396.27
623.879	61517.39
624.234	61406.89
624.589	61598.52
624.945	61609.37
625.3	61730.04
625.655	61764.84
626.01	61794.22
626.365	61869.7
626.72	61839.87
627.075	61881.9
627.43	61882.13
627.785	61964.39
628.14	61969.13
628.495	62027.89
628.85	62090.26
629.205	62050.49
629.559	62161.22
629.914	62113.99
630.269	62120.99
630.623	62041.22
630.978	62043.48
631.332	62195.34
631.687	62238.73
632.041	62202.35
632.396	62179.75
632.75	62098.85
633.104	62238.28
633.459	62039.41
633.813	62179.98
634.167	62095.91
634.521	62171.39
634.875	62149.24
635.229	62125.06
635.583	62054.1
635.937	62044.84
636.291	62054.55
636.645	62035.57
636.999	61923.26
637.352	62108.56
637.706	61890.04
638.06	61983.37
638.413	61943.37
638.767	61907.44
639.121	61922.58
639.474	61889.81
639.828	61903.6
640.181	61901.34
640.534	61888.68
640.888	61787.9
641.241	61705.19
641.594	61776.6
641.947	61866.76
642.301	61763.71
642.654	61794.45
643.007	61729.14
643.36	61746.77
643.713	61695.47
644.066	61826.09
644.419	61638.97
644.771	61410.28
645.124	61211.19
645.477	61180.68
645.83	61036.5
646.182	61054.36
646.535	61032.21
646.888	61078.76
647.24	60974.36
647.593	61128.93
647.945	61003.96
648.298	60908.82
648.65	60799.67
649.002	60725.1
649.355	60707.92
649.707	60676.51
650.059	60671.54
650.411	60945.43
650.763	61070.63
651.115	61395.59
651.467	61273.78
651.819	61298.42
652.171	61224.29
652.523	61082.15
652.875	61152.88
653.227	61117.4
653.578	61280.11
653.93	61160.34
654.282	61049.38
654.633	61032.66
654.985	61065.43
655.337	61085.77
655.688	61063.85
656.039	61180.68
656.391	60886.22
656.742	60967.8
657.094	60973.91
657.445	61029.5
657.796	60991.08
658.147	60918.77
658.498	61017.52
658.849	61008.48
659.2	60921.48
659.551	60875.15
659.902	61017.07
660.253	60848.94
660.604	60919.44
660.955	60836.51
661.306	60904.53
661.656	60814.36
662.007	60861.82
662.358	60861.82
662.708	60862.95
663.059	60818.43
663.409	60686.68
663.76	60814.59
664.11	60785.89
664.461	60773.68
664.811	60812.1
665.161	60800.58
665.511	60690.07
665.862	60814.59
666.212	60761.93
666.562	60747.92
666.912	60730.97
667.262	60588.15
667.612	60684.42
667.962	60747.47
668.312	60630.19
668.662	60761.03
669.011	60770.75
669.361	60647.59
669.711	60709.28
670.06	60708.15
670.41	60697.3
670.76	60605.78
671.109	60650.75
671.459	60650.52
671.808	60612.56
672.157	60654.82
672.507	60544.54
672.856	60503.41
673.205	60575.5
673.554	60616.85
673.904	60509.74
674.253	60661.82
674.602	60501.83
674.951	60231.33
675.3	60061.39
675.649	60546.8
675.998	60528.04
676.346	60520.13
676.695	60605.55
677.044	60390.42
677.393	60434.26
677.741	60570.75
678.09	60506.8
678.438	60399.68
678.787	60439.91
679.135	60413.02
679.484	60290.76
679.832	60379.8
680.181	60290.53
680.529	60321.27
680.877	60217.31
681.225	60268.61
681.573	60427.25
681.922	60280.82
682.27	60212.34
682.618	60225.68
682.966	60114.27
683.314	60156.75
683.661	60140.03
684.009	60015.51
684.357	59968.51
684.705	59938.45
685.053	59986.59
685.4	59828.85
685.748	59824.56
686.095	59848.06
686.443	59737.78
686.79	59748.63
687.138	59801.28
687.485	59744.79
687.832	59683.32
688.18	59627.5
688.527	59516.77
688.874	59543.43
689.221	59590.89
689.568	59407.84
689.915	59362.2
690.262	59432.48
690.609	59389.31
690.956	59265.25
691.303	59265.02
691.65	59157.91
691.997	59165.14
692.344	59076.78
692.69	59013.96
693.037	59005.37
693.383	58858.48
693.73	58912.49
694.077	58770.57
694.423	58818.26
694.769	58726.28
695.116	58688.32
695.462	58605.61
695.808	58572.61
696.155	58649.45
696.501	58367.87
696.847	58485.16
697.193	58253.75
697.539	58317.48
697.885	58163.13
698.231	58078.39
698.577	58052.4
698.923	58013.08
699.269	57912.52
699.614	57803.82
699.96	57729.7
700.306	57774.44
700.651	57591.85
700.997	57580.77
701.342	57524.96
701.688	57537.16
702.033	57362.02
702.379	57430.72
702.724	57298.75
703.069	57298.97
703.415	57034.35
703.76	57034.8
704.105	57048.81
704.45	56949.15
704.795	56888.14
705.14	56781.02
705.485	56826.22
705.83	56640.23
706.175	56826.22
706.52	56706.22
706.865	56518.66
707.209	56433.23
707.554	56496.06
707.899	56434.36
708.243	56355.5
708.588	56274.37
708.932	56112.34
709.277	56165.67
709.621	56063.98
709.966	55890.2
710.31	55965.68
710.654	55843.19
710.998	55817.2
711.342	55844.77
711.687	55734.72
712.031	55558
712.375	55446.82
712.719	55473.94
713.063	55506.7
713.407	55580.6
713.75	55391
714.094	55380.83
714.438	55231.46
714.782	55282.76
715.125	55104.46
715.469	55205.92
715.812	54988.75
716.156	54902.65
716.499	54896.78
716.843	54955.76
717.186	54759.83
717.53	54965.48
717.873	54795.08
718.216	54725.03
718.559	54689.32
718.902	54421.76
719.246	54486.17
719.589	54439.39
719.932	54338.6
720.275	54328.88
720.617	54302.89
720.96	54238.04
721.303	54316.45
721.646	54273.52
721.989	54003.24
722.331	54127.98
722.674	54014.09
723.016	54074.65
723.359	53955.33
723.701	54031.26
724.044	53836.24
724.386	53749.01
724.729	53832.17
725.071	53824.94
725.413	53710.82
725.755	53683.93
726.097	53584.04
726.439	53453.88
726.782	53465.85
727.124	53546.53
727.465	53423.6
727.807	53384.27
728.149	53394.22
728.491	53198.74
728.833	53352.86
729.175	53280.32
729.516	53106.09
729.858	53076.94
730.199	53208.01
730.541	53118.07
730.882	53015.02
731.224	52998.3
731.565	52962.36
731.906	52971.4
732.248	53009.37
732.589	52713.11
732.93	52748.58
733.271	52737.06
733.612	52681.02
733.953	52758.98
734.294	52670.85
734.635	52541.81
734.976	52675.59
735.317	52511.3
735.658	52573.9
735.999	52410.06
736.339	52437.63
736.68	52439.21
737.021	52444.19
737.361	52265.43
737.702	52434.69
738.042	52290.29
738.383	52293.68
738.723	52357.41
739.063	52195.38
739.404	52280.8
739.744	52121.71
740.084	52014.14
740.424	52090.75
740.764	52014.59
741.104	52177.07
741.444	51941.15
741.784	51876.74
742.124	51957.42
742.464	51832.9
742.804	51702.06
743.143	51653.25
743.483	51666.58
743.823	51559.69
744.162	51582.74
744.502	51711.78
744.841	51396.98
745.181	51615.73
745.52	51315.4
745.86	51514.27
746.199	51318.79
746.538	51312.46
746.877	51432.91
747.216	51194.28
747.556	51314.27
747.895	51314.95
748.234	51141.62
748.573	51082.19
748.911	51047.61
749.25	51000.61
749.589	50835.64
749.928	50897.33
750.267	50833.61
750.605	50735.3
750.944	50647.62
751.283	50497.57
751.621	50612.37
751.96	50395.43
752.298	50372.83
752.636	50368.31
752.975	50347.97
753.313	50227.07
753.651	50349.33
753.989	50187.3
754.327	50178.48
754.666	49815.33
755.004	50039.28
755.342	49940.75
755.679	49845.61
756.017	49642.68
756.355	49844.71
756.693	49678.61
757.031	49780.08
757.368	49459.63
757.706	49556.8
758.044	49356.36
758.381	49216.47
758.719	49179.41
759.056	49237.94
759.394	48840.66
759.731	48729.03
760.068	48687.9
760.405	48725.41
760.743	48535.36
761.08	48489.49
761.417	48359.55
761.754	48196.39
762.091	48265.99
762.428	48008.37
762.765	47928.15
763.102	47973.34
763.438	47791.43
763.775	47477.76
764.112	47568.61
764.449	47438.67
764.785	47333.81
765.122	47181.73
765.458	47070.99
765.795	47051.33
766.131	46901.73
766.467	46767.05
766.804	46565.7
767.14	46363.22
767.476	46296.55
767.812	46200.28
768.148	46136.33
768.485	46133.84
768.821	45775.21
769.157	45582.9
769.492	45562.33
769.828	45567.53
770.164	45137.49
770.5	45104.04
770.836	45121.44
771.171	44909.69
771.507	44665.18
771.842	44479.88
772.178	44442.81
772.513	44229.71
772.849	44183.84
773.184	44087.8
773.519	43982.71
773.855	43867.46
774.19	43648.71
774.525	43461.6
774.86	43400.81
775.195	43201.27
775.53	43048.73
775.865	42845.34
776.2	42560.83
776.535	42410.78
776.87	42377.33
777.205	42107.96
777.539	41905.03
777.874	42016.44
778.209	41681.08
778.543	41603.79
778.878	41433.4
779.212	41274.54
779.547	41022.11
779.881	41097.37
780.215	40828.67
780.55	40863.7
780.884	40497.16
781.218	40524.95
781.552	40460.55
781.886	40344.62
782.22	40036.6
782.554	39835.7
782.888	39687.23
783.222	39558.2
783.556	39264.87
783.889	39130.41
784.223	38884.09
784.557	38793.92
784.89	39007.7
785.224	38733.59
785.557	38423.99
785.891	38374.73
786.224	38380.83
786.558	38320.04
786.891	37998.01
787.224	37780.84
787.557	37774.52
787.891	37626.27
788.224	37498.14
788.557	37480.96
788.89	37294.3
789.223	37127.75
789.556	37045.95
789.888	36905.84
790.221	36641.44
790.554	36522.12
790.887	36460.88
791.219	36332.52
791.552	36250.49
791.884	36158.06
792.217	36090.94
792.549	35740.9
792.882	35560.34
793.214	35502.94
793.546	35452.32
793.879	35169.61
794.211	34966
794.543	35157.63
794.875	35058.88
795.207	34859.79
795.539	34794.71
795.871	34761.26
796.203	34645.11
796.535	34395.17
796.867	34368.5
797.198	34123.54
797.53	34133.26
797.862	33888.29
798.193	33903.43
798.525	33722.19
798.856	33919.93
799.188	33506.83
799.519	33266.61
799.85	33114.3
800.182	33138.25
800.513	33127.18
800.844	32759.96
801.175	32914.08
801.506	32936.9
801.837	32745.72
802.168	32645.84
802.499	32685.16
802.83	32376.01
803.161	32298.95
803.491	32196.13
803.822	32283.36
804.153	31996.36
804.483	31920.88
804.814	31645.86
805.145	31733.09
805.475	31697.61
805.805	31547.33
806.136	31728.35
806.466	31376.04
806.796	31399.77
807.126	31114.8
807.457	31123.39
807.787	31213.33
808.117	31010.63
808.447	30866.45
808.777	31049.49
809.107	30773.12
809.436	30637.08
809.766	30564.99
810.096	30660.35
810.426	30412.9
810.755	30531.54
811.085	30253.58
811.414	30341.94
811.744	30267.14
812.073	30279.57
812.403	30052.68
812.732	29902.86
813.061	30037.54
813.39	29540.16
813.719	29611.11
814.049	29805.46
814.378	29714.16
814.707	29527.73
815.036	29503.09
815.365	29285.25
815.693	29166.38
816.022	29169.54
816.351	29067.4
816.68	28984.24
817.008	29117.34
817.337	28807.07
817.665	28763.45
817.994	28852.04
818.322	28826.73
818.651	28780.63
818.979	28588.99
819.307	28496.12
819.636	28560.97
819.964	28412.28
820.292	28415.67
820.62	28347.19
820.948	28454.99
821.276	28599.16
821.604	28393.74
821.932	28554.87
822.259	28431.71
822.587	28288.89
822.915	28229
823.243	28325.95
823.57	28158.27
823.898	28365.27
824.225	28153.07
824.553	28232.39
824.88	28267.42
825.207	28486.4
825.535	28294.99
825.862	28325.05
826.189	28287.99
826.516	28442.78
826.843	28424.93
827.17	28352.16
827.497	28243.24
827.824	28394.65
828.151	28437.81
828.478	28250.92
828.805	28439.85
829.131	28284.82
829.458	28404.37
829.785	28093.64
830.111	28277.59
830.438	28447.53
830.764	28315.55
831.09	28316.68
831.417	28208.21
831.743	28430.81
832.069	28217.25
832.395	28183.81
832.722	28258.83
833.048	28069.01
833.374	28348.1
833.7	28192.17
834.026	28198.04
834.351	28028.56
834.677	28137.25
835.003	28047.09
835.329	28058.16
835.654	28160.08
835.98	27837.83
836.306	27984.04
836.631	27902.23
836.956	28087.31
837.282	28025.85
837.607	27789.69
837.932	27747.43
838.258	27839.86
838.583	27835.34
838.908	27650.71
839.233	27762.8
839.558	27481.23
839.883	27518.06
840.208	27493.88
840.533	27501.34
840.858	27468.8
841.182	27478.74
841.507	27271.06
841.832	27137.96
842.156	27193.78
842.481	27244.62
842.805	27156.04
843.13	26965.99
843.454	27106.1
843.778	27033.55
844.103	27032.88
844.427	26788.14
844.751	26808.7
845.075	26746.33
845.399	26611.42
845.723	26530.74
846.047	26477.86
846.371	26356.06
846.695	26351.09
847.019	26179.34
847.343	26007.82
847.666	26042.85
847.99	25786.36
848.313	25786.13
848.637	25655.96
848.96	25615.51
849.284	25570.54
849.607	25368.06
849.931	25349.31
850.254	25161.29
850.577	25021.86
850.9	24899.6
851.223	24901.41
851.546	24872.71
851.869	24625.03
852.192	24830.9
852.515	24417.35
852.838	24356.79
853.161	24420.52
853.483	24107.3
853.806	24216
854.129	24107.53
854.451	24103.46
854.774	23857.82
855.096	23916.35
855.419	23786.63
855.741	23819.85
856.063	23571.27
856.385	23521.56
856.708	23505.74
857.03	23341.22
857.352	23282.24
857.674	23302.35
857.996	23259.87
858.318	22968.8
858.64	23014
858.961	23036.82
859.283	22800.22
859.605	22823.95
859.926	22748.47
860.248	22706.66
860.57	22675.48
860.891	22633.67
861.212	22587.57
861.534	22566.33
861.855	22455.14
862.176	22427.35
862.498	22405.2
862.819	22335.15
863.14	22345.32
863.461	22122.95
863.782	22220.35
864.103	22161.14
864.424	22108.03
864.745	22169.73
865.065	22024.65
865.386	21952.56
865.707	22012.44
866.027	21907.81
866.348	21890.87
866.668	21828.27
866.989	21737.2
867.309	21683.86
867.63	21605.45
867.95	21748.95
868.27	21438.67
868.59	21639.8
868.91	21529.29
869.23	21603.64
869.55	21396.64
869.87	21409.3
870.19	21393.03
870.51	21316.64
870.83	21345.79
871.15	21229.41
871.469	21159.13
871.789	21362.07
872.109	21277.55
872.428	21089.98
872.748	21157.78
873.067	21054.95
873.386	21150.77
873.706	21058.57
874.025	21014.28
874.344	20851.8
874.663	20955.75
874.982	20944.9
875.301	20873.26
875.62	20745.58
875.939	20692.7
876.258	20773.61
876.577	20598.24
876.896	20601.63
877.214	20636.21
877.533	20593.27
877.852	20494.52
878.17	20457.68
878.489	20550.11
878.807	20373.16
879.125	20414.07
879.444	20447.29
879.762	20280.51
880.08	20428.98
880.398	20298.82
880.716	20320.06
881.034	20309.44
881.352	20314.64
881.67	19943.57
881.988	20066.05
882.306	20059.27
882.624	20058.14
882.941	19819.96
883.259	19906.06
883.577	19846.17
883.894	19756.91
884.212	19737.25
884.529	19681.66
884.846	19704.71
885.164	19497.71
885.481	19424.72
885.798	19531.83
886.115	19430.59
886.432	19463.13
886.75	19378.84
887.067	19505.84
887.383	19337.49
887.7	19222.69
888.017	19043.71
888.334	19204.83
888.651	19169.13
888.967	19085.29
889.284	19004.16
889.6	18888.68
889.917	18847.56
890.233	18925.07
890.55	18821.57
890.866	18762.13
891.182	18698.86
891.498	18679.65
891.815	18556.04
892.131	18516.49
892.447	18570.5
892.763	18389.71
893.079	18409.15
893.395	18335.25
893.71	18323.28
894.026	18269.04
894.342	18231.75
894.657	18034.92
894.973	18047.58
895.289	18044.41
895.604	17898.88
895.92	17840.8
896.235	17852.1
896.55	17808.03
896.865	17720.58
897.181	17612.56
897.496	17596.51
897.811	17521.71
898.126	17363.3
898.441	17394.26
898.756	17337.31
899.071	17157.66
899.386	17308.61
899.7	17077.43
900.015	16990.88
900.33	16962.86
900.644	16880.38
900.959	16878.57
901.273	16883.09
901.588	16768.29
901.902	16695.97
902.216	16681.74
902.531	16514.74
902.845	16449.43
903.159	16375.76
903.473	16389.09
903.787	16277
904.101	16207.85
904.415	16299.15
904.729	16099.83
905.042	16034.52
905.356	16026.39
905.67	15966.05
905.984	15999.04
906.297	15911.14
906.611	15756.34
906.924	15803.34
907.237	15742.33
907.551	15623.01
907.864	15574.42
908.177	15592.5
908.491	15338.72
908.804	15403.35
909.117	15229.12
909.43	15213.53
909.743	15039.29
910.056	15145.73
910.368	15053.08
910.681	15041.55
910.994	14998.16
911.307	14917.94
911.619	14720.88
911.932	14905.06
912.244	14653.77
912.557	14718.17
912.869	14557.95
913.181	14575.35
913.494	14501.23
913.806	14474.11
914.118	14366.32
914.43	14290.16
914.742	14211.29
915.054	14132.65
915.366	14120.67
915.678	14053.11
915.99	13948.02
916.302	13959.77
916.613	13908.02
916.925	13867.35
917.236	13847.23
917.548	13660.57
917.859	13693.79
918.171	13644.3
918.482	13511.2
918.794	13496.06
919.105	13422.61
919.416	13362.28
919.727	13314.37
920.038	13248.61
920.349	13197.76
920.66	13203.86
920.971	13159.57
921.282	13086.12
921.593	12969.29
921.903	12866.02
922.214	12844.32
922.525	12733.14
922.835	12798
923.146	12720.94
923.456	12614.27
923.767	12594.16
924.077	12574.05
924.387	12513.26
924.697	12495.86
925.008	12354.39
925.318	12371.79
925.628	12252.47
925.938	12228.97
926.248	12093.83
926.558	12051.12
926.867	12071.91
927.177	11983.78
927.487	11927.51
927.796	11884.8
928.106	11885.7
928.416	11866.27
928.725	11783.79
929.034	11650.68
929.344	11725.93
929.653	11667.63
929.962	11494.3
930.271	11548.54
930.581	11516
930.89	11397.13
931.199	11296.57
931.508	11343.12
931.817	11313.06
932.125	11283.69
932.434	11206.63
932.743	11061.55
933.051	10946.07
933.36	10971.6
933.669	10920.08
933.977	10910.14
934.286	10899.74
934.594	10807.31
934.902	10743.14
935.21	10696.36
935.519	10652.06
935.827	10590.37
936.135	10530.94
936.443	10485.52
936.751	10462.92
937.059	10430.6
937.367	10396.7
937.674	10417.72
937.982	10323.03
938.29	10282.81
938.597	10206.2
938.905	10076.26
939.213	10130.72
939.52	10057.28
939.827	10110.84
940.135	10038.97
940.442	9958.07
940.749	9893.67
941.056	9869.94
941.363	9765.31
941.67	9812.31
941.977	9721.69
942.284	9684.41
942.591	9678.3
942.898	9601.47
943.205	9545.65
943.511	9542.72
943.818	9486.67
944.125	9416.84
944.431	9356.05
944.738	9370.97
945.044	9260.24
945.35	9253.46
945.657	9248.49
945.963	9198.54
946.269	9146.57
946.575	9143.86
946.881	9031.54
947.187	9093.24
947.493	8940.47
947.799	8916.29
948.105	8920.58
948.41	8824.54
948.716	8806.46
949.022	8813.69
949.327	8782.28
949.633	8712.45
949.938	8646.47
950.244	8673.59
950.549	8581.84
950.854	8499.58
951.16	8498.22
951.465	8452.57
951.77	8433.82
952.075	8402.86
952.38	8354.5
952.685	8310.43
952.99	8289.64
953.294	8217.33
953.599	8192.92
953.904	8181.4
954.209	8124.45
954.513	8099.59
954.818	8110.44
955.122	8121.51
955.426	7977.56
955.731	7922.19
956.035	7960.16
956.339	7896.66
956.643	7825.7
956.948	7788.41
957.252	7763.78
957.556	7757.45
957.86	7702.76
958.163	7683.33
958.467	7585.48
958.771	7619.15
959.075	7493.5
959.378	7520.17
959.682	7488.31
959.985	7497.8
960.289	7471.36
960.592	7390.68
960.896	7354.98
961.199	7321.53
961.502	7255.77
961.805	7217.58
962.108	7215.09
962.411	7200.86
962.714	7085.83
963.017	7103.46
963.32	7143.91
963.623	7020.75
963.926	7041.99
964.228	6973.29
964.531	6954.99
964.833	6939.39
965.136	6837.02
965.438	6881.99
965.741	6814.2
966.043	6752.96
966.345	6754.31
966.648	6771.94
966.95	6781.21
967.252	6670.93
967.554	6665.5
967.856	6623.24
968.158	6551.38
968.46	6569.23
968.761	6481.33
969.063	6502.57
969.365	6491.72
969.666	6453.53
969.968	6445.85
970.269	6360.88
970.571	6372.18
970.872	6321.33
971.174	6273.42
971.475	6257.83
971.776	6241.33
972.077	6207.89
972.378	6194.1
972.679	6132.64
972.98	6166.31
973.281	6088.12
973.582	6059.19
973.883	6027.1
974.183	6017.61
974.484	5984.62
974.785	5986.88
975.085	5922.47
975.386	5924.28
975.686	5806.77
975.986	5839.08
976.287	5842.25
976.587	5735.13
976.887	5734.23
977.187	5702.82
977.487	5717.96
977.787	5676.38
978.087	5635.93
978.387	5642.7
978.687	5615.13
978.987	5571.75
979.286	5530.84
979.586	5530.17
979.885	5494.23
980.185	5498.3
980.484	5426.67
980.784	5461.47
981.083	5451.98
981.382	5396.38
981.682	5392.09
981.981	5318.87
982.28	5305.31
982.579	5335.59
982.878	5255.6
983.177	5228.03
983.475	5216.5
983.774	5149.38
984.073	5158.65
984.372	5159.55
984.67	5100.8
984.969	5095.15
985.267	5043.62
985.566	5048.37
985.864	5002.95
986.162	5002.27
986.461	4980.35
986.759	4926.79
987.057	4901.48
987.355	4890.86
987.653	4855.15
987.951	4842.73
988.249	4809.05
988.547	4773.8
988.844	4792.33
989.142	4764.08
989.44	4679.11
989.737	4676.4
990.035	4652.22
990.332	4691.32
990.63	4635.05
990.927	4597.76
991.224	4612.9
991.521	4566.35
991.819	4572.22
992.116	4534.49
992.413	4514.6
992.71	4490.42
993.006	4439.8
993.303	4470.98
993.6	4408.84
993.897	4407.48
994.193	4357.99
994.49	4327.49
994.787	4336.07
995.083	4283.19
995.379	4252.68
995.676	4226.02
995.972	4262.63
996.268	4213.36
996.565	4153.25
996.861	4187.83
997.157	4175.4
997.453	4126.13
997.749	4112.58
998.044	4064.44
998.34	4067.38
998.636	4037.1
998.932	4013.6
999.227	3981.28
999.523	3943.09
999.818	3930.89
1000.114	3902.86
1000.409	3901.51
1000.704	3878.23
1001	3853.37
1001.295	3812.7
1001.59	3807.05
1001.885	3806.14
1002.18	3760.95
1002.475	3778.12
1002.77	3725.02
1003.065	3745.81
1003.359	3735.64
1003.654	3707.39
1003.949	3639.14
1004.243	3656.09
1004.538	3567.96
1004.832	3574.06
1005.127	3555.08
1005.421	3549.43
1005.715	3525.92
1006.009	3514.4
1006.304	3466.49
1006.598	3434.18
1006.892	3508.07
1007.186	3441.41
1007.48	3417.9
1007.773	3371.8
1008.067	3346.04
1008.361	3348.75
1008.655	3261.07
1008.948	3281.64
1009.242	3282.31
1009.535	3257.46
1009.829	3232.37
1010.122	3206.61
1010.415	3179.94
1010.708	3147.4
1011.001	3135.88
1011.295	3138.36
1011.588	3102.43
1011.881	3053.85
1012.173	3093.39
1012.466	3049.78
1012.759	3029.21
1013.052	3014.53
1013.344	2989.67
1013.637	2999.38
1013.93	2958.93
1014.222	2971.36
1014.514	2888.43
1014.807	2858.6
1015.099	2897.92
1015.391	2891.36
1015.683	2858.15
1015.976	2840.52
1016.268	2836.9
1016.56	2800.52
1016.851	2743.57
1017.143	2752.39
1017.435	2719.17
1017.727	2714.87
1018.018	2709.67
1018.31	2677.58
1018.602	2674.42
1018.893	2643.24
1019.185	2595.33
1019.476	2599.39
1019.767	2578.38
1020.058	2628.55
1020.35	2551.26
1020.641	2527.08
1020.932	2519.85
1021.223	2493.41
1021.514	2462.9
1021.804	2455.22
1022.095	2451.38
1022.386	2425.16
1022.677	2415.44
1022.967	2399.63
1023.258	2377.48
1023.548	2370.93
1023.839	2309.46
1024.129	2290.7
1024.419	2316.92
1024.709	2271.49
1025	2274.43
1025.29	2252.06
1025.58	2262.45
1025.87	2204.15
1026.16	2207.54
1026.449	2195.79
1026.739	2173.64
1027.029	2167.32
1027.319	2168.22
1027.608	2149.46
1027.898	2124.61
1028.187	2119.18
1028.477	2107.88
1028.766	2080.54
1029.055	2060.43
1029.344	2038.51
1029.634	2027.21
1029.923	2000.54
1030.212	2025.85
1030.501	1972.74
1030.79	1983.82
1031.078	1940.2
1031.367	1974.55
1031.656	1909.7
1031.945	1914.89
1032.233	1894.33
1032.522	1878.51
1032.81	1864.05
1033.099	1851.39
1033.387	1857.95
1033.675	1833.09
1033.963	1824.73
1034.251	1815.69
1034.54	1798.96
1034.828	1773.88
1035.116	1758.74
1035.403	1776.59
1035.691	1776.37
1035.979	1677.61
1036.267	1704.5
1036.554	1694.79
1036.842	1697.27
1037.129	1678.06
1037.417	1631.74
1037.704	1670.83
1037.992	1635.58
1038.279	1607.56
1038.566	1618.63
1038.853	1618.63
1039.14	1618.63
