Data from 17-1436_FLMS001491_009.txt Node
Date: Thu Apr 19 16:29:14 BST 2018
User: hsy
Spectrometer: FLMS00149
Trigger mode: 0
Integration Time (sec): 1.000000E-2
Scans to average: 10
Electric dark correction enabled: true
Nonlinearity correction enabled: false
Boxcar width: 0
XAxis mode: Wavelengths
Number of Pixels in Spectrum: 2048
>>>>>Begin Spectral Data<<<<<
341.393	-5.95
341.776	-5.95
342.16	-5.95
342.543	-66.74
342.927	-69.9
343.31	-59.05
343.693	-83.46
344.077	-69.9
344.46	-49.11
344.843	-38.94
345.226	-32.16
345.61	-56.34
345.993	1.74
346.376	7.16
346.759	5.8
347.142	8.29
347.525	49.65
347.908	57.33
348.291	66.14
348.674	90.32
349.057	102.53
349.44	113.15
349.823	166.7
350.206	175.74
350.588	212.58
350.971	209.19
351.354	260.26
351.737	255.97
352.119	301.16
352.502	279.92
352.884	321.05
353.267	324.89
353.65	330.77
354.032	340.03
354.414	336.87
354.797	352.24
355.179	359.24
355.562	373.25
355.944	386.59
356.326	370.77
356.709	363.54
357.091	379.81
357.473	369.86
357.855	370.32
358.238	353.14
358.62	382.07
359.002	388.39
359.384	383.87
359.766	372.12
360.148	389.3
360.53	383.2
360.912	368.73
361.294	371.22
361.676	369.19
362.057	383.65
362.439	379.35
362.821	372.8
363.203	381.39
363.584	379.13
363.966	329.86
364.348	362.18
364.729	371.45
365.111	384.1
365.493	363.99
365.874	373.93
366.256	386.59
366.637	336.87
367.019	377.55
367.4	366.25
367.781	365.8
368.163	378.9
368.544	358.56
368.925	348.39
369.306	370.09
369.688	366.25
370.069	345.91
370.45	379.81
370.831	395.63
371.212	372.12
371.593	375.74
371.974	365.57
372.355	357.21
372.736	378.68
373.117	383.87
373.498	398.79
373.879	374.83
374.26	375.06
374.641	367.38
375.021	367.6
375.402	363.54
375.783	387.49
376.163	400.14
376.544	390.2
376.925	383.42
377.305	405.34
377.686	376.42
378.066	406.47
378.447	401.73
378.827	414.38
379.208	404.21
379.588	402.4
379.968	435.4
380.349	390.43
380.729	407.38
381.109	403.99
381.489	422.07
381.87	411.44
382.25	422.52
382.63	408.51
383.01	430.65
383.39	424.55
383.77	416.19
384.15	422.52
384.53	422.74
384.91	439.01
385.29	438.11
385.67	427.49
386.049	438.79
386.429	447.6
386.809	463.42
387.189	455.28
387.568	462.97
387.948	457.32
388.328	467.71
388.707	470.43
389.087	470.2
389.466	452.35
389.846	457.09
390.225	470.2
390.605	472.46
390.984	487.37
391.363	500.26
391.743	481.27
392.122	490.99
392.501	521.27
392.881	481.5
393.26	507.49
393.639	514.72
394.018	524.21
394.397	515.62
394.776	515.85
395.155	512.46
395.534	525.11
395.913	532.12
396.292	520.59
396.671	515.17
397.05	530.99
397.429	543.19
397.808	535.73
398.186	552.68
398.565	535.73
398.944	545.9
399.323	532.12
399.701	566.69
400.08	538.22
400.458	558.78
400.837	574.38
401.215	596.98
401.594	581.61
401.972	564.43
402.351	580.25
402.729	566.47
403.107	590.65
403.486	598.11
403.864	598.56
404.242	589.97
404.62	618.9
404.999	634.71
405.377	629.52
405.755	630.2
406.133	648.05
406.511	643.75
406.889	621.83
407.267	660.25
407.645	634.94
408.023	668.84
408.401	650.08
408.779	667.26
409.156	685.34
409.534	665.9
409.912	693.7
410.29	726.01
410.667	711.1
411.045	723.53
411.422	729.18
411.8	716.75
412.178	729.63
412.555	747.48
412.933	737.76
413.31	778.89
413.687	768.72
414.065	799.23
414.442	785.9
414.819	785.9
415.197	790.42
415.574	796.52
415.951	820.25
416.328	825.9
416.705	821.6
417.082	850.53
417.46	843.3
417.837	851.66
418.214	876.74
418.591	867.93
418.967	885.1
419.344	888.72
419.721	869.29
420.098	884.88
420.475	902.05
420.852	906.57
421.228	918.78
421.605	890.98
421.982	914.93
422.358	947.93
422.735	932.79
423.111	920.81
423.488	950.41
423.864	969.4
424.241	974.14
424.617	960.81
424.994	988.83
425.37	999.45
425.746	1000.58
426.123	1009.17
426.499	1017.53
426.875	1018.66
427.251	1050.52
427.627	1054.36
428.003	1060.47
428.379	1052.11
428.756	1081.48
429.132	1080.58
429.507	1122.39
429.883	1144.76
430.259	1136.17
430.635	1115.38
431.011	1134.36
431.387	1178.43
431.763	1194.47
432.138	1169.39
432.514	1238.99
432.89	1217.75
433.265	1255.72
433.641	1261.59
434.016	1280.57
434.392	1283.29
434.767	1322.15
435.143	1306.34
435.518	1322.38
435.894	1339.56
436.269	1353.57
436.644	1402.83
437.02	1369.61
437.395	1358.99
437.77	1413.68
438.145	1430.17
438.52	1403.96
438.895	1427.24
439.271	1446.45
439.646	1450.74
440.021	1488.93
440.395	1473.79
440.77	1460.91
441.145	1505.43
441.52	1506.56
441.895	1516.05
442.27	1543.62
442.645	1513.34
443.019	1546.78
443.394	1560.34
443.769	1558.76
444.143	1561.47
444.518	1588.59
444.892	1562.6
445.267	1580.9
445.641	1620.45
446.016	1614.58
446.39	1636.72
446.764	1603.05
447.139	1648.47
447.513	1661.58
447.887	1655.48
448.262	1642.82
448.636	1682.6
449.01	1723.73
449.384	1723.73
449.758	1702.03
450.132	1728.92
450.506	1754.01
450.88	1774.12
451.254	1771.86
451.628	1785.87
452.002	1770.28
452.376	1822.25
452.75	1829.49
453.123	1842.59
453.497	1884.4
453.871	1891.86
454.244	1946.32
454.618	1918.07
454.992	1955.13
455.365	2002.36
455.739	2004.62
456.112	2029.48
456.486	2016.15
456.859	2058.18
457.232	2082.81
457.606	2106.77
457.979	2120.78
458.352	2174.34
458.725	2154.67
459.099	2188.8
459.472	2250.04
459.845	2289.59
460.218	2287.78
460.591	2297.27
460.964	2313.09
461.337	2351.73
461.71	2418.4
462.083	2484.16
462.456	2448.68
462.829	2404.39
463.201	2501.33
463.574	2491.39
463.947	2575.23
464.32	2567.09
464.692	2602.35
465.065	2611.39
465.438	2652.29
465.81	2677.37
466.183	2654.77
466.555	2725.73
466.928	2748.56
467.3	2775.45
467.672	2853.64
468.045	2850.02
468.417	2871.49
468.789	2873.98
469.161	2916.24
469.534	2933.19
469.906	2962.34
470.278	3038.49
470.65	3051.15
471.022	3052.73
471.394	3140.86
471.766	3208.43
472.138	3236.68
472.51	3277.58
472.882	3330.01
473.253	3332.05
473.625	3405.94
473.997	3470.35
474.369	3466.73
474.74	3567.75
475.112	3594.41
475.484	3635.77
475.855	3694.52
476.227	3754.41
476.598	3820.85
476.97	3871.24
477.341	3926.61
477.713	3997.11
478.084	3999.37
478.455	4153.49
478.827	4174.96
479.198	4283.88
479.569	4287.73
479.94	4385.58
480.311	4455.18
480.682	4527.27
481.053	4678
481.424	4683.42
481.795	4758
482.166	4845
482.537	4908.05
482.908	4964.09
483.279	5061.49
483.65	5215.39
484.021	5277.53
484.391	5298.1
484.762	5400.47
485.133	5425.1
485.503	5469.39
485.874	5675.94
486.244	5706.45
486.615	5836.39
486.985	5880.9
487.356	5983.5
487.726	6010.84
488.097	6186.21
488.467	6235.92
488.837	6405.41
489.207	6489.02
489.578	6569.93
489.948	6680.88
490.318	6736.48
490.688	6815.8
491.058	6978.05
491.428	7057.14
491.798	7095.56
492.168	7192.06
492.538	7355.22
492.908	7381.88
493.278	7493.52
493.648	7557.02
494.017	7703.68
494.387	7815.77
494.757	7897.35
495.126	7977.57
495.496	7997.69
495.866	8171.24
496.235	8198.13
496.605	8240.62
496.974	8367.39
497.344	8472.7
497.713	8636.31
498.082	8571.46
498.452	8686.71
498.821	8766.03
499.19	8777.1
499.559	9008.51
499.928	9066.13
500.298	9080.37
500.667	9173.47
501.036	9251.66
501.405	9295.73
501.774	9407.14
502.143	9442.62
502.512	9602.16
502.88	9631.09
503.249	9693.46
503.618	9748.83
503.987	9821.37
504.356	9888.71
504.724	10038.08
505.093	10078.99
505.462	10125.31
505.83	10214.8
506.199	10263.61
506.567	10415.02
506.936	10443.27
507.304	10613.66
507.672	10676.03
508.041	10718.07
508.409	10788.12
508.777	10871.28
509.145	10998.51
509.514	11031.96
509.882	11102.24
510.25	11150.37
510.618	11223.36
510.986	11363.7
511.354	11397.37
511.722	11564.37
512.09	11689.79
512.458	11617.48
512.826	11753.52
513.193	11876
513.561	11903.8
513.929	12006.17
514.297	12184.47
514.664	12254.3
515.032	12299.72
515.4	12359.38
515.767	12521.63
516.135	12555.76
516.502	12511.92
516.869	12782.64
517.237	12832.13
517.604	12785.58
517.972	13041.62
518.339	13095.86
518.706	13204.1
519.073	13256.08
519.44	13407.49
519.808	13546.24
520.175	13596.86
520.542	13696.52
520.909	13816.06
521.276	13913.91
521.643	14105.77
522.009	14206.79
522.376	14271.64
522.743	14402.26
523.11	14571.75
523.477	14665.53
523.843	14819.43
524.21	14974.45
524.577	14994.34
524.943	15179.64
525.31	15229.36
525.676	15417.38
526.043	15494.89
526.409	15575.57
526.776	15786.86
527.142	15919.51
527.508	15919.96
527.874	16141.2
528.241	16336.45
528.607	16322.21
528.973	16550.23
529.339	16487.63
529.705	16736.66
530.071	16841.97
530.437	16981.18
530.803	17186.6
531.169	17262.75
531.535	17330.55
531.901	17440.6
532.267	17507.94
532.632	17716.53
532.998	17733.93
533.364	17857.76
533.73	17955.39
534.095	18126.01
534.461	18074.26
534.826	18243.97
535.192	18417.07
535.557	18535.26
535.923	18487.8
536.288	18598.76
536.653	18786.1
537.019	18728.7
537.384	18899.77
537.749	18983.61
538.114	19001.46
538.479	19120.1
538.845	19208.92
539.21	19288.69
539.575	19261.12
539.94	19297.28
540.305	19496.82
540.67	19567.1
541.034	19591.96
541.399	19654.33
541.764	19736.81
542.129	19778.39
542.494	19867.66
542.858	19982.68
543.223	19982.91
543.587	20160.98
543.952	20083.47
544.316	20212.96
544.681	20267.65
545.045	20419.51
545.41	20389.22
545.774	20402.78
546.138	20368.66
546.503	20429.22
546.867	20532.27
547.231	20770
547.595	20763.45
547.959	20801.19
548.324	20948.53
548.688	21006.16
549.052	21041.41
549.416	21017.23
549.779	21114.85
550.143	21183.1
550.507	21380.84
550.871	21377.67
551.235	21371.12
551.599	21561.62
551.962	21594.62
552.326	21802.52
552.689	21793.93
553.053	21772.46
553.417	21793.48
553.78	22037.54
554.143	22056.3
554.507	22163.87
554.87	22232.11
555.234	22408.15
555.597	22339.68
555.96	22494.48
556.323	22668.49
556.686	22650.41
557.05	22762.72
557.413	22829.84
557.776	22983.73
558.139	23117.06
558.502	23291.97
558.865	23255.36
559.228	23479.31
559.59	23514.57
559.953	23548.01
560.316	23884.05
560.679	23898.74
561.041	23991.61
561.404	24096.24
561.767	24341.66
562.129	24376.01
562.492	24599.06
562.854	24554.31
563.217	24719.28
563.579	24756.11
563.941	24937.13
564.304	25071.59
564.666	25390.45
565.028	25303.67
565.39	25454.85
565.753	25624.57
566.115	25892.81
566.477	25883.54
566.839	26008.51
567.201	26285.34
567.563	26392.91
567.925	26449.4
568.287	26683.07
568.648	26681.04
569.01	26974.14
569.372	27107.92
569.734	27130.74
570.095	27384.97
570.457	27516.49
570.819	27701.8
571.18	27808.01
571.542	28051.17
571.903	28061.34
572.265	28240.09
572.626	28457.94
572.987	28617.71
573.349	28691.83
573.71	28864.03
574.071	29064.02
574.432	29144.93
574.794	29348.76
575.155	29503.79
575.516	29394.18
575.877	29712.59
576.238	29844.34
576.599	29981.97
576.96	30076.2
577.32	30149.87
577.681	30303.54
578.042	30671.44
578.403	30600.93
578.763	30706.92
579.124	30827.37
579.485	31016.74
579.845	31190.07
580.206	31237.3
580.566	31390.06
580.927	31495.37
581.287	31712.54
581.648	31655.59
582.008	31954.8
582.368	31972.42
582.728	32120.67
583.089	32216.71
583.449	32401.34
583.809	32461.22
584.169	32724.49
584.529	32743.93
584.889	33050.81
585.249	32933.07
585.609	33034.54
585.969	33426.17
586.329	33313.18
586.688	33649.21
587.048	33621.87
587.408	33804.92
587.768	33943.22
588.127	33962.2
588.487	34223.44
588.846	34634.5
589.206	34428.85
589.565	34608.74
589.925	35066.58
590.284	35100.25
590.643	35209.17
591.003	35501.82
591.362	35915.6
591.721	35978.64
592.08	36100.68
592.44	36594.45
592.799	36608.68
593.158	36664.28
593.517	36783.82
593.876	37178.61
594.235	37380.87
594.593	37484.82
594.952	37590.13
595.311	37796.22
595.67	38052.71
596.029	38446.15
596.387	38643.66
596.746	38909.19
597.104	38868.51
597.463	39211.55
597.822	39472.11
598.18	39470.98
598.538	39711.88
598.897	40034.81
599.255	40116.61
599.613	40796.6
599.972	40616.49
600.33	40935.12
600.688	40952.75
601.046	41272.29
601.404	41656.01
601.762	41813.29
602.12	42193.17
602.478	42247.63
602.836	42456.21
603.194	42309.1
603.552	42665.47
603.91	42748.86
604.268	43020.49
604.625	43017.33
604.983	43482.63
605.341	43360.6
605.698	43841.49
606.056	43998.55
606.413	43995.83
606.771	44290.52
607.128	44495.93
607.485	44475.82
607.843	44651.64
608.2	44875.81
608.557	45370.49
608.914	45338.17
609.272	45519.41
609.629	45770.7
609.986	45943.13
610.343	45968.21
610.7	46397.35
611.057	46382.44
611.414	46431.25
611.771	46664.92
612.127	46810.22
612.484	46894.97
612.841	47040.05
613.198	47196.88
613.554	47217.67
613.911	47581.5
614.267	47571.56
614.624	47691.78
614.98	47901.04
615.337	48144.43
615.693	48144.88
616.05	48221.94
616.406	48541.93
616.762	48407.02
617.118	48568.37
617.475	48522.95
617.831	48897.63
618.187	48784.86
618.543	49029.15
618.899	49143.72
619.255	49170.16
619.611	49178.98
619.967	49385.3
620.323	49446.54
620.678	49451.96
621.034	49395.24
621.39	49492.64
621.746	49505.29
622.101	49907.09
622.457	49507.1
622.812	49816.7
623.168	49925.4
623.523	49822.8
623.879	50018.73
624.234	49823.7
624.589	50020.99
624.945	50187.99
625.3	50243.81
625.655	50307.31
626.01	50253.75
626.365	50192.73
626.72	50232.28
627.075	50197.48
627.43	50263.92
627.785	50317.7
628.14	50230.47
628.495	50367.64
628.85	50397.47
629.205	50284.03
629.559	50526.28
629.914	50291.04
630.269	50430.02
630.623	50256.01
630.978	50131.49
631.332	50482.22
631.687	50397.93
632.041	50216.69
632.396	50187.99
632.75	50293.3
633.104	50209.23
633.459	50076.8
633.813	50085.39
634.167	50039.97
634.521	49946.86
634.875	50084.49
635.229	49989.12
635.583	49952.29
635.937	49796.36
636.291	49887.43
636.645	49968.79
636.999	49777.6
637.352	49934.21
637.706	49589.13
638.06	49881.33
638.413	49676.14
638.767	49583.94
639.121	49641.56
639.474	49402.7
639.828	49574.67
640.181	49592.52
640.534	49589.59
640.888	49399.76
641.241	49148.24
641.594	49380.1
641.947	49491.51
642.301	49376.26
642.654	49293.32
643.007	49158.41
643.36	49326.77
643.713	49210.84
644.066	49256.26
644.419	48959.55
644.771	48755.26
645.124	48282.95
645.477	48179.68
645.83	48026.69
646.182	48057.65
646.535	47960.25
646.888	48183.07
647.24	47994.37
647.593	48141.04
647.945	48020.36
648.298	47815.62
648.65	47694.72
649.002	47320.04
649.355	47374.5
649.707	47212.93
650.059	47278.69
650.411	47763.42
650.763	47930.65
651.115	48477.75
651.467	48383.74
651.819	48282.95
652.171	48172.67
652.523	48201.37
652.875	48201.6
653.227	47961.61
653.578	48269.62
653.93	48207.02
654.282	47887.03
654.633	47847.48
654.985	47954.6
655.337	47921.16
655.688	47897.2
656.039	48111.66
656.391	47714.83
656.742	47676.42
657.094	47790.09
657.445	47746.24
657.796	47786.24
658.147	47602.75
658.498	47719.58
658.849	47775.62
659.2	47701.27
659.551	47438.68
659.902	47728.17
660.253	47494.73
660.604	47706.47
660.955	47467.38
661.306	47706.92
661.656	47480.49
662.007	47610.65
662.358	47520.26
662.708	47468.51
663.059	47418.34
663.409	47269.87
663.76	47531.79
664.11	47525.46
664.461	47502.41
664.811	47394.84
665.161	47423.32
665.511	47336.76
665.862	47360.04
666.212	47452.92
666.562	47479.36
666.912	47399.59
667.262	47268.74
667.612	47210.21
667.962	47444.78
668.312	47257.44
668.662	47428.51
669.011	47360.04
669.361	47263.55
669.711	47431.68
670.06	47080.05
670.41	47237.11
670.76	47167.05
671.109	47327.27
671.459	47254.05
671.808	47213.38
672.157	47319.36
672.507	47099.93
672.856	47000.95
673.205	47087.96
673.554	47146.94
673.904	46990.78
674.253	47323.43
674.602	47031.91
674.951	46520.29
675.3	46396.9
675.649	47157.33
675.998	47100.84
676.346	47082.31
676.695	47049.09
677.044	46813.61
677.393	46873.05
677.741	46902.65
678.09	46809.09
678.438	46602.55
678.787	46747.85
679.135	46866.49
679.484	46548.76
679.832	46552.83
680.181	46561.64
680.529	46563
680.877	46411.14
681.225	46447.3
681.573	46716.44
681.922	46383.57
682.27	46358.48
682.618	46421.08
682.966	46282.78
683.314	46248.2
683.661	46267.19
684.009	46102.22
684.357	45968.44
684.705	45965.73
685.053	46020.64
685.4	45725.96
685.748	45711.5
686.095	45687.32
686.443	45589.69
686.79	45499.07
687.138	45465.17
687.485	45664.72
687.832	45293.2
688.18	45402.58
688.527	45201.45
688.874	45264.05
689.221	45142.7
689.568	45066.99
689.915	44950.16
690.262	45042.81
690.609	44889.82
690.956	44799.88
691.303	44688.02
691.65	44429.5
691.997	44422.94
692.344	44266.56
692.69	44264.53
693.037	44227.02
693.383	43738.89
693.73	44028.15
694.077	43923.29
694.423	43800.59
694.769	43628.16
695.116	43688.05
695.462	43479.01
695.808	43434.27
696.155	43548.84
696.501	43155.4
696.847	43186.36
697.193	42796.09
697.539	43099.36
697.885	42761.97
698.231	42628.19
698.577	42737.79
698.923	42415.31
699.269	42360.4
699.614	42243.56
699.96	42265.03
700.306	42095.77
700.651	42012.38
700.997	41821.2
701.342	41742.33
701.688	41588.67
702.033	41507.54
702.379	41557.48
702.724	41329.92
703.069	41458.73
703.415	41022.35
703.76	40930.15
704.105	40912.53
704.45	40930.38
704.795	40664.62
705.14	40680.22
705.485	40514.34
705.83	40263.73
706.175	40523.84
706.52	40186.22
706.865	40181.02
707.209	40026.9
707.554	39957.3
707.899	39981.25
708.243	39808.6
708.588	39725.66
708.932	39572.9
709.277	39548.27
709.621	39471.66
709.966	39219.46
710.31	39412.68
710.654	39090.2
710.998	39139.92
711.342	39091.33
711.687	38931.79
712.031	38801.62
712.375	38665.58
712.719	38701.51
713.063	38579.71
713.407	38600.72
713.75	38463.32
714.094	38475.98
714.438	38265.82
714.782	38287.74
715.125	37984.47
715.469	38218.81
715.812	37898.82
716.156	37830.35
716.499	37814.08
716.843	37905.15
717.186	37732.5
717.53	37841.87
717.873	37825.6
718.216	37742.89
718.559	37591.48
718.902	37156.69
719.246	37438.94
719.589	37342.68
719.932	37050.93
720.275	37173.19
720.617	37147.65
720.96	36981.56
721.303	37037.37
721.646	37003.25
721.989	36790.15
722.331	36861.79
722.674	36909.69
723.016	36848.45
723.359	36686.87
723.701	36637.84
724.044	36549.02
724.386	36282.59
724.729	36615.92
725.071	36424.28
725.413	36296.6
725.755	36186.77
726.097	36155.14
726.439	35996.05
726.782	35963.73
727.124	36172.54
727.465	36044.86
727.807	35953.56
728.149	35853.45
728.491	35788.82
728.833	35751.76
729.175	35822.26
729.516	35705.21
729.858	35673.12
730.199	35658.88
730.541	35649.84
730.882	35525.55
731.224	35590.86
731.565	35398.32
731.906	35380.69
732.248	35467.02
732.589	35263.86
732.93	35251.66
733.271	35172.79
733.612	35166.01
733.953	35301.37
734.294	34996.98
734.635	34935.96
734.976	35175.73
735.317	34789.52
735.658	35025.68
735.999	34969.86
736.339	34801.73
736.68	34658.68
737.021	34757.21
737.361	34673.59
737.702	34814.83
738.042	34490.32
738.383	34602.41
738.723	34562.18
739.063	34447.39
739.404	34597.44
739.744	34413.71
740.084	34318.12
740.424	34460.49
740.764	34235.64
741.104	34369.65
741.444	34197.67
741.784	34049.88
742.124	34208.07
742.464	34183.66
742.804	34040.84
743.143	34089.88
743.483	34011.69
743.823	33968.53
744.162	33901.18
744.502	33775.31
744.841	33713.39
745.181	33853.95
745.52	33788.87
745.86	33816.89
746.199	33691.92
746.538	33623.68
746.877	33640.4
747.216	33596.33
747.556	33451.93
747.895	33440.63
748.234	33357.47
748.573	33319.51
748.911	33369
749.25	33315.44
749.589	33086.97
749.928	33110.7
750.267	33133.3
750.605	33171.03
750.944	33112.73
751.283	33074.54
751.621	33026.86
751.96	32759.97
752.298	32828.44
752.636	32810.37
752.975	32696.7
753.313	32482.92
753.651	32721.78
753.989	32509.36
754.327	32430.72
754.666	32291.96
755.004	32366.76
755.342	32240.21
755.679	32312.3
756.017	32134
756.355	32165.41
756.693	31983.95
757.031	32176.26
757.368	31922.71
757.706	31804.52
758.044	31625.99
758.381	31642.49
758.719	31609.72
759.056	31552.77
759.394	31448.59
759.731	31297.64
760.068	31265.77
760.405	31287.47
760.743	31097.42
761.08	31220.58
761.417	30901.26
761.754	30852.45
762.091	30836.86
762.428	30741.27
762.765	30570.43
763.102	30612.68
763.438	30426.02
763.775	30329.98
764.112	30386.02
764.449	30303.77
764.785	30320.26
765.122	30084.34
765.458	29970.67
765.795	29883.21
766.131	29815.42
766.467	29854.29
766.804	29456.1
767.14	29476.22
767.476	29350.34
767.812	29286.39
768.148	29476.89
768.485	29212.95
768.821	28864.26
769.157	28887.08
769.492	28842.33
769.828	28772.28
770.164	28511.04
770.5	28462.23
770.836	28423.59
771.171	28393.53
771.507	28184.95
771.842	28017.72
772.178	28064.28
772.513	28019.98
772.849	27923.94
773.184	27702.93
773.519	27739.09
773.855	27467.68
774.19	27439.89
774.525	27350.62
774.86	27247.8
775.195	27212.32
775.53	27049.61
775.865	26893.46
776.2	26774.14
776.535	26598.78
776.87	26636.74
777.205	26461.61
777.539	26420.25
777.874	26309.97
778.209	26134.38
778.543	26225.91
778.878	26057.55
779.212	25901.85
779.547	25859.14
779.881	25816.88
780.215	25632.25
780.55	25645.81
780.884	25348.87
781.218	25375.99
781.552	25379.83
781.886	25137.8
782.22	25064.13
782.554	24968.31
782.888	24793.63
783.222	24809.9
783.556	24655.1
783.889	24547.53
784.223	24478.16
784.557	24364.03
784.89	24498.95
785.224	24237.71
785.557	24150.03
785.891	24051.95
786.224	24053.53
786.558	23951.39
786.891	23694.67
787.224	23738.06
787.557	23528.35
787.891	23531.29
788.224	23456.04
788.557	23339.2
788.89	23289.71
789.223	23204.07
789.556	23017.4
789.888	23066.44
790.221	22934.47
790.554	22903.28
790.887	22807.69
791.219	22741.93
791.552	22584.87
791.884	22564.53
792.217	22475.27
792.549	22405.89
792.882	22234.82
793.214	22028.05
793.546	22167.48
793.879	22098.33
794.211	21908.05
794.543	22058.78
794.875	21834.16
795.207	21880.48
795.539	21676.87
795.871	21743.09
796.203	21671.22
796.535	21454.73
796.867	21435.07
797.198	21332.48
797.53	21270.33
797.862	21132.93
798.193	21163.67
798.525	21123.22
798.856	21182.2
799.188	20838.03
799.519	20811.36
799.85	20687.52
800.182	20708.54
800.513	20735.66
800.844	20537.69
801.175	20651.36
801.506	20534.53
801.837	20384.93
802.168	20459.96
802.499	20418.15
802.83	20222.9
803.161	20243.46
803.491	20069.23
803.822	20139.96
804.153	19951.5
804.483	19867.88
804.814	19750.14
805.145	19843.48
805.475	19867.43
805.805	19677.15
806.136	19783.59
806.466	19593.99
806.796	19587.44
807.126	19429.93
807.457	19448.01
807.787	19481.9
808.117	19377.95
808.447	19318.74
808.777	19266.99
809.107	19074.91
809.436	19136.15
809.766	19171.85
810.096	19026.32
810.426	19010.73
810.755	18992.65
811.085	18968.02
811.414	18868.36
811.744	18787.23
812.073	18757.85
812.403	18661.36
812.732	18610.29
813.061	18772.32
813.39	18488.48
813.719	18483.29
814.049	18616.39
814.378	18628.59
814.707	18396.06
815.036	18404.87
815.365	18296.17
815.693	18194.48
816.022	18182.05
816.351	18097.98
816.68	18033.58
817.008	18126.91
817.337	17926.69
817.665	18008.04
817.994	18003.52
818.322	17895.28
818.651	17853.7
818.979	17848.05
819.307	17795.85
819.636	17711.33
819.964	17714.72
820.292	17723.98
820.62	17693.93
820.948	17727.15
821.276	17833.81
821.604	17719.46
821.932	17815.73
822.259	17747.03
822.587	17707.49
822.915	17640.82
823.243	17693.25
823.57	17511.79
823.898	17700.48
824.225	17569.86
824.553	17623.19
824.88	17605.79
825.207	17663.42
825.535	17613.48
825.862	17702.97
826.189	17627.26
826.516	17753.81
826.843	17700.48
827.17	17798.56
827.497	17719.92
827.824	17728.28
828.151	17741.84
828.478	17654.83
828.805	17726.47
829.131	17690.09
829.458	17666.58
829.785	17538
830.111	17599.69
830.438	17694.15
830.764	17662.52
831.09	17675.17
831.417	17521.05
831.743	17692.12
832.069	17539.36
832.395	17572.57
832.722	17599.01
833.048	17517.89
833.374	17502.52
833.7	17539.36
834.026	17611.67
834.351	17472.24
834.677	17555.4
835.003	17502.75
835.329	17519.02
835.654	17512.92
835.98	17340.26
836.306	17453.93
836.631	17441.5
836.956	17511.56
837.282	17435.18
837.607	17284.22
837.932	17335.07
838.258	17333.48
838.583	17249.42
838.908	17223.88
839.233	17211.23
839.558	17193.38
839.883	17167.61
840.208	17033.61
840.533	17215.07
840.858	17042.87
841.182	17222.08
841.507	17073.15
841.832	16965.81
842.156	16942.53
842.481	16928.3
842.805	16913.61
843.13	16829.77
843.454	16760.39
843.778	16747.29
844.103	16632.49
844.427	16743.9
844.751	16737.79
845.075	16656.67
845.399	16697.57
845.723	16494.18
846.047	16551.13
846.371	16364.7
846.695	16394.3
847.019	16382.32
847.343	16101.88
847.666	16127.19
847.99	16064.82
848.313	16082.9
848.637	15995.22
848.96	15918.61
849.284	15892.39
849.607	15704.38
849.931	15746.41
850.254	15636.58
850.577	15549.35
850.9	15442.46
851.223	15454.44
851.546	15354.1
851.869	15333.54
852.192	15424.16
852.515	15208.12
852.838	15238.62
853.161	15118.63
853.483	15097.84
853.806	15074.56
854.129	15028.23
854.451	14992.53
854.774	14839.54
855.096	14806.32
855.419	14778.98
855.741	14794.34
856.063	14776.49
856.385	14542.37
856.708	14554.57
857.03	14529.94
857.352	14568.81
857.674	14555.25
857.996	14446.56
858.318	14362.26
858.64	14333.34
858.961	14304.41
859.283	14322.49
859.605	14267.35
859.926	14231.19
860.248	14252.89
860.57	14046.79
860.891	14123.17
861.212	13994.82
861.534	13984.87
861.855	13981.26
862.176	14009.73
862.498	14013.57
862.819	13899.9
863.14	13885.44
863.461	13871.2
863.782	13857.19
864.103	13783.52
864.424	13807.93
864.745	13799.79
865.065	13650.64
865.386	13517.99
865.707	13630.53
866.027	13620.36
866.348	13596.63
866.668	13618.33
866.989	13530.65
867.309	13480.03
867.63	13423.98
867.95	13535.62
868.27	13346.7
868.59	13510.76
868.91	13401.38
869.23	13341.73
869.55	13292.69
869.87	13306.92
870.19	13293.82
870.51	13301.95
870.83	13266.02
871.15	13179.24
871.469	13167.72
871.789	13280.26
872.109	13211.11
872.428	13175.63
872.748	13128.17
873.067	13086.36
873.386	13130.66
873.706	13136.99
874.025	13061.28
874.344	13000.94
874.663	13013.15
874.982	12981.06
875.301	12909.19
875.62	12982.86
875.939	12920.04
876.258	12936.31
876.577	12799.59
876.896	12817.45
877.214	12758.69
877.533	12833.49
877.852	12814.51
878.17	12827.16
878.489	12800.72
878.807	12754.4
879.125	12733.15
879.444	12715.98
879.762	12616.09
880.08	12703.55
880.398	12554.63
880.716	12607.06
881.034	12639.15
881.352	12625.81
881.67	12565.7
881.988	12541.07
882.306	12506.49
882.624	12554.4
882.941	12518.24
883.259	12389.89
883.577	12436.66
883.894	12346.95
884.212	12407.06
884.529	12357.8
884.846	12348.08
885.164	12263.11
885.481	12184.02
885.798	12268.31
886.115	12163.45
886.432	12109.44
886.75	12111.02
887.067	12158.25
887.383	12075.32
887.7	12044.58
888.017	11962.1
888.334	11999.61
888.651	11996.45
888.967	11929.33
889.284	11876.45
889.6	11867.41
889.917	11821.54
890.233	11777.02
890.55	11815.21
890.866	11747.64
891.182	11731.37
891.498	11762.78
891.815	11684.14
892.131	11630.36
892.447	11584.26
892.763	11528.21
893.079	11547.2
893.395	11418.61
893.71	11400.53
894.026	11441.89
894.342	11428.33
894.657	11367.99
894.973	11339.97
895.289	11290.93
895.604	11195.12
895.92	11171.16
896.235	11134.55
896.55	11109.69
896.865	11120.09
897.181	11103.14
897.496	11095.23
897.811	10985.4
898.126	10979.75
898.441	10918.29
898.756	10861.11
899.071	10826.31
899.386	10822.92
899.7	10755.58
900.015	10658.86
900.33	10681.68
900.644	10692.08
900.959	10618.18
901.273	10532.08
901.588	10532.31
901.902	10523.95
902.216	10407.57
902.531	10384.29
902.845	10410.05
903.159	10354.69
903.473	10314.01
903.787	10223.62
904.101	10206.67
904.415	10182.94
904.729	10184.75
905.042	10042.83
905.356	10066.11
905.67	10021.59
905.984	10051.19
906.297	9991.76
906.611	9978.88
906.924	9943.62
907.237	9938.2
907.551	9855.49
907.864	9723.74
908.177	9746.79
908.491	9790.41
908.804	9650.75
909.117	9684.65
909.43	9609.17
909.743	9542.05
910.056	9524.88
910.368	9483.07
910.681	9433.81
910.994	9426.12
911.307	9403.3
911.619	9322.4
911.932	9306.8
912.244	9287.82
912.557	9246.92
912.869	9142.29
913.181	9145.9
913.494	9145.9
913.806	9086.47
914.118	9009.41
914.43	8899.81
914.742	8914.05
915.054	8883.76
915.366	8850.54
915.678	8761.28
915.99	8825.01
916.302	8762.86
916.613	8715.63
916.925	8799.25
917.236	8711.34
917.548	8636.54
917.859	8670.89
918.171	8604
918.482	8503.21
918.794	8497.11
919.105	8457.56
919.416	8339.82
919.727	8334.85
920.038	8294.63
920.349	8226.15
920.66	8287.17
920.971	8250.33
921.282	8190.45
921.593	8149.32
921.903	8053.28
922.214	8098.02
922.525	8056.89
922.835	8052.37
923.146	7979.61
923.456	7918.14
923.767	7891.93
924.077	7891.93
924.387	7805.15
924.697	7834.53
925.008	7798.14
925.318	7748.65
925.628	7785.04
925.938	7649.67
926.248	7590.69
926.558	7553.4
926.867	7601.09
927.177	7521.54
927.487	7534.65
927.796	7485.16
928.106	7411.03
928.416	7412.84
928.725	7405.16
929.034	7368.32
929.344	7314.09
929.653	7315.22
929.962	7295.78
930.271	7255.56
930.581	7232.51
930.89	7169.23
931.199	7132.17
931.508	7121.78
931.817	7055.56
932.125	7077.48
932.434	7035.68
932.743	6960.65
933.051	6969.69
933.36	6881.1
933.669	6868.9
933.977	6856.47
934.286	6848.56
934.594	6849.92
934.902	6785.29
935.21	6756.81
935.519	6717.27
935.827	6696.25
936.135	6674.56
936.443	6630.49
936.751	6557.95
937.059	6600.43
937.367	6530.61
937.674	6576.71
937.982	6534.67
938.29	6527.44
938.597	6411.96
938.905	6356.6
939.213	6373.1
939.52	6334.45
939.827	6378.52
940.135	6379.65
940.442	6309.59
940.749	6253.32
941.056	6271.63
941.363	6198.86
941.67	6183.72
941.977	6193.89
942.284	6152.54
942.591	6098.53
942.898	6113.89
943.205	6059.21
943.511	6035.25
943.818	6043.39
944.125	5942.6
944.431	5955.93
944.738	5910.28
945.044	5922.26
945.35	5920.68
945.657	5805.65
945.963	5828.93
946.269	5776.05
946.575	5781.47
946.881	5726.78
947.187	5742.83
947.493	5624.87
947.799	5670.51
948.105	5682.72
948.41	5639.33
948.716	5645.66
949.022	5628.26
949.327	5588.03
949.633	5490.18
949.938	5499.9
950.244	5548.48
950.549	5482.95
950.854	5404.76
951.16	5406.34
951.465	5377.42
951.77	5441.82
952.075	5370.41
952.38	5366.12
952.685	5337.19
952.99	5299.9
953.294	5243.18
953.599	5241.6
953.904	5211.09
954.209	5197.98
954.513	5189.85
954.818	5168.38
955.122	5139
955.426	5089.29
955.731	5114.37
956.035	5066.91
956.339	5058.55
956.643	5010.65
956.948	4952.12
957.252	4960.48
957.556	4990.98
957.86	4943.53
958.163	4879.35
958.467	4895.39
958.771	4873.02
959.075	4825.79
959.378	4783.98
959.682	4784.21
959.985	4757.54
960.289	4740.14
960.592	4713.93
960.896	4690.2
961.199	4678.68
961.502	4727.49
961.805	4665.12
962.108	4648.85
962.411	4640.26
962.714	4565.23
963.017	4574.95
963.32	4558
963.623	4553.26
963.926	4534.73
964.228	4485.24
964.531	4458.34
964.833	4476.2
965.136	4482.07
965.438	4443.43
965.741	4397.55
966.043	4340.61
966.345	4342.87
966.648	4355.75
966.95	4393.71
967.252	4304
967.554	4311.91
967.856	4311.91
968.158	4237.78
968.46	4237.56
968.761	4180.38
969.063	4164.57
969.365	4199.37
969.666	4170.67
969.968	4146.49
970.269	4141.74
970.571	4122.08
970.872	4123.89
971.174	4069.65
971.475	4084.79
971.776	4033.95
972.077	3986.49
972.378	3986.94
972.679	3975.64
972.98	3957.79
973.281	4010.67
973.582	3965.47
973.883	3916.89
974.183	3933.61
974.484	3908.3
974.785	3853.39
975.085	3853.84
975.386	3885.7
975.686	3832.82
975.986	3834.86
976.287	3797.34
976.587	3775.88
976.887	3760.73
977.187	3784.24
977.487	3715.76
977.787	3685.26
978.087	3687.52
978.387	3695.88
978.687	3671.92
978.987	3644.58
979.286	3610.91
979.586	3630.12
979.885	3602.09
980.185	3559.61
980.484	3546.95
980.784	3565.03
981.083	3518.48
981.382	3538.37
981.682	3521.19
981.981	3476.22
982.28	3491.81
982.579	3458.14
982.878	3462.44
983.177	3407.07
983.475	3442.78
983.774	3372.72
984.073	3351.48
984.372	3376.34
984.67	3341.99
984.969	3349.22
985.267	3362.1
985.566	3264.7
985.864	3267.87
986.162	3282.1
986.461	3271.03
986.759	3226.06
987.057	3172.05
987.355	3194.65
987.653	3179.73
987.951	3204.14
988.249	3158.94
988.547	3130.24
988.844	3148.1
989.142	3121.2
989.44	3127.98
989.737	3098.15
990.035	3077.14
990.332	3052.5
990.63	3030.13
990.927	3052.28
991.224	3059.96
991.521	3019.74
991.819	2997.36
992.116	3005.27
992.413	3009.34
992.71	2934.32
993.006	2948.78
993.303	2964.37
993.6	2933.19
993.897	2899.51
994.193	2923.69
994.49	2910.81
994.787	2852.51
995.083	2836.01
995.379	2879.18
995.676	2843.24
995.972	2819.06
996.268	2793.53
996.565	2765.51
996.861	2761.66
997.157	2772.29
997.453	2748.11
997.749	2691.84
998.044	2713.3
998.34	2680.08
998.636	2680.76
998.932	2673.53
999.227	2689.58
999.523	2645.06
999.818	2661.55
1000.114	2607.32
1000.409	2629.69
1000.704	2603.02
1001	2587.43
1001.295	2568.22
1001.59	2548.79
1001.885	2557.38
1002.18	2516.02
1002.475	2534.55
1002.77	2495.68
1003.065	2470.15
1003.359	2495.91
1003.654	2474.21
1003.949	2436.02
1004.243	2438.74
1004.538	2419.3
1004.832	2419.75
1005.127	2379.98
1005.421	2358.06
1005.715	2376.59
1006.009	2362.13
1006.304	2344.73
1006.598	2319.19
1006.892	2312.86
1007.186	2270.15
1007.48	2277.61
1007.773	2219.76
1008.067	2287.1
1008.361	2193.32
1008.655	2210.04
1008.948	2230.83
1009.242	2227.22
1009.535	2203.26
1009.829	2186.99
1010.122	2140.44
1010.415	2160.78
1010.708	2154.9
1011.001	2135.92
1011.295	2119.87
1011.588	2104.51
1011.881	2085.75
1012.173	2063.15
1012.466	2105.64
1012.759	2074
1013.052	2004.17
1013.344	2029.93
1013.637	2027.67
1013.93	2019.99
1014.222	1972.98
1014.514	1979.99
1014.807	1968.24
1015.099	1965.98
1015.391	1939.77
1015.683	1934.57
1015.976	1906.09
1016.268	1885.76
1016.56	1889.37
1016.851	1870.84
1017.143	1860.45
1017.435	1872.65
1017.727	1870.16
1018.018	1823.16
1018.31	1808.92
1018.602	1828.13
1018.893	1812.76
1019.185	1816.15
1019.476	1779.32
1019.767	1758.98
1020.058	1741.35
1020.35	1751.52
1020.641	1732.09
1020.932	1748.13
1021.223	1731.41
1021.514	1715.14
1021.804	1674.24
1022.095	1678.98
1022.386	1665.87
1022.677	1667.23
1022.967	1624.07
1023.258	1635.37
1023.548	1646.21
1023.839	1631.3
1024.129	1623.39
1024.419	1587.23
1024.709	1568.02
1025	1573.45
1025.29	1556.27
1025.58	1558.08
1025.87	1534.13
1026.16	1508.36
1026.449	1560.11
1026.739	1506.78
1027.029	1497.74
1027.319	1499.32
1027.608	1498.65
1027.898	1484.18
1028.187	1437.63
1028.477	1459.1
1028.766	1462.26
1029.055	1422.72
1029.344	1433.11
1029.634	1391.08
1029.923	1405.99
1030.212	1417.07
1030.501	1386.56
1030.79	1401.47
1031.078	1375.94
1031.367	1329.16
1031.656	1345.43
1031.945	1356.96
1032.233	1357.41
1032.522	1355.6
1032.81	1322.38
1033.099	1299.33
1033.387	1302.49
1033.675	1304.75
1033.963	1263.85
1034.251	1302.27
1034.54	1267.69
1034.828	1251.87
1035.116	1258.65
1035.403	1238.99
1035.691	1253.23
1035.979	1223.85
1036.267	1214.59
1036.554	1172.78
1036.842	1174.36
1037.129	1200.12
1037.417	1170.29
1037.704	1173.91
1037.992	1180.69
1038.279	1161.71
1038.566	1155.61
1038.853	1155.61
1039.14	1155.61
