Data from 17-1564_FLMS001491_004.txt Node
Date: Thu Apr 19 16:31:28 BST 2018
User: hsy
Spectrometer: FLMS00149
Trigger mode: 0
Integration Time (sec): 1.000000E-2
Scans to average: 10
Electric dark correction enabled: true
Nonlinearity correction enabled: false
Boxcar width: 0
XAxis mode: Wavelengths
Number of Pixels in Spectrum: 2048
>>>>>Begin Spectral Data<<<<<
341.393	-6.37
341.776	-6.37
342.16	-6.37
342.543	-46.82
342.927	-69.19
343.31	-61.06
343.693	-83.88
344.077	-60.15
344.46	-62.87
344.843	-58.12
345.226	-59.7
345.61	-43.88
345.993	-7.73
346.376	9.22
346.759	16.91
347.142	24.59
347.525	51.71
347.908	86.06
348.291	72.72
348.674	85.61
349.057	90.58
349.44	129.45
349.823	132.38
350.206	199.27
350.588	212.83
350.971	254.87
351.354	278.82
351.737	282.21
352.119	269.1
352.502	312.04
352.884	330.57
353.267	331.02
353.65	327.41
354.032	312.04
354.414	372.38
354.797	362.89
355.179	341.19
355.562	376.44
355.944	378.03
356.326	392.04
356.709	380.06
357.091	400.17
357.473	393.85
357.855	396.33
358.238	396.33
358.62	395.88
359.002	400.85
359.384	398.37
359.766	397.46
360.148	371.02
360.53	389.55
360.912	403.11
361.294	372.6
361.676	412.83
362.057	389.33
362.439	387.97
362.821	373.73
363.203	374.19
363.584	385.03
363.966	373.06
364.348	409.44
364.729	388.2
365.111	387.97
365.493	367.18
365.874	383
366.256	389.33
366.637	393.62
367.019	380.06
367.4	390.68
367.781	366.95
368.163	375.54
368.544	400.17
368.925	377.8
369.306	399.5
369.688	365.15
370.069	382.77
370.45	380.96
370.831	376.67
371.212	379.16
371.593	389.1
371.974	376.44
372.355	375.54
372.736	388.87
373.117	383.45
373.498	378.48
373.879	391.36
374.26	365.15
374.641	361.76
375.021	390.91
375.402	397.69
375.783	423.22
376.163	431.36
376.544	417.8
376.925	416.9
377.305	398.82
377.686	408.76
378.066	406.73
378.447	426.84
378.827	405.14
379.208	404.47
379.588	432.71
379.968	434.97
380.349	416.22
380.729	414.64
381.109	434.3
381.489	421.19
381.87	429.32
382.25	433.39
382.63	451.47
383.01	449.44
383.39	445.82
383.77	432.26
384.15	431.36
384.53	450.57
384.91	450.12
385.29	456.67
385.67	467.97
386.049	470.23
386.429	461.87
386.809	480.62
387.189	469.78
387.568	457.57
387.948	474.75
388.328	486.5
388.707	486.95
389.087	483.79
389.466	489.44
389.846	495.54
390.225	499.83
390.605	493.73
390.984	507.74
391.363	489.44
391.743	512.03
392.122	522.88
392.501	508.19
392.881	525.59
393.26	505.71
393.639	538.02
394.018	521.53
394.397	527.4
394.776	539.6
395.155	538.02
395.534	540.28
395.913	553.62
396.292	581.86
396.671	544.8
397.05	557.46
397.429	554.29
397.808	539.6
398.186	549.77
398.565	558.14
398.944	598.36
399.323	563.33
399.701	579.6
400.08	586.61
400.458	579.38
400.837	592.94
401.215	611.69
401.594	613.05
401.972	602.2
402.351	619.38
402.729	620.28
403.107	611.47
403.486	608.3
403.864	633.16
404.242	631.13
404.62	632.03
404.999	620.73
405.377	660.73
405.755	654.63
406.133	677.45
406.511	653.73
406.889	660.73
407.267	674.52
407.645	662.31
408.023	703.67
408.401	712.93
408.779	724.01
409.156	695.98
409.534	720.39
409.912	740.28
410.29	710.45
410.667	749.09
411.045	740.96
411.422	759.26
411.8	760.62
412.178	775.08
412.555	772.37
412.933	808.07
413.31	805.36
413.687	821.63
414.065	819.6
414.442	803.1
414.819	800.39
415.197	846.04
415.574	844.23
415.951	862.08
416.328	881.06
416.705	862.99
417.082	867.73
417.46	886.94
417.837	893.95
418.214	890.1
418.591	881.52
418.967	890.78
419.344	922.87
419.721	924.91
420.098	925.13
420.475	923.32
420.852	928.07
421.228	941.18
421.605	953.38
421.982	960.61
422.358	991.12
422.735	960.16
423.111	962.42
423.488	969.88
423.864	991.8
424.241	1015.52
424.617	1007.39
424.994	997.9
425.37	1019.59
425.746	1024.34
426.123	1036.31
426.499	1051.68
426.875	1069.99
427.251	1044.68
427.627	1078.8
428.003	1104.34
428.379	1134.17
428.756	1107.05
429.132	1149.08
429.507	1154.73
429.883	1180.94
430.259	1188.85
430.635	1194.95
431.011	1193.37
431.387	1219.59
431.763	1234.95
432.138	1228.17
432.514	1262.3
432.89	1248.06
433.265	1278.12
433.641	1301.84
434.016	1326.48
434.392	1341.62
434.767	1360.15
435.143	1363.76
435.518	1352.24
435.894	1372.35
436.269	1395.85
436.644	1389.07
437.02	1416.42
437.395	1416.64
437.77	1430.43
438.145	1466.59
438.52	1455.96
438.895	1498.9
439.271	1459.81
439.646	1531.44
440.021	1549.75
440.395	1509.75
440.77	1501.39
441.145	1539.13
441.52	1580.93
441.895	1573.7
442.27	1589.07
442.645	1585.45
443.019	1611.44
443.394	1592.68
443.769	1629.75
444.143	1596.53
444.518	1632.23
444.892	1638.78
445.267	1622.51
445.641	1643.98
446.016	1672.68
446.39	1704.09
446.764	1712.23
447.139	1679.01
447.513	1703.64
447.887	1705.9
448.262	1712.45
448.636	1716.97
449.01	1731.89
449.384	1772.57
449.758	1778.89
450.132	1792.23
450.506	1829.06
450.88	1817.08
451.254	1809.63
451.628	1886.24
452.002	1904.31
452.376	1878.55
452.75	1895.5
453.123	1919.68
453.497	1942.05
453.871	1970.75
454.244	1979.34
454.618	2001.26
454.992	2051.2
455.365	2029.51
455.739	2106.34
456.112	2103.63
456.486	2124.42
456.859	2153.57
457.232	2183.86
457.606	2173.23
457.979	2225.21
458.352	2279.22
458.725	2277.19
459.099	2318.99
459.472	2360.57
459.845	2377.75
460.218	2396.05
460.591	2413
460.964	2428.82
461.337	2448.93
461.71	2507.01
462.083	2553.11
462.456	2514.02
462.829	2598.08
463.201	2600.79
463.574	2608.93
463.947	2624.52
464.32	2672.66
464.692	2657.74
465.065	2717.63
465.438	2738.87
465.81	2772.09
466.183	2783.61
466.555	2885.98
466.928	2872.88
467.3	2862.71
467.672	2914.46
468.045	2986.09
468.417	2964.85
468.789	2980.44
469.161	3054.57
469.534	3110.61
469.906	3134.11
470.278	3141.8
470.65	3159.87
471.022	3226.09
471.394	3287.55
471.766	3308.12
472.138	3370.26
472.51	3398.96
472.882	3448.68
473.253	3485.29
473.625	3510.37
473.997	3583.37
474.369	3657.04
474.74	3683.02
475.112	3738.39
475.484	3762.34
475.855	3861.78
476.227	3939.74
476.598	4021.77
476.97	4012.28
477.341	4069.46
477.713	4131.83
478.084	4170.02
478.455	4303.8
478.827	4313.29
479.198	4461.76
479.569	4479.39
479.94	4607.52
480.311	4630.12
480.682	4763.67
481.053	4836.67
481.424	4931.35
481.795	4954.4
482.166	5076.21
482.537	5105.59
482.908	5198.69
483.279	5250.22
483.65	5387.16
484.021	5439.81
484.391	5514.39
484.762	5602.75
485.133	5662.41
485.503	5734.27
485.874	5908.95
486.244	5915.51
486.615	6102.85
486.985	6213.58
487.356	6269.62
487.726	6359.11
488.097	6518.43
488.467	6545.32
488.837	6654.92
489.207	6743.06
489.578	6883.84
489.948	6952.32
490.318	7101.01
490.688	7107.57
491.058	7317.28
491.428	7364.96
491.798	7473.43
492.168	7582.58
492.538	7663.94
492.908	7813.31
493.278	7861.45
493.648	7888.56
494.017	8035.45
494.387	8068.22
494.757	8228.89
495.126	8305.5
495.496	8331.94
495.866	8484.03
496.235	8554.31
496.605	8682.44
496.974	8681.76
497.344	8858.26
497.713	8919.27
498.082	8970.34
498.452	9059.38
498.821	9142.99
499.19	9168.08
499.559	9331.46
499.928	9351.12
500.298	9439.48
500.667	9530.55
501.036	9556.99
501.405	9623.43
501.774	9664.56
502.143	9848.74
502.512	9881.28
502.88	9977.32
503.249	10033.14
503.618	10149.75
503.987	10136.19
504.356	10291.66
504.724	10269.07
505.093	10334.15
505.462	10482.39
505.83	10529.62
506.199	10660.02
506.567	10751.09
506.936	10742.05
507.304	10851.2
507.672	10902.95
508.041	10941.14
508.409	11106.56
508.777	11163.96
509.145	11251.19
509.514	11227.91
509.882	11361.47
510.25	11405.76
510.618	11456.38
510.986	11537.06
511.354	11612.53
511.722	11722.36
512.09	11846.43
512.458	11783.83
512.826	11902.24
513.193	12003.48
513.561	12032.86
513.929	12179.07
514.297	12328.45
514.664	12303.81
515.032	12353.31
515.4	12522.79
515.767	12572.51
516.135	12661.32
516.502	12586.07
516.869	12803.24
517.237	12848.66
517.604	12888.66
517.972	13144.7
518.339	13184.02
518.706	13196.45
519.073	13271.93
519.44	13344.69
519.808	13517.79
520.175	13583.78
520.542	13737.22
520.909	13815.41
521.276	13865.36
521.643	13994.39
522.009	14068.29
522.376	14202.3
522.743	14297.43
523.11	14555.96
523.477	14617.65
523.843	14651.32
524.21	14864.2
524.577	15039.79
524.943	15129.05
525.31	15175.6
525.676	15358.65
526.043	15474.35
526.409	15536.95
526.776	15720.45
527.142	15778.53
527.508	15824.63
527.874	16095.58
528.241	16151.17
528.607	16261.68
528.973	16508.45
529.339	16466.64
529.705	16694.89
530.071	16805.39
530.437	16766.07
530.803	17049.45
531.169	17197.47
531.535	17158.15
531.901	17182.1
532.267	17299.62
532.632	17504.81
532.998	17601.08
533.364	17695.54
533.73	17851.24
534.095	17937.79
534.461	18003.55
534.826	18082.65
535.192	18137.11
535.557	18389.08
535.923	18340.94
536.288	18454.16
536.653	18514.95
537.019	18559.92
537.384	18674.95
537.749	18767.37
538.114	18874.72
538.479	18830.65
538.845	18986.58
539.21	18995.16
539.575	19081.04
539.94	19154.71
540.305	19300.92
540.67	19251.2
541.034	19392.67
541.399	19394.93
541.764	19519.44
542.129	19603.28
542.494	19699.33
542.858	19747.46
543.223	19766.44
543.587	19895.71
543.952	19864.75
544.316	19972.77
544.681	19951.98
545.045	20075.81
545.41	20167.56
545.774	20234
546.138	20216.38
546.503	20318.07
546.867	20400.1
547.231	20568.91
547.595	20606.65
547.959	20599.87
548.324	20759.64
548.688	20752.86
549.052	20914.21
549.416	20845.29
549.779	20802.12
550.143	20964.15
550.507	21079.18
550.871	21128.89
551.235	21156.24
551.599	21391.94
551.962	21400.98
552.326	21493.63
552.689	21490.92
553.053	21405.72
553.417	21620.41
553.78	21903.79
554.143	21757.8
554.507	21927.29
554.87	21984.46
555.234	22163.67
555.597	22027.85
555.96	22155.53
556.323	22188.07
556.686	22421.06
557.05	22622.64
557.413	22706.25
557.776	22627.39
558.139	22951.22
558.502	22833.71
558.865	22982.63
559.228	23278.67
559.59	23132.23
559.953	23233.92
560.316	23463.75
560.679	23571.54
561.041	23676.17
561.404	23874.58
561.767	24055.82
562.129	24049.72
562.492	24220.56
562.854	24220.34
563.217	24289.26
563.579	24431.86
563.941	24558.41
564.304	24880.43
564.666	25083.82
565.028	25056.02
565.39	25144.61
565.753	25307.31
566.115	25389.8
566.477	25536.24
566.839	25685.38
567.201	25941.87
567.563	25958.15
567.925	26259.83
568.287	26232.04
568.648	26467.28
569.01	26577.79
569.372	26762.87
569.734	26682.19
570.095	27035.63
570.457	27339.35
570.819	27334.15
571.18	27359.92
571.542	27607.82
571.903	27724.2
572.265	27828.6
572.626	28136.17
572.987	28139.1
573.349	28309.72
573.71	28566.89
574.071	28657.74
574.432	28816.38
574.794	29052.3
575.155	29002.58
575.516	29167.1
575.877	29307.89
576.238	29432.18
576.599	29701.32
576.96	29647.99
577.32	29815.22
577.681	29997.36
578.042	30262.89
578.403	30305.15
578.763	30365.71
579.124	30512.6
579.485	30704.91
579.845	30976.54
580.206	31037.11
580.566	31161.85
580.927	31157.78
581.287	31459.47
581.648	31607.49
582.008	31796.64
582.368	31890.87
582.728	32067.14
583.089	32140.81
583.449	32405.66
583.809	32631.42
584.169	33004.29
584.529	32965.64
584.889	33463.48
585.249	33425.52
585.609	33427.55
585.969	34048.33
586.329	34035.45
586.688	34567.41
587.048	34613.28
587.408	34975.76
587.768	35292.59
588.127	35511.34
588.487	35840.15
588.846	36427.25
589.206	36348.83
589.565	36861.59
589.925	37332.76
590.284	37775.69
590.643	38090.48
591.003	38507.42
591.362	38999.84
591.721	39410.45
592.08	39654.96
592.44	40318.22
592.799	40508.95
593.158	41003.4
593.517	41349.6
593.876	41921.79
594.235	42133.09
594.593	42608.33
594.952	43148.88
595.311	43570.79
595.67	44167.38
596.029	44703.19
596.387	45107.92
596.746	45675.59
597.104	45758.08
597.463	46296.82
597.822	46791.95
598.18	47115.78
598.538	47417.24
598.897	48087.05
599.255	48152.36
599.613	48979.91
599.972	49107.59
600.33	49556.39
600.688	49794.81
601.046	50218.75
601.404	50711.62
601.762	50871.61
602.12	51326.07
602.478	51616.45
602.836	51921.53
603.194	52030.45
603.552	52394.51
603.91	52704.33
604.268	53107.04
604.625	53230.42
604.983	53638.1
605.341	53719.22
605.698	54137.52
606.056	54545.64
606.413	54459.77
606.771	54853.66
607.128	55079.64
607.485	55232.4
607.843	55355.11
608.2	55606.18
608.557	55910.13
608.914	55996.23
609.272	56288.42
609.629	56541.75
609.986	56710.56
610.343	56779.26
610.7	57165.23
611.057	57271.67
611.414	57308.28
611.771	57526.81
612.127	57818.32
612.484	57907.14
612.841	58119.33
613.198	58092.44
613.554	58255.38
613.911	58562.26
614.267	58648.81
614.624	58764.97
614.98	58971.51
615.337	59209.7
615.693	59208.34
616.05	59356.36
616.406	59529.24
616.762	59536.92
617.118	59633.64
617.475	59773.3
617.831	59982.11
618.187	60070.47
618.543	60151.6
618.899	60296.23
619.255	60319.28
619.611	60425.26
619.967	60569.66
620.323	60780.96
620.678	60665.26
621.034	60697.57
621.39	60844.91
621.746	60848.75
622.101	61204.9
622.457	60968.75
622.812	61233.6
623.168	61259.59
623.523	61279.48
623.879	61347.95
624.234	61286.71
624.589	61430.88
624.945	61473.6
625.3	61537.1
625.655	61609.86
626.01	61595.17
626.365	61710.65
626.72	61624.78
627.075	61660.26
627.43	61766.02
627.785	61761.72
628.14	61830.65
628.495	61798.33
628.85	61858.44
629.205	61895.73
629.559	61968.72
629.914	61864.55
630.269	61934.37
630.623	61837.43
630.978	61834.04
631.332	61976.18
631.687	61958.78
632.041	61919.01
632.396	61994.03
632.75	61930.76
633.104	61952.45
633.459	61845.79
633.813	61969.63
634.167	61927.14
634.521	61910.87
634.875	61909.06
635.229	61842.4
635.583	61781.16
635.937	61820.03
636.291	61836.52
636.645	61848.05
636.999	61765.34
637.352	61846.24
637.706	61714.04
638.06	61797.2
638.413	61780.93
638.767	61667.94
639.121	61716.75
639.474	61565.34
639.828	61669.97
640.181	61686.47
640.534	61649.64
640.888	61582.75
641.241	61489.19
641.594	61519.92
641.947	61629.75
642.301	61527.61
642.654	61579.58
643.007	61457.78
643.36	61572.35
643.713	61474.73
644.066	61518.57
644.419	61439.02
644.771	61121.29
645.124	60959.71
645.477	61024.79
645.83	60850.79
646.182	60837.68
646.535	60781.86
646.888	60826.15
647.24	60794.07
647.593	60884.23
647.945	60823.9
648.298	60731.47
648.65	60594.3
649.002	60587.74
649.355	60515.65
649.707	60434.3
650.059	60457.8
650.411	60769.21
650.763	60838.58
651.115	61176.43
651.467	61091.01
651.819	61102.98
652.171	61019.6
652.523	61022.76
652.875	61052.82
653.227	60852.59
653.578	61071.8
653.93	61011.91
654.282	60860.28
654.633	60860.73
654.985	60889.2
655.337	60888.3
655.688	60873.16
656.039	60922.65
656.391	60654.18
656.742	60855.31
657.094	60795.65
657.445	60817.57
657.796	60798.81
658.147	60765.59
658.498	60722.43
658.849	60793.16
659.2	60737.12
659.551	60672.49
659.902	60794.07
660.253	60683.33
660.604	60724.46
660.955	60546.61
661.306	60690.79
661.656	60589.55
662.007	60627.29
662.358	60648.53
662.708	60606.73
663.059	60605.14
663.409	60585.48
663.76	60553.17
664.11	60589.32
664.461	60625.71
664.811	60657.57
665.161	60562.88
665.511	60513.39
665.862	60539.38
666.212	60580.06
666.562	60553.39
666.912	60563.56
667.262	60500.51
667.612	60535.54
667.962	60557.24
668.312	60534.19
668.662	60623.45
669.011	60518.59
669.361	60516.78
669.711	60563.79
670.06	60450.35
670.41	60469.1
670.76	60393.17
671.109	60501.87
671.459	60483.34
671.808	60485.37
672.157	60510.68
672.507	60322.21
672.856	60347.75
673.205	60346.39
673.554	60434.98
673.904	60376.45
674.253	60554.3
674.602	60408.76
674.951	60013.07
675.3	59955.9
675.649	60377.35
675.998	60339.16
676.346	60392.49
676.695	60395.21
677.044	60213.97
677.393	60252.61
677.741	60315.43
678.09	60182.78
678.438	60201.76
678.787	60289.22
679.135	60259.16
679.484	60101.2
679.832	60212.16
680.181	60118.15
680.529	60148.43
680.877	60010.13
681.225	60066.17
681.573	60250.58
681.922	60054.65
682.27	60040.64
682.618	59989.57
682.966	59950.7
683.314	59991.6
683.661	59999.74
684.009	59822.34
684.357	59880.87
684.705	59745.51
685.053	59794.54
685.4	59732.62
685.748	59712.96
686.095	59629.12
686.443	59507.32
686.79	59528.56
687.138	59564.95
687.485	59550.93
687.832	59408.34
688.18	59455.12
688.527	59318.85
688.874	59339.64
689.221	59311.62
689.568	59261.68
689.915	59206.99
690.262	59263.94
690.609	59122.24
690.956	59076.82
691.303	59074.11
691.65	58930.61
691.997	58938.75
692.344	58847.22
692.69	58807.9
693.037	58882.25
693.383	58656.27
693.73	58738.07
694.077	58587.34
694.423	58630.05
694.769	58442.49
695.116	58473
695.462	58335.37
695.808	58263.96
696.155	58303.06
696.501	58139.67
696.847	58144.42
697.193	57937.87
697.539	58024.19
697.885	57879.11
698.231	57779.23
698.577	57800.7
698.923	57779
699.269	57569.74
699.614	57517.99
699.96	57468.5
700.306	57426.7
700.651	57342.4
700.997	57240.03
701.342	57206.59
701.688	57219.24
702.033	57039.14
702.379	57088.85
702.724	56880.5
703.069	56977.67
703.415	56753.04
703.76	56657.68
704.105	56659.48
704.45	56590.11
704.795	56452.94
705.14	56472.15
705.485	56396.44
705.83	56176.33
706.175	56311.25
706.52	56199.61
706.865	56052.72
707.209	56046.85
707.554	56002.33
707.899	56078.03
708.243	55871.48
708.588	55802.33
708.932	55714.42
709.277	55669.91
709.621	55672.17
709.966	55454.77
710.31	55480.53
710.654	55280.99
710.998	55284.15
711.342	55328.9
711.687	55266.53
712.031	55139.3
712.375	55077.61
712.719	55033.54
713.063	54999.64
713.407	55116.47
713.75	54893.66
714.094	54842.81
714.438	54793.09
714.782	54819.99
715.125	54570.73
715.469	54749.03
715.812	54575.47
716.156	54475.36
716.499	54536.83
716.843	54518.07
717.186	54388.36
717.53	54502.03
717.873	54354.91
718.216	54302.26
718.559	54230.4
718.902	54018.42
719.246	54109.95
719.589	54054.13
719.932	53885.32
720.275	53919.9
720.617	54030.4
720.96	53833.34
721.303	53805.55
721.646	53826.11
721.989	53654.59
722.331	53767.36
722.674	53632.67
723.016	53658.66
723.359	53462.73
723.701	53560.36
724.044	53493.24
724.386	53323.53
724.729	53460.25
725.071	53305
725.413	53330.31
725.755	53287.6
726.097	53184.77
726.439	53023.65
726.782	53085.12
727.124	53218.22
727.465	53036.3
727.807	52935.51
728.149	52972.58
728.491	52897.78
728.833	52928.96
729.175	52776.65
729.516	52742.98
729.858	52694.17
730.199	52751.79
730.541	52739.59
730.882	52680.83
731.224	52622.08
731.565	52516.32
731.906	52596.77
732.248	52591.12
732.589	52439.71
732.93	52425.02
733.271	52431.35
733.612	52383.89
733.953	52436.09
734.294	52352.25
734.635	52232.93
734.976	52372.59
735.317	52253.27
735.658	52210.56
735.999	52085.82
736.339	52113.39
736.68	52108.87
737.021	52096.67
737.361	52019.38
737.702	52204.91
738.042	52062.32
738.383	52083.11
738.723	52133.05
739.063	51872.27
739.404	52109.55
739.744	51971.92
740.084	51860.74
740.424	51889.44
740.764	51789.33
741.104	52055.99
741.444	51759.5
741.784	51669.33
742.124	51842.89
742.464	51696.23
742.804	51677.47
743.143	51605.83
743.483	51698.03
743.823	51594.53
744.162	51576.23
744.502	51536.91
744.841	51456.46
745.181	51739.61
745.52	51500.75
745.86	51553.18
746.199	51470.92
746.538	51404.71
746.877	51604.48
747.216	51483.8
747.556	51408.78
747.895	51454.2
748.234	51400.87
748.573	51378.72
748.911	51263.69
749.25	51317.48
749.589	51161.55
749.928	51231.83
750.267	51293.3
750.605	51147.09
750.944	51122.91
751.283	51165.62
751.621	51173.75
751.96	50932.86
752.298	51015.57
752.636	50906.64
752.975	50948
753.313	50766.76
753.651	50969.01
753.989	50720.43
754.327	50795.46
754.666	50571.74
755.004	50702.58
755.342	50738.06
755.679	50710.04
756.017	50532.87
756.355	50521.12
756.693	50444.28
757.031	50512.53
757.368	50316.83
757.706	50373.77
758.044	50068.02
758.381	50216.26
758.719	50090.84
759.056	50159.32
759.394	49986.89
759.731	49792.32
760.068	49778.76
760.405	49755.49
760.743	49534.47
761.08	49693.34
761.417	49377.19
761.754	49333.8
762.091	49258.55
762.428	49096.07
762.765	48945.34
763.102	49038.44
763.438	49037.31
763.775	48793.93
764.112	48887.03
764.449	48654.27
764.785	48522.3
765.122	48472.13
765.458	48184.91
765.795	48170.44
766.131	48289.54
766.467	48067.62
766.804	47845.48
767.14	47696.33
767.476	47706.5
767.812	47565.49
768.148	47604.58
768.485	47337.7
768.821	47079.62
769.157	46974.32
769.492	46873.53
769.828	46773.64
770.164	46611.16
770.5	46600.54
770.836	46450.49
771.171	46438.28
771.507	46193.77
771.842	45900.22
772.178	45886.89
772.513	45735.48
772.849	45607.8
773.184	45525.54
773.519	45414.13
773.855	45188.37
774.19	45120.81
774.525	44911.77
774.86	44960.81
775.195	44706.13
775.53	44552.68
775.865	44331.22
776.2	44173.94
776.535	44044
776.87	43811.91
777.205	43848.52
777.539	43586.16
777.874	43679.04
778.209	43120.86
778.543	43305.03
778.878	43040.86
779.212	43071.82
779.547	42672.06
779.881	42795.44
780.215	42492.17
780.55	42607.2
780.884	42177.61
781.218	42089.47
781.552	42133.99
781.886	41809.48
782.22	41558.19
782.554	41502.6
782.888	41214.69
783.222	41208.59
783.556	41039.33
783.889	40740.58
784.223	40586.69
784.557	40549.63
784.89	40569.96
785.224	40409.06
785.557	40121.61
785.891	40005.01
786.224	40053.37
786.558	39820.38
786.891	39605.24
787.224	39379.04
787.557	39295.2
787.891	39318.7
788.224	38970.91
788.557	39003
788.89	38978.14
789.223	38853.17
789.556	38583.8
789.888	38523.01
790.221	38348.55
790.554	38086.64
790.887	38027.21
791.219	37908.34
791.552	37846.87
791.884	37597.61
792.217	37628.35
792.549	37484.4
792.882	36998.98
793.214	37063.16
793.546	36997.18
793.879	36939.1
794.211	36585.66
794.543	36783.85
794.875	36489.17
795.207	36473.35
795.539	36293.47
795.871	36341.6
796.203	36124.21
796.535	35873.82
796.867	35884.66
797.198	35484
797.53	35575.97
797.862	35291.46
798.193	35414.39
798.525	35192.93
798.856	35297.56
799.188	34720.85
799.519	34803.11
799.85	34582.33
800.182	34578.03
800.513	34655.77
800.844	34270.47
801.175	34506.17
801.506	34458.71
801.837	34359.05
802.168	34087.65
802.499	34204.71
802.83	33831.16
803.161	33686.76
803.491	33704.83
803.822	33723.82
804.153	33461.9
804.483	33259.2
804.814	33203.38
805.145	33237.5
805.475	33210.61
805.805	33134.45
806.136	32968.13
806.466	32971.75
806.796	32839.77
807.126	32611.53
807.457	32617.63
807.787	32593.22
808.117	32364.08
808.447	32427.81
808.777	32437.3
809.107	32085.67
809.436	32064.43
809.766	32013.81
810.096	31903.07
810.426	31798.67
810.755	31902.62
811.085	31566.13
811.414	31782.62
811.744	31519.35
812.073	31458.57
812.403	31397.55
812.732	31209.53
813.061	31416.53
813.39	30948.97
813.719	31014.74
814.049	31147.84
814.378	31026.71
814.707	30773.84
815.036	30715.99
815.365	30727.74
815.693	30372.27
816.022	30461.76
816.351	30407.97
816.68	30288.2
817.008	30341.98
817.337	30110.58
817.665	30093.4
817.994	30113.74
818.322	30138.83
818.651	29952.16
818.979	29909
819.307	29916.23
819.636	29799.63
819.964	29684.15
820.292	29763.92
820.62	29723.92
820.948	29622.46
821.276	29931.83
821.604	29683.47
821.932	29874.2
822.259	29772.28
822.587	29766.86
822.915	29699.52
823.243	29598.73
823.57	29648.9
823.898	29528.45
824.225	29722.34
824.553	29565.96
824.88	29461.1
825.207	29699.29
825.535	29474.89
825.862	29687.76
826.189	29550.14
826.516	29840.98
826.843	29735.22
827.17	29791.26
827.497	29739.06
827.824	29658.84
828.151	29673.3
828.478	29528.22
828.805	29818.38
829.131	29672.62
829.458	29696.58
829.785	29488.9
830.111	29586.98
830.438	29772.51
830.764	29700.65
831.09	29753.75
831.417	29496.13
831.743	29695.9
832.069	29539.29
832.395	29485.06
832.722	29629.91
833.048	29488.45
833.374	29577.26
833.7	29415.46
834.026	29567.77
834.351	29424.27
834.677	29440.99
835.003	29467.88
835.329	29359.86
835.654	29240.32
835.98	29190.83
836.306	29290.94
836.631	29134.11
836.956	29440.31
837.282	29417.49
837.607	29154.22
837.932	29188.79
838.258	29076.03
838.583	28997.16
838.908	29020.21
839.233	28984.51
839.558	28825.41
839.883	28860.44
840.208	28763.5
840.533	28770.5
840.858	28784.29
841.182	28732.31
841.507	28787.9
841.832	28516.72
842.156	28575.25
842.481	28511.3
842.805	28401.7
843.13	28268.82
843.454	28203.96
843.778	28145.43
844.103	28128.26
844.427	28106.56
844.751	28048.03
845.075	27960.8
845.399	27952.67
845.723	27905.66
846.047	27843.07
846.371	27596.97
846.695	27606.69
847.019	27518.78
847.343	27325.11
847.666	27252.12
847.99	27023.88
848.313	27028.17
848.637	26977.33
848.96	26819.37
849.284	26773.49
849.607	26502.09
849.931	26488.3
850.254	26348.42
850.577	26197.91
850.9	26036.11
851.223	26112.04
851.546	25976.22
851.869	25741.65
852.192	25947.75
852.515	25557.7
852.838	25570.58
853.161	25451.94
853.483	25328.78
853.806	25162.23
854.129	25194.32
854.451	25207.43
854.774	25001.79
855.096	24902.13
855.419	24829.36
855.741	24772.87
856.063	24716.6
856.385	24527.22
856.708	24557.5
857.03	24463.95
857.352	24440.44
857.674	24360.22
857.996	24261.01
858.318	24033.9
858.64	24028.25
858.961	23934.7
859.283	23803.63
859.605	23844.08
859.926	23952.32
860.248	23761.82
860.57	23708.71
860.891	23634.59
861.212	23671.43
861.534	23578.55
861.855	23369.06
862.176	23430.3
862.498	23434.37
862.819	23526.57
863.14	23410.87
863.461	23256.75
863.782	23184.88
864.103	23222.17
864.424	23219.01
864.745	23243.19
865.065	23033.7
865.386	22948.51
865.707	22937.66
866.027	22994.38
866.348	22870.77
866.668	22838.23
866.989	22782.86
867.309	22682.3
867.63	22628.52
867.95	22637.33
868.27	22517.56
868.59	22583.09
868.91	22493.83
869.23	22513.26
869.55	22335.42
869.87	22458.12
870.19	22322.31
870.51	22408.18
870.83	22290.67
871.15	22208.64
871.469	22088.87
871.789	22239.15
872.109	22293.83
872.428	22077.12
872.748	22140.62
873.067	22059.26
873.386	22125.25
873.706	21957.12
874.025	21935.43
874.344	21809.78
874.663	21825.6
874.982	21801.19
875.301	21811.81
875.62	21758.03
875.939	21716.45
876.258	21769.33
876.577	21560.29
876.896	21535.89
877.214	21546.51
877.533	21479.39
877.852	21548.32
878.17	21542.89
878.489	21482.78
878.807	21341.54
879.125	21251.83
879.444	21274.2
879.762	21363.69
880.08	21412.05
880.398	21094.09
880.716	21231.72
881.034	21037.82
881.352	21087.09
881.67	21015.22
881.988	21014.77
882.306	20872.63
882.624	20892.97
882.941	20769.13
883.259	20805.96
883.577	20873.99
883.894	20746.98
884.212	20710.6
884.529	20558.74
884.846	20436.03
885.164	20385.18
885.481	20476.26
885.798	20417.95
886.115	20387.44
886.432	20417.05
886.75	20284.4
887.067	20327.56
887.383	20238.52
887.7	20116.72
888.017	19996.95
888.334	20044.63
888.651	19949.94
888.967	19938.64
889.284	19914.91
889.6	19815.93
889.917	19683.51
890.233	19802.37
890.55	19674.69
890.866	19596.96
891.182	19612.32
891.498	19488.71
891.815	19398.09
892.131	19297.76
892.447	19268.6
892.763	19239
893.079	19175.72
893.395	19187.48
893.71	19180.92
894.026	18992.9
894.342	19059.57
894.657	18856.64
894.973	18946.35
895.289	18848.05
895.604	18801.05
895.92	18695.29
896.235	18638.34
896.55	18647.15
896.865	18474.5
897.181	18547.04
897.496	18501.62
897.811	18293.26
898.126	18275.18
898.441	18300.95
898.756	18194.51
899.071	18084.23
899.386	18196.77
899.7	17916.55
900.015	17926.94
900.33	17807.85
900.644	17722.43
900.959	17744.12
901.273	17643.11
901.588	17544.81
901.902	17539.16
902.216	17547.29
902.531	17397.69
902.845	17387.98
903.159	17261.2
903.473	17185.04
903.787	17079.28
904.101	17025.27
904.415	17075.44
904.729	16905.5
905.042	16906.18
905.356	16789.8
905.67	16773.75
905.984	16706.41
906.297	16641.78
906.611	16561.56
906.924	16417.83
907.237	16486.76
907.551	16421.22
907.864	16366.53
908.177	16348.45
908.491	16239.3
908.804	16042.47
909.117	16041.34
909.43	15818.3
909.743	15924.51
910.056	15965.41
910.368	15783.5
910.681	15765.19
910.994	15630.96
911.307	15585.99
911.619	15518.19
911.932	15517.29
912.244	15385.54
912.557	15413.79
912.869	15285.21
913.181	15297.63
913.494	15177.41
913.806	15157.07
914.118	15084.08
914.43	14998.89
914.742	14932.9
915.054	14854.03
915.366	14739.91
915.678	14656.07
915.99	14621.95
916.302	14604.32
916.613	14464.89
916.925	14431.44
917.236	14464.89
917.548	14337.66
917.859	14362.74
918.171	14234.84
918.482	14133.82
918.794	14074.16
919.105	14069.64
919.416	13966.82
919.727	13927.28
920.038	13840.5
920.349	13745.81
920.66	13735.19
920.971	13666.94
921.282	13660.84
921.593	13590.33
921.903	13469.66
922.214	13386.05
922.525	13370.91
922.835	13312.15
923.146	13297.46
923.456	13203
923.767	13118.26
924.077	13144.47
924.387	13113.74
924.697	13024.93
925.008	12962.55
925.318	12821.09
925.628	12870.13
925.938	12820.41
926.248	12768.89
926.558	12732.5
926.867	12600.08
927.177	12590.14
927.487	12486.18
927.796	12462.68
928.106	12462.23
928.416	12369.8
928.725	12251.84
929.034	12218.17
929.344	12269.47
929.653	12096.36
929.962	12048.23
930.271	12010.49
930.581	11955.58
930.89	11910.15
931.199	11884.84
931.508	11810.27
931.817	11721.68
932.125	11715.81
932.434	11635.81
932.743	11491.18
933.051	11480.33
933.36	11539.09
933.669	11452.76
933.977	11365.53
934.286	11346.78
934.594	11281.69
934.902	11216.16
935.21	11130.06
935.519	11083.51
935.827	11041.25
936.135	11037.63
936.443	10911.08
936.751	10912.44
937.059	10822.5
937.367	10878.32
937.674	10911.31
937.982	10784.98
938.29	10751.77
938.597	10678.32
938.905	10596.97
939.213	10554.93
939.52	10481.26
939.827	10487.59
940.135	10439.23
940.442	10372.79
940.749	10357.88
941.056	10451.21
941.363	10233.81
941.67	10263.19
941.977	10071.56
942.284	10144.32
942.591	10140.93
942.898	10100.03
943.205	10052.12
943.511	9947.49
943.818	9866.14
944.125	9809.42
944.431	9840.15
944.738	9775.29
945.044	9770.32
945.35	9700.04
945.657	9586.82
945.963	9616.43
946.269	9591.34
946.575	9529.42
946.881	9451.69
947.187	9487.84
947.493	9404.23
947.799	9351.12
948.105	9310.9
948.41	9249.88
948.716	9162.88
949.022	9215.76
949.327	9167.63
949.633	9062.09
949.938	9105.48
950.244	9086.05
950.549	8979.61
950.854	8912.49
951.16	8889.22
951.465	8800.86
951.77	8773.51
952.075	8777.81
952.38	8685.15
952.685	8697.58
952.99	8639.73
953.294	8606.96
953.599	8565.61
953.904	8559.05
954.209	8419.4
954.513	8485.61
954.818	8427.76
955.122	8373.07
955.426	8339.17
955.731	8318.83
956.035	8287.88
956.339	8227.31
956.643	8222.34
956.948	8166.07
957.252	8067.99
957.556	8119.29
957.86	8099.18
958.163	8106.41
958.467	8023.7
958.771	7970.37
959.075	7915.46
959.378	7801.56
959.682	7880.43
959.985	7800.2
960.289	7683.6
960.592	7726.31
960.896	7682.69
961.199	7630.27
961.502	7649.02
961.805	7562.7
962.108	7480.21
962.411	7491.06
962.714	7435.69
963.017	7394.57
963.32	7476.37
963.623	7349.37
963.926	7371.52
964.228	7283.16
964.531	7309.37
964.833	7262.82
965.136	7122.03
965.438	7174.68
965.741	7182.14
966.043	7090.39
966.345	7038.64
966.648	7054.01
966.95	7001.13
967.252	7018.3
967.554	6959.55
967.856	6978.53
968.158	6881.36
968.46	6784.41
968.761	6830.29
969.063	6806.56
969.365	6740.35
969.666	6695.83
969.968	6703.51
970.269	6619.22
970.571	6685.66
970.872	6603.17
971.174	6575.6
971.475	6586.9
971.776	6564.76
972.077	6583.06
972.378	6414.7
972.679	6481.82
972.98	6438.43
973.281	6367.7
973.582	6341.03
973.883	6319.11
974.183	6282.5
974.484	6286.57
974.785	6199.34
975.085	6180.59
975.386	6161.83
975.686	6187.37
975.986	6104.66
976.287	6149.4
976.587	6047.03
976.887	6008.16
977.187	6054.04
977.487	5997.77
977.787	5955.06
978.087	5917.99
978.387	5929.07
978.687	5892.68
978.987	5856.75
979.286	5829.41
979.586	5815.62
979.885	5707.15
980.185	5751.67
980.484	5708.96
980.784	5653.59
981.083	5616.08
981.382	5596.42
981.682	5588.51
981.981	5569.3
982.28	5539.7
982.579	5488.85
982.878	5511.68
983.177	5482.3
983.475	5453.37
983.774	5406.14
984.073	5357.33
984.372	5347.61
984.67	5313.94
984.969	5308.52
985.267	5303.55
985.566	5264
985.864	5173.15
986.162	5210.22
986.461	5158.01
986.759	5200.05
987.057	5140.84
987.355	5089.09
987.653	5084.8
987.951	5082.08
988.249	5032.82
988.547	4980.17
988.844	4982.43
989.142	4993.27
989.44	4880.73
989.737	4885.03
990.035	4905.14
990.332	4881.19
990.63	4829.66
990.927	4837.12
991.224	4805.03
991.521	4757.12
991.819	4755.54
992.116	4755.99
992.413	4694.07
992.71	4677.35
993.006	4629.44
993.303	4666.95
993.6	4586.5
993.897	4598.25
994.193	4585.37
994.49	4546.5
994.787	4501.53
995.083	4431.48
995.379	4470.8
995.676	4460.41
995.972	4397.81
996.268	4402.55
996.565	4376.11
996.861	4357.13
997.157	4368.2
997.453	4264.7
997.749	4268.77
998.044	4217.25
998.34	4236.68
998.636	4193.75
998.932	4198.27
999.227	4162.79
999.523	4146.06
999.818	4146.97
1000.114	4076.01
1000.409	4052.96
1000.704	4040.98
1001	4036.46
1001.295	4004.6
1001.59	4006.18
1001.885	3949.68
1002.18	3949.46
1002.475	3928.44
1002.77	3912.4
1003.065	3890.02
1003.359	3854.55
1003.654	3826.07
1003.949	3782.91
1004.243	3819.97
1004.538	3760.54
1004.832	3745.62
1005.127	3756.92
1005.421	3679.63
1005.715	3676.7
1006.009	3671.27
1006.304	3635.57
1006.598	3611.84
1006.892	3596.02
1007.186	3519.41
1007.48	3556.02
1007.773	3492.07
1008.067	3522.35
1008.361	3480.77
1008.655	3456.36
1008.948	3403.48
1009.242	3374.78
1009.535	3370.26
1009.829	3375.69
1010.122	3381.34
1010.415	3332.07
1010.708	3297.5
1011.001	3296.37
1011.295	3274.9
1011.588	3226.99
1011.881	3228.57
1012.173	3233.32
1012.466	3193.55
1012.759	3138.86
1013.052	3164.62
1013.344	3113.55
1013.637	3113.77
1013.93	3098.18
1014.222	3074.45
1014.514	3011.4
1014.807	3013.66
1015.099	3001.69
1015.391	3035.13
1015.683	2954.46
1015.976	2965.76
1016.268	2932.76
1016.56	2909.71
1016.851	2897.96
1017.143	2868.36
1017.435	2881.01
1017.727	2823.84
1018.018	2776.61
1018.31	2780.68
1018.602	2792.88
1018.893	2728.25
1019.185	2742.48
1019.476	2714.24
1019.767	2707.91
1020.058	2705.88
1020.35	2616.61
1020.641	2593.79
1020.932	2654.35
1021.223	2600.79
1021.514	2563.73
1021.804	2539.55
1022.095	2542.04
1022.386	2522.38
1022.677	2518.31
1022.967	2477.86
1023.258	2469.72
1023.548	2450.06
1023.839	2425.66
1024.129	2417.75
1024.419	2388.82
1024.709	2344.53
1025	2366
1025.29	2299.78
1025.58	2322.61
1025.87	2262.27
1026.16	2281.71
1026.449	2269.95
1026.739	2282.61
1027.029	2259.33
1027.319	2189.96
1027.608	2199.45
1027.898	2207.81
1028.187	2169.17
1028.477	2174.14
1028.766	2127.36
1029.055	2132.1
1029.344	2104.99
1029.634	2084.87
1029.923	2106.34
1030.212	2069.51
1030.501	2056.63
1030.79	2027.02
1031.078	2013.46
1031.367	1999.91
1031.656	1980.24
1031.945	1983.63
1032.233	1944.77
1032.522	1948.15
1032.81	1930.75
1033.099	1914.26
1033.387	1895.95
1033.675	1883.98
1033.963	1883.52
1034.251	1873.58
1034.54	1857.76
1034.828	1841.94
1035.116	1817.54
1035.403	1785.45
1035.691	1832.9
1035.979	1794.49
1036.267	1776.86
1036.554	1753.58
1036.842	1755.84
1037.129	1749.97
1037.417	1720.36
1037.704	1727.37
1037.992	1699.8
1038.279	1690.99
1038.566	1655.73
1038.853	1655.73
1039.14	1655.73
