Data from 17-1456_FLMS001491_007.txt Node
Date: Thu Apr 19 16:30:43 BST 2018
User: hsy
Spectrometer: FLMS00149
Trigger mode: 0
Integration Time (sec): 1.000000E-2
Scans to average: 10
Electric dark correction enabled: true
Nonlinearity correction enabled: false
Boxcar width: 0
XAxis mode: Wavelengths
Number of Pixels in Spectrum: 2048
>>>>>Begin Spectral Data<<<<<
341.393	-6.6
341.776	-6.6
342.16	-6.6
342.543	-50.66
342.927	-59.25
343.31	-73.71
343.693	-84.33
344.077	-60.15
344.46	-67.61
344.843	-51.79
345.226	-58.12
345.61	-33.26
345.993	-17.44
346.376	4.48
346.759	20.75
347.142	23.91
347.525	59.62
347.908	65.94
348.291	74.53
348.674	87.64
349.057	109.56
349.44	132.61
349.823	153.85
350.206	157.69
350.588	225.26
350.971	251.93
351.354	308.2
351.737	294.87
352.119	286.28
352.502	302.77
352.884	323.34
353.267	319.95
353.65	317.01
354.032	355.2
354.414	345.71
354.797	360.85
355.179	378.48
355.562	373.06
355.944	376.44
356.326	377.8
356.709	391.81
357.091	396.78
357.473	377.57
357.855	400.63
358.238	382.09
358.62	394.75
359.002	383.68
359.384	399.5
359.766	399.5
360.148	413.05
360.53	392.26
360.912	410.34
361.294	388.65
361.676	379.83
362.057	401.53
362.439	374.86
362.821	394.52
363.203	374.64
363.584	371.25
363.966	386.16
364.348	377.12
364.729	368.08
365.111	384.35
365.493	382.77
365.874	384.81
366.256	360.85
366.637	380.74
367.019	381.87
367.4	396.56
367.781	374.41
368.163	396.11
368.544	385.03
368.925	363.79
369.306	368.76
369.688	407.63
370.069	371.25
370.45	401.98
370.831	383
371.212	373.51
371.593	406.5
371.974	370.12
372.355	390.68
372.736	371.25
373.117	384.13
373.498	408.99
373.879	383.9
374.26	395.88
374.641	395.88
375.021	404.24
375.402	385.71
375.783	412.6
376.163	423.45
376.544	422.32
376.925	406.95
377.305	424.13
377.686	417.8
378.066	391.81
378.447	397.01
378.827	407.86
379.208	411.02
379.588	437.01
379.968	432.94
380.349	443.56
380.729	432.49
381.109	441.98
381.489	440.62
381.87	441.3
382.25	429.78
382.63	437.01
383.01	455.99
383.39	435.65
383.77	439.95
384.15	451.92
384.53	468.87
384.91	458.25
385.29	467.97
385.67	477.91
386.049	467.74
386.429	473.39
386.809	468.65
387.189	478.14
387.568	473.84
387.948	475.2
388.328	485.59
388.707	467.29
389.087	483.56
389.466	504.35
389.846	504.13
390.225	484.24
390.605	494.86
390.984	488.53
391.363	498.7
391.743	491.7
392.122	523.56
392.501	502.09
392.881	516.33
393.26	539.38
393.639	516.33
394.018	522.43
394.397	545.48
394.776	524.24
395.155	528.08
395.534	553.16
395.913	537.34
396.292	541.19
396.671	554.75
397.05	550.68
397.429	556.55
397.808	561.98
398.186	581.86
398.565	559.26
398.944	560.39
399.323	558.36
399.701	584.35
400.08	587.06
400.458	593.16
400.837	562.88
401.215	584.12
401.594	579.38
401.972	616.21
402.351	600.85
402.729	620.28
403.107	616.21
403.486	609.89
403.864	632.71
404.242	606.04
404.62	628.19
404.999	627.96
405.377	639.26
405.755	642.2
406.133	659.83
406.511	637.68
406.889	662.09
407.267	683.56
407.645	672.48
408.023	661.86
408.401	684.69
408.779	688.3
409.156	687.17
409.534	705.7
409.912	712.93
410.29	712.26
410.667	727.17
411.045	764.01
411.422	756.1
411.8	749.32
412.178	744.12
412.555	741.41
412.933	748.19
413.31	763.55
413.687	787.06
414.065	790.45
414.442	804.23
414.819	819.15
415.197	792.71
415.574	827.28
415.951	819.37
416.328	858.47
416.705	856.66
417.082	842.87
417.46	840.61
417.837	862.53
418.214	865.7
418.591	875.64
418.967	886.94
419.344	895.3
419.721	883.55
420.098	889.88
420.475	911.12
420.852	911.8
421.228	944.79
421.605	930.1
421.982	940.5
422.358	956.09
422.735	939.14
423.111	952.7
423.488	954.06
423.864	968.52
424.241	993.15
424.617	979.59
424.994	1021.4
425.37	1015.07
425.746	996.77
426.123	1040.38
426.499	1036.09
426.875	1022.53
427.251	1061.62
427.627	1089.42
428.003	1057.78
428.379	1084.9
428.756	1113.15
429.132	1118.35
429.507	1107.5
429.883	1106.37
430.259	1181.17
430.635	1183.2
431.011	1156.99
431.387	1161.96
431.763	1190.21
432.138	1218.91
432.514	1235.86
432.89	1244.44
433.265	1250.09
433.641	1291
434.016	1260.49
434.392	1295.29
434.767	1320.37
435.143	1327.38
435.518	1327.83
435.894	1365.8
436.269	1359.02
436.644	1386.36
437.02	1388.62
437.395	1391.56
437.77	1409.64
438.145	1427.26
438.52	1408.28
438.895	1459.13
439.271	1451.22
439.646	1467.26
440.021	1493.48
440.395	1485.12
440.77	1498.45
441.145	1485.12
441.52	1514.04
441.895	1523.08
442.27	1526.02
442.645	1540.26
443.019	1541.61
443.394	1564.66
443.769	1555.17
444.143	1563.53
444.518	1612.57
444.892	1602.4
445.267	1576.64
445.641	1617.99
446.016	1573.02
446.39	1635.39
446.764	1622.97
447.139	1641.72
447.513	1669.07
447.887	1658.45
448.262	1669.07
448.636	1653.25
449.01	1708.84
449.384	1700.48
449.758	1688.05
450.132	1752.45
450.506	1748.39
450.88	1753.13
451.254	1730.08
451.628	1793.58
452.002	1801.04
452.376	1799.01
452.75	1817.31
453.123	1864.09
453.497	1908.61
453.871	1893.24
454.244	1934.37
454.618	1946.57
454.992	1948.38
455.365	1955.61
455.739	2006.91
456.112	2049.85
456.486	2036.29
456.859	2060.92
457.232	2087.81
457.606	2102.73
457.979	2170.3
458.352	2181.82
458.725	2219.11
459.099	2188.37
459.472	2198.09
459.845	2235.83
460.218	2309.5
460.591	2297.98
460.964	2296.62
461.337	2355.83
461.71	2376.62
462.083	2436.5
462.456	2438.09
462.829	2417.97
463.201	2483.06
463.574	2452.77
463.947	2519.89
464.32	2547.91
464.692	2571.87
465.065	2611.64
465.438	2629.04
465.81	2649.83
466.183	2682.82
466.555	2694.58
466.928	2739.55
467.3	2743.39
467.672	2801.24
468.045	2861.35
468.417	2822.03
468.789	2880.33
469.161	2907.68
469.534	2945.64
469.906	2957.17
470.278	3011.18
470.65	3029.48
471.022	3085.3
471.394	3132.53
471.766	3174.34
472.138	3182.02
472.51	3210.04
472.882	3249.82
473.253	3325.52
473.625	3368.68
473.997	3422.92
474.369	3417.49
474.74	3476.02
475.112	3540.88
475.484	3623.82
475.855	3664.04
476.227	3662.91
476.598	3798.73
476.97	3811.83
477.341	3893.87
477.713	3960.76
478.084	3965.5
478.455	4037.37
478.827	4103.13
479.198	4215.21
479.569	4209.79
479.94	4269.9
480.311	4369.56
480.682	4471.93
481.053	4568.43
481.424	4639.61
481.795	4691.81
482.166	4759.61
482.537	4824.46
482.908	4922.54
483.279	4980.17
483.65	5130.44
484.021	5191.23
484.391	5275.75
484.762	5289.31
485.133	5353.94
485.503	5421.28
485.874	5544.9
486.244	5604.78
486.615	5764.1
486.985	5805.45
487.356	5909.18
487.726	5995.51
488.097	6144.43
488.467	6150.08
488.837	6331.09
489.207	6343.52
489.578	6484.08
489.948	6549.62
490.318	6722.04
490.688	6690.4
491.058	6877.74
491.428	6945.31
491.798	7001.81
492.168	7163.39
492.538	7260.78
492.908	7283.61
493.278	7458.29
493.648	7479.08
494.017	7600.44
494.387	7667.55
494.757	7720.66
495.126	7911.39
495.496	7944.38
495.866	8006.98
496.235	8125.85
496.605	8203.58
496.974	8315.45
497.344	8385.5
497.713	8487.42
498.082	8557.25
498.452	8654.87
498.821	8713.63
499.19	8756.34
499.559	8904.58
499.928	8940.29
500.298	9027.97
500.667	9105.25
501.036	9203.11
501.405	9238.36
501.774	9368.3
502.143	9453.27
502.512	9491.69
502.88	9586.37
503.249	9562.19
503.618	9736.88
503.987	9774.84
504.356	9880.6
504.724	9933.93
505.093	10024.78
505.462	10079.01
505.83	10164.21
506.199	10206.24
506.567	10373.02
506.936	10325.79
507.304	10586.12
507.672	10619.57
508.041	10615.95
508.409	10789.73
508.777	10853.91
509.145	10922.83
509.514	11003.28
509.882	11094.81
510.25	11134.35
510.618	11237.4
510.986	11201.7
511.354	11395.82
511.722	11502.25
512.09	11551.29
512.458	11475.59
512.826	11696.83
513.193	11739.76
513.561	11780.89
513.929	11816.37
514.297	11987.21
514.664	12111.05
515.032	12170.71
515.4	12300.43
515.767	12274.21
516.135	12330.93
516.502	12293.65
516.869	12615.9
517.237	12631.49
517.604	12660.19
517.972	12856.57
518.339	12861.99
518.706	12998.94
519.073	13041.2
519.44	13120.29
519.808	13252.49
520.175	13299.27
520.542	13513.05
520.909	13595.31
521.276	13633.05
521.643	13727.28
522.009	13889.54
522.376	14002.08
522.743	14131.79
523.11	14300.6
523.477	14326.36
523.843	14541.04
524.21	14631.21
524.577	14724.09
524.943	14763.41
525.31	14925.21
525.676	15134.47
526.043	15154.59
526.409	15234.36
526.776	15519.32
527.142	15522.04
527.508	15592.54
527.874	15927.22
528.241	15865.76
528.607	15997.28
528.973	16111.4
529.339	16151.17
529.705	16444.27
530.071	16498.05
530.437	16537.15
530.803	16677.49
531.169	16869.8
531.535	16930.36
531.901	16971.49
532.267	17062.33
532.632	17266.85
532.998	17290.35
533.364	17293.29
533.73	17431.82
534.095	17673.84
534.461	17702.54
534.826	17793.61
535.192	17835.87
535.557	18102.76
535.923	18016.43
536.288	18109.09
536.653	18162.87
537.019	18224.34
537.384	18343.2
537.749	18391.34
538.114	18443.09
538.479	18460.94
538.845	18639.92
539.21	18602.63
539.575	18737.09
539.94	18858.9
540.305	18985.67
540.67	18936.63
541.034	18973.7
541.399	19081.04
541.764	19160.58
542.129	19255.72
542.494	19229.96
542.858	19326.68
543.223	19336.62
543.587	19510.18
543.952	19524.87
544.316	19531.87
544.681	19542.95
545.045	19783.84
545.41	19867.01
545.774	19845.09
546.138	19923.05
546.503	19916.04
546.867	19980.45
547.231	20140.9
547.595	20187.45
547.959	20254.11
548.324	20261.8
548.688	20363.94
549.052	20268.35
549.416	20358.29
549.779	20386.09
550.143	20509.25
550.507	20653.65
550.871	20666.31
551.235	20690.49
551.599	20925.96
551.962	20978.62
552.326	20952.18
552.689	21058.61
553.053	20935
553.417	21168.44
553.78	21383.58
554.143	21465.61
554.507	21536.34
554.87	21563.46
555.234	21768.42
555.597	21620.41
555.96	21799.84
556.323	21776.79
556.686	22018.14
557.05	22061.07
557.413	22077.8
557.776	22181.52
558.139	22379.93
558.502	22449.76
558.865	22454.06
559.228	22555.75
559.59	22714.16
559.953	22792.58
560.316	23020.82
560.679	22989.41
561.041	23110.99
561.404	23225.34
561.767	23482.73
562.129	23404.09
562.492	23623.74
562.854	23583.07
563.217	23625.1
563.579	23855.15
563.941	23937.86
564.304	24080.45
564.666	24268.7
565.028	24326.55
565.39	24453.55
565.753	24662.13
566.115	24618.75
566.477	24839.53
566.839	24954.78
567.201	25267.99
567.563	25136.47
567.925	25377.82
568.287	25446.52
568.648	25633.63
569.01	25860.29
569.372	26062.78
569.734	25924.47
570.095	26286.5
570.457	26456.44
570.819	26420.51
571.18	26422.77
571.542	26796.99
571.903	26783.43
572.265	26966.71
572.626	27109.3
572.987	27191.56
573.349	27395.62
573.71	27590.42
574.071	27730.53
574.432	27824.31
574.794	28194.24
575.155	28136.39
575.516	28082.84
575.877	28307.01
576.238	28597.17
576.599	28717.39
576.96	28706.32
577.32	28957.16
577.681	29099.08
578.042	29234.9
578.403	29323.03
578.763	29372.52
579.124	29592.17
579.485	29833.98
579.845	30078.71
580.206	30082.56
580.566	30141.54
580.927	30291.59
581.287	30626.95
581.648	30720.28
582.008	30986.04
582.368	31103.09
582.728	31282.3
583.089	31514.16
583.449	31611.78
583.809	31830.76
584.169	32189.62
584.529	32229.17
584.889	32802.03
585.249	32780.79
585.609	32832.77
585.969	33360.21
586.329	33516.59
586.688	33943.47
587.048	34159.29
587.408	34389.34
587.768	34687.18
588.127	35063.89
588.487	35356.54
588.846	35802.86
589.206	36038.11
589.565	36394.25
589.925	37027.91
590.284	37221.8
590.643	37611.85
591.003	38026.75
591.362	38635.55
591.721	38847.52
592.08	39285.93
592.44	39840.27
592.799	40313.47
593.158	40633.92
593.517	41043.17
593.876	41664.4
594.235	41969.48
594.593	42450.59
594.952	43082.21
595.311	43244.47
595.67	43852.59
596.029	44469.97
596.387	44941.15
596.746	45631.98
597.104	45752.65
597.463	46138.41
597.822	46748.78
598.18	47051.83
598.538	47482.1
598.897	48032.14
599.255	48121.63
599.613	49013.81
599.972	49043.64
600.33	49517.98
600.688	49696.5
601.046	50206.32
601.404	50787.55
601.762	51027.32
602.12	51411.49
602.478	51712.04
602.836	51999.49
603.194	52111.58
603.552	52571.68
603.91	52706.59
604.268	53092.8
604.625	53316.07
604.983	53757.19
605.341	53864.76
605.698	54252.54
606.056	54594.45
606.413	54608.69
606.771	54997.16
607.128	55146.53
607.485	55299.29
607.843	55539.74
608.2	55854.99
608.557	56147.41
608.914	56257.69
609.272	56545.36
609.629	56748.07
609.986	56996.65
610.343	57082.07
610.7	57455.17
611.057	57520.71
611.414	57630.08
611.771	57940.81
612.127	58101.03
612.484	58246.11
612.841	58413.56
613.198	58500.57
613.554	58596.38
613.911	58912.53
614.267	59062.36
614.624	59083.38
614.98	59308.91
615.337	59524.27
615.693	59588.67
616.05	59703.92
616.406	59937.59
616.762	60024.82
617.118	60125.16
617.475	60180.97
617.831	60424.13
618.187	60510.68
618.543	60568.53
618.899	60794.07
619.255	60787.74
619.611	60847.4
619.967	61092.14
620.323	61162.19
620.678	61155.41
621.034	61197.44
621.39	61291.91
621.746	61323.99
622.101	61587.04
622.457	61451.68
622.812	61598.34
623.168	61713.14
623.523	61748.39
623.879	61886.69
624.234	61807.82
624.589	61851.44
624.945	61928.72
625.3	62040.59
625.655	62108.38
626.01	62199
626.365	62175.27
626.72	62163.52
627.075	62170.07
627.43	62284.42
627.785	62337.98
628.14	62337.53
628.495	62399.45
628.85	62483.74
629.205	62407.81
629.559	62515.83
629.914	62464.3
630.269	62479.44
630.623	62403.29
630.978	62366.23
631.332	62552.66
631.687	62538.43
632.041	62520.57
632.396	62501.82
632.75	62517.18
633.104	62545.66
633.459	62419.79
633.813	62465.21
634.167	62466.56
634.521	62479.22
634.875	62488.71
635.229	62427.92
635.583	62378.88
635.937	62428.37
636.291	62411.65
636.645	62430.63
636.999	62286
637.352	62361.03
637.706	62231.99
638.06	62382.27
638.413	62288.04
638.767	62290.75
639.121	62320.58
639.474	62206.68
639.828	62253.91
640.181	62245.33
640.534	62288.04
640.888	62179.79
641.241	62075.84
641.594	62124.88
641.947	62227.93
642.301	62112.9
642.654	62158.32
643.007	62032.45
643.36	62057.99
643.713	62063.64
644.066	62165.55
644.419	62001.72
644.771	61788.62
645.124	61582.07
645.477	61559.69
645.83	61462.75
646.182	61438.57
646.535	61350.21
646.888	61443.09
647.24	61323.54
647.593	61456.65
647.945	61345.01
648.298	61268.4
648.65	61170.33
649.002	61125.13
649.355	61072.25
649.707	60971.69
650.059	60971.01
650.411	61342.98
650.763	61425.91
651.115	61775.28
651.467	61632.91
651.819	61607.6
652.171	61614.83
652.523	61552.92
652.875	61561.73
653.227	61466.36
653.578	61654.83
653.93	61487.38
654.282	61447.61
654.633	61382.07
654.985	61468.4
655.337	61444.9
655.688	61423.43
656.039	61450.55
656.391	61270.44
656.742	61343.66
657.094	61362.86
657.445	61350.89
657.796	61353.37
658.147	61253.49
658.498	61239.48
658.849	61331.9
659.2	61219.82
659.551	61181.17
659.902	61302.3
660.253	61222.3
660.604	61245.13
660.955	61127.16
661.306	61300.72
661.656	61131.23
662.007	61143.89
662.358	61206.71
662.708	61180.27
663.059	61198.35
663.409	61061.18
663.76	61153.83
664.11	61078.58
664.461	61125.81
664.811	61158.12
665.161	61125.13
665.511	61085.58
665.862	61118.35
666.212	61112.25
666.562	61161.97
666.912	61025.02
667.262	60994.96
667.612	61008.75
667.962	61086.04
668.312	60988.86
668.662	61126.71
669.011	61053.49
669.361	61027.51
669.711	61018.92
670.06	60942.99
670.41	60973.95
670.76	60929.65
671.109	60947.51
671.459	60964
671.808	60948.86
672.157	60968.75
672.507	60875.42
672.856	60872.03
673.205	60909.99
673.554	60963.33
673.904	60869.09
674.253	61045.58
674.602	60891.69
674.951	60613.73
675.3	60543.45
675.649	60942.08
675.998	60876.78
676.346	60919.03
676.695	60952.03
677.044	60762.88
677.393	60837.45
677.741	60873.16
678.09	60816.21
678.438	60732.6
678.787	60792.03
679.135	60808.3
679.484	60661.64
679.832	60766.27
680.181	60679.94
680.529	60721.52
680.877	60666.39
681.225	60609.66
681.573	60769.66
681.922	60601.75
682.27	60553.62
682.618	60555.2
682.966	60488.76
683.314	60569.44
683.661	60557.01
684.009	60436.79
684.357	60374.42
684.705	60289.45
685.053	60323.12
685.4	60248.99
685.748	60225.72
686.095	60231.14
686.443	60114.31
686.79	60159.51
687.138	60190.01
687.485	60130.35
687.832	60067.53
688.18	60056.01
688.527	59973.52
688.874	59901.89
689.221	59952.05
689.568	59812.62
689.915	59796.35
690.262	59854.88
690.609	59743.02
690.956	59635
691.303	59686.98
691.65	59501.67
691.997	59512.29
692.344	59447.43
692.69	59380.32
693.037	59414.21
693.383	59226.87
693.73	59295.35
694.077	59199.76
694.423	59194.56
694.769	59114.79
695.116	59089.25
695.462	58940.1
695.808	58958.18
696.155	58944.85
696.501	58736.72
696.847	58905.08
697.193	58614.01
697.539	58748.47
697.885	58532.2
698.231	58500.57
698.577	58488.36
698.923	58504.41
699.269	58298.99
699.614	58142.38
699.96	58124.08
700.306	58155.04
700.651	58100.12
700.997	57977.64
701.342	57947.36
701.688	57874.37
702.033	57867.59
702.379	57824.2
702.724	57714.37
703.069	57782.39
703.415	57530.42
703.76	57518.67
704.105	57566.35
704.45	57412.01
704.795	57257.66
705.14	57202.97
705.485	57226.93
705.83	57057.89
706.175	57256.53
706.52	57094.28
706.865	56996.88
707.209	56835.3
707.554	56852.93
707.899	56757.11
708.243	56740.39
708.588	56674.17
708.932	56527.51
709.277	56583.55
709.621	56431.24
709.966	56240.51
710.31	56414.75
710.654	56275.31
710.998	56229.44
711.342	56269.66
711.687	56140.85
712.031	56026.96
712.375	55899.73
712.719	55940.63
713.063	55901.54
713.407	56004.36
713.75	55817.02
714.094	55765.95
714.438	55685.27
714.782	55660.42
715.125	55547.88
715.469	55664.26
715.812	55379.29
716.156	55453.19
716.499	55366.64
716.843	55442.12
717.186	55221.33
717.53	55357.15
717.873	55346.52
718.216	55227.43
718.559	55150.82
718.902	54977.5
719.246	55010.71
719.589	54945.86
719.932	54861.57
720.275	54954.9
720.617	54948.34
720.96	54699.31
721.303	54711.06
721.646	54722.13
721.989	54570.73
722.331	54594.45
722.674	54590.39
723.016	54571.4
723.359	54455.93
723.701	54459.77
724.044	54382.48
724.386	54231.3
724.729	54295.48
725.071	54292.32
725.413	54255.03
725.755	54083.73
726.097	54026.33
726.439	53982.49
726.782	53954.02
727.124	54127.12
727.465	53964.87
727.807	53905.66
728.149	53840.58
728.491	53724.65
728.833	53807.58
729.175	53736.17
729.516	53604.65
729.858	53626.57
730.199	53648.04
730.541	53521.94
730.882	53319.91
731.224	53528.95
731.565	53406.46
731.906	53377.09
732.248	53445.11
732.589	53188.39
732.93	53207.37
733.271	53202.4
733.612	53088.96
733.953	53163.31
734.294	53055.29
734.635	53003.31
734.976	53141.16
735.317	52911.56
735.658	52908.85
735.999	52783.88
736.339	52851
736.68	52830.21
737.021	52840.38
737.361	52709.31
737.702	52944.1
738.042	52781.39
738.383	52768.97
738.723	52690.32
739.063	52632.47
739.404	52684.45
739.744	52540.72
740.084	52450.78
740.424	52592.7
740.764	52457.79
741.104	52549.99
741.444	52384.79
741.784	52349.09
742.124	52433.61
742.464	52341.18
742.804	52185.25
743.143	52132.37
743.483	52214.86
743.823	52023.9
744.162	52078.59
744.502	52025.71
744.841	51977.57
745.181	52055.09
745.52	52032.71
745.86	52048.76
746.199	51898.48
746.538	51903
746.877	51937.12
747.216	51822.32
747.556	51761.76
747.895	51836.33
748.234	51560.86
748.573	51627.3
748.911	51532.16
749.25	51546.85
749.589	51412.17
749.928	51445.61
750.267	51477.7
750.605	51344.82
750.944	51331.26
751.283	51202.68
751.621	51195.45
751.96	51079.52
752.298	51056.02
752.636	51061.21
752.975	50900.99
753.313	50740.54
753.651	50905.96
753.989	50769.24
754.327	50717.72
754.666	50458.52
755.004	50654.67
755.342	50633.65
755.679	50535.8
756.017	50321.12
756.355	50394.11
756.693	50303.27
757.031	50284.29
757.368	50112.76
757.706	50020.79
758.044	49901.92
758.381	49869.38
758.719	49736.73
759.056	49855.14
759.394	49610.86
759.731	49414.48
760.068	49254.26
760.405	49381.26
760.743	49166.57
761.08	49167.25
761.417	48882.97
761.754	48950.76
762.091	48902.17
762.428	48576.08
762.765	48497.67
763.102	48622.86
763.438	48414.5
763.775	48100.39
764.112	48141.29
764.449	48106.49
764.785	47929.77
765.122	47833.73
765.458	47537.69
765.795	47635.99
766.131	47598.03
766.467	47315.55
766.804	47008.89
767.14	46899.52
767.476	46893.87
767.812	46705.17
768.148	46878.95
768.485	46478.51
768.821	46298.63
769.157	46243.49
769.492	46156.26
769.828	45963.04
770.164	45652.77
770.5	45708.13
770.836	45641.02
771.171	45512.89
771.507	45199.45
771.842	44972.56
772.178	44855.05
772.513	44903.41
772.849	44757.88
773.184	44519.01
773.519	44420.26
773.855	44186.14
774.19	44185.24
774.525	43887.39
774.86	43878.13
775.195	43685.14
775.53	43696.21
775.865	43335.32
776.2	43152.5
776.535	42828.66
776.87	42895.1
777.205	42690.59
777.539	42517.26
777.874	42636.35
778.209	42239.07
778.543	42235.91
778.878	42024.39
779.212	41975.8
779.547	41651.07
779.881	41666.21
780.215	41460.11
780.55	41581.92
780.884	41185.77
781.218	40997.3
781.552	40902.16
781.886	40824.65
782.22	40672.56
782.554	40379.23
782.888	40171.56
783.222	40065.34
783.556	39943.99
783.889	39802.07
784.223	39656.32
784.557	39586.71
784.89	39681.63
785.224	39241.19
785.557	38976.11
785.891	39066.73
786.224	38893.4
786.558	38901.76
786.891	38685.49
787.224	38547.87
787.557	38263.36
787.891	38186.52
788.224	38051.39
788.557	38022.91
788.89	37987.66
789.223	37951.05
789.556	37571.63
789.888	37602.58
790.221	37385.19
790.554	37208.24
790.887	37135.25
791.219	36932.09
791.552	36916.05
791.884	36753.57
792.217	36747.24
792.549	36573.69
792.882	36146.35
793.214	35970.76
793.546	36086.47
793.879	35887.6
794.211	35650.77
794.543	35966.24
794.875	35648.96
795.207	35563.32
795.539	35394.06
795.871	35532.58
796.203	35182.76
796.535	35044.46
796.867	35006.72
797.198	34813.96
797.53	34707.75
797.862	34418.04
798.193	34507.98
798.525	34264.59
798.856	34432.27
799.188	33922.91
799.519	33959.74
799.85	33853.76
800.182	33802.68
800.513	33800.65
800.844	33298.97
801.175	33497.61
801.506	33548.45
801.837	33188.24
802.168	33117.28
802.499	33228.24
802.83	32991.18
803.161	32821.92
803.491	32791.86
803.822	32830.05
804.153	32527.24
804.483	32419.44
804.814	32330.86
805.145	32293.57
805.475	32335.38
805.805	32083.86
806.136	32182.39
806.466	32054.48
806.796	31950.53
807.126	31743.3
807.457	31745.11
807.787	31692.23
808.117	31603.87
808.447	31489.75
808.777	31567.49
809.107	31214.5
809.436	31202.08
809.766	31198.01
810.096	31067.62
810.426	30905.13
810.755	31078.69
811.085	30863.1
811.414	30822.65
811.744	30734.06
812.073	30646.16
812.403	30495.88
812.732	30301.99
813.061	30583.33
813.39	30086.85
813.719	30227.19
814.049	30282.55
814.378	30057.25
814.707	29994.42
815.036	30169.33
815.365	29863.81
815.693	29586.98
816.022	29706.3
816.351	29572.74
816.68	29442.57
817.008	29454.78
817.337	29242.13
817.665	29296.36
817.994	29327.55
818.322	29250.49
818.651	29100.44
818.979	28970.27
819.307	29176.59
819.636	29013.43
819.964	28849.37
820.292	29052.3
820.62	28857.5
820.948	28904.28
821.276	29000.55
821.604	28815.25
821.932	29003.04
822.259	28811.18
822.587	28875.58
822.915	28830.61
823.243	28868.13
823.57	28535.25
823.898	28971.63
824.225	28663.38
824.553	28626.32
824.88	28752.42
825.207	28959.87
825.535	28706.77
825.862	28864.51
826.189	28620.45
826.516	28867.22
826.843	28954.45
827.17	28891.18
827.497	28829.48
827.824	28859.31
828.151	28958.97
828.478	28731.18
828.805	28995.58
829.131	28780.44
829.458	28788.35
829.785	28635.81
830.111	28753.33
830.438	28977.27
830.764	28867
831.09	28787
831.417	28570.05
831.743	28758.3
832.069	28636.49
832.395	28575.48
832.722	28815.92
833.048	28513.56
833.374	28668.58
833.7	28568.25
834.026	28608.92
834.351	28548.81
834.677	28551.75
835.003	28464.52
835.329	28488.7
835.654	28379.55
835.98	28312.21
836.306	28547.46
836.631	28250.74
836.956	28540.22
837.282	28344.52
837.607	28214.36
837.932	28150.4
838.258	28176.62
838.583	28070.18
838.908	28041.93
839.233	28133.91
839.558	27960.35
839.883	27995.38
840.208	27790.41
840.533	27757.87
840.858	27873.58
841.182	27836.51
841.507	27860.92
841.832	27587.25
842.156	27598.55
842.481	27617.76
842.805	27482.62
843.13	27394.04
843.454	27458.22
843.778	27529.18
844.103	27369.86
844.427	27247.6
844.751	27313.36
845.075	27260.94
845.399	27061.17
845.723	26949.31
846.047	27033.82
846.371	26790.44
846.695	26759.93
847.019	26708.41
847.343	26418.25
847.666	26414.63
847.99	26281.07
848.313	26239.27
848.637	26153.39
848.96	26073.17
849.284	26040.63
849.607	25813.97
849.931	25757.25
850.254	25568.78
850.577	25357.03
850.9	25241.33
851.223	25321.1
851.546	25220.54
851.869	25058.51
852.192	25209.69
852.515	24826.2
852.838	24676.6
853.161	24790.94
853.483	24487.45
853.806	24486.55
854.129	24466.21
854.451	24455.59
854.774	24259.21
855.096	24160.9
855.419	24069.38
855.741	24098.31
856.063	23952.32
856.385	23852.21
856.708	23963.62
857.03	23857.41
857.352	23734.47
857.674	23734.47
857.996	23572.45
858.318	23300.14
858.64	23494.03
858.961	23372.22
859.283	23212.23
859.605	23195.51
859.926	23258.56
860.248	23156.18
860.57	22965.91
860.891	23083.42
861.212	22756.65
861.534	22908.96
861.855	22788.96
862.176	22762.97
862.498	22808.17
862.819	22770.88
863.14	22574.05
863.461	22609.31
863.782	22413.38
864.103	22552.13
864.424	22442.53
864.745	22500.61
865.065	22391.91
865.386	22317.56
865.707	22282.76
866.027	22336.55
866.348	22214.74
866.668	22236.89
866.989	22095.42
867.309	22009.77
867.63	21997.57
867.95	22032.15
868.27	21899.04
868.59	21956.89
868.91	21886.61
869.23	21933.84
869.55	21721.42
869.87	21842.55
870.19	21741.76
870.51	21730.46
870.83	21707.41
871.15	21643
871.469	21669.44
871.789	21654.08
872.109	21493.86
872.428	21480.3
872.748	21482.78
873.067	21512.39
873.386	21529.56
873.706	21417.47
874.025	21310.81
874.344	21219.06
874.663	21271.04
874.982	21178.16
875.301	21145.62
875.62	21064.26
875.939	21049.35
876.258	21076.92
876.577	20920.54
876.896	20960.99
877.214	20909.69
877.533	20885.28
877.852	20904.27
878.17	20937.94
878.489	20934.55
878.807	20796.25
879.125	20763.25
879.444	20706.98
879.762	20667.89
880.08	20665.18
880.398	20486.65
880.716	20563.26
881.034	20454.56
881.352	20548.57
881.67	20420.66
881.988	20423.6
882.306	20281.68
882.624	20294.79
882.941	20179.31
883.259	20255.24
883.577	20135.02
883.894	20044.85
884.212	20031.97
884.529	20072.2
884.846	20011.86
885.164	19906.55
885.481	19895.48
885.798	19956.5
886.115	19807.12
886.432	19788.59
886.75	19716.95
887.067	19642.83
887.383	19615.04
887.7	19605.54
888.017	19457.98
888.334	19548.82
888.651	19444.19
888.967	19378.21
889.284	19239.45
889.6	19244.88
889.917	19108.38
890.233	19173.01
890.55	19150.41
890.866	19060.47
891.182	18932.79
891.498	18916.97
891.815	18844.21
892.131	18709.3
892.447	18741.61
892.763	18651.9
893.079	18595.63
893.395	18589.53
893.71	18471.34
894.026	18500.49
894.342	18501.17
894.657	18277.67
894.973	18182.98
895.289	18245.13
895.604	18196.54
895.92	18081.06
896.235	18072.02
896.55	18030.67
896.865	18027.51
897.181	17842.65
897.496	17935.31
897.811	17785.25
898.126	17737.12
898.441	17718.14
898.756	17657.12
899.071	17473.17
899.386	17467.07
899.7	17392.27
900.015	17294.64
900.33	17221.88
900.644	17144.59
900.959	17196.57
901.273	17166.74
901.588	17058.72
901.902	17003.13
902.216	16894.65
902.531	16834.54
902.845	16705.73
903.159	16673.87
903.473	16548.22
903.787	16577.37
904.101	16592.29
904.415	16596.13
904.729	16418.06
905.042	16420.09
905.356	16364.95
905.67	16148.91
905.984	16235.46
906.297	16226.2
906.611	16039.76
906.924	16051.51
907.237	15931.06
907.551	15941.23
907.864	15779.43
908.177	15773.1
908.491	15789.37
908.804	15592.77
909.117	15563.39
909.43	15411.53
909.743	15324.75
910.056	15449.27
910.368	15280.23
910.681	15263.74
910.994	15147.81
911.307	15177.86
911.619	14978.77
911.932	15052.67
912.244	14972.9
912.557	14894.71
912.869	14808.83
913.181	14713.7
913.494	14763.64
913.806	14642.74
914.118	14617.88
914.43	14539.24
914.742	14431.22
915.054	14359.58
915.366	14293.37
915.678	14280.26
915.99	14273.48
916.302	14149.19
916.613	14085.91
916.925	14048.63
917.236	14089.76
917.548	13986.48
917.859	14010.89
918.171	13905.35
918.482	13707.39
918.794	13734.96
919.105	13630.56
919.416	13527.29
919.727	13534.29
920.038	13505.37
920.349	13360.96
920.66	13337.23
920.971	13355.54
921.282	13317.35
921.593	13257.91
921.903	13099.05
922.214	13035.1
922.525	13060.86
922.835	12957.58
923.146	12870.13
923.456	12890.47
923.767	12751.94
924.077	12619.96
924.387	12733.18
924.697	12696.35
925.008	12615.67
925.318	12463.58
925.628	12519.18
925.938	12499.97
926.248	12296.36
926.558	12316.47
926.867	12245.96
927.177	12207.09
927.487	12122.58
927.796	12022.01
928.106	12061.34
928.416	12001.22
928.725	11959.19
929.034	11901.34
929.344	11907.89
929.653	11876.71
929.962	11683.72
930.271	11689.59
930.581	11658.41
930.89	11564.17
931.199	11541.8
931.508	11436.95
931.817	11446.66
932.125	11369.38
932.434	11319.89
932.743	11274.69
933.051	11181.58
933.36	11175.93
933.669	11095.26
933.977	11073.34
934.286	11035.6
934.594	10916.96
934.902	10903.85
935.21	10880.35
935.519	10861.59
935.827	10796.06
936.135	10731.65
936.443	10710.86
936.751	10595.61
937.059	10591.32
937.367	10543.41
937.674	10532.34
937.982	10519.46
938.29	10395.16
938.597	10415.95
938.905	10277.88
939.213	10301.16
939.52	10214.6
939.827	10209.63
940.135	10121.05
940.442	10091.9
940.749	10103.42
941.056	10084.89
941.363	10027.94
941.67	9936.42
941.977	9880.6
942.284	9784.33
942.591	9856.2
942.898	9785.01
943.205	9709.76
943.511	9644.68
943.818	9699.82
944.125	9557.9
944.431	9589.31
944.738	9491.23
945.044	9495.3
945.35	9420.5
945.657	9380.28
945.963	9332.14
946.269	9300.73
946.575	9270.22
946.881	9202.65
947.187	9158.81
947.493	9088.53
947.799	9098.02
948.105	9026.39
948.41	8973.96
948.716	8993.62
949.022	8950.68
949.327	8933.28
949.633	8806.28
949.938	8836.79
950.244	8798.82
950.549	8710.92
950.854	8660.07
951.16	8643.12
951.465	8587.53
951.77	8549.11
952.075	8551.37
952.38	8488.55
952.685	8474.76
952.99	8341.43
953.294	8358.83
953.599	8269.8
953.904	8278.16
954.209	8214.43
954.513	8193.41
954.818	8207.2
955.122	8189.8
955.426	8138.95
955.731	8053.76
956.035	7981.67
956.339	7945.29
956.643	7968.11
956.948	7912.74
957.252	7880.88
957.556	7881.33
957.86	7809.24
958.163	7807.21
958.467	7723.37
958.771	7732.64
959.075	7702.35
959.378	7654.22
959.682	7595.92
959.985	7603.37
960.289	7490.16
960.592	7501.23
960.896	7446.77
961.199	7388.24
961.502	7414
961.805	7454
962.108	7387.56
962.411	7312.08
962.714	7272.31
963.017	7210.39
963.32	7238.41
963.623	7182.82
963.926	7152.99
964.228	7148.24
964.531	7070.51
964.833	7083.16
965.136	7033.67
965.438	6958.19
965.741	6946.67
966.043	6903.28
966.345	6860.12
966.648	6810.63
966.95	6858.53
967.252	6770.63
967.554	6745.77
967.856	6726.79
968.158	6716.62
968.46	6656.51
968.761	6622.83
969.063	6625.09
969.365	6595.94
969.666	6527.7
969.968	6432.78
970.269	6478.43
970.571	6430.97
970.872	6437.98
971.174	6429.85
971.475	6453.8
971.776	6329.06
972.077	6341.26
972.378	6243.86
972.679	6274.37
972.98	6236.63
973.281	6212.22
973.582	6140.36
973.883	6143.52
974.183	6102.17
974.484	6109.85
974.785	6058.78
975.085	6009.07
975.386	6027.37
975.686	5969.29
975.986	5969.97
976.287	5955.73
976.587	5887.49
976.887	5867.83
977.187	5900.82
977.487	5817.43
977.787	5781.27
978.087	5765.91
978.387	5727.72
978.687	5745.34
978.987	5678.23
979.286	5647.27
979.586	5623.09
979.885	5607.49
980.185	5609.08
980.484	5532.47
980.784	5485.24
981.083	5489.3
981.382	5489.3
981.682	5441.62
981.981	5487.04
982.28	5386.03
982.579	5388.06
982.878	5327.5
983.177	5270.33
983.475	5272.14
983.774	5258.8
984.073	5205.7
984.372	5135.87
984.67	5186.94
984.969	5160.73
985.267	5154.4
985.566	5175.87
985.864	5092.25
986.162	5084.34
986.461	5023.78
986.759	5009.32
987.057	4958.25
987.355	4949.21
987.653	4946.27
987.951	4926.61
988.249	4854.29
988.547	4854.97
988.844	4846.16
989.142	4808.19
989.44	4835.54
989.737	4802.09
990.035	4748.53
990.332	4741.98
990.63	4740.62
990.927	4702.88
991.224	4646.16
991.521	4663.11
991.819	4612.72
992.116	4609.33
992.413	4573.62
992.71	4552.61
993.006	4545.15
993.303	4483.68
993.6	4511.48
993.897	4491.59
994.193	4447.98
994.49	4405.27
994.787	4420.18
995.083	4416.11
995.379	4347.87
995.676	4295.44
995.972	4348.32
996.268	4282.56
996.565	4212.28
996.861	4219.96
997.157	4217.25
997.453	4192.39
997.749	4167.53
998.044	4167.31
998.34	4127.98
998.636	4130.24
998.932	4080.3
999.227	4038.72
999.523	4031.49
999.818	4015.67
1000.114	4012.51
1000.409	3957.14
1000.704	3932.96
1001	3956.46
1001.295	3872.4
1001.59	3864.49
1001.885	3833.08
1002.18	3831.27
1002.475	3797.82
1002.77	3790.82
1003.065	3749.92
1003.359	3710.59
1003.654	3715.34
1003.949	3719.18
1004.243	3683.48
1004.538	3656.58
1004.832	3636.7
1005.127	3623.14
1005.421	3635.79
1005.715	3568.45
1006.009	3549.02
1006.304	3520.32
1006.598	3476.48
1006.892	3546.76
1007.186	3439.42
1007.48	3437.61
1007.773	3414.78
1008.067	3407.1
1008.361	3396.93
1008.655	3365.74
1008.948	3343.82
1009.242	3295.46
1009.535	3305.18
1009.829	3312.41
1010.122	3265.41
1010.415	3226.99
1010.708	3229.25
1011.001	3195.81
1011.295	3216.82
1011.588	3161.23
1011.881	3136.15
1012.173	3102.25
1012.466	3109.93
1012.759	3055.02
1013.052	3108.8
1013.344	3101.8
1013.637	3069.71
1013.93	3004.17
1014.222	2988.35
1014.514	2970.05
1014.807	2965.3
1015.099	2947
1015.391	2904.74
1015.683	2910.84
1015.976	2849.15
1016.268	2871.52
1016.56	2820
1016.851	2804.4
1017.143	2812.99
1017.435	2805.31
1017.727	2764.4
1018.018	2758.08
1018.31	2734.8
1018.602	2726.89
1018.893	2666.33
1019.185	2682.6
1019.476	2679.89
1019.767	2620.45
1020.058	2610.28
1020.35	2599.44
1020.641	2563.96
1020.932	2571.42
1021.223	2546.33
1021.514	2554.24
1021.804	2455.71
1022.095	2470.63
1022.386	2462.04
1022.677	2447.12
1022.967	2427.92
1023.258	2447.35
1023.548	2366.22
1023.839	2362.16
1024.129	2383.4
1024.419	2325.55
1024.709	2324.42
1025	2309.05
1025.29	2306.34
1025.58	2293.46
1025.87	2276.06
1026.16	2234.7
1026.449	2216.85
1026.739	2242.61
1027.029	2205.55
1027.319	2188.37
1027.608	2182.73
1027.898	2148.83
1028.187	2142.73
1028.477	2124.87
1028.766	2100.24
1029.055	2077.64
1029.344	2059.79
1029.634	2039.9
1029.923	2048.27
1030.212	2042.16
1030.501	2021.37
1030.79	2002.62
1031.078	1979.79
1031.367	1973.47
1031.656	1942.73
1031.945	1933.69
1032.233	1936.18
1032.522	1876.29
1032.81	1887.14
1033.099	1877.42
1033.387	1864.99
1033.675	1857.54
1033.963	1814.83
1034.251	1865.9
1034.54	1803.3
1034.828	1813.24
1035.116	1803.98
1035.403	1778.89
1035.691	1765.33
1035.979	1740.25
1036.267	1737.77
1036.554	1721.49
1036.842	1706.13
1037.129	1674.94
1037.417	1691.21
1037.704	1673.59
1037.992	1672
1038.279	1666.81
1038.566	1656.64
1038.853	1656.64
1039.14	1656.64
