Data from 17-1436_FLMS001491_004.txt Node
Date: Thu Apr 19 16:29:02 BST 2018
User: hsy
Spectrometer: FLMS00149
Trigger mode: 0
Integration Time (sec): 1.000000E-2
Scans to average: 10
Electric dark correction enabled: true
Nonlinearity correction enabled: false
Boxcar width: 0
XAxis mode: Wavelengths
Number of Pixels in Spectrum: 2048
>>>>>Begin Spectral Data<<<<<
341.393	5.4
341.776	5.4
342.16	5.4
342.543	-59.46
342.927	-75.96
343.31	-61.95
343.693	-65.34
344.077	-71.66
344.46	-75.05
344.843	-61.04
345.226	-44.77
345.61	-46.13
345.993	-33.7
346.376	-13.81
346.759	32.29
347.142	27.77
347.525	52.17
347.908	55.34
348.291	72.06
348.674	123.58
349.057	110.25
349.44	124.04
349.823	133.75
350.206	167.65
350.588	227.76
350.971	254.88
351.354	255.78
351.737	261.89
352.119	302.56
352.502	294.2
352.884	312.96
353.267	311.38
353.65	316.8
354.032	339.62
354.414	331.26
354.797	355.22
355.179	368.32
355.562	357.25
355.944	373.07
356.326	393.86
356.709	370.81
357.091	377.59
357.473	380.07
357.855	375.33
358.238	380.53
358.62	390.7
359.002	360.64
359.384	375.33
359.766	386.18
360.148	386.4
360.53	361.54
360.912	366.29
361.294	384.82
361.676	360.64
362.057	385.27
362.439	364.93
362.821	365.39
363.203	371.71
363.584	368.32
363.966	375.56
364.348	338.49
364.729	357.93
365.111	365.39
365.493	360.41
365.874	355.67
366.256	351.37
366.637	376.01
367.019	356.57
367.4	366.97
367.781	371.94
368.163	359.96
368.544	355.89
368.925	357.48
369.306	392.96
369.688	362.9
370.069	366.74
370.45	358.15
370.831	371.71
371.212	359.74
371.593	362.22
371.974	378.27
372.355	355.22
372.736	353.41
373.117	371.26
373.498	394.09
373.879	361.54
374.26	372.17
374.641	363.58
375.021	390.47
375.402	392.5
375.783	368.78
376.163	389.34
376.544	397.25
376.925	391.37
377.305	402
377.686	381.2
378.066	410.81
378.447	414.42
378.827	414.2
379.208	419.4
379.588	408.1
379.968	414.65
380.349	393.63
380.729	417.36
381.109	406.74
381.489	399.06
381.87	435.44
382.25	416.91
382.63	417.81
383.01	417.59
383.39	434.08
383.77	441.77
384.15	430.24
384.53	425.27
384.91	440.19
385.29	428.66
385.67	426.4
386.049	453.29
386.429	450.81
386.809	472.73
387.189	432.73
387.568	466.63
387.948	449.9
388.328	452.62
388.707	466.17
389.087	474.99
389.466	482.22
389.846	469.79
390.225	451.71
390.605	485.38
390.984	484.03
391.363	491.71
391.743	470.24
392.122	481.99
392.501	489.68
392.881	493.07
393.26	514.31
393.639	523.35
394.018	499.85
394.397	499.62
394.776	529
395.155	511.14
395.534	513.4
395.913	519.96
396.292	517.47
396.671	531.26
397.05	538.49
397.429	521.09
397.808	527.87
398.186	532.16
398.565	553.18
398.944	544.82
399.323	541.88
399.701	550.01
400.08	555.89
400.458	561.76
400.837	571.71
401.215	576.23
401.594	579.84
401.972	588.43
402.351	571.93
402.729	582.1
403.107	587.53
403.486	594.98
403.864	624.59
404.242	610.35
404.62	598.6
404.999	620.52
405.377	622.55
405.755	609
406.133	656.23
406.511	632.5
406.889	644.25
407.267	609.67
407.645	661.65
408.023	677.24
408.401	671.14
408.779	686.73
409.156	685.38
409.534	677.24
409.912	692.16
410.29	696.22
410.667	705.04
411.045	736.9
411.422	739.16
411.8	732.83
412.178	749.56
412.555	757.47
412.933	769.44
413.31	785.71
413.687	787.97
414.065	768.09
414.442	762.66
414.819	801.53
415.197	805.15
415.574	827.29
415.951	813.96
416.328	829.55
416.705	809.67
417.082	837.01
417.46	839.5
417.837	853.73
418.214	875.65
418.591	862.55
418.967	886.73
419.344	882.89
419.721	894.19
420.098	860.51
420.475	910
420.852	921.53
421.228	923.11
421.605	920.85
421.982	925.15
422.358	945.71
422.735	949.33
423.111	981.41
423.488	974.64
423.864	986.39
424.241	984.35
424.617	990.91
424.994	999.04
425.37	999.04
425.746	1013.05
426.123	992.94
426.499	1038.59
426.875	1011.24
427.251	1050.57
427.627	1066.38
428.003	1078.14
428.379	1094.41
428.756	1089.43
429.132	1104.12
429.507	1120.85
429.883	1102.54
430.259	1135.99
430.635	1145.93
431.011	1150
431.387	1174.63
431.763	1194.74
432.138	1204.69
432.514	1232.03
432.89	1201.07
433.265	1256.66
433.641	1251.46
434.016	1272.03
434.392	1305.7
434.767	1325.59
435.143	1301.86
435.518	1306.15
435.894	1345.47
436.269	1374.17
436.644	1391.8
437.02	1373.72
437.395	1391.12
437.77	1420.5
438.145	1410.33
438.52	1439.93
438.895	1446.71
439.271	1457.79
439.646	1491.46
440.021	1451.46
440.395	1471.8
440.77	1492.14
441.145	1507.05
441.52	1573.04
441.895	1525.13
442.27	1540.04
442.645	1554.73
443.019	1566.71
443.394	1576.65
443.769	1576.65
444.143	1550.44
444.518	1573.49
444.892	1561.06
445.267	1638.8
445.641	1618.91
446.016	1616.2
446.39	1620.49
446.764	1630.89
447.139	1663.88
447.513	1660.27
447.887	1664.79
448.262	1661.85
448.636	1657.1
449.01	1726.48
449.384	1706.82
449.758	1747.5
450.132	1748.85
450.506	1768.29
450.88	1787.5
451.254	1774.61
451.628	1807.61
452.002	1815.97
452.376	1847.83
452.75	1879.92
453.123	1896.42
453.497	1884.67
453.871	1892.8
454.244	1950.88
454.618	1952.01
454.992	1953.82
455.365	1981.84
455.739	2031.78
456.112	2060.71
456.486	2085.34
456.859	2076.08
457.232	2153.14
457.606	2149.97
457.979	2143.87
458.352	2210.08
458.725	2221.61
459.099	2228.61
459.472	2250.99
459.845	2307.48
460.218	2287.14
460.591	2353.13
460.964	2343.64
461.337	2369.85
461.71	2411.21
462.083	2444.2
462.456	2457.76
462.829	2457.99
463.201	2521.71
463.574	2549.06
463.947	2576.63
464.32	2593.35
464.692	2606.68
465.065	2603.52
465.438	2655.72
465.81	2706.12
466.183	2708.38
466.555	2766.68
466.928	2769.16
467.3	2795.83
467.672	2833.34
468.045	2871.08
468.417	2918.31
468.789	2942.49
469.161	3015.26
469.534	3012.55
469.906	3035.82
470.278	3040.34
470.65	3077.4
471.022	3160.57
471.394	3241.47
471.766	3249.38
472.138	3278.08
472.51	3320.56
472.882	3388.36
473.253	3395.14
473.625	3409.83
473.997	3549.48
474.369	3564.85
474.74	3579.54
475.112	3648.24
475.484	3677.62
475.855	3738.18
476.227	3817.72
476.598	3917.83
476.97	3899.53
477.341	3981.11
477.713	4067.21
478.084	4092.97
478.455	4219.97
478.827	4211.84
479.198	4341.78
479.569	4379.29
479.94	4440.53
480.311	4523.47
480.682	4629.23
481.053	4695.44
481.424	4806.4
481.795	4859.96
482.166	4885.27
482.537	4989.22
482.908	5087.75
483.279	5130.68
483.65	5282.09
484.021	5362.32
484.391	5422.43
484.762	5485.48
485.133	5523.67
485.503	5626.94
485.874	5755.3
486.244	5832.81
486.615	5927.5
486.985	5975.63
487.356	6134.05
487.726	6210.43
488.097	6353.93
488.467	6422.18
488.837	6531.55
489.207	6643.19
489.578	6752.56
489.948	6816.06
490.318	6847.48
490.688	6958.43
491.058	7099.67
491.428	7156.17
491.798	7236.17
492.168	7426.67
492.538	7492.66
492.908	7557.97
493.278	7726.55
493.648	7726.77
494.017	7863.04
494.387	7950.27
494.757	7998.63
495.126	8167.89
495.496	8190.94
495.866	8344.39
496.235	8389.13
496.605	8460.77
496.974	8599.07
497.344	8632.74
497.713	8719.52
498.082	8826.41
498.452	8886.74
498.821	8986.4
499.19	9074.99
499.559	9155.66
499.928	9281.99
500.298	9274.76
500.667	9423
501.036	9474.3
501.405	9572.6
501.774	9648.31
502.143	9708.42
502.512	9828.19
502.88	9865.93
503.249	9931.91
503.618	10009.2
503.987	10032.02
504.356	10113.15
504.724	10201.96
505.093	10341.39
505.462	10427.49
505.83	10395.18
506.199	10601.95
506.567	10740.25
506.936	10697.54
507.304	10925.56
507.672	10951.32
508.041	10997.42
508.409	11115.84
508.777	11263.86
509.145	11255.27
509.514	11308.37
509.882	11415.72
510.25	11483.29
510.618	11641.7
510.986	11662.04
511.354	11751.53
511.722	11853.22
512.09	12009.15
512.458	11979.09
512.826	12184.96
513.193	12207.56
513.561	12239.65
513.929	12354.9
514.297	12398.29
514.664	12504.28
515.032	12609.58
515.4	12809.8
515.767	12865.85
516.135	12925.28
516.502	12933.64
516.869	13056.35
517.237	13253.86
517.604	13214.77
517.972	13377.02
518.339	13421.09
518.706	13593.74
519.073	13640.52
519.44	13704.02
519.808	13870.12
520.175	13957.8
520.542	14165.47
520.909	14232.59
521.276	14328.86
521.643	14491.34
522.009	14493.38
522.376	14655.63
522.743	14746.7
523.11	14997.54
523.477	15055.4
523.843	15207.93
524.21	15427.36
524.577	15538.77
524.943	15578.32
525.31	15646.79
525.676	15898.99
526.043	16051.08
526.409	16128.59
526.776	16267.57
527.142	16350.95
527.508	16440.9
527.874	16679.31
528.241	16805.18
528.607	16841.79
528.973	17119.75
529.339	17117.94
529.705	17213.3
530.071	17381.89
530.437	17484.03
530.803	17687.87
531.169	17721.54
531.535	17866.17
531.901	17918.6
532.267	18024.13
532.632	18093.51
532.998	18295.99
533.364	18357
533.73	18496.43
534.095	18594.96
534.461	18779.36
534.826	18865.92
535.192	18820.72
535.557	19055.97
535.923	19025.69
536.288	19258
536.653	19363.3
537.019	19299.8
537.384	19491.21
537.749	19516.52
538.114	19604.2
538.479	19550.42
538.845	19646.23
539.21	19696.63
539.575	19866.57
539.94	19971.88
540.305	20002.16
540.67	20070.18
541.034	20157.86
541.399	20215.03
541.764	20273.34
542.129	20449.15
542.494	20466.33
542.858	20537.28
543.223	20572.09
543.587	20633.78
543.952	20642.59
544.316	20805.3
544.681	20834.45
545.045	20911.06
545.41	21057.27
545.774	21087.55
546.138	21085.97
546.503	21166.65
546.867	21186.53
547.231	21328.68
547.595	21303.37
547.959	21617.48
548.324	21592.4
548.688	21680.31
549.052	21760.76
549.416	21703.58
549.779	21805.5
550.143	21956.46
550.507	22066.96
550.871	22168.2
551.235	22162.78
551.599	22393.96
551.962	22371.13
552.326	22395.09
552.689	22555.54
553.053	22373.85
553.417	22550.79
553.78	22819.94
554.143	22855.64
554.507	22903.1
554.87	22961.4
555.234	23266.48
555.597	23053.38
555.96	23245.01
556.323	23364.33
556.686	23417.89
557.05	23627.6
557.413	23650.65
557.776	23656.98
558.139	23911.43
558.502	23943.07
558.865	24039.11
559.228	24167.92
559.59	24363.17
559.953	24393.23
560.316	24667.57
560.679	24690.4
561.041	24904.4
561.404	25043.83
561.767	25182.36
562.129	25222.59
562.492	25309.59
562.854	25408.34
563.217	25637.04
563.579	25648.11
563.941	25904.38
564.304	25920.65
564.666	26256
565.028	26163.8
565.39	26340.07
565.753	26574.41
566.115	26727.63
566.477	26935.53
566.839	27140.5
567.201	27275.64
567.563	27303.66
567.925	27512.02
568.287	27611.9
568.648	27718.79
569.01	27937.99
569.372	28160.59
569.734	28248.72
570.095	28533.23
570.457	28595.15
570.819	28680.57
571.18	28824.3
571.542	29064.29
571.903	29241.24
572.265	29384.51
572.626	29597.16
572.987	29656.37
573.349	29937.94
573.71	30005.96
574.071	30196.69
574.432	30456.12
574.794	30733.17
575.155	30645.49
575.516	30686.62
575.877	31025.37
576.238	31023.56
576.599	31241.64
576.96	31341.97
577.32	31459.71
577.681	31685.47
578.042	31819.02
578.403	31953.93
578.763	32033.48
579.124	32096.08
579.485	32348.27
579.845	32431.66
580.206	32516.18
580.566	32705.33
580.927	32747.13
581.287	32903.97
581.648	33000.69
582.008	33309.83
582.368	33439.54
582.728	33589.82
583.089	33571.74
583.449	33771.97
583.809	33736.94
584.169	34065.52
584.529	33903.49
584.889	34355.23
585.249	34269.58
585.609	34344.15
585.969	34683.81
586.329	34659.85
586.688	35093.06
587.048	35081.31
587.408	35347.29
587.768	35286.5
588.127	35573.73
588.487	35669.77
588.846	36071.57
589.206	35964.9
589.565	36143.65
589.925	36537.54
590.284	36519.92
590.643	36756.52
591.003	36912.45
591.362	37353.57
591.721	37549.72
592.08	37574.58
592.44	37924.62
592.799	37970.27
593.158	38180.66
593.517	38259.98
593.876	38621.56
594.235	38798.95
594.593	38932.06
594.952	39330.46
595.311	39439.16
595.67	39714.86
596.029	40004.34
596.387	40263.77
596.746	40540.6
597.104	40347.84
597.463	40771.78
597.822	41097.42
598.18	41116.86
598.538	41319.34
598.897	41732.66
599.255	41787.8
599.613	42407.22
599.972	42181.24
600.33	42474.79
600.688	42580.1
601.046	42809.92
601.404	43265.5
601.762	43279.96
602.12	43630.24
602.478	43753.17
602.836	43975.76
603.194	43921.08
603.552	44399.93
603.91	44382.31
604.268	44557.9
604.625	44757.89
604.983	45123.98
605.341	45006.92
605.698	45501.37
606.056	45778.2
606.413	45641.26
606.771	46070.17
607.128	45956.73
607.485	46095.26
607.843	46212.54
608.2	46549.93
608.557	46802.81
608.914	46801.23
609.272	47230.82
609.629	47454.09
609.986	47574.09
610.343	47589.91
610.7	47942.67
611.057	47898.83
611.414	47964.59
611.771	48270.34
612.127	48389.43
612.484	48531.8
612.841	48675.98
613.198	48607.06
613.554	48761.4
613.911	49056.76
614.267	49078.46
614.624	49194.61
614.98	49335.4
615.337	49745.56
615.693	49491.33
616.05	49670.53
616.406	49952.1
616.762	49957.98
617.118	50005.44
617.475	49974.48
617.831	50259.67
618.187	50291.98
618.543	50249.27
618.899	50561.81
619.255	50636.15
619.611	50554.35
619.967	50808.13
620.323	50872.08
620.678	50810.84
621.034	50819.43
621.39	50952.08
621.746	50931.51
622.101	51219.64
622.457	51012.87
622.812	51204.5
623.168	51258.06
623.523	51188.68
623.879	51418.73
624.234	51206.99
624.589	51380.32
624.945	51465.96
625.3	51496.47
625.655	51530.37
626.01	51518.39
626.365	51651.27
626.72	51514.1
627.075	51496.02
627.43	51547.32
627.785	51559.07
628.14	51663.92
628.495	51627.99
628.85	51620.99
629.205	51522.91
629.559	51768.33
629.914	51655.11
630.269	51609.01
630.623	51484.04
630.978	51346.64
631.332	51605.17
631.687	51560.42
632.041	51636.35
632.396	51540.99
632.75	51487.88
633.104	51564.72
633.459	51364.72
633.813	51465.96
634.167	51389.35
634.521	51408.11
634.875	51508.67
635.229	51371.05
635.583	51241.56
635.937	51184.16
636.291	51188.68
636.645	51192.07
636.999	51004.51
637.352	51128.12
637.706	50936.03
638.06	51066.65
638.413	50930.38
638.767	50923.83
639.121	50886.32
639.474	50723.84
639.828	50789.82
640.181	50719.77
640.534	50765.19
640.888	50653.1
641.241	50499.66
641.594	50601.13
641.947	50617.17
642.301	50438.65
642.654	50531.07
643.007	50419.89
643.36	50476.38
643.713	50424.18
644.066	50545.08
644.419	50178.54
644.771	49938.09
645.124	49551.89
645.477	49561.61
645.83	49396.19
646.182	49366.81
646.535	49306.47
646.888	49474.6
647.24	49249.52
647.593	49560.7
647.945	49350.99
648.298	49164.78
648.65	49092.01
649.002	48830.1
649.355	48644.79
649.707	48544.68
650.059	48589.2
650.411	49122.52
650.763	49346.47
651.115	49906.91
651.467	49689.96
651.819	49721.83
652.171	49620.14
652.523	49452.68
652.875	49475.73
653.227	49241.84
653.578	49676.63
653.93	49544.88
654.282	49228.51
654.633	49208.62
654.985	49388.5
655.337	49369.07
655.688	49257.89
656.039	49359.58
656.391	49003.2
656.742	49133.6
657.094	49171.11
657.445	49179.47
657.796	49042.07
658.147	49062.41
658.498	49162.75
658.849	49179.24
659.2	49125.01
659.551	48974.96
659.902	49190.54
660.253	48927.27
660.604	49095.18
660.955	48893.83
661.306	49045.01
661.656	48959.81
662.007	48897.67
662.358	48919.82
662.708	48993.26
663.059	48772.7
663.409	48725.7
663.76	48858.12
664.11	48898.57
664.461	48835.52
664.811	48824.22
665.161	48877.56
665.511	48807.28
665.862	48896.77
666.212	48798.46
666.562	48751.68
666.912	48783.77
667.262	48690.22
667.612	48666.94
667.962	48747.62
668.312	48647.96
668.662	48827.61
669.011	48602.54
669.361	48621.97
669.711	48647.73
670.06	48482.09
670.41	48566.6
670.76	48560.5
671.109	48691.12
671.459	48575.19
671.808	48594.4
672.157	48664.23
672.507	48439.15
672.856	48420.39
673.205	48479.15
673.554	48564.12
673.904	48455.42
674.253	48691.8
674.602	48521.86
674.951	47878.03
675.3	47796.23
675.649	48366.38
675.998	48393.28
676.346	48287.97
676.695	48436.44
677.044	48242.77
677.393	48356.44
677.741	48419.04
678.09	48334.52
678.438	48134.98
678.787	48243.22
679.135	48332.49
679.484	48007.52
679.832	48198.48
680.181	47918.03
680.529	47993.96
680.877	47944.02
681.225	48001.87
681.573	48192.6
681.922	47934.53
682.27	47853.18
682.618	47942.21
682.966	47845.95
683.314	47808.66
683.661	47705.61
684.009	47582.68
684.357	47471.94
684.705	47437.14
685.053	47455.45
685.4	47247.99
685.748	47245.96
686.095	47140.65
686.443	47006.42
686.79	47049.58
687.138	47180.43
687.485	47104.04
687.832	46833.77
688.18	46935.46
688.527	46755.13
688.874	46758.97
689.221	46697.95
689.568	46516.94
689.915	46505.19
690.262	46604.17
690.609	46424.74
690.956	46082.83
691.303	46182.71
691.65	46140.23
691.997	46003.96
692.344	45723.74
692.69	45762.38
693.037	45836.96
693.383	45428.16
693.73	45649.39
694.077	45311.32
694.423	45414.37
694.769	45166.47
695.116	45115.85
695.462	44906.81
695.808	44743.43
696.155	44987.04
696.501	44561.96
696.847	44683.54
697.193	44326.72
697.539	44509.54
697.885	44133.5
698.231	44020.28
698.577	44034.52
698.923	44015.09
699.269	43783.23
699.614	43621.42
699.96	43535.55
700.306	43550.69
700.651	43315.44
700.997	43333.3
701.342	43148.44
701.688	43013.3
702.033	42849.47
702.379	43009.46
702.724	42649.25
703.069	42806.76
703.415	42249.03
703.76	42317.28
704.105	42398.18
704.45	42301.23
704.795	42158.19
705.14	41892.88
705.485	42192.99
705.83	41698.08
706.175	41940.34
706.52	41797.06
706.865	41686.56
707.209	41430.97
707.554	41334.7
707.899	41475.94
708.243	41204.09
708.588	41279.34
708.932	40863.3
709.277	41041.6
709.621	40766.36
709.966	40624.44
710.31	40614.95
710.654	40433.26
710.998	40440.49
711.342	40532.69
711.687	40226.48
712.031	40274.62
712.375	40114.4
712.719	40034.85
713.063	39909.88
713.407	40055.19
713.75	39862.2
714.094	39717.12
714.438	39672.15
714.782	39688.65
715.125	39534.07
715.469	39789.43
715.812	39468.99
716.156	39294.31
716.499	39231.93
716.843	39335.43
717.186	39110.58
717.53	39149.22
717.873	39214.99
718.216	39037.36
718.559	38985.84
718.902	38579.07
719.246	38783.13
719.589	38625.62
719.932	38423.82
720.275	38511.28
720.617	38458.85
720.96	38361.22
721.303	38416.36
721.646	38373.2
721.989	38206.42
722.331	38244.16
722.674	38026.32
723.016	38122.36
723.359	37992.42
723.701	37999.88
724.044	37920.78
724.386	37784.29
724.729	37942.02
725.071	37731.18
725.413	37787
725.755	37624.52
726.097	37476.05
726.439	37539.1
726.782	37351.76
727.124	37469.04
727.465	37385.2
727.807	37182.27
728.149	37368.71
728.491	37246
728.833	37294.13
729.175	37100.01
729.516	37143.85
729.858	37112.44
730.199	37162.84
730.541	37020.24
730.882	36802.39
731.224	36960.36
731.565	36755.39
731.906	36796.29
732.248	36757.2
732.589	36597.43
732.93	36493.25
733.271	36461.39
733.612	36568.5
733.953	36603.3
734.294	36433.36
734.635	36329.41
734.976	36449.18
735.317	36090.55
735.658	36185.46
735.999	35993.38
736.339	36040.61
736.68	36142.75
737.021	36103.66
737.361	35990.66
737.702	36086.93
738.042	35981.85
738.383	35999.7
738.723	35911.12
739.063	35857.79
739.404	35992.25
739.744	35711.58
740.084	35585.93
740.424	35834.06
740.764	35688.07
741.104	35672.93
741.444	35572.37
741.784	35324.01
742.124	35531.47
742.464	35409.89
742.804	35387.97
743.143	35206.73
743.483	35305.26
743.823	35187.3
744.162	35248.76
744.502	35194.3
744.841	35010.12
745.181	35192.72
745.52	35032.27
745.86	35060.52
746.199	34930.35
746.538	35008.77
746.877	35028.66
747.216	35117.24
747.556	34836.12
747.895	34871.15
748.234	34754.09
748.573	34596.12
748.911	34632.96
749.25	34567.2
749.589	34552.96
749.928	34527.88
750.267	34397.71
750.605	34431.16
750.944	34306.41
751.283	34295.79
751.621	34271.84
751.96	34076.82
752.298	34015.57
752.636	34035.91
752.975	33808.8
753.313	33869.82
753.651	34075.01
753.989	33780.1
754.327	33769.03
754.666	33496.49
755.004	33699.2
755.342	33656.49
755.679	33546.21
756.017	33272.09
756.355	33421.69
756.693	33351.41
757.031	33336.04
757.368	33084.75
757.706	33200.68
758.044	32956.85
758.381	32998.65
758.719	32926.11
759.056	32782.39
759.394	32711.65
759.731	32458.1
760.068	32527.25
760.405	32621.71
760.743	32186.24
761.08	32403.64
761.417	32133.82
761.754	32051.78
762.091	32080.71
762.428	31880.04
762.765	31788.74
763.102	31780.61
763.438	31675.75
763.775	31379.94
764.112	31475.53
764.449	31470.33
764.785	31340.16
765.122	31208.19
765.458	30954.41
765.795	30955.09
766.131	30932.94
766.467	30813.4
766.804	30614.99
767.14	30559.62
767.476	30530.24
767.812	30266.52
768.148	30379.74
768.485	30271.27
768.821	29976.58
769.157	29997.83
769.492	29958.05
769.828	29935.46
770.164	29623.37
770.5	29550.16
770.836	29450.72
771.171	29523.26
771.507	29193.55
771.842	29111.97
772.178	29042.6
772.513	28927.12
772.849	28806.9
773.184	28962.6
773.519	28865.88
773.855	28671.99
774.19	28542.05
774.525	28388.6
774.86	28369.4
775.195	28203.75
775.53	28069.97
775.865	27876.53
776.2	27926.02
776.535	27628.4
776.87	27659.58
777.205	27374.39
777.539	27395.86
777.874	27294.17
778.209	27104.8
778.543	27127.85
778.878	26966.27
779.212	26985.93
779.547	26771.25
779.881	26781.64
780.215	26554.98
780.55	26507.52
780.884	26279.96
781.218	26199.51
781.552	26267.76
781.886	26223.69
782.22	26114.09
782.554	25942.79
782.888	25623.93
783.222	25657.6
783.556	25553.65
783.889	25404.28
784.223	25249.25
784.557	25303.71
784.89	25339.87
785.224	25154.11
785.557	25005.42
785.891	24890.84
786.224	24872.54
786.558	24868.24
786.891	24621.02
787.224	24504.19
787.557	24437.75
787.891	24454.47
788.224	24291.08
788.557	24296.73
788.89	24316.17
789.223	24165.66
789.556	24006.35
789.888	23920.92
790.221	23807.93
790.554	23717.99
790.887	23736.52
791.219	23610.88
791.552	23466.47
791.884	23553.93
792.217	23317.78
792.549	23180.83
792.882	23045.92
793.214	22972.93
793.546	23084.34
793.879	22890.67
794.211	22728.19
794.543	22857.9
794.875	22666.49
795.207	22717.11
795.539	22522.32
795.871	22643.67
796.203	22416.33
796.535	22222.66
796.867	22304.47
797.198	22163
797.53	22136.79
797.862	21952.16
798.193	21976.57
798.525	21851.83
798.856	21956.46
799.188	21629.46
799.519	21647.31
799.85	21545.39
800.182	21432.85
800.513	21577.48
800.844	21280.32
801.175	21419.52
801.506	21320.54
801.837	21252.97
802.168	21271.5
802.499	21211.17
802.83	20995.13
803.161	20939.08
803.491	20927.78
803.822	20975.47
804.153	20780.89
804.483	20718.97
804.814	20579.09
805.145	20646.66
805.475	20541.8
805.805	20592.88
806.136	20490.28
806.466	20464.29
806.796	20379.55
807.126	20231.76
807.457	20161.02
807.787	20187.46
808.117	20107.47
808.447	19994.93
808.777	20106.56
809.107	19930.75
809.436	19825.89
809.766	19834.25
810.096	19746.8
810.426	19756.29
810.755	19806.23
811.085	19692.11
811.414	19613.69
811.744	19537.76
812.073	19483.53
812.403	19350.2
812.732	19323.98
813.061	19434.49
813.39	19245.34
813.719	19281.72
814.049	19337.09
814.378	19221.84
814.707	19117.89
815.036	18981.39
815.365	18959.7
815.693	18845.58
816.022	18887.84
816.351	18809.19
816.68	18719.71
817.008	18731.23
817.337	18697.11
817.665	18578.24
817.994	18673.15
818.322	18734.62
818.651	18589.77
818.979	18503.67
819.307	18509.77
819.636	18396.1
819.964	18326.95
820.292	18408.98
820.62	18405.14
820.948	18430.22
821.276	18495.3
821.604	18398.36
821.932	18428.41
822.259	18344.12
822.587	18452.14
822.915	18288.76
823.243	18404.23
823.57	18295.31
823.898	18339.83
824.225	18325.37
824.553	18330.11
824.88	18330.56
825.207	18415.76
825.535	18319.26
825.862	18411.69
826.189	18286.27
826.516	18476.32
826.843	18393.61
827.17	18415.08
827.497	18450.79
827.824	18355.87
828.151	18432.93
828.478	18380.28
828.805	18509.99
829.131	18400.17
829.458	18418.92
829.785	18268.19
830.111	18444.01
830.438	18472.48
830.764	18403.33
831.09	18419.15
831.417	18376.89
831.743	18378.47
832.069	18360.62
832.395	18335.99
832.722	18381.18
833.048	18204.69
833.374	18305.48
833.7	18230.45
834.026	18316.55
834.351	18331.92
834.677	18362.43
835.003	18242.2
835.329	18267.51
835.654	18284.01
835.98	18137.12
836.306	18238.59
836.631	18069.55
836.956	18246.95
837.282	18182.32
837.607	18162.66
837.932	18080.17
838.258	18025.94
838.583	18079.04
838.908	18007.86
839.233	17901.42
839.558	17896.9
839.883	17837.47
840.208	17846.51
840.533	17871.59
840.858	17827.3
841.182	17841.76
841.507	17796.11
841.832	17737.13
842.156	17717.92
842.481	17745.95
842.805	17616.23
843.13	17571.49
843.454	17630.47
843.778	17450.36
844.103	17401.32
844.427	17399.74
844.751	17411.27
845.075	17398.16
845.399	17343.92
845.723	17237.26
846.047	17202.91
846.371	17105.96
846.695	17053.76
847.019	16948.45
847.343	16855.57
847.666	16928.57
847.99	16764.28
848.313	16686.09
848.637	16765.86
848.96	16625.07
849.284	16591.85
849.607	16475.7
849.931	16456.94
850.254	16303.05
850.577	16219.21
850.9	16060.79
851.223	16136.5
851.546	16073.22
851.869	16051.53
852.192	16056.72
852.515	15915.94
852.838	15823.96
853.161	15820.35
853.483	15705.32
853.806	15583.52
854.129	15606.57
854.451	15584.42
854.774	15533.8
855.096	15355.05
855.419	15409.96
855.741	15318.67
856.063	15263.98
856.385	15247.03
856.708	15194.37
857.03	15155.96
857.352	15230.98
857.674	15172.45
857.996	15127.71
858.318	14991.67
858.64	14976.98
858.961	14897.21
859.283	14875.51
859.605	14757.78
859.926	14815.4
860.248	14716.19
860.57	14627.16
860.891	14697.21
861.212	14581.96
861.534	14579.02
861.855	14515.52
862.176	14587.61
862.498	14547.16
862.819	14550.32
863.14	14438.01
863.461	14420.38
863.782	14330.22
864.103	14379.03
864.424	14348.52
864.745	14462.42
865.065	14239.15
865.386	14228.75
865.707	14260.39
866.027	14284.12
866.348	14114.63
866.668	14153.95
866.989	14157.57
867.309	14076.89
867.63	14123.67
867.95	14038.92
868.27	13974.97
868.59	14090.9
868.91	13955.09
869.23	13932.71
869.55	13831.47
869.87	13955.09
870.19	13856.56
870.51	13867.63
870.83	13835.77
871.15	13794.86
871.469	13768.42
871.789	13782.21
872.109	13792.6
872.428	13674.41
872.748	13793.28
873.067	13678.71
873.386	13748.31
873.706	13677.8
874.025	13654.98
874.344	13559.84
874.663	13614.76
874.982	13528.66
875.301	13581.54
875.62	13511.48
875.939	13485.72
876.258	13470.8
876.577	13443.91
876.896	13389.22
877.214	13335.21
877.533	13410.47
877.852	13424.93
878.17	13364.14
878.489	13449.56
878.807	13250.24
879.125	13310.13
879.444	13235.56
879.762	13208.66
880.08	13290.7
880.398	13175.67
880.716	13148.1
881.034	13121.43
881.352	13141.55
881.67	13060.42
881.988	13032.4
882.306	12962.57
882.624	13001.66
882.941	12962.57
883.259	12953.53
883.577	12901.33
883.894	12924.83
884.212	12868.56
884.529	12864.04
884.846	12822.01
885.164	12718.06
885.481	12729.13
885.798	12762.57
886.115	12620.66
886.432	12699.3
886.75	12610.49
887.067	12655.68
887.383	12586.31
887.7	12607.78
888.017	12526.2
888.334	12490.04
888.651	12454.11
888.967	12421.57
889.284	12335.69
889.6	12347.44
889.917	12253.66
890.233	12255.24
890.55	12242.14
890.866	12277.62
891.182	12307.67
891.498	12134.34
891.815	12061.58
892.131	12031.97
892.447	12079.2
892.763	11966.21
893.079	11924.63
893.395	11945.65
893.71	11884.41
894.026	11916.04
894.342	11759.89
894.657	11721.92
894.973	11769.61
895.289	11702.04
895.604	11666.33
895.92	11595.15
896.235	11636.73
896.55	11582.72
896.865	11571.19
897.181	11504.98
897.496	11490.07
897.811	11314.25
898.126	11344.08
898.441	11319
898.756	11299.79
899.071	11243.74
899.386	11291.2
899.7	11106.35
900.015	11108.38
900.33	11006.69
900.644	11024.54
900.959	11030.42
901.273	10901.61
901.588	10961.94
901.902	10897.09
902.216	10854.15
902.531	10799.46
902.845	10749.75
903.159	10680.82
903.473	10728.96
903.787	10608.73
904.101	10575.06
904.415	10590.2
904.729	10545.23
905.042	10465.01
905.356	10478.79
905.67	10418.45
905.984	10408.06
906.297	10321.96
906.611	10339.36
906.924	10254.17
907.237	10262.75
907.551	10226.82
907.864	10200.83
908.177	10128.97
908.491	10179.59
908.804	10031.57
909.117	9946.6
909.43	9882.65
909.743	9857.11
910.056	9935.08
910.368	9871.12
910.681	9821.86
910.994	9806.04
911.307	9716.1
911.619	9613.28
911.932	9652.6
912.244	9573.96
912.557	9592.49
912.869	9525.82
913.181	9528.99
913.494	9516.33
913.806	9381.87
914.118	9357.69
914.43	9350.01
914.742	9282.21
915.054	9257.36
915.366	9281.08
915.678	9142.33
915.99	9110.69
916.302	9127.64
916.613	9052.16
916.925	9062.78
917.236	9036.12
917.548	8915.67
917.859	8998.61
918.171	8919.29
918.482	8836.8
918.794	8818.72
919.105	8803.36
919.416	8717.26
919.727	8750.93
920.038	8673.64
920.349	8664.15
920.66	8636.13
920.971	8595.23
921.282	8587.99
921.593	8529.92
921.903	8492.18
922.214	8445.85
922.525	8423.25
922.835	8363.14
923.146	8447.21
923.456	8229.81
923.767	8263.03
924.077	8265.97
924.387	8212.86
924.697	8135.58
925.008	8128.12
925.318	8058.97
925.628	8093.54
925.938	8078.4
926.248	8006.09
926.558	7966.54
926.867	7896.49
927.177	7931.51
927.487	7830.5
927.796	7770.16
928.106	7803.16
928.416	7825.08
928.725	7695.36
929.034	7644.06
929.344	7698.07
929.653	7668.47
929.962	7559.32
930.271	7586.44
930.581	7491.75
930.89	7577.85
931.199	7425.77
931.508	7382.6
931.817	7426.9
932.125	7358.87
932.434	7341.93
932.743	7247.01
933.051	7256.5
933.36	7234.36
933.669	7135.6
933.977	7170.18
934.286	7151.65
934.594	7108.94
934.902	7096.96
935.21	7006.57
935.519	7009.96
935.827	7039.56
936.135	6935.61
936.443	6932.22
936.751	6887.02
937.059	6879.56
937.367	6858.77
937.674	6793.24
937.982	6769.51
938.29	6776.29
938.597	6720.47
938.905	6702.85
939.213	6670.76
939.52	6605.22
939.827	6659.23
940.135	6580.82
940.442	6592.79
940.749	6494.04
941.056	6522.06
941.363	6446.13
941.67	6468.28
941.977	6393.25
942.284	6393.7
942.591	6399.58
942.898	6361.16
943.205	6360.71
943.511	6256.98
943.818	6287.49
944.125	6209.07
944.431	6193.26
944.738	6139.92
945.044	6180.6
945.35	6103.09
945.657	6089.76
945.963	6048.17
946.269	6064.22
946.575	6028.74
946.881	6003.2
947.187	5995.75
947.493	5949.65
947.799	5929.99
948.105	5889.08
948.41	5868.07
948.716	5868.07
949.022	5835.07
949.327	5800.72
949.633	5718.47
949.938	5741.52
950.244	5742.19
950.549	5667.85
950.854	5676.66
951.16	5652.93
951.465	5605.25
951.77	5653.83
952.075	5587.17
952.38	5571.58
952.685	5521.86
952.99	5506.95
953.294	5449.09
953.599	5410.9
953.904	5395.99
954.209	5386.27
954.513	5351.02
954.818	5359.15
955.122	5363.9
955.426	5346.5
955.731	5241.42
956.035	5237.57
956.339	5190.12
956.643	5225.82
956.948	5222.89
957.252	5184.24
957.556	5126.16
957.86	5124.36
958.163	5146.96
958.467	5142.89
958.771	5075.54
959.075	5085.94
959.378	4980.86
959.682	5044.81
959.985	4973.63
960.289	4922.78
960.592	4931.82
960.896	4942.44
961.199	4924.14
961.502	4902.44
961.805	4904.25
962.108	4819.51
962.411	4823.35
962.714	4797.13
963.017	4768.89
963.32	4753.29
963.623	4723.46
963.926	4730.02
964.228	4651.15
964.531	4666.74
964.833	4710.36
965.136	4636.91
965.438	4604.82
965.741	4532.51
966.043	4553.52
966.345	4505.84
966.648	4516.92
966.95	4523.69
967.252	4489.57
967.554	4509.01
967.856	4503.58
968.158	4420.87
968.46	4407.54
968.761	4336.58
969.063	4358.95
969.365	4350.82
969.666	4339.97
969.968	4338.16
970.269	4279.86
970.571	4258.62
970.872	4262.23
971.174	4249.8
971.475	4255.68
971.776	4222.69
972.077	4202.12
972.378	4186.53
972.679	4106.53
972.98	4175.46
973.281	4165.29
973.582	4105.85
973.883	4043.48
974.183	4029.24
974.484	4069.47
974.785	3972.97
975.085	3983.14
975.386	4004.39
975.686	4038.51
975.986	3962.81
976.287	3928.91
976.587	3892.07
976.887	3907.44
977.187	3864.95
977.487	3880.77
977.787	3891.85
978.087	3845.29
978.387	3840.32
978.687	3815.01
978.987	3788.12
979.286	3778.18
979.586	3748.8
979.885	3736.6
980.185	3667.22
980.484	3672.87
980.784	3659.76
981.083	3674.9
981.382	3675.13
981.682	3653.44
981.981	3603.27
982.28	3588.8
982.579	3551.29
982.878	3648.46
983.177	3556.71
983.475	3548.35
983.774	3537.51
984.073	3528.69
984.372	3544.29
984.67	3502.7
984.969	3510.84
985.267	3488.47
985.566	3399.2
985.864	3397.85
986.162	3360.34
986.461	3387.68
986.759	3368.02
987.057	3332.99
987.355	3331.64
987.653	3312.65
987.951	3288.7
988.249	3265.65
988.547	3293.9
988.844	3283.28
989.142	3300.45
989.44	3200.11
989.737	3220
990.035	3169.61
990.332	3182.71
990.63	3177.52
990.927	3182.94
991.224	3159.44
991.521	3132.09
991.819	3107.23
992.116	3136.84
992.413	3102.94
992.71	3064.75
993.006	3068.37
993.303	3038.76
993.6	3072.43
993.897	3002.15
994.193	3053.45
994.49	3003.96
994.787	2942.04
995.083	2959.44
995.379	2942.04
995.676	2927.58
995.972	2888.48
996.268	2842.61
996.565	2871.31
996.861	2864.08
997.157	2852.1
997.453	2845.55
997.749	2815.26
998.044	2829.28
998.34	2819.33
998.636	2760.8
998.932	2747.47
999.227	2714.7
999.523	2753.8
999.818	2742.72
1000.114	2688.49
1000.409	2689.17
1000.704	2658.43
1001	2672.44
1001.295	2657.3
1001.59	2647.36
1001.885	2660.01
1002.18	2598.1
1002.475	2607.59
1002.77	2613.01
1003.065	2533.69
1003.359	2529.4
1003.654	2528.04
1003.949	2537.53
1004.243	2510.41
1004.538	2445.56
1004.832	2489.17
1005.127	2486.23
1005.421	2408.72
1005.715	2464.54
1006.009	2436.52
1006.304	2380.02
1006.598	2400.59
1006.892	2373.02
1007.186	2347.48
1007.48	2392.23
1007.773	2350.64
1008.067	2330.31
1008.361	2348.84
1008.655	2299.8
1008.948	2263.19
1009.242	2287.14
1009.535	2257.09
1009.829	2229.29
1010.122	2242.4
1010.415	2206.02
1010.708	2217.54
1011.001	2203.76
1011.295	2188.16
1011.588	2149.07
1011.881	2164.43
1012.173	2139.12
1012.466	2139.35
1012.759	2089.41
1013.052	2098.9
1013.344	2079.47
1013.637	2092.35
1013.93	2090.31
1014.222	2042.86
1014.514	2028.17
1014.807	2046.25
1015.099	2027.94
1015.391	2013.93
1015.683	1995.4
1015.976	2008.05
1016.268	1971.22
1016.56	1947.72
1016.851	1940.03
1017.143	1913.37
1017.435	1931.22
1017.727	1902.29
1018.018	1906.81
1018.31	1879.92
1018.602	1889.19
1018.893	1844.89
1019.185	1856.87
1019.476	1880.83
1019.767	1821.84
1020.058	1823.65
1020.35	1819.81
1020.641	1786.37
1020.932	1762.41
1021.223	1764.45
1021.514	1753.37
1021.804	1743.2
1022.095	1698.46
1022.386	1744.78
1022.677	1721.06
1022.967	1675.86
1023.258	1698.91
1023.548	1709.98
1023.839	1645.58
1024.129	1649.19
1024.419	1635.18
1024.709	1631.12
1025	1631.34
1025.29	1635.41
1025.58	1606.94
1025.87	1577.78
1026.16	1553.6
1026.449	1575.98
1026.739	1545.47
1027.029	1535.75
1027.319	1562.87
1027.608	1553.38
1027.898	1542.3
1028.187	1514.96
1028.477	1512.47
1028.766	1483.1
1029.055	1486.26
1029.344	1477.22
1029.634	1435.41
1029.923	1469.76
1030.212	1432.02
1030.501	1395.87
1030.79	1414.17
1031.078	1427.5
1031.367	1402.87
1031.656	1425.02
1031.945	1387.51
1032.233	1380.73
1032.522	1347.05
1032.81	1339.6
1033.099	1326.49
1033.387	1326.94
1033.675	1338.47
1033.963	1337.34
1034.251	1305.7
1034.54	1330.78
1034.828	1288.07
1035.116	1296.43
1035.403	1269.09
1035.691	1255.76
1035.979	1275.87
1036.267	1227.96
1036.554	1227.74
1036.842	1231.58
1037.129	1232.71
1037.417	1223.67
1037.704	1203.1
1037.992	1206.49
1038.279	1194.97
1038.566	1204.23
1038.853	1204.23
1039.14	1204.23
