Data from 17-1564_FLMS001491_002.txt Node
Date: Thu Apr 19 16:31:23 BST 2018
User: hsy
Spectrometer: FLMS00149
Trigger mode: 0
Integration Time (sec): 1.000000E-2
Scans to average: 10
Electric dark correction enabled: true
Nonlinearity correction enabled: false
Boxcar width: 0
XAxis mode: Wavelengths
Number of Pixels in Spectrum: 2048
>>>>>Begin Spectral Data<<<<<
341.393	-4
341.776	-4
342.16	-4
342.543	-59.36
342.927	-44.22
343.31	-70.44
343.693	-58.46
344.077	-55.52
344.46	-54.62
344.843	-56.88
345.226	-39.93
345.61	-27.5
345.993	-31.34
346.376	-4.68
346.759	8.88
347.142	37.13
347.525	53.4
347.908	50.92
348.291	67.64
348.674	57.7
349.057	123.68
349.44	114.64
349.823	136.56
350.206	167.75
350.588	238.26
350.971	252.49
351.354	265.37
351.737	259.5
352.119	287.07
352.502	282.1
352.884	317.8
353.267	336.11
353.65	338.82
354.032	358.48
354.414	351.47
354.797	340.85
355.179	373.62
355.562	355.54
355.944	353.28
356.326	367.07
356.709	368.2
357.091	380.4
357.473	378.82
357.855	381.98
358.238	377.69
358.62	393.05
359.002	392.15
359.384	373.17
359.766	391.92
360.148	367.52
360.53	388.08
360.912	385.6
361.294	384.24
361.676	390.79
362.057	400.29
362.439	385.6
362.821	373.85
363.203	383.56
363.584	381.3
363.966	393.28
364.348	391.25
364.729	404.81
365.111	355.77
365.493	402.32
365.874	396.44
366.256	367.74
366.637	374.75
367.019	365.03
367.4	373.17
367.781	367.97
368.163	368.65
368.544	376.33
368.925	367.52
369.306	384.24
369.688	391.47
370.069	365.71
370.45	391.7
370.831	381.98
371.212	377.24
371.593	381.53
371.974	393.05
372.355	386.05
372.736	390.12
373.117	405.48
373.498	386.5
373.879	377.24
374.26	368.2
374.641	388.53
375.021	391.02
375.402	379.95
375.783	423.56
376.163	418.59
376.544	396.44
376.925	401.87
377.305	432.6
377.686	393.96
378.066	407.52
378.447	410.46
378.827	407.52
379.208	423.56
379.588	423.79
379.968	421.08
380.349	411.13
380.729	440.06
381.109	427.63
381.489	432.83
381.87	448.87
382.25	403.9
382.63	417.46
383.01	439.61
383.39	437.35
383.77	428.08
384.15	453.62
384.53	445.71
384.91	435.09
385.29	450.68
385.67	462.88
386.049	466.27
386.429	470.79
386.809	471.02
387.189	464.24
387.568	464.92
387.948	485.71
388.328	480.06
388.707	487.52
389.087	481.87
389.466	507.85
389.846	475.99
390.225	509.21
390.605	520.96
390.984	511.24
391.363	514.18
391.743	521.64
392.122	527.29
392.501	501.3
392.881	526.84
393.26	524.12
393.639	510.11
394.018	528.87
394.397	522.09
394.776	543.56
395.155	533.84
395.534	527.74
395.913	523.9
396.292	560.28
396.671	565.03
397.05	555.99
397.429	553.05
397.808	565.25
398.186	567.51
398.565	552.15
398.944	573.16
399.323	592.15
399.701	573.61
400.08	583.78
400.458	582.88
400.837	581.07
401.215	584.24
401.594	594.41
401.972	610.45
402.351	613.16
402.729	608.64
403.107	606.61
403.486	601.18
403.864	617.23
404.242	615.42
404.62	629.43
404.999	613.61
405.377	632.37
405.755	618.36
406.133	641.64
406.511	653.39
406.889	689.77
407.267	674.18
407.645	663.78
408.023	701.75
408.401	709.88
408.779	697.68
409.156	718.92
409.534	715.08
409.912	711.24
410.29	741.75
410.667	735.87
411.045	748.3
411.422	778.58
411.8	753.72
412.178	761.63
412.555	768.64
412.933	781.29
413.31	796.43
413.687	789.43
414.065	792.59
414.442	794.63
414.819	819.26
415.197	813.61
415.574	838.01
415.951	819.48
416.328	839.14
416.705	844.34
417.082	863.78
417.46	861.06
417.837	869.43
418.214	870.56
418.591	890.67
418.967	899.93
419.344	909.88
419.721	881.63
420.098	919.14
420.475	931.35
420.852	911.23
421.228	921.18
421.605	947.39
421.982	931.57
422.358	969.99
422.735	963.21
423.111	971.34
423.488	963.89
423.864	993.94
424.241	986.49
424.617	978.35
424.994	996.2
425.37	1005.24
425.746	1015.86
426.123	1017.67
426.499	1029.2
426.875	1049.31
427.251	1058.35
427.627	1074.39
428.003	1084.34
428.379	1103.09
428.756	1087.73
429.132	1118.01
429.507	1136.99
429.883	1152.36
430.259	1171.11
430.635	1182.86
431.011	1188.74
431.387	1223.54
431.763	1219.25
432.138	1227.61
432.514	1206.14
432.89	1245.24
433.265	1288.62
433.641	1272.13
434.016	1312.58
434.392	1318.23
434.767	1349.64
435.143	1331.11
435.518	1343.76
435.894	1380.37
436.269	1383.76
436.644	1381.28
437.02	1396.42
437.395	1384.67
437.77	1423.76
438.145	1442.74
438.52	1461.5
438.895	1494.95
439.271	1453.82
439.646	1488.39
440.021	1506.25
440.395	1496.53
440.77	1498.56
441.145	1517.54
441.52	1539.92
441.895	1515.51
442.27	1554.83
442.645	1570.88
443.019	1585.34
443.394	1564.78
443.769	1615.17
444.143	1596.41
444.518	1626.92
444.892	1584.66
445.267	1605.68
445.641	1636.64
446.016	1619.01
446.39	1645.9
446.764	1651.1
447.139	1639.58
447.513	1667.15
447.887	1662.17
448.262	1687.26
448.636	1682.51
449.01	1715.05
449.384	1741.49
449.758	1748.73
450.132	1795.5
450.506	1766.13
450.88	1789.63
451.254	1783.3
451.628	1837.31
452.002	1830.53
452.376	1858.33
452.75	1870.98
453.123	1887.7
453.497	1902.62
453.871	1932.9
454.244	1973.8
454.618	1956.63
454.992	2009.96
455.365	2009.28
455.739	2015.38
456.112	2041.37
456.486	2084.76
456.859	2121.14
457.232	2160.47
457.606	2143.29
457.979	2185.55
458.352	2232.78
458.725	2228.49
459.099	2267.81
459.472	2260.35
459.845	2319.78
460.218	2345.09
460.591	2331.76
460.964	2409.72
461.337	2378.54
461.71	2414.47
462.083	2460.12
462.456	2484.3
462.829	2487.91
463.201	2566.1
463.574	2559.78
463.947	2568.59
464.32	2614.92
464.692	2601.13
465.065	2676.16
465.438	2703.5
465.81	2719.77
466.183	2692.2
466.555	2767
466.928	2783.95
467.3	2803.61
467.672	2836.15
468.045	2909.37
468.417	2873.67
468.789	2928.36
469.161	2974.46
469.534	2959.54
469.906	3062.14
470.278	3067.33
470.65	3142.59
471.022	3150.95
471.394	3197.05
471.766	3241.57
472.138	3244.96
472.51	3322.02
472.882	3400.89
473.253	3367.67
473.625	3439.98
473.997	3494.44
474.369	3569.02
474.74	3591.16
475.112	3610.82
475.484	3691.95
475.855	3738.73
476.227	3802.68
476.598	3917.26
476.97	3884.71
477.341	4007.65
477.713	4079.51
478.084	4047.87
478.455	4213.07
478.827	4278.83
479.198	4285.38
479.569	4352.95
479.94	4472.72
480.311	4500.29
480.682	4588.65
481.053	4721.98
481.424	4798.81
481.795	4859.15
482.166	4879.04
482.537	4996.32
482.908	5043.78
483.279	5169.43
483.65	5247.39
484.021	5354.73
484.391	5440.61
484.762	5457.78
485.133	5500.49
485.503	5644.89
485.874	5762.18
486.244	5779.35
486.615	5925.11
486.985	5969.63
487.356	6129.4
487.726	6182.73
488.097	6342.5
488.467	6346.34
488.837	6515.38
489.207	6543.85
489.578	6698.88
489.948	6784.3
490.318	6879.66
490.688	6904.3
491.058	7001.69
491.428	7130.96
491.798	7262.48
492.168	7340.89
492.538	7468.35
492.908	7454.56
493.278	7703.14
493.648	7719.64
494.017	7811.62
494.387	7894.55
494.757	7923.48
495.126	8064.94
495.496	8170.93
495.866	8287.76
496.235	8307.65
496.605	8415.67
496.974	8487.53
497.344	8556
497.713	8624.02
498.082	8718.03
498.452	8842.32
498.821	8882.77
499.19	8970.68
499.559	9032.15
499.928	9107.4
500.298	9169.32
500.667	9248.42
501.036	9272.14
501.405	9430.56
501.774	9401.86
502.143	9530.67
502.512	9561.63
502.88	9689.76
503.249	9676.43
503.618	9717.1
503.987	9818.57
504.356	9879.13
504.724	9930.88
505.093	10049.52
505.462	10106.7
505.83	10133.59
506.199	10218.11
506.567	10396.86
506.936	10400.02
507.304	10510.53
507.672	10592.79
508.041	10612.22
508.409	10701.03
508.777	10806.79
509.145	10852.89
509.514	10831.88
509.882	10972.21
510.25	10960.23
510.618	11102.15
510.986	11102.6
511.354	11245.2
511.722	11325.42
512.09	11371.52
512.458	11462.14
512.826	11496.72
513.193	11556.83
513.561	11604.06
513.929	11691.29
514.297	11835.69
514.664	11928.8
515.032	11981.9
515.4	12062.13
515.767	12134.67
516.135	12202.01
516.502	12169.47
516.869	12322.68
517.237	12485.84
517.604	12450.59
517.972	12621.66
518.339	12613.75
518.706	12732.84
519.073	12857.36
519.44	12959.05
519.808	13073.17
520.175	13045.15
520.542	13290.12
520.909	13250.8
521.276	13347.52
521.643	13488.08
522.009	13605.81
522.376	13792.25
522.743	13779.37
523.11	13926.03
523.477	14112.69
523.843	14117.89
524.21	14313.82
524.577	14405.34
524.943	14480.59
525.31	14566.92
525.676	14816.86
526.043	14895.72
526.409	14951.99
526.776	15148.82
527.142	15208.94
527.508	15275.15
527.874	15511.08
528.241	15636.95
528.607	15652.31
528.973	15811.18
529.339	15836.49
529.705	16085.52
530.071	16181.11
530.437	16272.64
530.803	16460.43
531.169	16520.54
531.535	16521.22
531.901	16556.92
532.267	16736.81
532.632	16881.21
532.998	16892.96
533.364	17103.35
533.73	17155.55
534.095	17366.62
534.461	17333.4
534.826	17554.64
535.192	17500.18
535.557	17624.47
535.923	17694.75
536.288	17875.76
536.653	17943.78
537.019	17888.87
537.384	17986.26
537.749	18143.1
538.114	18204.11
538.479	18153.27
538.845	18300.83
539.21	18258.57
539.575	18464.22
539.94	18549.41
540.305	18514.61
540.67	18584.67
541.034	18627.15
541.399	18692.01
541.764	18825.34
542.129	18858.33
542.494	18875.51
542.858	19040.02
543.223	19033.47
543.587	19176.06
543.952	19073.92
544.316	19158.89
544.681	19187.59
545.045	19337.64
545.41	19466.45
545.774	19407.92
546.138	19555.49
546.503	19630.51
546.867	19553.45
547.231	19827.12
547.595	19832.32
547.959	19855.82
548.324	19962.26
548.688	20061.24
549.052	19984.63
549.416	20027.34
549.779	20054.01
550.143	20114.57
550.507	20282.93
550.871	20359.31
551.235	20346.43
551.599	20589.36
551.962	20510.27
552.326	20532.64
552.689	20694.44
553.053	20593.65
553.417	20796.13
553.78	20907.77
554.143	20940.08
554.507	21119.52
554.87	21151.6
555.234	21420.07
555.597	21163.13
555.96	21350.47
556.323	21462.11
556.686	21540.52
557.05	21615.77
557.413	21729.67
557.776	21754.98
558.139	22016.89
558.502	21968.98
558.865	22033.62
559.228	22271.58
559.59	22222.31
559.953	22392.7
560.316	22580.72
560.679	22713.82
561.041	22808.74
561.404	22929.64
561.767	23163.3
562.129	22938
562.492	23166.24
562.854	23324.43
563.217	23327.37
563.579	23403.52
563.941	23622.95
564.304	23819.11
564.666	23902.72
565.028	24069.49
565.39	24082.6
565.753	24310.17
566.115	24355.36
566.477	24549.71
566.839	24548.8
567.201	24900.88
567.563	24979.53
567.925	25093.42
568.287	25229.24
568.648	25332.51
569.01	25490.25
569.372	25673.52
569.734	25651.6
570.095	25996.22
570.457	26166.84
570.819	26151.47
571.18	26285.26
571.542	26537.23
571.903	26646.83
572.265	26769.99
572.626	26837.56
572.987	26967.05
573.349	27188.51
573.71	27308.96
574.071	27418.33
574.432	27594.15
574.794	27872.78
575.155	27781.94
575.516	27903.97
575.877	28120.91
576.238	28187.13
576.599	28382.6
576.96	28414.69
577.32	28631.63
577.681	28708.47
578.042	29054.45
578.403	29001.57
578.763	29144.62
579.124	29341.45
579.485	29583.7
579.845	29655.79
580.206	29714.32
580.566	29829.12
580.927	29876.57
581.287	30101.43
581.648	30195.43
582.008	30557.69
582.368	30713.16
582.728	30808.98
583.089	30939.6
583.449	31193.15
583.809	31387.27
584.169	31684.44
584.529	31580.71
584.889	32119.45
585.249	32120.58
585.609	32154.71
585.969	32848.7
586.329	32725.76
586.688	33056.38
587.048	33387.67
587.408	33651.62
587.768	33928.67
588.127	34057.93
588.487	34494.98
588.846	35114.4
589.206	35231.46
589.565	35539.25
589.925	36019.46
590.284	36284.99
590.643	36773.57
591.003	37195.48
591.362	37704.39
591.721	38038.62
592.08	38346.63
592.44	39008.08
592.799	39270.9
593.158	39661.85
593.517	40024.78
593.876	40575.05
594.235	40861.37
594.593	41251.87
594.952	41769.59
595.311	42153.31
595.67	42624.49
596.029	43381.53
596.387	43716.44
596.746	44242.75
597.104	44453.37
597.463	44901.71
597.822	45514.13
598.18	45967.68
598.538	46229.36
598.897	47009.46
599.255	47082.9
599.613	47939.6
599.972	48139.82
600.33	48535.52
600.688	48873.59
601.046	49248.04
601.404	49876.95
601.762	50035.59
602.12	50530.27
602.478	50857.94
602.836	51162.12
603.194	51344.94
603.552	51766.85
603.91	51858.82
604.268	52314.4
604.625	52573.38
604.983	52975.17
605.341	53066.47
605.698	53537.65
606.056	53870.52
606.413	53922.49
606.771	54374.01
607.128	54486.1
607.485	54654.45
607.843	54879.98
608.2	55171.05
608.557	55508.44
608.914	55583.69
609.272	55828.21
609.629	56129.67
609.986	56398.14
610.343	56414.18
610.7	56844.9
611.057	56915.86
611.414	56966.71
611.771	57252.12
612.127	57487.37
612.484	57590.19
612.841	57748.61
613.198	57866.57
613.554	57992.44
613.911	58250.29
614.267	58336.16
614.624	58450.74
614.98	58675.59
615.337	58904.06
615.693	58943.83
616.05	59023.83
616.406	59224.05
616.762	59232.86
617.118	59379.3
617.475	59410.71
617.831	59643.7
618.187	59703.13
618.543	59881.66
618.899	60011.37
619.255	60056.12
619.611	60146.29
619.967	60308.77
620.323	60366.62
620.678	60331.37
621.034	60391.25
621.39	60500.63
621.746	60540.85
622.101	60811.13
622.457	60699.94
622.812	60929.09
623.168	60987.62
623.523	60934.97
623.879	61129.99
624.234	61011.35
624.589	61153.04
624.945	61207.73
625.3	61318.23
625.655	61299.25
626.01	61345.12
626.365	61461.51
626.72	61405.24
627.075	61390.09
627.43	61462.18
627.785	61483.65
628.14	61546.47
628.495	61590.54
628.85	61594.61
629.205	61595.06
629.559	61656.53
629.914	61639.13
630.269	61744.89
630.623	61579.47
630.978	61598.22
631.332	61771.1
631.687	61746.92
632.041	61678.22
632.396	61737.88
632.75	61713.25
633.104	61819.91
633.459	61658.79
633.813	61670.77
634.167	61629.64
634.521	61737.88
634.875	61730.2
635.229	61708.05
635.583	61673.25
635.937	61657.21
636.291	61619.24
636.645	61638
636.999	61565.23
637.352	61648.17
637.706	61497.44
638.06	61612.69
638.413	61525.91
638.767	61476.65
639.121	61512.13
639.474	61453.6
639.828	61479.58
640.181	61441.84
640.534	61487.04
640.888	61415.18
641.241	61301.51
641.594	61423.99
641.947	61486.36
642.301	61362.52
642.654	61390.77
643.007	61318.91
643.36	61387.38
643.713	61289.53
644.066	61376.76
644.419	61225.13
644.771	61012.48
645.124	60725.71
645.477	60807.51
645.83	60658.81
646.182	60640.96
646.535	60585.14
646.888	60704.69
647.24	60579.27
647.593	60678.93
647.945	60642.32
648.298	60526.39
648.65	60447.52
649.002	60386.96
649.355	60316.9
649.707	60246.85
650.059	60249.33
650.411	60567.74
650.763	60657.23
651.115	60999.6
651.467	60883.44
651.819	60897.45
652.171	60835.08
652.523	60760.51
652.875	60771.13
653.227	60711.69
653.578	60853.84
653.93	60800.05
654.282	60680.06
654.633	60636.44
654.985	60620.17
655.337	60700.17
655.688	60647.97
656.039	60758.25
656.391	60451.81
656.742	60591.02
657.094	60543.79
657.445	60641.19
657.796	60588.08
658.147	60527.74
658.498	60520.51
658.849	60560.74
659.2	60528.42
659.551	60441.19
659.902	60595.09
660.253	60425.6
660.604	60514.86
660.955	60432.83
661.306	60526.61
661.656	60413.85
662.007	60444.13
662.358	60483.45
662.708	60492.49
663.059	60452.49
663.409	60373.85
663.76	60410.91
664.11	60417.24
664.461	60478.93
664.811	60411.82
665.161	60393.06
665.511	60396
665.862	60382.44
666.212	60362.33
666.562	60453.85
666.912	60370.23
667.262	60308.32
667.612	60307.19
667.962	60284.81
668.312	60229
668.662	60431.02
669.011	60391.93
669.361	60304.25
669.711	60283.23
670.06	60309.22
670.41	60210.92
670.76	60247.3
671.109	60325.04
671.459	60234.65
671.808	60207.3
672.157	60282.55
672.507	60147.64
672.856	60129.79
673.205	60188.09
673.554	60278.26
673.904	60101.54
674.253	60333.85
674.602	60202.33
674.951	59871.72
675.3	59752.4
675.649	60191.93
675.998	60173.63
676.346	60209.56
676.695	60177.47
677.044	60026.74
677.393	60058.15
677.741	60166.62
678.09	60045.72
678.438	59967.53
678.787	60050.02
679.135	59983.8
679.484	59881.21
679.832	60026.97
680.181	59879.4
680.529	59991.04
680.877	59894.99
681.225	59834.88
681.573	60028.1
681.922	59859.06
682.27	59843.92
682.618	59799.85
682.966	59739.74
683.314	59836.24
683.661	59747.65
684.009	59654.32
684.357	59603.93
684.705	59593.53
685.053	59586.3
685.4	59464.72
685.748	59477.38
686.095	59448.68
686.443	59376.59
686.79	59352.63
687.138	59452.52
687.485	59400.99
687.832	59250.94
688.18	59260.89
688.527	59170.94
688.874	59137.72
689.221	59096.82
689.568	59036.48
689.915	59018.63
690.262	59048.46
690.609	58977.95
690.956	58816.6
691.303	58851.63
691.65	58709.49
691.997	58690.96
692.344	58558.08
692.69	58510.4
693.037	58500.23
693.383	58398.54
693.73	58447.57
694.077	58248.03
694.423	58362.38
694.769	58260.01
695.116	58175.72
695.462	58090.29
695.808	57995.83
696.155	58046.45
696.501	57862.28
696.847	57920.81
697.193	57763.3
697.539	57787.25
697.885	57574.6
698.231	57551.78
698.577	57571.44
698.923	57458.67
699.269	57302.07
699.614	57263.65
699.96	57253.93
700.306	57246.7
700.651	57108.17
700.997	56949.99
701.342	57092.35
701.688	56913.83
702.033	56850.1
702.379	56815.3
702.724	56701.86
703.069	56759.71
703.415	56408.76
703.76	56473.61
704.105	56408.3
704.45	56301.87
704.795	56288.53
705.14	56168.54
705.485	56258.03
705.83	55915.44
706.175	56077.92
706.52	55916.11
706.865	55899.39
707.209	55807.42
707.554	55721.09
707.899	55781.88
708.243	55644.71
708.588	55563.13
708.932	55319.97
709.277	55454.88
709.621	55327.88
709.966	55124.04
710.31	55200.43
710.654	54995.69
710.998	55087.66
711.342	55078.4
711.687	54984.61
712.031	54832.75
712.375	54757.73
712.719	54708.01
713.063	54689.71
713.407	54830.49
713.75	54602.7
714.094	54564.29
714.438	54449.49
714.782	54555.7
715.125	54352.77
715.469	54426.21
715.812	54288.81
716.156	54252.43
716.499	54162.26
716.843	54232.77
717.186	53992.1
717.53	54132.66
717.873	54127.91
718.216	53947.13
718.559	53911.2
718.902	53646.12
719.246	53781.03
719.589	53658.77
719.932	53545.56
720.275	53694.03
720.617	53625.55
720.96	53547.59
721.303	53546.23
721.646	53633.24
721.989	53374.94
722.331	53405.22
722.674	53300.82
723.016	53323.64
723.359	53189.41
723.701	53267.82
724.044	53104.21
724.386	53034.16
724.729	53064.89
725.071	53129.3
725.413	52984.44
725.755	52870.77
726.097	52888.17
726.439	52756.2
726.782	52683.21
727.124	52875.29
727.465	52732.47
727.807	52647.5
728.149	52648.86
728.491	52592.36
728.833	52728.18
729.175	52571.8
729.516	52466.49
729.858	52432.14
730.199	52510.1
730.541	52406.6
730.882	52445.47
731.224	52377.9
731.565	52229.88
731.906	52255.65
732.248	52181.3
732.589	51955.99
732.93	51971.59
733.271	52006.61
733.612	52045.93
733.953	52121.19
734.294	51965.26
734.635	51920.29
734.976	52025.14
735.317	51951.7
735.658	51820.63
735.999	51756
736.339	51804.13
736.68	51802.32
737.021	51753.96
737.361	51561.2
737.702	51838.93
738.042	51636
738.383	51672.61
738.723	51817.69
739.063	51623.12
739.404	51678.26
739.744	51696.79
740.084	51592.84
740.424	51543.8
740.764	51448.44
741.104	51543.12
741.444	51396.69
741.784	51392.39
742.124	51445.05
742.464	51369.79
742.804	51283.24
743.143	51317.82
743.483	51345.39
743.823	51213.41
744.162	51176.8
744.502	51209.8
744.841	50998.28
745.181	51178.84
745.52	51105.17
745.86	51066.52
746.199	51026.53
746.538	51047.54
746.877	51151.49
747.216	51075.56
747.556	51049.58
747.895	51089.12
748.234	51021.78
748.573	51038.73
748.911	50839.64
749.25	50850.71
749.589	50816.36
749.928	50841.9
750.267	50903.82
750.605	50676.03
750.944	50738.62
751.283	50617.72
751.621	50735.01
751.96	50483.71
752.298	50560.55
752.636	50486.65
752.975	50459.99
753.313	50346.77
753.651	50582.24
753.989	50217.73
754.327	50356.26
754.666	50109.26
755.004	50273.78
755.342	50416.82
755.679	50255.92
756.017	49954.46
756.355	50087.34
756.693	49922.15
757.031	50130.28
757.368	49836.5
757.706	49853
758.044	49847.57
758.381	49736.84
758.719	49640.8
759.056	49771.64
759.394	49533.68
759.731	49343.63
760.068	49388.83
760.405	49354.93
760.743	49138.21
761.08	49289.85
761.417	49031.1
761.754	48999.01
762.091	48806.24
762.428	48711.56
762.765	48562.86
763.102	48685.57
763.438	48563.54
763.775	48383.88
764.112	48296.43
764.449	48228.41
764.785	48115.87
765.122	47902.99
765.458	47784.8
765.795	47752.71
766.131	47747.74
766.467	47545.49
766.804	47447.64
767.14	47223.01
767.476	47193.86
767.812	46994.77
768.148	47141.66
768.485	46967.88
768.821	46651.27
769.157	46619.41
769.492	46523.59
769.828	46448.57
770.164	46188.23
770.5	46193.66
770.836	46114.79
771.171	45730.85
771.507	45707.34
771.842	45523.17
772.178	45472.77
772.513	45378.54
772.849	45120.92
773.184	45169.28
773.519	45082.05
773.855	44785.56
774.19	44759.12
774.525	44564.32
774.86	44425.57
775.195	44259.7
775.53	44204.11
775.865	44007.5
776.2	43717.34
776.535	43677.34
776.87	43503.11
777.205	43339.72
777.539	43195.32
777.874	43268.99
778.209	42731.38
778.543	42840.07
778.878	42606.41
779.212	42501.55
779.547	42280.09
779.881	42375.23
780.215	41927.56
780.55	42104.05
780.884	41856.6
781.218	41614.34
781.552	41634
781.886	41443.27
782.22	41323.05
782.554	40940.01
782.888	40624.54
783.222	40770.52
783.556	40487.14
783.889	40344.09
784.223	40089.86
784.557	40100.49
784.89	39979.36
785.224	39853.49
785.557	39682.19
785.891	39447.17
786.224	39445.81
786.558	39329.88
786.891	39196.33
787.224	38994.98
787.557	38767.86
787.891	38869.33
788.224	38581.88
788.557	38515.22
788.89	38465.05
789.223	38359.51
789.556	38114.1
789.888	38032.29
790.221	37867.78
790.554	37798.62
790.887	37498.75
791.219	37254.91
791.552	37312.54
791.884	37189.83
792.217	37066.21
792.549	37007.91
792.882	36769.05
793.214	36477.08
793.546	36620.12
793.879	36420.13
794.211	36104.88
794.543	36117.77
794.875	36122.74
795.207	36065.34
795.539	35921.84
795.871	35959.35
796.203	35515.29
796.535	35526.82
796.867	35349.88
797.198	35199.37
797.53	35146.72
797.862	34872.83
798.193	35018.13
798.525	34847.06
798.856	34842.77
799.188	34481.2
799.519	34492.05
799.85	34274.88
800.182	34312.84
800.513	34334.76
800.844	33871.27
801.175	34124.37
801.506	34001.21
801.837	33855.23
802.168	33753.31
802.499	33710.14
802.83	33469.7
803.161	33349.48
803.491	33285.98
803.822	33400.32
804.153	33077.39
804.483	32894.57
804.814	32603.06
805.145	32830.62
805.475	32806.89
805.805	32703.84
806.136	32603.73
806.466	32536.16
806.796	32319.9
807.126	32269.73
807.457	32114.25
807.787	32162.39
808.117	32012.34
808.447	31756.98
808.777	31952.22
809.107	31668.62
809.436	31685.11
809.766	31578.9
810.096	31582.07
810.426	31412.8
810.755	31383.43
811.085	31242.86
811.414	31296.42
811.744	31135.52
812.073	31033.38
812.403	30917.22
812.732	30896.43
813.061	31008.97
813.39	30754.52
813.719	30565.14
814.049	30762.43
814.378	30735.53
814.707	30360.63
815.036	30434.75
815.365	30329.89
815.693	30088.55
816.022	30040.41
816.351	29970.13
816.68	29797.25
817.008	30054.42
817.337	29681.78
817.665	29593.19
817.994	29654.21
818.322	29691.72
818.651	29543.93
818.979	29517.26
819.307	29443.14
819.636	29506.64
819.964	29351.16
820.292	29329.47
820.62	29206.53
820.948	29318.62
821.276	29330.6
821.604	29287.89
821.932	29370.37
822.259	29236.36
822.587	29253.31
822.915	29172.64
823.243	29287.21
823.57	29220.55
823.898	29300.32
824.225	29286.08
824.553	29108.46
824.88	29217.16
825.207	29342.8
825.535	29120.21
825.862	29248.12
826.189	29087.67
826.516	29324.5
826.843	29514.55
827.17	29392.97
827.497	29342.8
827.824	29362.01
828.151	29388.22
828.478	29146.2
828.805	29262.13
829.131	29257.83
829.458	29351.39
829.785	29152.07
830.111	29210.38
830.438	29369.02
830.764	29191.39
831.09	29247.44
831.417	29092.86
831.743	29303.71
832.069	29245.86
832.395	29228.91
832.722	29191.17
833.048	29046.76
833.374	29144.39
833.7	29018.97
834.026	29064.39
834.351	29024.17
834.677	29182.35
835.003	28998.4
835.329	28927.9
835.654	28919.08
835.98	28718.41
836.306	29057.61
836.631	28781.23
836.956	28969.48
837.282	28846.32
837.607	28626.66
837.932	28772.65
838.258	28643.39
838.583	28486.1
838.908	28483.62
839.233	28543.27
839.558	28415.59
839.883	28404.75
840.208	28348.03
840.533	28429.61
840.858	28293.56
841.182	28378.53
841.507	28266.9
841.832	28095.38
842.156	28122.72
842.481	28058.99
842.805	27850.41
843.13	27943.52
843.454	27840.24
843.778	27831.66
844.103	27762.73
844.427	27754.14
844.751	27683.41
845.075	27602.73
845.399	27537.43
845.723	27360.71
846.047	27479.35
846.371	27280.03
846.695	27191.22
847.019	27103.31
847.343	26868.52
847.666	26752.81
847.99	26647.05
848.313	26661.29
848.637	26571.58
848.96	26555.53
849.284	26482.54
849.607	26197.8
849.931	26094.75
850.254	25978.82
850.577	25891.82
850.9	25724.82
851.223	25782.9
851.546	25634.42
851.869	25483.69
852.192	25669.45
852.515	25297.71
852.838	25179.52
853.161	25108.11
853.483	24904.5
853.806	24958.96
854.129	24828.34
854.451	24918.51
854.774	24650.72
855.096	24579.54
855.419	24533.89
855.741	24470.84
856.063	24271.3
856.385	24309.26
856.708	24228.59
857.03	24129.38
857.352	24129.38
857.674	24076.27
857.996	23917.86
858.318	23854.13
858.64	23854.13
858.961	23783.63
859.283	23727.81
859.605	23543.41
859.926	23675.83
860.248	23581.37
860.57	23383.86
860.891	23467.02
861.212	23319.23
861.534	23229.29
861.855	23195.39
862.176	23179.35
862.498	23179.12
862.819	23216.18
863.14	23095.06
863.461	22985.23
863.782	22862.75
864.103	22833.37
864.424	22774.16
864.745	22988.39
865.065	22856.87
865.386	22715.86
865.707	22692.13
866.027	22659.81
866.348	22599.48
866.668	22599.48
866.989	22524
867.309	22291.46
867.63	22327.17
867.95	22473.15
868.27	22262.54
868.59	22281.07
868.91	22257.11
869.23	22134.4
869.55	22074.97
869.87	22239.49
870.19	22046.27
870.51	22089.89
870.83	22086.27
871.15	22058.7
871.469	21969.66
871.789	22023.45
872.109	21829.55
872.428	21805.15
872.748	21851.02
873.067	21778.48
873.386	21934.18
873.706	21793.4
874.025	21772.38
874.344	21729.89
874.663	21699.61
874.982	21573.06
875.301	21555.21
875.62	21410.58
875.939	21392.5
876.258	21372.84
876.577	21388.43
876.896	21398.83
877.214	21228.89
877.533	21242.9
877.852	21209
878.17	21340.75
878.489	21281.77
878.807	21249.23
879.125	21081.55
879.444	21033.19
879.762	20973.76
880.08	21194.54
880.398	20914.1
880.716	20980.54
881.034	20789.81
881.352	20836.58
881.67	20718.85
881.988	20790.48
882.306	20655.57
882.624	20719.75
882.941	20602.69
883.259	20591.85
883.577	20595.69
883.894	20366.54
884.212	20377.16
884.529	20264.4
884.846	20267.11
885.164	20185.53
885.481	20228.69
885.798	20241.8
886.115	20121.8
886.432	20208.8
886.75	20047.68
887.067	20221.01
887.383	19943.73
887.7	19967.91
888.017	19819.89
888.334	19759.33
888.651	19774.47
888.967	19763.84
889.284	19682.04
889.6	19610.85
889.917	19550.97
890.233	19532.21
890.55	19399.11
890.866	19377.87
891.182	19249.28
891.498	19250.19
891.815	19194.14
892.131	19051.77
892.447	19040.02
892.763	19076.18
893.079	18975.84
893.395	18964.09
893.71	18960.7
894.026	18721.61
894.342	18801.61
894.657	18676.42
894.973	18687.71
895.289	18644.55
895.604	18586.25
895.92	18481.84
896.235	18534.27
896.55	18371.11
896.865	18306.93
897.181	18176.99
897.496	18254.28
897.811	18117.56
898.126	17972.48
898.441	17989.43
898.756	17969.54
899.071	17812.94
899.386	17844.12
899.7	17689.1
900.015	17554.86
900.33	17495.66
900.644	17445.26
900.959	17488.65
901.273	17383.34
901.588	17304.47
901.902	17248.43
902.216	17332.27
902.531	17150.58
902.845	17060.19
903.159	16979.51
903.473	16866.52
903.787	16857.48
904.101	16831.94
904.415	16827.42
904.729	16800.08
905.042	16520.99
905.356	16499.07
905.67	16519.64
905.984	16512.18
906.297	16516.47
906.611	16287.78
906.924	16293.43
907.237	16194.9
907.551	16116.03
907.864	16030.61
908.177	16081.68
908.491	16020.21
908.804	16015.69
909.117	15907
909.43	15685.31
909.743	15646.44
910.056	15765.76
910.368	15611.64
910.681	15571.86
910.994	15416.84
911.307	15373.9
911.619	15251.65
911.932	15250.74
912.244	15089.17
912.557	15169.62
912.869	15041.71
913.181	15029.51
913.494	14971.88
913.806	14856.18
914.118	14795.39
914.43	14824.54
914.742	14629.52
915.054	14630.87
915.366	14495.51
915.678	14470.2
915.99	14417.09
916.302	14302.97
916.613	14275.4
916.925	14286.02
917.236	14235.18
917.548	14096.42
917.859	14083.77
918.171	14034.05
918.482	13898.24
918.794	13818.24
919.105	13874.51
919.416	13772.59
919.727	13770.78
920.038	13733.49
920.349	13531.24
920.66	13563.78
920.971	13556.32
921.282	13536.89
921.593	13393.39
921.903	13253.96
922.214	13250.34
922.525	13241.08
922.835	13149.1
923.146	13084.92
923.456	12986.4
923.767	12949.33
924.077	12973.74
924.387	12868.88
924.697	12792.73
925.008	12830.47
925.318	12710.47
925.628	12640.42
925.938	12562
926.248	12433.19
926.558	12349.12
926.867	12471.16
927.177	12293.53
927.487	12327.43
927.796	12186.42
928.106	12170.82
928.416	12153.88
928.725	12126.31
929.034	12086.98
929.344	12024.16
929.653	12045.4
929.962	11850.61
930.271	11849.93
930.581	11798.63
930.89	11701.91
931.199	11714.56
931.508	11679.54
931.817	11607
932.125	11611.29
932.434	11477.73
932.743	11448.81
933.051	11337.85
933.36	11300.79
933.669	11314.12
933.977	11236.39
934.286	11262.6
934.594	11154.58
934.902	11029.61
935.21	11013.11
935.519	10998.2
935.827	10991.19
936.135	10925.89
936.443	10782.61
936.751	10774.48
937.059	10775.15
937.367	10724.31
937.674	10727.47
937.982	10688.38
938.29	10631.88
938.597	10582.84
938.905	10487.7
939.213	10369.74
939.52	10334.26
939.827	10471.66
940.135	10273.47
940.442	10337.88
940.749	10211.1
941.056	10253.59
941.363	10078.45
941.67	10131.56
941.977	10042.29
942.284	9942.41
942.591	9940.15
942.898	9911.22
943.205	9884.1
943.511	9760.94
943.818	9796.65
944.125	9761.62
944.431	9638.24
944.738	9653.6
945.044	9560.72
945.35	9541.06
945.657	9505.81
945.963	9487.73
946.269	9409.54
946.575	9408.41
946.881	9405.02
947.187	9306.49
947.493	9271.01
947.799	9179.94
948.105	9156.89
948.41	9131.13
948.716	9160.73
949.022	8999.16
949.327	8999.38
949.633	8892.04
949.938	8972.94
950.244	8933.4
950.549	8848.43
950.854	8771.82
951.16	8788.31
951.465	8772.95
951.77	8701.08
952.075	8730.69
952.38	8591.03
952.685	8610.69
952.99	8538.15
953.294	8489.11
953.599	8470.36
953.904	8400.3
954.209	8354.2
954.513	8417.48
954.818	8327.08
955.122	8274.43
955.426	8298.38
955.731	8253.41
956.035	8153.3
956.339	8156.47
956.643	8107.43
956.948	8088.9
957.252	7972.52
957.556	8045.51
957.86	7956.47
958.163	7926.64
958.467	7934.55
958.771	7838.73
959.075	7874.44
959.378	7758.51
959.682	7737.72
959.985	7704.5
960.289	7596.48
960.592	7635.12
960.896	7613.2
961.199	7529.82
961.502	7538.4
961.805	7487.11
962.108	7360.56
962.411	7427.67
962.714	7311.06
963.017	7312.42
963.32	7373.89
963.623	7307.68
963.926	7215.25
964.228	7254.57
964.531	7250.95
964.833	7175.25
965.136	7102.93
965.438	7057.29
965.741	7057.29
966.043	7040.56
966.345	6961.92
966.648	6970.73
966.95	6964.63
967.252	6894.35
967.554	6852.32
967.856	6876.95
968.158	6822.94
968.46	6837.86
968.761	6699.33
969.063	6736.62
969.365	6677.18
969.666	6677.64
969.968	6587.02
970.269	6606.68
970.571	6544.53
970.872	6486.68
971.174	6463.4
971.475	6505.89
971.776	6424.08
972.077	6418.21
972.378	6381.82
972.679	6375.95
972.98	6302.73
973.281	6337.31
973.582	6282.39
973.883	6219.79
974.183	6243.97
974.484	6122.85
974.785	6128.27
975.085	6107.93
975.386	6115.62
975.686	6071.78
975.986	6023.64
976.287	6015.28
976.587	5970.54
976.887	5960.59
977.187	5913.36
977.487	5923.08
977.787	5814.16
978.087	5827.49
978.387	5835.17
978.687	5823.65
978.987	5770.09
979.286	5702.29
979.586	5758.34
979.885	5674.72
980.185	5667.27
980.484	5624.1
980.784	5609.64
981.083	5549.3
981.382	5531
981.682	5570.09
981.981	5517.21
982.28	5435.86
982.579	5451
982.878	5420.04
983.177	5358.12
983.475	5418.91
983.774	5303.21
984.073	5331.46
984.372	5268.63
984.67	5251.01
984.969	5247.62
985.267	5232.48
985.566	5138.92
985.864	5113.16
986.162	5135.53
986.461	5127.62
986.759	5093.5
987.057	5032.25
987.355	5019.6
987.653	4967.17
987.951	5007.85
988.249	4969.21
988.547	4935.08
988.844	4955.65
989.142	4862.54
989.44	4881.3
989.737	4820.28
990.035	4794.07
990.332	4752.26
990.63	4771.02
990.927	4741.41
991.224	4707.97
991.521	4715.65
991.819	4678.82
992.116	4701.87
992.413	4651.02
992.71	4608.99
993.006	4561.31
993.303	4554.3
993.6	4553.85
993.897	4524.7
994.193	4503.68
994.49	4500.29
994.787	4516.34
995.083	4399.95
995.379	4461.65
995.676	4398.6
995.972	4373.29
996.268	4348.66
996.565	4333.74
996.861	4245.61
997.157	4252.61
997.453	4265.5
997.749	4209.68
998.044	4160.19
998.34	4188.66
998.636	4171.94
998.932	4164.03
999.227	4105.5
999.523	4096.69
999.818	4066.4
1000.114	4093.97
1000.409	4014.88
1000.704	3971.04
1001	3989.8
1001.295	3988.89
1001.59	3919.29
1001.885	3930.59
1002.18	3889.01
1002.475	3840.42
1002.77	3849.01
1003.065	3879.06
1003.359	3834.77
1003.654	3774.66
1003.949	3792.06
1004.243	3761.1
1004.538	3692.4
1004.832	3721.1
1005.127	3700.09
1005.421	3691.95
1005.715	3621.22
1006.009	3635
1006.304	3606.76
1006.598	3562.69
1006.892	3530.83
1007.186	3490.15
1007.48	3474.1
1007.773	3478.17
1008.067	3459.64
1008.361	3454.44
1008.655	3429.13
1008.948	3361.11
1009.242	3397.27
1009.535	3324.28
1009.829	3319.98
1010.122	3306.42
1010.415	3303.71
1010.708	3284.5
1011.001	3248.8
1011.295	3230.27
1011.588	3193.66
1011.881	3205.41
1012.173	3120.89
1012.466	3136.71
1012.759	3132.87
1013.052	3108.01
1013.344	3071.85
1013.637	3058.07
1013.93	3047.22
1014.222	3042.93
1014.514	3010.39
1014.807	2997.73
1015.099	2971.07
1015.391	2958.64
1015.683	2942.14
1015.976	2929.26
1016.268	2877.74
1016.56	2833.89
1016.851	2853.55
1017.143	2816.49
1017.435	2848.13
1017.727	2803.84
1018.018	2771.07
1018.31	2770.17
1018.602	2740.79
1018.893	2697.4
1019.185	2691.3
1019.476	2677.29
1019.767	2622.6
1020.058	2636.61
1020.35	2612.21
1020.641	2623.28
1020.932	2585.54
1021.223	2587.8
1021.514	2570.85
1021.804	2534.47
1022.095	2528.82
1022.386	2484.75
1022.677	2470.51
1022.967	2477.07
1023.258	2441.81
1023.548	2407.01
1023.839	2402.95
1024.129	2391.87
1024.419	2361.82
1024.709	2357.3
1025	2315.72
1025.29	2338.99
1025.58	2313.91
1025.87	2297.19
1026.16	2272.78
1026.449	2237.75
1026.739	2235.94
1027.029	2209.05
1027.319	2197.53
1027.608	2184.87
1027.898	2176.28
1028.187	2150.07
1028.477	2172.89
1028.766	2127.25
1029.055	2128.15
1029.344	2093.35
1029.634	2084.08
1029.923	2025.1
1030.212	2041.6
1030.501	2044.08
1030.79	2016.29
1031.078	2014.03
1031.367	1977.19
1031.656	1972.22
1031.945	1981.04
1032.233	1945.78
1032.522	1936.06
1032.81	1934.71
1033.099	1892.68
1033.387	1910.98
1033.675	1883.86
1033.963	1875.28
1034.251	1851.1
1034.54	1841.83
1034.828	1804.54
1035.116	1790.53
1035.403	1783.75
1035.691	1763.19
1035.979	1743.08
1036.267	1758.67
1036.554	1748.05
1036.842	1726.35
1037.129	1695.62
1037.417	1684.09
1037.704	1695.39
1037.992	1664.89
1038.279	1621.72
1038.566	1650.42
1038.853	1650.42
1039.14	1650.42
