Data from 17-1436_FLMS001491_001.txt Node
Date: Thu Apr 19 16:28:55 BST 2018
User: hsy
Spectrometer: FLMS00149
Trigger mode: 0
Integration Time (sec): 1.000000E-2
Scans to average: 10
Electric dark correction enabled: true
Nonlinearity correction enabled: false
Boxcar width: 0
XAxis mode: Wavelengths
Number of Pixels in Spectrum: 2048
>>>>>Begin Spectral Data<<<<<
341.393	15.11
341.776	15.11
342.16	15.11
342.543	-73.02
342.927	-76.18
343.31	-56.75
343.693	-62.17
344.077	-64.66
344.46	-79.57
344.843	-60.59
345.226	-53.59
345.61	-39.12
345.993	0.2
346.376	-7.03
346.759	18.95
347.142	24.6
347.525	52.17
347.908	39.29
348.291	86.07
348.674	86.98
349.057	115.22
349.44	132.62
349.823	139.18
350.206	174.88
350.588	226.63
350.971	238.38
351.354	250.13
351.737	275.9
352.119	289.91
352.502	283.35
352.884	299.17
353.267	318.61
353.65	315.9
354.032	339.85
354.414	315.44
354.797	343.69
355.179	364.71
355.562	347.76
355.944	370.81
356.326	358.61
356.709	358.15
357.091	369.91
357.473	354.09
357.855	387.08
358.238	362
358.62	383.92
359.002	389.34
359.384	370.13
359.766	369.23
360.148	363.58
360.53	372.62
360.912	358.83
361.294	399.51
361.676	368.32
362.057	370.81
362.439	388.44
362.821	363.13
363.203	353.86
363.584	365.39
363.966	374.2
364.348	353.18
364.729	340.75
365.111	349.12
365.493	357.7
365.874	366.74
366.256	371.71
366.637	362.45
367.019	364.93
367.4	371.71
367.781	347.31
368.163	359.74
368.544	362.67
368.925	353.86
369.306	349.57
369.688	365.16
370.069	379.62
370.45	352.05
370.831	367.87
371.212	380.07
371.593	357.02
371.974	355.44
372.355	373.3
372.736	394.99
373.117	366.06
373.498	370.13
373.879	374.88
374.26	377.36
374.641	364.48
375.021	369.68
375.402	376.23
375.783	386.63
376.163	390.47
376.544	395.44
376.925	391.6
377.305	393.63
377.686	371.94
378.066	391.37
378.447	415.55
378.827	398.61
379.208	384.37
379.588	387.53
379.968	419.62
380.349	393.63
380.729	420.07
381.109	419.62
381.489	399.96
381.87	400.64
382.25	407.19
382.63	426.85
383.01	427.98
383.39	417.59
383.77	441.54
384.15	438.6
384.53	425.5
384.91	440.19
385.29	438.15
385.67	426.85
386.049	458.49
386.429	446.51
386.809	453.29
387.189	454.88
387.568	438.83
387.948	443.58
388.328	456.91
388.707	434.76
389.087	472.05
389.466	486.51
389.846	446.29
390.225	472.5
390.605	461.43
390.984	478.15
391.363	474.08
391.743	491.48
392.122	499.85
392.501	489.9
392.881	488.55
393.26	497.81
393.639	520.86
394.018	502.33
394.397	503.46
394.776	500.3
395.155	516.12
395.534	491.94
395.913	525.38
396.292	516.57
396.671	523.8
397.05	538.94
397.429	514.08
397.808	530.58
398.186	548.21
398.565	532.16
398.944	532.84
399.323	550.01
399.701	544.59
400.08	546.4
400.458	558.83
400.837	548.88
401.215	561.76
401.594	556.79
401.972	553.63
402.351	587.53
402.729	577.13
403.107	573.06
403.486	596.11
403.864	596.57
404.242	597.92
404.62	595.89
404.999	603.35
405.377	581.88
405.755	588.88
406.133	622.55
406.511	645.83
406.889	642.89
407.267	646.96
407.645	630.24
408.023	630.92
408.401	665.49
408.779	657.58
409.156	673.4
409.534	677.24
409.912	676.56
410.29	687.86
410.667	693.51
411.045	697.58
411.422	703.91
411.8	733.74
412.178	752.72
412.555	736.45
412.933	748.88
413.31	753.62
413.687	741.65
414.065	753.85
414.442	759.27
414.819	776.45
415.197	799.05
415.574	807.86
415.951	804.92
416.328	797.24
416.705	805.15
417.082	807.18
417.46	827.75
417.837	823.23
418.214	822.32
418.591	834.53
418.967	831.36
419.344	838.82
419.721	864.58
420.098	861.64
420.475	879.27
420.852	863.9
421.228	867.75
421.605	900.97
421.982	911.13
422.358	919.04
422.735	926.95
423.111	957.91
423.488	932.15
423.864	959.49
424.241	950.68
424.617	959.72
424.994	956.56
425.37	975.99
425.746	972.6
426.123	995.88
426.499	1001.98
426.875	1022.54
427.251	1028.42
427.627	1034.52
428.003	1052.15
428.379	1053.28
428.756	1050.34
429.132	1067.06
429.507	1088.76
429.883	1077.23
430.259	1100.06
430.635	1135.76
431.011	1160.62
431.387	1131.69
431.763	1163.56
432.138	1175.31
432.514	1207.4
432.89	1201.07
433.265	1231.13
433.641	1247.17
434.016	1243.78
434.392	1255.76
434.767	1281.75
435.143	1286.72
435.518	1270.22
435.894	1276.55
436.269	1348.18
436.644	1323.55
437.02	1344.34
437.395	1361.52
437.77	1353.16
438.145	1400.61
438.52	1423.44
438.895	1398.58
439.271	1397.9
439.646	1423.89
440.021	1436.32
440.395	1450.78
440.77	1415.53
441.145	1445.13
441.52	1478.35
441.895	1473.61
442.27	1466.15
442.645	1490.1
443.019	1529.88
443.394	1505.24
443.769	1503.89
444.143	1519.48
444.518	1568.52
444.892	1530.1
445.267	1547.73
445.641	1562.42
446.016	1565.13
446.39	1587.73
446.764	1594.28
447.139	1595.41
447.513	1639.48
447.887	1592.92
448.262	1607.16
448.636	1617.33
449.01	1647.84
449.384	1661.85
449.758	1667.05
450.132	1704.33
450.506	1682.64
450.88	1713.6
451.254	1680.83
451.628	1727.38
452.002	1757.67
452.376	1784.11
452.75	1777.78
453.123	1796.76
453.497	1844.44
453.871	1812.81
454.244	1868.85
454.618	1896.42
454.992	1902.29
455.365	1896.65
455.739	1927.6
456.112	1978.9
456.486	1983.42
456.859	1994.27
457.232	2039.69
457.606	2052.12
457.979	2092.8
458.352	2120.37
458.725	2145.68
459.099	2167.37
459.472	2155.17
459.845	2229.74
460.218	2275.17
460.591	2253.02
460.964	2257.54
461.337	2306.35
461.71	2361.04
462.083	2364.2
462.456	2394.49
462.829	2371.21
463.201	2458.44
463.574	2468.61
463.947	2459.79
464.32	2483.97
464.692	2499.12
465.065	2542.28
465.438	2587.02
465.81	2624.76
466.183	2606.23
466.555	2632.67
466.928	2666.79
467.3	2704.31
467.672	2731.88
468.045	2775.72
468.417	2765.1
468.789	2818.88
469.161	2836.51
469.534	2869.73
469.906	2924.87
470.278	2924.41
470.65	2951.98
471.022	3008.25
471.394	3089.61
471.766	3096.61
472.138	3144.07
472.51	3189.49
472.882	3199.89
473.253	3260
473.625	3266.55
473.997	3364.18
474.369	3405.53
474.74	3405.31
475.112	3516.94
475.484	3466.77
475.855	3589.93
476.227	3643.94
476.598	3696.6
476.97	3785.18
477.341	3801.45
477.713	3859.76
478.084	3894.11
478.455	4016.14
478.827	4003.71
479.198	4131.39
479.569	4166.19
479.94	4236.02
480.311	4299.97
480.682	4358.5
481.053	4479.85
481.424	4533.19
481.795	4568.44
482.166	4658.83
482.537	4721.88
482.908	4861.54
483.279	4875.55
483.65	5001.42
484.021	5062.89
484.391	5137.24
484.762	5202.55
485.133	5314.86
485.503	5356.22
485.874	5506.95
486.244	5505.14
486.615	5663.78
486.985	5666.26
487.356	5832.36
487.726	5842.3
488.097	6064.22
488.467	6083.2
488.837	6198.68
489.207	6309.86
489.578	6375.17
489.948	6431.44
490.318	6522.51
490.688	6553.92
491.058	6731.09
491.428	6848.61
491.798	6894.71
492.168	7083.18
492.538	7049.05
492.908	7170.18
493.278	7205.21
493.648	7295.15
494.017	7401.81
494.387	7564.29
494.757	7606.1
495.126	7699.2
495.496	7727.9
495.866	7844.96
496.235	7900.78
496.605	8067.78
496.974	8080.66
497.344	8196.37
497.713	8213.77
498.082	8341.67
498.452	8412.86
498.821	8536.7
499.19	8551.39
499.559	8628.45
499.928	8722.68
500.298	8759.29
500.667	8943.47
501.036	8984.59
501.405	9081.99
501.774	9053.74
502.143	9150.47
502.512	9231.82
502.88	9382.1
503.249	9407.86
503.618	9486.5
503.987	9488.54
504.356	9682.2
504.724	9664.12
505.093	9727.63
505.462	9795.65
505.83	9930.78
506.199	9979.37
506.567	10125.58
506.936	10104.11
507.304	10333.49
507.672	10381.39
508.041	10365.35
508.409	10534.16
508.777	10603.31
509.145	10687.6
509.514	10736.19
509.882	10842.4
510.25	10910.19
510.618	11036.52
510.986	11000.36
511.354	11218.66
511.722	11278.77
512.09	11370.07
512.458	11383.85
512.826	11449.39
513.193	11496.39
513.561	11632.89
513.929	11672.21
514.297	11799.66
514.664	11885.53
515.032	12013.67
515.4	12137.96
515.767	12189.26
516.135	12229.03
516.502	12278.74
516.869	12452.75
517.237	12480.77
517.604	12473.54
517.972	12725.29
518.339	12671.73
518.706	12825.85
519.073	12964.15
519.44	12983.59
519.808	13199.85
520.175	13240.53
520.542	13395.33
520.909	13485.27
521.276	13492.95
521.643	13654.08
522.009	13788.76
522.376	13852.04
522.743	13967.74
523.11	14179.49
523.477	14242.76
523.843	14369.09
524.21	14506.71
524.577	14640.49
524.943	14672.35
525.31	14822.86
525.676	15060.14
526.043	15222.85
526.409	15222.17
526.776	15396.18
527.142	15383.97
527.508	15538.77
527.874	15729.28
528.241	15854.92
528.607	15881.36
528.973	16105.31
529.339	16094.46
529.705	16333.1
530.071	16416.26
530.437	16549.14
530.803	16757.27
531.169	16754.33
531.535	16856.03
531.901	16870.26
532.267	17005.85
532.632	17103.48
532.998	17238.61
533.364	17304.38
533.73	17412.4
534.095	17578.49
534.461	17586.4
534.826	17576.46
535.192	17899.61
535.557	17902.78
535.923	17981.65
536.288	18043.11
536.653	18138.93
537.019	18267.74
537.384	18347.29
537.749	18385.93
538.114	18381.64
538.479	18364.46
538.845	18614.62
539.21	18628.41
539.575	18730.1
539.94	18786.14
540.305	18805.8
540.67	18988.4
541.034	18917.21
541.399	19086.02
541.764	19111.33
542.129	19176.19
542.494	19242.18
542.858	19370.99
543.223	19340.48
543.587	19443.3
543.952	19483.75
544.316	19550.19
544.681	19637.42
545.045	19611.89
545.41	19838.32
545.774	19844.87
546.138	19812.56
546.503	19893.46
546.867	20010.07
547.231	20140.69
547.595	20241.93
547.959	20304.07
548.324	20335.26
548.688	20311.75
549.052	20413.22
549.416	20341.81
549.779	20512.65
550.143	20528.02
550.507	20686.89
550.871	20635.36
551.235	20762.36
551.599	20949.25
551.962	21045.29
552.326	21095.24
552.689	21159.64
553.053	21076.48
553.417	21142.01
553.78	21464.04
554.143	21355.57
554.507	21472.18
554.87	21567.77
555.234	21784.03
555.597	21698.61
555.96	21871.94
556.323	21909
556.686	21953.74
557.05	22239.84
557.413	22142.21
557.776	22273.74
558.139	22446.16
558.502	22536.78
558.865	22555.76
559.228	22751.46
559.59	22807.51
559.953	22895.41
560.316	23014.06
560.679	23175.86
561.041	23159.36
561.404	23409.53
561.767	23558.22
562.129	23533.36
562.492	23837.54
562.854	23845.67
563.217	23902.39
563.579	23916.41
563.941	24207.02
564.304	24223.52
564.666	24488.82
565.028	24604.3
565.39	24662.15
565.753	24951.41
566.115	24929.49
566.477	25113.21
566.839	25216.26
567.201	25420.32
567.563	25489.7
567.925	25664.38
568.287	25770.37
568.648	25902.34
569.01	26025.73
569.372	26252.61
569.734	26280.18
570.095	26519.95
570.457	26776.44
570.819	26757.01
571.18	26809.21
571.542	27131.91
571.903	27177.56
572.265	27365.13
572.626	27451.45
572.987	27572.35
573.349	27736.64
573.71	27841.95
574.071	28114.03
574.432	28212.34
574.794	28488.94
575.155	28383.18
575.516	28431.09
575.877	28635.15
576.238	28825.88
576.599	28984.75
576.96	28963.73
577.32	29128.47
577.681	29250.5
578.042	29531.85
578.403	29627.44
578.763	29665.41
579.124	29704.73
579.485	30012.74
579.845	30198.5
580.206	30204.6
580.566	30366.86
580.927	30475.55
581.287	30565.72
581.648	30657.92
582.008	30863.34
582.368	30894.07
582.728	31130.9
583.089	31208.64
583.449	31283.89
583.809	31481.63
584.169	31701.74
584.529	31675.75
584.889	32126.81
585.249	31823.32
585.609	31958.68
585.969	32207.71
586.329	32384.88
586.688	32610.41
587.048	32513.02
587.408	32901.71
587.768	32949.16
588.127	33146.9
588.487	33227.57
588.846	33698.29
589.206	33730.38
589.565	33801.34
589.925	34138.51
590.284	34136.02
590.643	34431.61
591.003	34613.98
591.362	34916.57
591.721	35013.51
592.08	35195.66
592.44	35531.01
592.799	35663.21
593.158	35881.29
593.517	35930.55
593.876	36252.35
594.235	36349.75
594.593	36684.88
594.952	36967.14
595.311	37057.98
595.67	37293.45
596.029	37603.5
596.387	38048.91
596.746	38093.43
597.104	38113.55
597.463	38455.91
597.822	38776.58
598.18	38723.93
598.538	38958.95
598.897	39399.84
599.255	39281.88
599.613	39939.71
599.972	39934.06
600.33	40115.98
600.688	40309.87
601.046	40573.59
601.404	41055.84
601.762	41126.12
602.12	41390.52
602.478	41535.38
602.836	41740.34
603.194	41770.4
603.552	42101.46
603.91	42268.92
604.268	42519.98
604.625	42623.71
604.983	42865.29
605.341	42862.12
605.698	43285.61
606.056	43590.24
606.413	43536.23
606.771	43936.67
607.128	44135.31
607.485	44093.5
607.843	44231.35
608.2	44445.81
608.557	44762.41
608.914	44795.86
609.272	45119.69
609.629	45350.42
609.986	45592.45
610.343	45519.45
610.7	45927.58
611.057	45865.43
611.414	46004.19
611.771	46231.07
612.127	46439.88
612.484	46576.83
612.841	46699.31
613.198	46695.02
613.554	46833.54
613.911	47169.58
614.267	47242.12
614.624	47276.02
614.98	47537.03
615.337	47794.2
615.693	47809.56
616.05	47913.06
616.406	48013.85
616.762	47895.89
617.118	48056.34
617.475	48250.23
617.831	48465.59
618.187	48476.89
618.543	48548.98
618.899	48885.69
619.255	48880.95
619.611	48903.09
619.967	49048.85
620.323	49184.44
620.678	49147.83
621.034	49152.58
621.39	49248.62
621.746	49181.96
622.101	49621.27
622.457	49390.54
622.812	49583.07
623.168	49664.65
623.523	49706.69
623.879	49800.02
624.234	49554.6
624.589	49730.42
624.945	49745.78
625.3	49904.42
625.655	49876.63
626.01	49967.02
626.365	50062.16
626.72	49892.9
627.075	49849.73
627.43	49858.1
627.785	49974.93
628.14	49997.75
628.495	50029.39
628.85	50083.17
629.205	49945.55
629.559	50041.59
629.914	50035.49
630.269	49979.9
630.623	49919.56
630.978	49858.32
631.332	50047.92
631.687	49928.38
632.041	49979.67
632.396	49896.51
632.75	49984.42
633.104	50006.11
633.459	49836.85
633.813	49914.14
634.167	49753.01
634.521	49836.18
634.875	49832.33
635.229	49695.84
635.583	49658.78
635.937	49635.28
636.291	49651.32
636.645	49608.61
636.999	49455.39
637.352	49461.5
637.706	49397.09
638.06	49463.76
638.413	49328.62
638.767	49224.67
639.121	49378.56
639.474	49199.58
639.828	49148.06
640.181	49107.16
640.534	49211.11
640.888	49134.05
641.241	48790.78
641.594	48896.31
641.947	49082.3
642.301	48993.49
642.654	49018.12
643.007	48785.58
643.36	48894.51
643.713	48837.78
644.066	48990.32
644.419	48698.58
644.771	48197.8
645.124	47913.06
645.477	47825.83
645.83	47687.31
646.182	47883.68
646.535	47621.77
646.888	47691.83
647.24	47622.67
647.593	47771.82
647.945	47500.19
648.298	47526.86
648.65	47267.66
649.002	47128.45
649.355	47060.88
649.707	46921.68
650.059	46908.57
650.411	47422.91
650.763	47655.22
651.115	48265.14
651.467	48044.58
651.819	48014.3
652.171	47812.5
652.523	47766.17
652.875	47775.89
653.227	47667.19
653.578	47890.69
653.93	47741.77
654.282	47551.72
654.633	47462.45
654.985	47510.59
655.337	47493.19
655.688	47477.82
656.039	47702.9
656.391	47251.61
656.742	47362.79
657.094	47336.81
657.445	47361.89
657.796	47454.09
658.147	47314.21
658.498	47289.8
658.849	47447.76
659.2	47222.23
659.551	47254.32
659.902	47270.59
660.253	47176.81
660.604	47403.92
660.955	47094.78
661.306	47329.8
661.656	47039.19
662.007	47033.76
662.358	47080.32
662.708	47094.33
663.059	47197.37
663.409	46994.22
663.76	47109.24
664.11	47159.86
664.461	47203.25
664.811	47055.23
665.161	47027.66
665.511	47096.81
665.862	47069.24
666.212	47144.95
666.562	47318.28
666.912	47088
667.262	46941.56
667.612	46933.2
667.962	46960.09
668.312	46861.79
668.662	47150.6
669.011	47142.24
669.361	46956.7
669.711	47075.57
670.06	46913.31
670.41	46924.61
670.76	46798.06
671.109	47048.23
671.459	46971.17
671.808	46861.34
672.157	47032.41
672.507	46773.43
672.856	46709.7
673.205	46737.27
673.554	46841
673.904	46806.42
674.253	47084.61
674.602	46790.61
674.951	46274.24
675.3	46135.93
675.649	46897.04
675.998	46869.7
676.346	46814.79
676.695	46925.52
677.044	46482.14
677.393	46659.31
677.741	46725.52
678.09	46638.07
678.438	46493.44
678.787	46678.07
679.135	46598.29
679.484	46324.86
679.832	46657.5
680.181	46368.47
680.529	46383.84
680.877	46352.88
681.225	46191.3
681.573	46563.95
681.922	46266.33
682.27	46130.28
682.618	46088.25
682.966	46071.3
683.314	46036.73
683.661	46082.83
684.009	45898.2
684.357	45854.36
684.705	45681.03
685.053	45782.04
685.4	45527.81
685.748	45464.77
686.095	45441.26
686.443	45266.35
686.79	45210.31
687.138	45314.26
687.485	45131.44
687.832	45045.57
688.18	45192.46
688.527	44820.26
688.874	44959.02
689.221	44902.29
689.568	44729.64
689.915	44507.05
690.262	44581.4
690.609	44472.93
690.956	44371.46
691.303	44380.05
691.65	44098.47
691.997	44087.85
692.344	43787.52
692.69	43974.63
693.037	43965.82
693.383	43471.82
693.73	43656.9
694.077	43423.46
694.423	43342.33
694.769	43203.58
695.116	43209.68
695.462	42998.16
695.808	42996.36
696.155	42968.33
696.501	42599.08
696.847	42748
697.193	42579.19
697.539	42464.62
697.885	42203.38
698.231	42245.87
698.577	42152.31
698.923	42163.38
699.269	41801.36
699.614	41792.32
699.96	41672.32
700.306	41776.73
700.651	41485.21
700.997	41395.95
701.342	41303.07
701.688	41350.52
702.033	41091.77
702.379	41147.59
702.724	40911.21
703.069	40905.11
703.415	40612.69
703.76	40474.61
704.105	40560.49
704.45	40543.09
704.795	40388.29
705.14	40140.39
705.485	40301.51
705.83	40014.74
706.175	40137
706.52	39933.84
706.865	39791.92
707.209	39846.16
707.554	39697.46
707.899	39776.55
708.243	39429.9
708.588	39471.93
708.932	39230.8
709.277	39308.99
709.621	39149.45
709.966	38783.81
710.31	39072.16
710.654	38688.45
710.998	38823.81
711.342	38786.07
711.687	38502.01
712.031	38504.95
712.375	38300.66
712.719	38184.28
713.063	38275.12
713.407	38351.51
713.75	38147.67
714.094	38084.39
714.438	38085.07
714.782	38033.77
715.125	37759.2
715.469	37944.96
715.812	37640.79
716.156	37668.81
716.499	37653.67
716.843	37598.53
717.186	37469.27
717.53	37653.9
717.873	37365.09
718.216	37449.16
718.559	37232.89
718.902	37057.3
719.246	37033.57
719.589	37135.27
719.932	36763.52
720.275	36887.36
720.617	36791.32
720.96	36716.75
721.303	36730.53
721.646	36863.41
721.989	36529.18
722.331	36579.57
722.674	36550.88
723.016	36301.16
723.359	36306.36
723.701	36384.78
724.044	36198.79
724.386	35938.01
724.729	36238.57
725.071	36116.99
725.413	35976.43
725.755	36033.83
726.097	35823.66
726.439	35760.16
726.782	35737.79
727.124	35880.84
727.465	35679.26
727.807	35538.02
728.149	35641.29
728.491	35547.06
728.833	35578.02
729.175	35478.81
729.516	35314.07
729.858	35327.63
730.199	35444.92
730.541	35335.09
730.882	35200.85
731.224	35194.07
731.565	35037.69
731.906	34958.37
732.248	34988.88
732.589	34937.58
732.93	34830.02
733.271	34763.13
733.612	34824.59
733.953	34989.33
734.294	34844.48
734.635	34638.16
734.976	34811.94
735.317	34613.07
735.658	34654.65
735.999	34338.96
736.339	34498.05
736.68	34464.15
737.021	34372.85
737.361	34296.25
737.702	34487.88
738.042	34286.98
738.383	34344.83
738.723	34304.38
739.063	34282.69
739.404	34237.72
739.744	34049.02
740.084	34059.19
740.424	34177.83
740.764	33898.29
741.104	34076.14
741.444	33939.87
741.784	33829.36
742.124	33979.19
742.464	33732.87
742.804	33805.41
743.143	33719.31
743.483	33651.06
743.823	33562.93
744.162	33548.92
744.502	33809.03
744.841	33363.16
745.181	33627.56
745.52	33347.57
745.86	33479.32
746.199	33417.17
746.538	33303.95
746.877	33504.85
747.216	33294.69
747.556	33158.42
747.895	33298.08
748.234	33180.12
748.573	33050.4
748.911	32985.77
749.25	32985.77
749.589	32843.4
749.928	32951.2
750.267	33082.27
750.605	32995.49
750.944	32758.21
751.283	32633.24
751.621	32647.93
751.96	32621.49
752.298	32572.9
752.636	32537.65
752.975	32398.89
753.313	32402.96
753.651	32684.76
753.989	32209.75
754.327	32378.33
754.666	32125
755.004	32231.21
755.342	32084.1
755.679	32046.59
756.017	31800.49
756.355	32030.54
756.693	31913.03
757.031	31871.9
757.368	31656.09
757.706	31539.48
758.044	31493.38
758.381	31599.82
758.719	31423.33
759.056	31446.6
759.394	31261.97
759.731	31077.12
760.068	31096.33
760.405	30932.94
760.743	30922.77
761.08	30894.53
761.417	30625.61
761.754	30684.36
762.091	30609.34
762.428	30262.23
762.765	30309.01
763.102	30361.21
763.438	30212.28
763.775	30037.6
764.112	30091.84
764.449	30078.5
764.785	29958.96
765.122	29740.66
765.458	29658.4
765.795	29492.08
766.131	29579.08
766.467	29380.44
766.804	29191.52
767.14	29170.96
767.476	29116.72
767.812	29000.57
768.148	28989.94
768.485	28971.87
768.821	28719.89
769.157	28583.17
769.492	28643.96
769.828	28527.36
770.164	28359.45
770.5	28224.99
770.836	28170.98
771.171	27985.68
771.507	27904.1
771.842	27762.63
772.178	27745.91
772.513	27727.83
772.849	27615.97
773.184	27654.61
773.519	27435.63
773.855	27383.88
774.19	27253.72
774.525	27103.67
774.86	26958.36
775.195	26905.48
775.53	26858.02
775.865	26662.77
776.2	26524.7
776.535	26347.08
776.87	26385.27
777.205	26269.34
777.539	26103.92
777.874	26253.07
778.209	25993.86
778.543	26032.06
778.878	25699.41
779.212	25732.18
779.547	25463.71
779.881	25601.78
780.215	25414.9
780.55	25377.61
780.884	25136.94
781.218	25173.1
781.552	25122.25
781.886	25061.46
782.22	24865.31
782.554	24796.61
782.888	24640.23
783.222	24476.39
783.556	24548.03
783.889	24316.17
784.223	24153.23
784.557	24215.15
784.89	24218.32
785.224	24040.92
785.557	23864.65
785.891	23781.27
786.224	23856.29
786.558	23873.47
786.891	23578.11
787.224	23454.04
787.557	23424.67
787.891	23502.18
788.224	23249.98
788.557	23223.09
788.89	23162.98
789.223	23086.6
789.556	22997.56
789.888	22944
790.221	22781.52
790.554	22754.18
790.887	22749.88
791.219	22515.76
791.552	22432.15
791.884	22345.6
792.217	22223.12
792.549	22219.95
792.882	22021.09
793.214	22005.49
793.546	21994.42
793.879	21844.82
794.211	21744.48
794.543	21878.94
794.875	21776.8
795.207	21692.73
795.539	21666.29
795.871	21713.98
796.203	21374.78
796.535	21283.93
796.867	21288.68
797.198	21125.74
797.53	21144.05
797.862	20957.61
798.193	20997.39
798.525	20927.11
798.856	20868.12
799.188	20613.22
799.519	20642.59
799.85	20547.23
800.182	20554.23
800.513	20658.41
800.844	20223.39
801.175	20316.95
801.506	20360.57
801.837	20227.24
802.168	20215.94
802.499	20191.98
802.83	20099.33
803.161	19912.44
803.491	19968.71
803.822	19982.5
804.153	19901.6
804.483	19725.33
804.814	19617.08
805.145	19641.94
805.475	19649.4
805.805	19493.92
806.136	19490.31
806.466	19494.83
806.796	19429.52
807.126	19344.77
807.457	19257.77
807.787	19343.87
808.117	19302.06
808.447	19140.94
808.777	19269.75
809.107	19021.39
809.436	18966.25
809.766	18951.56
810.096	18947.04
810.426	18756.09
810.755	18917.21
811.085	18754.28
811.414	18797.9
811.744	18695.98
812.073	18713.6
812.403	18576.21
812.732	18515.87
813.061	18566.72
813.39	18357.91
813.719	18333.73
814.049	18395.87
814.378	18344.12
814.707	18078.14
815.036	18206.95
815.365	18098.03
815.693	18027.52
816.022	18038.59
816.351	17897.58
816.68	17870.69
817.008	17998.37
817.337	17672.73
817.665	17764.7
817.994	17744.82
818.322	17829.11
818.651	17668.66
818.979	17644.25
819.307	17605.61
819.636	17635.21
819.964	17588.66
820.292	17597.02
820.62	17553.18
820.948	17612.39
821.276	17528.32
821.604	17506.4
821.932	17638.83
822.259	17496.69
822.587	17522.22
822.915	17451.49
823.243	17548.44
823.57	17476.12
823.898	17621.88
824.225	17491.26
824.553	17455.33
824.88	17465.73
825.207	17616.01
825.535	17485.84
825.862	17583.69
826.189	17505.5
826.516	17660.52
826.843	17563.13
827.17	17543.24
827.497	17691.94
827.824	17631.6
828.151	17562.45
828.478	17460.98
828.805	17602.67
829.131	17624.37
829.458	17619.62
829.785	17424.82
830.111	17502.34
830.438	17650.58
830.764	17616.91
831.09	17601.54
831.417	17537.14
831.743	17616.46
832.069	17453.07
832.395	17383.7
832.722	17486.07
833.048	17424.37
833.374	17509.12
833.7	17365.84
834.026	17498.72
834.351	17372.62
834.677	17446.29
835.003	17477.93
835.329	17362.68
835.654	17369.68
835.98	17305.96
836.306	17356.13
836.631	17362
836.956	17447.65
837.282	17338.05
837.607	17275.45
837.932	17202.91
838.258	17163.81
838.583	17159.52
838.908	17070.03
839.233	17049.92
839.558	17046.76
839.883	17003.82
840.208	16913.88
840.533	17040.43
840.858	17026.19
841.182	16982.58
841.507	16885.18
841.832	16901
842.156	16825.52
842.481	16834.11
842.805	16855.12
843.13	16674.34
843.454	16677.5
843.778	16722.92
844.103	16620.1
844.427	16656.93
844.751	16543.27
845.075	16441.12
845.399	16464.17
845.723	16384.17
846.047	16507.79
846.371	16322.03
846.695	16223.27
847.019	16159.55
847.343	16067.12
847.666	15987.12
847.99	15938.99
848.313	15937.41
848.637	15801.59
848.96	15864.19
849.284	15736.06
849.607	15638.66
849.931	15622.16
850.254	15492.45
850.577	15419.23
850.9	15342.85
851.223	15396.86
851.546	15194.6
851.869	15126.81
852.192	15277.99
852.515	14990.76
852.838	14999.13
853.161	15030.99
853.483	14921.61
853.806	14917.77
854.129	14863.76
854.451	14838.68
854.774	14786.93
855.096	14804.78
855.419	14648.85
855.741	14641.85
856.063	14527.95
856.385	14559.14
856.708	14531.12
857.03	14488.63
857.352	14516.43
857.674	14456.09
857.996	14353.27
858.318	14273.04
858.64	14322.08
858.961	14174.74
859.283	14132.26
859.605	14104.23
859.926	14117.11
860.248	14051.58
860.57	13866.05
860.891	14019.26
861.212	13947.4
861.534	13926.39
861.855	13944.92
862.176	13880.28
862.498	13853.84
862.819	13801.42
863.14	13869.44
863.461	13719.39
863.782	13749.89
864.103	13782.43
864.424	13614.53
864.745	13758.03
865.065	13549.9
865.386	13482.1
865.707	13624.92
866.027	13469.22
866.348	13528.66
866.668	13544.25
866.989	13429.68
867.309	13322.11
867.63	13416.79
867.95	13399.39
868.27	13307.19
868.59	13334.31
868.91	13281.43
869.23	13275.1
869.55	13176.57
869.87	13196.01
870.19	13244.6
870.51	13202.79
870.83	13171.38
871.15	13105.62
871.469	13114.88
871.789	13193.98
872.109	13170.25
872.428	13144.71
872.748	13161.66
873.067	13054.09
873.386	13004.6
873.706	12987.2
874.025	13034.66
874.344	12897.49
874.663	12945.85
874.982	12954.43
875.301	12901.55
875.62	12927.09
875.939	12910.59
876.258	12855
876.577	12783.14
876.896	12797.6
877.214	12728.68
877.533	12760.54
877.852	12776.13
878.17	12677.6
878.489	12695.23
878.807	12660.66
879.125	12665.63
879.444	12657.49
879.762	12594.89
880.08	12560.32
880.398	12508.34
880.716	12530.49
881.034	12496.14
881.352	12490.26
881.67	12448.46
881.988	12376.6
882.306	12342.92
882.624	12362.13
882.941	12352.87
883.259	12244.85
883.577	12363.49
883.894	12292.76
884.212	12284.85
884.529	12248.46
884.846	12135.7
885.164	12165.75
885.481	12085.08
885.798	12173.66
886.115	12090.5
886.432	12033.1
886.75	12027.68
887.067	12044.63
887.383	11983.61
887.7	11973.44
888.017	11892.77
888.334	11851.19
888.651	11794.01
888.967	11821.13
889.284	11746.78
889.6	11764.41
889.917	11712.66
890.233	11688.93
890.55	11688.93
890.866	11658.65
891.182	11626.33
891.498	11614.58
891.815	11485.32
892.131	11472.21
892.447	11497.07
892.763	11353.57
893.079	11424.3
893.395	11356.28
893.71	11345.44
894.026	11333.01
894.342	11342.95
894.657	11186.8
894.973	11137.08
895.289	11197.19
895.604	11125.33
895.92	10985.45
896.235	11062.96
896.55	11030.64
896.865	10985.22
897.181	10956.29
897.496	10937.31
897.811	10880.59
898.126	10857.09
898.441	10866.58
898.756	10867.48
899.071	10754.27
899.386	10737.09
899.7	10628.84
900.015	10588.85
900.33	10509.53
900.644	10538.23
900.959	10546.36
901.273	10468.4
901.588	10355.63
901.902	10401.05
902.216	10348.17
902.531	10346.59
902.845	10230.21
903.159	10250.32
903.473	10234.73
903.787	10148.41
904.101	10085.81
904.415	10026.83
904.729	10092.36
905.042	10059.37
905.356	9931.01
905.67	9897.34
905.984	9906.15
906.297	9902.99
906.611	9826.83
906.924	9820.05
907.237	9838.81
907.551	9860.96
907.864	9737.79
908.177	9743.22
908.491	9627.52
908.804	9562.66
909.117	9580.06
909.43	9519.04
909.743	9446.73
910.056	9447.41
910.368	9473.17
910.681	9389.78
910.994	9439.05
911.307	9303.91
911.619	9259.62
911.932	9295.55
912.244	9153.4
912.557	9134.19
912.869	9057.13
913.181	9055.33
913.494	9059.85
913.806	8976.01
914.118	8947.76
914.43	8972.39
914.742	8942.34
915.054	8849
915.366	8844.94
915.678	8823.24
915.99	8794.54
916.302	8751.15
916.613	8659.63
916.925	8655.56
917.236	8620.31
917.548	8614.66
917.859	8591.84
918.171	8497.83
918.482	8461.44
918.794	8413.76
919.105	8473.2
919.416	8384.84
919.727	8387.55
920.038	8334.44
920.349	8272.75
920.66	8246.99
920.971	8216.93
921.282	8217.61
921.593	8128.12
921.903	8099.19
922.214	8118.4
922.525	8017.84
922.835	7983.49
923.146	7937.84
923.456	7885.19
923.767	7836.15
924.077	7861.91
924.387	7780.11
924.697	7813.78
925.008	7771.29
925.318	7702.14
925.628	7736.49
925.938	7644.06
926.248	7590.73
926.558	7545.76
926.867	7552.09
927.177	7520
927.487	7477.06
927.796	7438.19
928.106	7463.96
928.416	7406.1
928.725	7349.83
929.034	7353
929.344	7353.68
929.653	7330.17
929.962	7221.93
930.271	7218.76
930.581	7166.11
930.89	7151.2
931.199	7111.65
931.508	7108.49
931.817	7066.45
932.125	7032.1
932.434	6994.36
932.743	6904.65
933.051	6946.68
933.36	6936.51
933.669	6870.75
933.977	6863.07
934.286	6858.77
934.594	6785.1
934.902	6789.62
935.21	6717.31
935.519	6690.87
935.827	6652
936.135	6609.74
936.443	6573.81
936.751	6620.14
937.059	6566.13
937.367	6490.87
937.674	6529.97
937.982	6479.12
938.29	6438.22
938.597	6438.67
938.905	6365.23
939.213	6318
939.52	6314.61
939.827	6331.78
940.135	6283.42
940.442	6231.45
940.749	6198.45
941.056	6238.23
941.363	6120.49
941.67	6126.82
941.977	6095.4
942.284	6065.8
942.591	6057.67
942.898	6053.82
943.205	6036.2
943.511	5927.5
943.818	5943.32
944.125	5889.53
944.431	5877.78
944.738	5922.98
945.044	5867.84
945.35	5804.79
945.657	5746.49
945.963	5762.76
946.269	5776.54
946.575	5726.15
946.881	5687.51
947.187	5719.37
947.493	5664.68
947.799	5622.65
948.105	5615.64
948.41	5590.79
948.716	5604.12
949.022	5557.11
949.327	5526.38
949.633	5467.62
949.938	5455.65
950.244	5405.71
950.549	5382.88
950.854	5418.13
951.16	5425.14
951.465	5332.49
951.77	5314.86
952.075	5303.79
952.38	5289.78
952.685	5307.85
952.99	5248.2
953.294	5228.99
953.599	5173.62
953.904	5140.18
954.209	5111.93
954.513	5158.71
954.818	5165.94
955.122	5092.27
955.426	5070.8
955.731	5023.57
956.035	5006.85
956.339	5012.5
956.643	5000.52
956.948	4938.82
957.252	4924.14
957.556	4941.99
957.86	4882.33
958.163	4850.92
958.467	4816.12
958.771	4844.59
959.075	4835.1
959.378	4833.29
959.682	4806.85
959.985	4751.03
960.289	4772.05
960.592	4676.23
960.896	4657.25
961.199	4677.14
961.502	4670.81
961.805	4613.18
962.108	4567.99
962.411	4594.43
962.714	4546.07
963.017	4580.87
963.32	4557.82
963.623	4506.97
963.926	4553.07
964.228	4497.03
964.531	4456.13
964.833	4458.84
965.136	4407.54
965.438	4352.85
965.741	4372.96
966.043	4352.17
966.345	4385.85
966.648	4320.99
966.95	4311.72
967.252	4322.34
967.554	4319.41
967.856	4242.35
968.158	4221.56
968.46	4166.19
968.761	4162.12
969.063	4166.87
969.365	4151.73
969.666	4186.98
969.968	4136.59
970.269	4113.76
970.571	4124.16
970.872	4062.69
971.174	4055.01
971.475	4041.45
971.776	4043.93
972.077	3987.21
972.378	3976.14
972.679	3975.46
972.98	3934.56
973.281	3910.6
973.582	3928.91
973.883	3899.98
974.183	3890.94
974.484	3881
974.785	3847.78
975.085	3823.37
975.386	3854.79
975.686	3777.73
975.986	3791.28
976.287	3770.95
976.587	3728.46
976.887	3707.22
977.187	3770.49
977.487	3719.2
977.787	3648.92
978.087	3673.77
978.387	3637.39
978.687	3660.67
978.987	3648.24
979.286	3565.08
979.586	3615.24
979.885	3545.42
980.185	3578.41
980.484	3543.83
980.784	3509.48
981.083	3463.61
981.382	3491.86
981.682	3481.01
981.981	3469.49
982.28	3473.55
982.579	3430.16
982.878	3452.54
983.177	3408.47
983.475	3372.76
983.774	3397.62
984.073	3368.02
984.372	3340.22
984.67	3335.7
984.969	3295.03
985.267	3336.61
985.566	3274.91
985.864	3262.03
986.162	3252.32
986.461	3218.42
986.759	3260
987.057	3211.41
987.355	3172.77
987.653	3210.06
987.951	3107.46
988.249	3143.17
988.547	3144.07
988.844	3109.49
989.142	3099.1
989.44	3048.03
989.737	3111.98
990.035	3077.18
990.332	3059.33
990.63	3042.6
990.927	3028.37
991.224	3021.59
991.521	2993.34
991.819	3050.96
992.116	2968.03
992.413	2930.29
992.71	2939.1
993.006	2939.78
993.303	2903.85
993.6	2940.46
993.897	2876.05
994.193	2883.06
994.49	2834.47
994.787	2831.99
995.083	2828.6
995.379	2799.45
995.676	2796.28
995.972	2794.93
996.268	2756.06
996.565	2765.55
996.861	2733.23
997.157	2734.82
997.453	2706.12
997.749	2678.77
998.044	2676.74
998.34	2690.75
998.636	2653.01
998.932	2629.96
999.227	2630.86
999.523	2628.6
999.818	2626.8
1000.114	2593.12
1000.409	2585.89
1000.704	2595.84
1001	2568.94
1001.295	2564.88
1001.59	2543.63
1001.885	2527.81
1002.18	2548.83
1002.475	2500.7
1002.77	2506.8
1003.065	2488.27
1003.359	2436.07
1003.654	2461.6
1003.949	2413.02
1004.243	2407.14
1004.538	2390.87
1004.832	2394.26
1005.127	2350.42
1005.421	2341.15
1005.715	2356.52
1006.009	2376.63
1006.304	2316.97
1006.598	2328.05
1006.892	2288.27
1007.186	2262.51
1007.48	2281.04
1007.773	2236.75
1008.067	2234.49
1008.361	2216.18
1008.655	2226.35
1008.948	2201.72
1009.242	2196.07
1009.535	2215.73
1009.829	2173.7
1010.122	2141.16
1010.415	2154.94
1010.708	2116.3
1011.001	2134.6
1011.295	2108.84
1011.588	2082.63
1011.881	2093.25
1012.173	2050.99
1012.466	2068.84
1012.759	1998.56
1013.052	2037.66
1013.344	2068.62
1013.637	2009.41
1013.93	1982.07
1014.222	1984.78
1014.514	1958.11
1014.807	1955.63
1015.099	1933.71
1015.391	1910.43
1015.683	1914.05
1015.976	1898.23
1016.268	1918.79
1016.56	1869.3
1016.851	1870.66
1017.143	1891.22
1017.435	1867.49
1017.727	1836.08
1018.018	1806.03
1018.31	1811.45
1018.602	1802.64
1018.893	1779.36
1019.185	1785.24
1019.476	1762.64
1019.767	1755.86
1020.058	1711.34
1020.35	1728.97
1020.641	1687.16
1020.932	1705.24
1021.223	1691.23
1021.514	1699.14
1021.804	1714.28
1022.095	1664.79
1022.386	1654.62
1022.677	1651.91
1022.967	1638.12
1023.258	1631.79
1023.548	1627.27
1023.839	1620.95
1024.129	1616.65
1024.419	1586.82
1024.709	1535.52
1025	1566.26
1025.29	1542.76
1025.58	1512.47
1025.87	1530.33
1026.16	1506.6
1026.449	1519.93
1026.739	1513.15
1027.029	1520.16
1027.319	1501.85
1027.608	1454.4
1027.898	1469.76
1028.187	1478.12
1028.477	1435.41
1028.766	1436.77
1029.055	1406.71
1029.344	1407.17
1029.634	1391.57
1029.923	1377.56
1030.212	1396.32
1030.501	1364
1030.79	1368.52
1031.078	1350.22
1031.367	1346.83
1031.656	1331.46
1031.945	1346.15
1032.233	1329.65
1032.522	1272.48
1032.81	1296.66
1033.099	1292.82
1033.387	1283.78
1033.675	1277
1033.963	1269.77
1034.251	1250.11
1034.54	1255.98
1034.828	1256.21
1035.116	1247.17
1035.403	1212.37
1035.691	1244.23
1035.979	1240.39
1036.267	1218.02
1036.554	1234.97
1036.842	1202.43
1037.129	1176.21
1037.417	1180.73
1037.704	1164.46
1037.992	1154.52
1038.279	1159.49
1038.566	1133.73
1038.853	1133.73
1039.14	1133.73
