Data from 17-1564_FLMS001491_009.txt Node
Date: Thu Apr 19 16:31:41 BST 2018
User: hsy
Spectrometer: FLMS00149
Trigger mode: 0
Integration Time (sec): 1.000000E-2
Scans to average: 10
Electric dark correction enabled: true
Nonlinearity correction enabled: false
Boxcar width: 0
XAxis mode: Wavelengths
Number of Pixels in Spectrum: 2048
>>>>>Begin Spectral Data<<<<<
341.393	-20.51
341.776	-20.51
342.16	-20.51
342.543	-75.87
342.927	-46.72
343.31	-93.95
343.693	-65.48
344.077	-84.01
344.46	-62.99
344.843	-49.43
345.226	-36.55
345.61	-23.67
345.993	-10.11
346.376	0.96
346.759	2.09
347.142	40.06
347.525	42.54
347.908	64.24
348.291	48.87
348.674	96.55
349.057	130.9
349.44	128.41
349.823	137.91
350.206	163.89
350.588	227.17
350.971	241.86
351.354	266.26
351.737	304.23
352.119	272.37
352.502	302.87
352.884	307.85
353.267	322.31
353.65	329.77
354.032	333.38
354.414	341.97
354.797	365.47
355.179	348.3
355.562	373.15
355.944	384.91
356.326	412.7
356.709	376.09
357.091	371.57
357.473	378.8
357.855	410.67
358.238	381.52
358.62	379.48
359.002	388.29
359.384	391.23
359.766	385.58
360.148	413.6
360.53	382.42
360.912	387.16
361.294	396.2
361.676	386.04
362.057	394.62
362.439	370.67
362.821	410.89
363.203	393.49
363.584	375.41
363.966	384.45
364.348	374.51
364.729	383.32
365.111	382.42
365.493	374.74
365.874	380.84
366.256	367.5
366.637	375.41
367.019	365.7
367.4	389.65
367.781	382.87
368.163	404.11
368.544	351.46
368.925	386.04
369.306	389.2
369.688	381.97
370.069	393.94
370.45	395.53
370.831	398.24
371.212	373.15
371.593	396.43
371.974	372.93
372.355	390.1
372.736	397.56
373.117	385.58
373.498	391.91
373.879	395.07
374.26	405.47
374.641	368.18
375.021	399.14
375.402	418.58
375.783	398.46
376.163	414.06
376.544	429.2
376.925	431.68
377.305	412.02
377.686	407.96
378.066	428.52
378.447	436.2
378.827	426.03
379.208	428.75
379.588	443.66
379.968	438.69
380.349	426.94
380.729	430.78
381.109	442.53
381.489	440.04
381.87	444.11
382.25	419.03
382.63	449.99
383.01	457.45
383.39	440.04
383.77	458.12
384.15	453.15
384.53	454.51
384.91	468.29
385.29	475.98
385.67	473.72
386.049	479.82
386.429	480.27
386.809	462.87
387.189	482.53
387.568	471
387.948	474.17
388.328	483.43
388.707	491.12
389.087	499.03
389.466	497.67
389.846	510.1
390.225	500.83
390.605	498.8
390.984	494.73
391.363	539.7
391.743	516.65
392.122	508.29
392.501	525.69
392.881	529.08
393.26	526.14
393.639	539.25
394.018	551.45
394.397	549.65
394.776	557.33
395.155	578.8
395.534	555.75
395.913	551.45
396.292	564.79
396.671	570.21
397.05	576.76
397.429	572.92
397.808	586.26
398.186	579.25
398.565	567.05
398.944	593.94
399.323	570.66
399.701	600.04
400.08	592.13
400.458	614.05
400.837	603.66
401.215	622.41
401.594	621.06
401.972	607.27
402.351	619.25
402.729	618.57
403.107	647.05
403.486	656.31
403.864	634.62
404.242	659.25
404.62	677.33
404.999	636.2
405.377	653.37
405.755	656.99
406.133	696.08
406.511	678.46
406.889	682.75
407.267	694.95
407.645	705.8
408.023	696.31
408.401	705.8
408.779	719.81
409.156	718.91
409.534	741.05
409.912	734.95
410.29	765.46
410.667	781.73
411.045	757.1
411.422	764.1
411.8	783.09
412.178	796.42
412.555	788.06
412.933	824.44
413.31	808.62
413.687	824.67
414.065	823.76
414.442	842.97
414.819	856.53
415.197	853.59
415.574	876.42
415.951	865.12
416.328	891.56
416.705	885.68
417.082	878.45
417.46	892.01
417.837	912.8
418.214	888.17
418.591	903.31
418.967	947.6
419.344	953.48
419.721	943.53
420.098	916.42
420.475	955.74
420.852	967.04
421.228	962.29
421.605	995.96
421.982	994.15
422.358	985.79
422.735	976.53
423.111	998.9
423.488	1005.91
423.864	1046.13
424.241	1000.48
424.617	1060.59
424.994	1044.55
425.37	1053.14
425.746	1070.08
426.123	1085
426.499	1070.31
426.875	1096.3
427.251	1099.91
427.627	1132.23
428.003	1128.84
428.379	1150.53
428.756	1178.56
429.132	1198.44
429.507	1190.99
429.883	1195.73
430.259	1197.54
430.635	1231.44
431.011	1244.09
431.387	1273.24
431.763	1252.9
432.138	1290.19
432.514	1325.22
432.89	1306.46
433.265	1352.79
433.641	1357.76
434.016	1380.59
434.392	1406.12
434.767	1376.52
435.143	1393.69
435.518	1399.57
435.894	1438.89
436.269	1436.18
436.644	1478.66
437.02	1454.48
437.395	1480.92
437.77	1505.55
438.145	1505.33
438.52	1509.4
438.895	1553.46
439.271	1541.03
439.646	1568.38
440.021	1580.13
440.395	1589.39
440.77	1592.56
441.145	1604.99
441.52	1631.2
441.895	1621.03
442.27	1685.66
442.645	1645.44
443.019	1668.71
443.394	1676.17
443.769	1681.37
444.143	1673.01
444.518	1699.67
444.892	1711.42
445.267	1708.94
445.641	1735.38
446.016	1743.74
446.39	1737.86
446.764	1708.71
447.139	1734.93
447.513	1755.72
447.887	1778.99
448.262	1786.9
448.636	1805.88
449.01	1814.25
449.384	1833.91
449.758	1868.93
450.132	1844.3
450.506	1889.27
450.88	1888.37
451.254	1876.62
451.628	1924.3
452.002	1939.89
452.376	1980.57
452.75	1981.25
453.123	2005.88
453.497	2023.05
453.871	1996.61
454.244	2089.49
454.618	2058.53
454.992	2082.94
455.365	2148.7
455.739	2152.32
456.112	2192.99
456.486	2191.86
456.859	2218.98
457.232	2284.97
457.606	2301.69
457.979	2297.4
458.352	2343.5
458.725	2363.84
459.099	2342.82
459.472	2410.39
459.845	2434.34
460.218	2458.97
460.591	2501.46
460.964	2528.58
461.337	2553.44
461.71	2586.88
462.083	2642.47
462.456	2623.04
462.829	2634.56
463.201	2689.03
463.574	2667.33
463.947	2720.89
464.32	2788.68
464.692	2785.97
465.065	2796.37
465.438	2825.29
465.81	2882.47
466.183	2893.09
466.555	2961.33
466.928	2948.68
467.3	2984.38
467.672	3009.92
468.045	3086.75
468.417	3108
468.789	3099.18
469.161	3187.77
469.534	3189.8
469.906	3233.19
470.278	3278.84
470.65	3293.3
471.022	3373.98
471.394	3425.73
471.766	3474.09
472.138	3525.61
472.51	3524.48
472.882	3571.49
473.253	3641.77
473.625	3665.72
473.997	3768.09
474.369	3770.13
474.74	3828.88
475.112	3875.66
475.484	3929.67
475.855	3978.26
476.227	4027.52
476.598	4141.42
476.97	4137.35
477.341	4253.96
477.713	4285.37
478.084	4301.86
478.455	4420.28
478.827	4495.08
479.198	4622.31
479.569	4638.35
479.94	4728.29
480.311	4832.92
480.682	4845.58
481.053	5011
481.424	5074.95
481.795	5124.89
482.166	5221.39
482.537	5263.87
482.908	5385.9
483.279	5484.88
483.65	5555.39
484.021	5662.73
484.391	5721.71
484.762	5794.71
485.133	5849.62
485.503	5937.3
485.874	6130.06
486.244	6139.78
486.615	6297.52
486.985	6372.54
487.356	6495.48
487.726	6539.09
488.097	6734.57
488.467	6740.44
488.837	6865.86
489.207	6986.09
489.578	7040.78
489.948	7123.26
490.318	7349.47
490.688	7335.68
491.058	7476.47
491.428	7575.22
491.798	7696.35
492.168	7865.16
492.538	7842.34
492.908	8006.63
493.278	8116.45
493.648	8226.51
494.017	8316.45
494.387	8397.8
494.757	8459.72
495.126	8512.38
495.496	8606.16
495.866	8737
496.235	8793.27
496.605	8946.49
496.974	8957.79
497.344	9052.02
497.713	9156.88
498.082	9227.38
498.452	9333.82
498.821	9354.39
499.19	9416.76
499.559	9485
499.928	9587.38
500.298	9684.55
500.667	9784.88
501.036	9765.22
501.405	9893.36
501.774	9887.03
502.143	10113.24
502.512	10057.65
502.88	10265.32
503.249	10241.6
503.618	10297.86
503.987	10357.3
504.356	10473.91
504.724	10503.51
505.093	10579.67
505.462	10640.23
505.83	10677.29
506.199	10779.43
506.567	10871.18
506.936	10917.06
507.304	11133.1
507.672	11103.04
508.041	11181.23
508.409	11254
508.777	11339.87
509.145	11357.95
509.514	11460.77
509.882	11538.06
510.25	11560.2
510.618	11638.62
510.986	11737.83
511.354	11854.89
511.722	11976.24
512.09	12050.81
512.458	11953.41
512.826	12196.12
513.193	12174.43
513.561	12270.69
513.929	12345.04
514.297	12444.7
514.664	12625.94
515.032	12646.5
515.4	12721.98
515.767	12814.86
516.135	12826.39
516.502	12835.43
516.869	13108.19
517.237	13098.7
517.604	13187.51
517.972	13234.96
518.339	13254.85
518.706	13396.31
519.073	13473.37
519.44	13620.26
519.808	13787.49
520.175	13813.93
520.542	13938.45
520.909	14057.09
521.276	14007.82
521.643	14290.53
522.009	14326.91
522.376	14549.96
522.743	14538.21
523.11	14708.14
523.477	14858.87
523.843	14882.15
524.21	15133.9
524.577	15180.9
524.943	15367.56
525.31	15505.64
525.676	15645.07
526.043	15729.36
526.409	15763.71
526.776	15980.88
527.142	16041.22
527.508	16184.94
527.874	16410.02
528.241	16404.6
528.607	16512.39
528.973	16722.78
529.339	16719.84
529.705	17010
530.071	17194.86
530.437	17155.31
530.803	17320.96
531.169	17398.02
531.535	17393.95
531.901	17589.42
532.267	17626.03
532.632	17751.45
532.998	17876.42
533.364	18072.8
533.73	18150.31
534.095	18306.02
534.461	18369.52
534.826	18429.63
535.192	18528.61
535.557	18628.04
535.923	18703.29
536.288	18740.58
536.653	18843.85
537.019	18823.74
537.384	18884.98
537.749	18965.66
538.114	19173.34
538.479	19193.68
538.845	19276.61
539.21	19327.91
539.575	19342.6
539.94	19400.45
540.305	19495.59
540.67	19542.82
541.034	19644.06
541.399	19724.28
541.764	19762.25
542.129	19848.57
542.494	19990.04
542.858	20039.08
543.223	20103.03
543.587	20164.27
543.952	20096.25
544.316	20148.45
544.681	20317.71
545.045	20503.47
545.41	20548.67
545.774	20475
546.138	20557.71
546.503	20583.24
546.867	20707.53
547.231	20794.31
547.595	20896.23
547.959	20947.53
548.324	21045.6
548.688	21074.53
549.052	21094.42
549.416	21167.64
549.779	21201.76
550.143	21299.38
550.507	21375.54
550.871	21468.87
551.235	21625.48
551.599	21691.69
551.962	21655.98
552.326	21893.27
552.689	21872.48
553.053	21820.73
553.417	22027.5
553.78	22191.79
554.143	22180.94
554.507	22317.66
554.87	22345.23
555.234	22570.76
555.597	22512.01
555.96	22601.27
556.323	22732.34
556.686	22859.12
557.05	22967.81
557.413	23032.9
557.776	23060.24
558.139	23163.29
558.502	23334.36
558.865	23340.23
559.228	23471.08
559.59	23647.34
559.953	23673.78
560.316	23818.19
560.679	23882.59
561.041	24069.03
561.404	24106.77
561.767	24497.04
562.129	24450.71
562.492	24566.87
562.854	24695.45
563.217	24694.1
563.579	24885.05
563.941	24980.19
564.304	25167.3
564.666	25426.51
565.028	25375.89
565.39	25563.45
565.753	25743.33
566.115	25750.79
566.477	25964.35
566.839	26128.18
567.201	26441.62
567.563	26307.61
567.925	26559.58
568.287	26622.86
568.648	26849.52
569.01	26906.92
569.372	27195.73
569.734	27170.87
570.095	27485.44
570.457	27625.77
570.819	27715.26
571.18	27784.18
571.542	28158.64
571.903	28069.6
572.265	28394.11
572.626	28538.29
572.987	28570.15
573.349	28844.95
573.71	28905.74
574.071	29006.75
574.432	29281.77
574.794	29537.81
575.155	29555.44
575.516	29713.63
575.877	29660.75
576.238	29877.01
576.599	29995.43
576.96	30241.07
577.32	30113.61
577.681	30408.07
578.042	30651.68
578.403	30731.9
578.763	30879.7
579.124	30908.4
579.485	31306.13
579.845	31535.72
580.206	31432.9
580.566	31535.72
580.927	31676.96
581.287	31950.4
581.648	31946.11
582.008	32246.67
582.368	32336.38
582.728	32535.25
583.089	32699.08
583.449	32953.77
583.809	33070.6
584.169	33517.82
584.529	33384.04
584.889	33890.46
585.249	33887.98
585.609	33975.43
585.969	34391.47
586.329	34520.96
586.688	35121.84
587.048	35154.61
587.408	35370.43
587.768	35742.85
588.127	36094.47
588.487	36391.19
588.846	36909.37
589.206	36993.66
589.565	37277.95
589.925	37938.49
590.284	38180.07
590.643	38487.18
591.003	39003.55
591.362	39592.46
591.721	39880.59
592.08	40197.42
592.44	40863.39
592.799	41031.97
593.158	41491.17
593.517	41839.41
593.876	42346.51
594.235	42751.93
594.593	43224.23
594.952	43679.81
595.311	44140.82
595.67	44650.86
596.029	45217.4
596.387	45694.22
596.746	46167.2
597.104	46463.47
597.463	46694.2
597.822	47398.36
598.18	47610.33
598.538	47964.9
598.897	48590.87
599.255	48708.61
599.613	49595.36
599.972	49494.8
600.33	50018.85
600.688	50327.32
601.046	50674.43
601.404	51304.92
601.762	51440.51
602.12	51879.82
602.478	52130.89
602.836	52474.83
603.194	52507.83
603.552	52963.64
603.91	53251.31
604.268	53446.56
604.625	53720
604.983	54140.78
605.341	54168.12
605.698	54556.14
606.056	54904.83
606.413	54996.12
606.771	55342.33
607.128	55531.48
607.485	55641.53
607.843	55851.47
608.2	56099.6
608.557	56422.53
608.914	56552.92
609.272	56718.11
609.629	57055.05
609.986	57324.88
610.343	57344.99
610.7	57661.37
611.057	57722.38
611.414	57856.61
611.771	58134.35
612.127	58290.28
612.484	58439.65
612.841	58650.49
613.198	58697.27
613.554	58801.9
613.911	59044.83
614.267	59178.84
614.624	59291.15
614.98	59532.5
615.337	59693.18
615.693	59764.81
616.05	59890.23
616.406	60066.95
616.762	60070.12
617.118	60163.45
617.475	60259.71
617.831	60464.23
618.187	60568.63
618.543	60625.36
618.899	60882.07
619.255	60899.47
619.611	60948.51
619.967	61146.92
620.323	61278.22
620.678	61190.09
621.034	61232.8
621.39	61299.24
621.746	61458.78
622.101	61715.95
622.457	61517.08
622.812	61713.46
623.168	61804.31
623.523	61781.26
623.879	61902.16
624.234	61812.44
624.589	61985.32
624.945	62019.22
625.3	62108.25
625.655	62113.45
626.01	62220.34
626.365	62233.67
626.72	62181.47
627.075	62216.95
627.43	62299.21
627.785	62286.1
628.14	62301.02
628.495	62370.39
628.85	62477.28
629.205	62372.65
629.559	62490.16
629.914	62425.31
630.269	62443.84
630.623	62410.17
630.978	62330.62
631.332	62545.3
631.687	62440.45
632.041	62502.59
632.396	62513.67
632.75	62440.67
633.104	62496.94
633.459	62399.77
633.813	62411.3
634.167	62400.68
634.521	62457.62
634.875	62457.17
635.229	62480.9
635.583	62365.42
635.937	62368.81
636.291	62364.97
636.645	62394.12
636.999	62284.07
637.352	62384.18
637.706	62262.15
638.06	62380.34
638.413	62284.75
638.767	62289.04
639.121	62289.49
639.474	62200.23
639.828	62233.45
640.181	62210.17
640.534	62262.83
640.888	62129.5
641.241	62018.99
641.594	62071.42
641.947	62112.1
642.301	62058.31
642.654	62100.12
643.007	62049.05
643.36	62114.36
643.713	61998.88
644.066	62143.51
644.419	61938.77
644.771	61755.72
645.124	61459.23
645.477	61509.17
645.83	61440.47
646.182	61406.58
646.535	61321.83
646.888	61432.79
647.24	61327.94
647.593	61430.98
647.945	61366.58
648.298	61272.57
648.65	61134.04
649.002	61078.9
649.355	61060.6
649.707	60960.26
650.059	60993.03
650.411	61357.99
650.763	61395.96
651.115	61736.06
651.467	61682.28
651.819	61618.55
652.171	61579.45
652.523	61497.42
652.875	61571.54
653.227	61517.08
653.578	61653.12
653.93	61559.12
654.282	61474.15
654.633	61420.14
654.985	61521.83
655.337	61487.25
655.688	61438.44
656.039	61525.67
656.391	61306.24
656.742	61322.29
657.094	61310.76
657.445	61418.55
657.796	61415.62
658.147	61359.57
658.498	61355.51
658.849	61407.93
659.2	61316.86
659.551	61271.67
659.902	61380.59
660.253	61250.2
660.604	61307.6
660.955	61141.73
661.306	61316.41
661.656	61218.79
662.007	61234.38
662.358	61271.67
662.708	61264.89
663.059	61228.05
663.409	61111.22
663.76	61207.94
664.11	61221.5
664.461	61231.21
664.811	61265.79
665.161	61183.98
665.511	61159.13
665.862	61155.74
666.212	61259.01
666.562	61156.64
666.912	61127.04
667.262	61089.52
667.612	61097.21
667.962	61105.79
668.312	61033.03
668.662	61213.36
669.011	61138.79
669.361	61098.56
669.711	61106.92
670.06	61023.31
670.41	61005.23
670.76	61012.01
671.109	61080.71
671.459	61008.4
671.808	61005.91
672.157	61071.45
672.507	60962.75
672.856	60936.08
673.205	60928.62
673.554	61064.67
673.904	60915.74
674.253	61061.95
674.602	60921.39
674.951	60645.92
675.3	60525.92
675.649	60870.55
675.998	60874.61
676.346	60889.08
676.695	60984.89
677.044	60717.78
677.393	60815.63
677.741	60916.42
678.09	60782.64
678.438	60726.82
678.787	60809.53
679.135	60767.05
679.484	60640.72
679.832	60777.67
680.181	60658.57
680.529	60711.23
680.877	60584
681.225	60591.01
681.573	60793.71
681.922	60612.93
682.27	60554.62
682.618	60580.84
682.966	60499.03
683.314	60539.03
683.661	60570.44
684.009	60419.71
684.357	60336.78
684.705	60330
685.053	60382.65
685.4	60236.21
685.748	60201.86
686.095	60210.9
686.443	60075.77
686.79	60077.57
687.138	60097.46
687.485	60094.75
687.832	60021.3
688.18	60073.73
688.527	59990.34
688.874	59913.51
689.221	59931.14
689.568	59767.3
689.915	59785.15
690.262	59783.12
690.609	59775.43
690.956	59597.59
691.303	59658.83
691.65	59509.45
691.997	59513.52
692.344	59370.47
692.69	59367.31
693.037	59360.3
693.383	59150.59
693.73	59242.11
694.077	59108.33
694.423	59102.46
694.769	59064.49
695.116	59008
695.462	58880.77
695.808	58808.91
696.155	58882.35
696.501	58662.47
696.847	58727.1
697.193	58495.69
697.539	58554.68
697.885	58412.53
698.231	58406.88
698.577	58381.57
698.923	58332.76
699.269	58173.89
699.614	58094.57
699.96	58050.28
700.306	58110.62
700.651	58001.02
700.997	57856.61
701.342	57837.86
701.688	57785.66
702.033	57669.5
702.379	57690.52
702.724	57555.38
703.069	57569.16
703.415	57332.33
703.76	57290.08
704.105	57365.1
704.45	57203.3
704.795	57170.08
705.14	57079.69
705.485	57119.68
705.83	56865
706.175	56999.46
706.52	56880.37
706.865	56742.97
707.209	56692.58
707.554	56684.89
707.899	56721.05
708.243	56557.89
708.588	56535.52
708.932	56339.82
709.277	56328.97
709.621	56303.43
709.966	56197.67
710.31	56181.63
710.654	55992.48
710.998	56034.74
711.342	56084.23
711.687	55877.01
712.031	55790.23
712.375	55755.88
712.719	55711.13
713.063	55754.3
713.407	55856.89
713.75	55567.86
714.094	55637.01
714.438	55470.46
714.782	55525.15
715.125	55395.66
715.469	55546.17
715.812	55293.74
716.156	55276.34
716.499	55263.69
716.843	55234.76
717.186	55053.52
717.53	55147.08
717.873	55098.04
718.216	55089.46
718.559	54865.05
718.902	54652.18
719.246	54741.67
719.589	54754.55
719.932	54610.15
720.275	54657.38
720.617	54653.53
720.96	54571.28
721.303	54582.8
721.646	54582.12
721.989	54392.52
722.331	54371.96
722.674	54315.69
723.016	54315.92
723.359	54167.45
723.701	54232.08
724.044	54061.69
724.386	54044.29
724.729	54138.52
725.071	54097.84
725.413	53953.89
725.755	54010.39
726.097	53914.35
726.439	53801.58
726.782	53729.72
727.124	53844.52
727.465	53761.13
727.807	53608.59
728.149	53648.82
728.491	53557.29
728.833	53648.59
729.175	53580.79
729.516	53415.15
729.858	53435.49
730.199	53595.94
730.541	53461.25
730.882	53267.36
731.224	53395.04
731.565	53292.67
731.906	53305.77
732.248	53320.01
732.589	53102.62
732.93	53196.62
733.271	53106.91
733.612	53087.7
733.953	53146.91
734.294	53046.57
734.635	52919.34
734.976	53087.02
735.317	53010.41
735.658	52986.46
735.999	52852.23
736.339	52935.61
736.68	52850.64
737.021	52864.66
737.361	52667.15
737.702	52997.08
738.042	52747.37
738.383	52781.27
738.723	52855.62
739.063	52694.04
739.404	52762.74
739.744	52647.03
740.084	52564.1
740.424	52676.64
740.764	52586.24
741.104	52745.56
741.444	52506.47
741.784	52526.13
742.124	52499.92
742.464	52445.68
742.804	52398.45
743.143	52376.98
743.483	52439.81
743.823	52207.95
744.162	52345.8
744.502	52323.65
744.841	52204.11
745.181	52348.74
745.52	52240.94
745.86	52218.8
746.199	52210.89
746.538	52128.63
746.877	52321.17
747.216	52186.25
747.556	52121.17
747.895	52193.49
748.234	52076.43
748.573	52053.38
748.911	52028.97
749.25	52055.41
749.589	51845.92
749.928	51980.61
750.267	51958.46
750.605	51908.07
750.944	51821.29
751.283	51750.56
751.621	51852.03
751.96	51686.61
752.298	51640.28
752.636	51733.84
752.975	51626.95
753.313	51407.97
753.651	51707.4
753.989	51437.35
754.327	51479.38
754.666	51262.44
755.004	51484.35
755.342	51379.5
755.679	51345.83
756.017	51154.19
756.355	51310.12
756.693	51125.04
757.031	51239.16
757.368	50988.77
757.706	50970.92
758.044	50780.19
758.381	50917.59
758.719	50840.98
759.056	50743.36
759.394	50713.07
759.731	50430.59
760.068	50302.46
760.405	50478.5
760.743	50207.78
761.08	50386.08
761.417	50244.16
761.754	50086.2
762.091	50132.52
762.428	49876.03
762.765	49755.81
763.102	49797.62
763.438	49746.55
763.775	49524.18
764.112	49470.85
764.449	49549.26
764.785	49480.11
765.122	49191.31
765.458	49056.85
765.795	48980.46
766.131	49097.97
766.467	48855.72
766.804	48681.71
767.14	48626.8
767.476	48448.05
767.812	48361.95
768.148	48431.55
768.485	48342.06
768.821	48001.51
769.157	47908.63
769.492	47691.68
769.828	47691.91
770.164	47490.11
770.5	47424.12
770.836	47281.07
771.171	47141.42
771.507	47006.96
771.842	46816
772.178	46871.59
772.513	46598.15
772.849	46430.93
773.184	46474.31
773.519	46406.97
773.855	46099.41
774.19	46004.95
774.525	45890.38
774.86	45788.46
775.195	45647.22
775.53	45481.12
775.865	45225.99
776.2	45008.59
776.535	44852.89
776.87	44887.69
777.205	44644.08
777.539	44553.24
777.874	44496.74
778.209	44099.01
778.543	44268.72
778.878	43912.8
779.212	43872.12
779.547	43685.01
779.881	43500.83
780.215	43285.47
780.55	43368.18
780.884	43034.63
781.218	42935.88
781.552	42986.95
781.886	42679.39
782.22	42427.19
782.554	42343.8
782.888	42098.84
783.222	41994.88
783.556	41754.66
783.889	41624.5
784.223	41406.43
784.557	41312.42
784.89	41553.09
785.224	41130.95
785.557	40927.57
785.891	40986.1
786.224	40726.44
786.558	40712.88
786.891	40380.92
787.224	40287.81
787.557	40056.18
787.891	40043.07
788.224	39892.34
788.557	39852.12
788.89	39711.1
789.223	39459.58
789.556	39359.47
789.888	39190.66
790.221	39095.53
790.554	38865.02
790.887	38820.28
791.219	38602.43
791.552	38660.06
791.884	38503.45
792.217	38387.07
792.549	38104.82
792.882	37851.26
793.214	37767.2
793.546	37784.15
793.879	37589.35
794.211	37192.52
794.543	37389.36
794.875	37231.85
795.207	37331.05
795.539	37073.21
795.871	37044.05
796.203	36794.57
796.535	36562.26
796.867	36537.63
797.198	36290.18
797.53	36452.43
797.862	36141.25
798.193	36213.79
798.525	35951.88
798.856	36026.68
799.188	35461.95
799.519	35642.96
799.85	35370.43
800.182	35353.93
800.513	35499.69
800.844	35092.92
801.175	35275.06
801.506	35154.84
801.837	34908.97
802.168	34837.78
802.499	34868.29
802.83	34651.8
803.161	34507.17
803.491	34346.05
803.822	34494.06
804.153	34188.99
804.483	34117.8
804.814	33752.62
805.145	33961.88
805.475	33884.14
805.805	33761.88
806.136	33643.01
806.466	33605.05
806.796	33546.75
807.126	33275.34
807.457	33295.68
807.787	33377.94
808.117	33179.07
808.447	33008
808.777	33136.13
809.107	32704.51
809.436	32784.73
809.766	32737.5
810.096	32644.4
810.426	32564.17
810.755	32572.31
811.085	32365.53
811.414	32463.16
811.744	32246.67
812.073	32170.06
812.403	32113.56
812.732	31821.82
813.061	32058.42
813.39	31605.1
813.719	31634.93
814.049	31845.77
814.378	31683.74
814.707	31555.38
815.036	31497.53
815.365	31267.71
815.693	31088.96
816.022	31069.75
816.351	31086.92
816.68	30930.09
817.008	31093.25
817.337	30748.85
817.665	30812.58
817.994	30664.11
818.322	30750.21
818.651	30693.94
818.979	30532.59
819.307	30704.79
819.636	30442.65
819.964	30369.2
820.292	30307.28
820.62	30338.92
820.948	30438.58
821.276	30519.93
821.604	30207.4
821.932	30351.57
822.259	30174.18
822.587	30306.6
822.915	30150.45
823.243	30269.54
823.57	30099.83
823.898	30368.52
824.225	30126.95
824.553	30055.09
824.88	30154.97
825.207	30363.1
825.535	30137.34
825.862	30262.76
826.189	30059.15
826.516	30357.68
826.843	30396.77
827.17	30326.04
827.497	30330.56
827.824	30283.1
828.151	30370.78
828.478	30120.85
828.805	30396.32
829.131	30284.46
829.458	30358.81
829.785	30125.82
830.111	30200.17
830.438	30273.38
830.764	30288.98
831.09	30286.27
831.417	29973.96
831.743	30371.46
832.069	30264.12
832.395	30147.96
832.722	30128.76
833.048	30084.69
833.374	30065.25
833.7	30069.32
834.026	30032.71
834.351	30153.39
834.677	30015.31
835.003	30062.09
835.329	29983.67
835.654	29957.91
835.98	29787.75
836.306	29982.77
836.631	29724.92
836.956	29943.68
837.282	29943.22
837.607	29774.87
837.932	29708.88
838.258	29628.66
838.583	29577.58
838.908	29502.11
839.233	29667.75
839.558	29425.95
839.883	29418.27
840.208	29260.53
840.533	29347.31
840.858	29229.12
841.182	29432.28
841.507	29349.12
841.832	29128.78
842.156	29135.34
842.481	29055.56
842.805	28987.99
843.13	28872.74
843.454	29021.89
843.778	28807.43
844.103	28818.51
844.427	28750.49
844.751	28740.09
845.075	28623.03
845.399	28548.23
845.723	28330.61
846.047	28369.03
846.371	28220.78
846.695	28049.94
847.019	28034.12
847.343	27899.66
847.666	27761.36
847.99	27705.99
848.313	27577.86
848.637	27541.25
848.96	27421.93
849.284	27289.51
849.607	27081.83
849.931	27033.02
850.254	26973.13
850.577	26611.79
850.9	26604.1
851.223	26704.21
851.546	26584.67
851.869	26266.26
852.192	26534.5
852.515	26190.1
852.838	26068.75
853.161	26037.11
853.483	25988.07
853.806	25820.17
854.129	25685.48
854.451	25713.73
854.774	25551.02
855.096	25470.8
855.419	25393.97
855.741	25316.68
856.063	25160.07
856.385	25029.68
856.708	25092.28
857.03	24962.56
857.352	24962.34
857.674	24828.56
857.996	24685.74
858.318	24655.45
858.64	24659.97
858.961	24549.92
859.283	24389.47
859.605	24376.14
859.926	24376.14
860.248	24352.86
860.57	24272.19
860.891	24340.43
861.212	24120.78
861.534	24058.41
861.855	23999.43
862.176	24024.06
862.498	23987.22
862.819	24003.04
863.14	23808.7
863.461	23817.06
863.782	23711.52
864.103	23751.07
864.424	23656.16
864.745	23629.27
865.065	23548.82
865.386	23364.64
865.707	23364.64
866.027	23358.09
866.348	23273.12
866.668	23337.52
866.989	23312.89
867.309	23046.91
867.63	23185.66
867.95	23065.44
868.27	22929.62
868.59	23146.79
868.91	22908.83
869.23	22954.71
869.55	22779.12
869.87	22890.98
870.19	22755.62
870.51	22807.59
870.83	22741.83
871.15	22615.06
871.469	22702.51
871.789	22614.38
872.109	22618.67
872.428	22565.11
872.748	22560.82
873.067	22613.02
873.386	22506.58
873.706	22419.58
874.025	22410.99
874.344	22281.5
874.663	22380.26
874.982	22249.41
875.301	22243.54
875.62	22116.31
875.939	22066.82
876.258	22076.31
876.577	21956.99
876.896	22029.31
877.214	21989.99
877.533	21902.98
877.852	21872.25
878.17	22005.13
878.489	21903.21
878.807	21896.2
879.125	21765.13
879.444	21822.08
879.762	21727.39
880.08	21810.56
880.398	21687.62
880.716	21652.82
881.034	21507.06
881.352	21521.07
881.67	21481.3
881.988	21350.46
882.306	21425.26
882.624	21492.6
882.941	21274.75
883.259	21277.92
883.577	21266.39
883.894	21065.94
884.212	21149.56
884.529	21021.88
884.846	20991.14
885.164	20943.23
885.481	20909.79
885.798	20957.92
886.115	20764.03
886.432	20824.37
886.75	20887.19
887.067	20790.47
887.383	20738.04
887.7	20689.91
888.017	20401.33
888.334	20433.87
888.651	20423.02
888.967	20328.11
889.284	20402.46
889.6	20304.38
889.917	20089.02
890.233	20204.5
890.55	20130.6
890.866	20074.78
891.182	19910.72
891.498	20007.44
891.815	19801.57
892.131	19813.77
892.447	19793.66
892.763	19668.69
893.079	19691.74
893.395	19580.78
893.71	19600.9
894.026	19454.01
894.342	19341.24
894.657	19277.29
894.973	19315.03
895.289	19310.06
895.604	19174.69
895.92	19094.47
896.235	19034.58
896.55	19065.32
896.865	18948.03
897.181	18827.36
897.496	18922.04
897.811	18791.88
898.126	18742.39
898.441	18670.3
898.756	18565.44
899.071	18478.67
899.386	18574.71
899.7	18344.21
900.015	18272.34
900.33	18131.33
900.644	18090.65
900.959	18201.39
901.273	17961.84
901.588	17927.95
901.902	17842.75
902.216	17821.73
902.531	17800.49
902.845	17644.56
903.159	17492.93
903.473	17675.75
903.787	17444.8
904.101	17401.63
904.415	17399.6
904.729	17304.46
905.042	17146.5
905.356	17150.11
905.67	17080.06
905.984	17131.81
906.297	17029.21
906.611	16885.49
906.924	16788.32
907.237	16808.43
907.551	16685.95
907.864	16588.77
908.177	16586.06
908.491	16558.49
908.804	16404.6
909.117	16353.3
909.43	16208.22
909.743	16311.04
910.056	16241.89
910.368	16150.37
910.681	16073.53
910.994	15916.25
911.307	15968.68
911.619	15803.48
911.932	15832.86
912.244	15701.11
912.557	15626.31
912.869	15563.04
913.181	15498.86
913.494	15525.52
913.806	15333.66
914.118	15279.65
914.43	15277.85
914.742	15220.45
915.054	15198.07
915.366	14978.42
915.678	15049.6
915.99	14972.54
916.302	14926.9
916.613	14807.12
916.925	14778.88
917.236	14739.78
917.548	14612.55
917.859	14631.99
918.171	14502.05
918.482	14368.49
918.794	14409.62
919.105	14291.43
919.416	14312.67
919.727	14205.11
920.038	14165.11
920.349	14069.97
920.66	14023.64
920.971	14009.86
921.282	13938.45
921.593	13827.94
921.903	13740.26
922.214	13827.04
922.525	13698.91
922.835	13599.47
923.146	13521.28
923.456	13522.86
923.767	13373.26
924.077	13362.64
924.387	13338.46
924.697	13281.29
925.008	13230.22
925.318	13038.58
925.628	13100.5
925.938	13051.69
926.248	12975.53
926.558	12937.12
926.867	12833.62
927.177	12758.37
927.487	12716.11
927.796	12735.99
928.106	12592.95
928.416	12583.91
928.725	12538.94
929.034	12495.55
929.344	12469.79
929.653	12405.61
929.962	12365.38
930.271	12332.39
930.581	12246.51
930.89	12207.87
931.199	12060.98
931.508	12088.78
931.817	11997.26
932.125	11953.64
932.434	11941.21
932.743	11811.95
933.051	11751.16
933.36	11731.73
933.669	11753.87
933.977	11653.99
934.286	11580.54
934.594	11610.37
934.902	11494.67
935.21	11384.62
935.519	11313.43
935.827	11332.64
936.135	11270.27
936.443	11162.02
936.751	11118.18
937.059	11104.17
937.367	11054.91
937.674	11080.44
937.982	11033.44
938.29	10917.96
938.597	10894.46
938.905	10775.37
939.213	10756.38
939.52	10790.06
939.827	10720.9
940.135	10706.67
940.442	10616.27
940.749	10501.7
941.056	10567.91
941.363	10403.4
941.67	10475.26
941.977	10416.51
942.284	10349.39
942.591	10326.56
942.898	10353
943.205	10170.86
943.511	10185.55
943.818	10117.76
944.125	10014.48
944.431	10012.9
944.738	9933.35
945.044	9931.32
945.35	9833.92
945.657	9812
945.963	9787.82
946.269	9752.79
946.575	9734.04
946.881	9677.32
947.187	9607.04
947.493	9581.95
947.799	9580.6
948.105	9574.72
948.41	9451.11
948.716	9459.92
949.022	9408.17
949.327	9366.36
949.633	9215.63
949.938	9183.77
950.244	9193.26
950.549	9179.02
950.854	9156.65
951.16	9097.44
951.465	9010.67
951.77	9035.98
952.075	8964.11
952.38	8960.27
952.685	8869.88
952.99	8816.1
953.294	8832.82
953.599	8659.26
953.904	8699.04
954.209	8604.58
954.513	8646.38
954.818	8625.82
955.122	8547.63
955.426	8557.8
955.731	8495.2
956.035	8440.96
956.339	8432.38
956.643	8358.25
956.948	8339.95
957.252	8318.71
957.556	8361.19
957.86	8233.74
958.163	8226.73
958.467	8204.36
958.771	8116.23
959.075	8122.78
959.378	7971.37
959.682	8007.08
959.985	7943.12
960.289	7853.18
960.592	7809.79
960.896	7826.07
961.199	7811.83
961.502	7784.03
961.805	7739.29
962.108	7726.63
962.411	7696.8
962.714	7564.83
963.017	7574.55
963.32	7561.67
963.623	7514.89
963.926	7467.88
964.228	7393.31
964.531	7410.71
964.833	7372.07
965.136	7339.3
965.438	7257.49
965.741	7292.75
966.043	7233.31
966.345	7195.35
966.648	7148.34
966.95	7167.33
967.252	7066.54
967.554	7092.53
967.856	7079.19
968.158	6956.94
968.46	7043.71
968.761	6985.64
969.063	6976.37
969.365	6849.37
969.666	6905.19
969.968	6794.68
970.269	6756.49
970.571	6784.74
970.872	6781.8
971.174	6658.86
971.475	6645.98
971.776	6659.32
972.077	6623.84
972.378	6602.82
972.679	6600.11
972.98	6551.3
973.281	6547.23
973.582	6508.59
973.883	6423.16
974.183	6398.08
974.484	6396.05
974.785	6290.06
975.085	6295.71
975.386	6267.69
975.686	6240.57
975.986	6214.36
976.287	6229.27
976.587	6169.16
976.887	6173.91
977.187	6124.19
977.487	6078.09
977.787	6043.06
978.087	6025.89
978.387	6000.58
978.687	5980.92
978.987	5956.51
979.286	5968.04
979.586	5902.27
979.885	5863.63
980.185	5853.91
980.484	5800.58
980.784	5796.74
981.083	5752
981.382	5709.74
981.682	5726.91
981.981	5698.21
982.28	5680.81
982.579	5560.36
982.878	5613.24
983.177	5568.05
983.475	5624.32
983.774	5536.18
984.073	5481.04
984.372	5451.66
984.67	5456.18
984.969	5414.6
985.267	5441.27
985.566	5365.34
985.864	5393.14
986.162	5369.63
986.461	5258.68
986.759	5259.58
987.057	5202.86
987.355	5215.06
987.653	5175.97
987.951	5173.03
988.249	5134.38
988.547	5125.57
988.844	5123.31
989.142	5062.07
989.44	5026.59
989.737	4994.73
990.035	4979.36
990.332	4949.98
990.63	4925.12
990.927	4962.41
991.224	4875.63
991.521	4881.51
991.819	4828.18
992.116	4783.89
992.413	4832.92
992.71	4799.93
993.006	4772.59
993.303	4750.67
993.6	4720.61
993.897	4663.89
994.193	4666.37
994.49	4608.52
994.787	4625.92
995.083	4588.86
995.379	4550.22
995.676	4521.75
995.972	4528.52
996.268	4526.94
996.565	4491.46
996.861	4423.89
997.157	4433.16
997.453	4422.09
997.749	4339.38
998.044	4346.16
998.34	4354.52
998.636	4294.86
998.932	4346.16
999.227	4312.71
999.523	4234.75
999.818	4214.41
1000.114	4207.86
1000.409	4201.98
1000.704	4134.19
1001	4121.76
1001.295	4077.92
1001.59	4094.86
1001.885	4070.68
1002.18	3990.01
1002.475	3994.53
1002.77	3985.49
1003.065	3936.9
1003.359	3947.07
1003.654	3894.64
1003.949	3901.87
1004.243	3824.36
1004.538	3826.85
1004.832	3812.39
1005.127	3802.89
1005.421	3747.98
1005.715	3778.04
1006.009	3746.17
1006.304	3688.55
1006.598	3672.95
1006.892	3689
1007.186	3624.37
1007.48	3627.98
1007.773	3595.89
1008.067	3525.61
1008.361	3541.43
1008.655	3558.83
1008.948	3501.66
1009.242	3498.72
1009.535	3407.88
1009.829	3435.67
1010.122	3415.33
1010.415	3362.68
1010.708	3384.37
1011.001	3360.19
1011.295	3337.6
1011.588	3258.73
1011.881	3312.51
1012.173	3243.59
1012.466	3300.31
1012.759	3242.46
1013.052	3222.57
1013.344	3192.74
1013.637	3209.69
1013.93	3166.53
1014.222	3124.27
1014.514	3119.07
1014.807	3110.94
1015.099	3088.56
1015.391	3041.56
1015.683	3016.47
1015.976	2996.36
1016.268	2990.94
1016.56	2959.07
1016.851	2942.13
1017.143	2915.23
1017.435	2913.65
1017.727	2884.5
1018.018	2863.94
1018.31	2833.88
1018.602	2797.95
1018.893	2812.41
1019.185	2797.05
1019.476	2757.05
1019.767	2760.89
1020.058	2709.59
1020.35	2679.08
1020.641	2662.13
1020.932	2660.33
1021.223	2649.7
1021.514	2628.01
1021.804	2578.52
1022.095	2621.68
1022.386	2557.5
1022.677	2528.58
1022.967	2541.23
1023.258	2486.54
1023.548	2497.17
1023.839	2491.29
1024.129	2434.79
1024.419	2444.29
1024.709	2407.68
1025	2385.08
1025.29	2403.84
1025.58	2345.76
1025.87	2330.39
1026.16	2330.16
1026.449	2282.93
1026.739	2286.1
1027.029	2270.28
1027.319	2278.64
1027.608	2220.34
1027.898	2238.19
1028.187	2205.42
1028.477	2195.93
1028.766	2211.3
1029.055	2161.81
1029.344	2163.84
1029.634	2132.66
1029.923	2137.85
1030.212	2113
1030.501	2070.06
1030.79	2063.96
1031.078	2066.22
1031.367	2036.84
1031.656	2030.74
1031.945	2043.17
1032.233	2005.2
1032.522	1983.51
1032.81	1987.12
1033.099	1917.52
1033.387	1988.7
1033.675	1944.41
1033.963	1877.07
1034.251	1873.68
1034.54	1883.62
1034.828	1896.73
1035.116	1843.62
1035.403	1863.06
1035.691	1824.42
1035.979	1801.82
1036.267	1812.66
1036.554	1769.05
1036.842	1747.81
1037.129	1736.96
1037.417	1739.67
1037.704	1730.18
1037.992	1744.64
1038.279	1699.67
1038.566	1699.67
1038.853	1699.67
1039.14	1699.67
