Data from 17-5722_FLMS001491_005.txt Node
Date: Thu Apr 19 15:14:37 BST 2018
User: hsy
Spectrometer: FLMS00149
Trigger mode: 0
Integration Time (sec): 1.000000E-2
Scans to average: 10
Electric dark correction enabled: true
Nonlinearity correction enabled: false
Boxcar width: 0
XAxis mode: Wavelengths
Number of Pixels in Spectrum: 2048
>>>>>Begin Spectral Data<<<<<
341.393	-10.64
341.776	-10.64
342.16	-10.64
342.543	-47.02
342.927	-66
343.31	-74.36
343.693	-67.58
344.077	-63.52
344.46	-77.3
344.843	-68.49
345.226	-34.82
345.61	-24.87
345.993	-11.77
346.376	9.93
346.759	10.83
347.142	22.13
347.525	37.95
347.908	56.93
348.291	62.81
348.674	109.14
349.057	112.98
349.44	136.48
349.823	145.52
350.206	162.92
350.588	231.17
350.971	227.1
351.354	246.31
351.737	276.14
352.119	282.69
352.502	277.27
352.884	312.97
353.267	313.2
353.65	328.79
354.032	337.6
354.414	333.76
354.797	341.22
355.179	351.62
355.562	373.31
355.944	371.5
356.326	348
356.709	385.51
357.091	348.23
357.473	367.43
357.855	363.37
358.238	360.88
358.62	367.66
359.002	375.8
359.384	362.24
359.766	383.03
360.148	378.06
360.53	379.18
360.912	383.48
361.294	354.55
361.676	380.77
362.057	386.87
362.439	357.72
362.821	375.34
363.203	374.89
363.584	352.52
363.966	369.02
364.348	363.37
364.729	361.56
365.111	347.55
365.493	361.33
365.874	382.8
366.256	354.78
366.637	337.6
367.019	362.24
367.4	374.89
367.781	380.09
368.163	382.35
368.544	355.68
368.925	360.43
369.306	388.68
369.688	352.07
370.069	353.65
370.45	341.45
370.831	364.72
371.212	351.62
371.593	372.63
371.974	374.44
372.355	367.43
372.736	384.38
373.117	375.12
373.498	364.04
373.879	366.76
374.26	375.12
374.641	369.69
375.021	372.63
375.402	384.83
375.783	382.12
376.163	383.7
376.544	381.67
376.925	394.78
377.305	405.17
377.686	390.03
378.066	386.42
378.447	378.28
378.827	380.31
379.208	387.77
379.588	391.61
379.968	418.96
380.349	408.34
380.729	395.46
381.109	427.09
381.489	416.92
381.87	420.54
382.25	397.72
382.63	417.15
383.01	400.2
383.39	412.63
383.77	387.55
384.15	402.46
384.53	424.61
384.91	418.51
385.29	435.68
385.67	417.38
386.049	435.45
386.429	441.78
386.809	456.7
387.189	438.62
387.568	442.91
387.948	469.35
388.328	452.18
388.707	475.23
389.087	453.08
389.466	461.89
389.846	470.48
390.225	481.56
390.605	449.69
390.984	455.79
391.363	474.1
391.743	462.35
392.122	474.32
392.501	481.78
392.881	483.81
393.26	489.69
393.639	474.32
394.018	522.46
394.397	504.61
394.776	482.91
395.155	494.44
395.534	491.27
395.913	521.33
396.292	520.2
396.671	536.92
397.05	535.34
397.429	513.42
397.808	509.13
398.186	525.4
398.565	517.03
398.944	524.27
399.323	526.75
399.701	557.03
400.08	549.12
400.458	532.85
400.837	559.97
401.215	565.17
401.594	570.82
401.972	556.13
402.351	575.56
402.729	566.3
403.107	573.53
403.486	574.89
403.864	576.47
404.242	583.47
404.62	599.29
404.999	610.14
405.377	579.86
405.755	619.18
406.133	638.39
406.511	618.73
406.889	633.19
407.267	625.73
407.645	654.43
408.023	651.04
408.401	667.54
408.779	673.64
409.156	669.12
409.534	666.86
409.912	692.4
410.29	673.64
410.667	700.98
411.045	710.48
411.422	704.37
411.8	695.33
412.178	724.26
412.555	745.73
412.933	706.41
413.31	745.5
413.687	767.88
414.065	755.67
414.442	779.4
414.819	798.61
415.197	778.72
415.574	822.56
415.951	806.29
416.328	802.45
416.705	799.29
417.082	822.34
417.46	824.82
417.837	830.47
418.214	802.45
418.591	821.66
418.967	840.42
419.344	852.39
419.721	835.22
420.098	880.64
420.475	859.4
420.852	863.01
421.228	911.83
421.605	882.67
421.982	925.61
422.358	900.3
422.735	917.02
423.111	923.35
423.488	937.36
423.864	945.72
424.241	934.2
424.617	965.61
424.994	947.53
425.37	971.94
425.746	958.38
426.123	1008.77
426.499	1004.25
426.875	1011.94
427.251	1003.35
427.627	1034.76
428.003	1035.89
428.379	1053.97
428.756	1059.62
429.132	1104.36
429.507	1073.4
429.883	1112.05
430.259	1111.14
430.635	1111.6
431.011	1129.45
431.387	1140.75
431.763	1161.09
432.138	1180.29
432.514	1199.05
432.89	1202.89
433.265	1221.2
433.641	1239.5
434.016	1232.04
434.392	1248.99
434.767	1253.06
435.143	1268.88
435.518	1287.64
435.894	1299.61
436.269	1321.53
436.644	1355.88
437.02	1378.03
437.395	1343.91
437.77	1377.58
438.145	1379.38
438.52	1415.09
438.895	1403.56
439.271	1456.9
439.646	1437.01
440.021	1448.76
440.395	1468.65
440.77	1458.03
441.145	1484.47
441.52	1514.3
441.895	1493.05
442.27	1522.43
442.645	1522.88
443.019	1538.93
443.394	1517.46
443.769	1543.22
444.143	1526.27
444.518	1567.63
444.892	1580.96
445.267	1587.51
445.641	1594.75
446.016	1640.17
446.39	1624.35
446.764	1622.32
447.139	1639.04
447.513	1659.38
447.887	1667.96
448.262	1653.28
448.636	1685.37
449.01	1680.62
449.384	1679.49
449.758	1688.08
450.132	1734.86
450.506	1737.34
450.88	1767.62
451.254	1752.93
451.628	1766.72
452.002	1776.66
452.376	1809.66
452.75	1827.73
453.123	1840.62
453.497	1883.1
453.871	1888.3
454.244	1925.36
454.618	1945.47
454.992	1977.79
455.365	1996.54
455.739	2015.53
456.112	2055.07
456.486	2084.22
456.859	2071.12
457.232	2141.4
457.606	2121.51
457.979	2141.85
458.352	2181.17
458.725	2232.7
459.099	2229.53
459.472	2251.68
459.845	2290.1
460.218	2329.87
460.591	2342.3
460.964	2345.69
461.337	2373.03
461.71	2451.22
462.083	2471.79
462.456	2445.8
462.829	2466.36
463.201	2507.49
463.574	2539.81
463.947	2538.68
464.32	2594.72
464.692	2607.37
465.065	2612.35
465.438	2681.5
465.81	2716.98
466.183	2761.72
466.555	2769.63
466.928	2810.76
467.3	2779.57
467.672	2859.57
468.045	2908.38
468.417	2888.05
468.789	2950.64
469.161	2971.66
469.534	3030.64
469.906	3026.8
470.278	3089.62
470.65	3108.15
471.022	3138.66
471.394	3221.14
471.766	3265.44
472.138	3281.26
472.51	3357.19
472.882	3357.86
473.253	3443.06
473.625	3497.3
473.997	3509.27
474.369	3548.59
474.74	3601.7
475.112	3643.96
475.484	3774.12
475.855	3772.09
476.227	3822.71
476.598	3941.13
476.97	3936.38
477.341	4062.7
477.713	4085.98
478.084	4145.19
478.455	4247.11
478.827	4286.65
479.198	4431.28
479.569	4403.49
479.94	4596.48
480.311	4584.95
480.682	4708.11
481.053	4778.39
481.424	4928.67
481.795	4932.29
482.166	5060.64
482.537	5087.08
482.908	5206.63
483.279	5247.31
483.65	5403.69
484.021	5475.55
484.391	5591.48
484.762	5629.44
485.133	5689.1
485.503	5811.36
485.874	5923.22
486.244	6050.45
486.615	6182.42
486.985	6202.31
487.356	6393.49
487.726	6454.96
488.097	6574.5
488.467	6717.55
488.837	6835.51
489.207	6925.23
489.578	7058.56
489.948	7154.6
490.318	7279.12
490.688	7365.89
491.058	7509.39
491.428	7630.97
491.798	7745.09
492.168	7912.55
492.538	8004.52
492.908	8114.8
493.278	8227.34
493.648	8358.86
494.017	8479.76
494.387	8647.67
494.757	8706.2
495.126	8823.93
495.496	8951.61
495.866	9065.96
496.235	9233.42
496.605	9370.13
496.974	9472.28
497.344	9585.27
497.713	9690.35
498.082	9857.35
498.452	9994.75
498.821	10064.35
499.19	10258.7
499.559	10368.75
499.928	10496.89
500.298	10531.23
500.667	10748.4
501.036	10802.41
501.405	10913.37
501.774	11003.99
502.143	11191.33
502.512	11256.19
502.88	11410.08
503.249	11490.53
503.618	11652.79
503.987	11728.94
504.356	11907.47
504.724	11957.64
505.093	12038.09
505.462	12252.55
505.83	12260.23
506.199	12444.4
506.567	12622.48
506.936	12643.5
507.304	12900.44
507.672	12943.15
508.041	13033.77
508.409	13151.28
508.777	13327.55
509.145	13412.97
509.514	13542
509.882	13578.16
510.25	13652.28
510.618	13764.37
510.986	13845.27
511.354	13941.31
511.722	14136.79
512.09	14261.98
512.458	14276.45
512.826	14428.31
513.193	14472.37
513.561	14538.59
513.929	14642.54
514.297	14866.04
514.664	14918.24
515.032	15020.61
515.4	15054.96
515.767	15192.13
516.135	15249.08
516.502	15177.89
516.869	15513.93
517.237	15482.52
517.604	15428.05
517.972	15788.27
518.339	15731.32
518.706	15991.88
519.073	15926.8
519.44	16008.83
519.808	16129.73
520.175	16140.13
520.542	16465.77
520.909	16426.67
521.276	16458.54
521.643	16691.07
522.009	16731.75
522.376	16882.25
522.743	16900.33
523.11	17141
523.477	17255.58
523.843	17226.2
524.21	17429.36
524.577	17496.47
524.943	17562.01
525.31	17663.93
525.676	17844.26
526.043	17886.97
526.409	18060.3
526.776	18218.94
527.142	18182.33
527.508	18265.72
527.874	18443.34
528.241	18503.45
528.607	18636.78
528.973	18832.94
529.339	18715.2
529.705	18941.18
530.071	19096.43
530.437	19198.8
530.803	19261.85
531.169	19354.28
531.535	19242.42
531.901	19355.41
532.267	19403.32
532.632	19440.38
532.998	19575.06
533.364	19603.09
533.73	19615.52
534.095	19844.44
534.461	19650.09
534.826	19843.53
535.192	19921.95
535.557	19974.83
535.923	19982.96
536.288	20051.21
536.653	20032.91
537.019	20024.77
537.384	20097.31
537.749	19998.33
538.114	20145.9
538.479	20057.31
538.845	20080.14
539.21	20010.99
539.575	20121.26
539.94	20211.43
540.305	20297.08
540.67	20298.21
541.034	20261.6
541.399	20336.17
541.764	20216.63
542.129	20370.52
542.494	20278.77
542.858	20371.65
543.223	20278.55
543.587	20388.83
543.952	20279.9
544.316	20336.17
544.681	20271.32
545.045	20333.24
545.41	20426.12
545.774	20330.07
546.138	20296.4
546.503	20308.38
546.867	20378.66
547.231	20431.31
547.595	20440.35
547.959	20428.6
548.324	20385.89
548.688	20520.8
549.052	20366
549.416	20397.87
549.779	20490.97
550.143	20342.05
550.507	20450.97
550.871	20502.95
551.235	20376.17
551.599	20532.1
551.962	20518.32
552.326	20375.72
552.689	20541.37
553.053	20346.12
553.417	20387.25
553.78	20568.03
554.143	20483.29
554.507	20576.39
554.87	20579.56
555.234	20769.38
555.597	20622.72
555.96	20601.25
556.323	20685.32
556.686	20621.82
557.05	20753.56
557.413	20700.23
557.776	20716.28
558.139	20781.81
558.502	20886.89
558.865	20804.18
559.228	20917.63
559.59	20921.24
559.953	21036.72
560.316	21140.22
560.679	20962.82
561.041	21151.52
561.404	21154.91
561.767	21365.75
562.129	21095.7
562.492	21416.6
562.854	21351.51
563.217	21435.35
563.579	21483.94
563.941	21529.36
564.304	21643.71
564.666	21790.15
565.028	21780.66
565.39	21838.06
565.753	21895.91
566.115	21961.67
566.477	22045.96
566.839	22226.97
567.201	22304.26
567.563	22198.72
567.925	22305.61
568.287	22398.72
568.648	22422.45
569.01	22557.13
569.372	22742.66
569.734	22758.94
570.095	22876.9
570.457	22951.7
570.819	22977.69
571.18	23002.09
571.542	23182.2
571.903	23170.22
572.265	23279.37
572.626	23441.4
572.987	23347.17
573.349	23524.79
573.71	23574.51
574.071	23752.81
574.432	23855.18
574.794	24021.28
575.155	23994.84
575.516	23933.82
575.877	24067.15
576.238	24055.85
576.599	24218.56
576.96	24218.78
577.32	24272.79
577.681	24354.83
578.042	24467.82
578.403	24382.85
578.763	24417.42
579.124	24451.77
579.485	24609.51
579.845	24694.48
580.206	24642.28
580.566	24614.71
580.927	24613.35
581.287	24822.38
581.648	24776.06
582.008	24788.26
582.368	24818.32
582.728	24909.84
583.089	24924.3
583.449	24948.48
583.809	24993.45
584.169	25137.4
584.529	24986.9
584.889	25204.07
585.249	25024.86
585.609	24876.85
585.969	25146.44
586.329	25022.83
586.688	25218.98
587.048	25141.7
587.408	25121.81
587.768	25094.92
588.127	25226.22
588.487	25147.57
588.846	25304.86
589.206	25159.32
589.565	25130.62
589.925	25320
590.284	25284.74
590.643	25182.15
591.003	25289.72
591.362	25443.38
591.721	25415.81
592.08	25378.08
592.44	25446.1
592.799	25378.75
593.158	25372.43
593.517	25401.58
593.876	25585.53
594.235	25460.33
594.593	25526.09
594.952	25600.89
595.311	25506.66
595.67	25505.53
596.029	25667.11
596.387	25632.76
596.746	25666.88
597.104	25565.87
597.463	25571.52
597.822	25731.51
598.18	25656.03
598.538	25649.48
598.897	25894.9
599.255	25522.93
599.613	26002.47
599.972	25753.21
600.33	25795.47
600.688	25791.4
601.046	25856.26
601.404	25908.23
601.762	25954.78
602.12	25980.09
602.478	26004.95
602.836	25981.22
603.194	25849.02
603.552	25946.65
603.91	25802.47
604.268	25982.13
604.625	25978.96
604.983	26074.78
605.341	25863.03
605.698	26058.96
606.056	26282.46
606.413	26058.28
606.771	26245.4
607.128	26173.99
607.485	26189.58
607.843	26151.39
608.2	26232.52
608.557	26339.63
608.914	26362.68
609.272	26386.41
609.629	26552.28
609.986	26563.81
610.343	26549.34
610.7	26758.38
611.057	26609.46
611.414	26546.63
611.771	26724.93
612.127	26663.01
612.484	26711.83
612.841	26870.47
613.198	26890.8
613.554	26702.56
613.911	26955.44
614.267	26926.28
614.624	26936
614.98	27060.07
615.337	27157.46
615.693	27071.36
616.05	27109.1
616.406	27150.01
616.762	27049.9
617.118	27196.78
617.475	27086.51
617.831	27317.69
618.187	27252.38
618.543	27377.35
618.899	27451.47
619.255	27330.34
619.611	27349.78
619.967	27550.67
620.323	27651.46
620.678	27455.99
621.034	27375.09
621.39	27416.44
621.746	27669.77
622.101	27782.98
622.457	27501.41
622.812	27727.84
623.168	27744.57
623.523	27644.68
623.879	27830.44
624.234	27692.59
624.589	27693.04
624.945	27602.88
625.3	27735.53
625.655	27742.31
626.01	27765.13
626.365	27769.88
626.72	27734.85
627.075	27681.74
627.43	27722.19
627.785	27754.96
628.14	27618.92
628.495	27714.06
628.85	27825.92
629.205	27694.62
629.559	27826.15
629.914	27739.6
630.269	27717.22
630.623	27520.39
630.978	27511.58
631.332	27694.17
631.687	27599.71
632.041	27686.04
632.396	27646.72
632.75	27519.94
633.104	27400.85
633.459	27274.75
633.813	27350.23
634.167	27356.55
634.521	27437.23
634.875	27416.89
635.229	27267.74
635.583	27157.46
635.937	27257.57
636.291	27150.01
636.645	27137.35
636.999	27076.56
637.352	27051.93
637.706	26912.72
638.06	27064.13
638.413	26933.29
638.767	27003.34
639.121	26920.86
639.474	26745.27
639.828	26841.31
640.181	26769.9
640.534	26942.33
640.888	26820.98
641.241	26601.32
641.594	26692.84
641.947	26936.68
642.301	26708.66
642.654	26713.18
643.007	26621.88
643.36	26724.71
643.713	26689.68
644.066	26749.79
644.419	26535.11
644.771	26288.79
645.124	26006.53
645.477	25993.43
645.83	25943.94
646.182	26112.97
646.535	25948.91
646.888	26167.43
647.24	26006.08
647.593	26191.61
647.945	26002.01
648.298	25875.01
648.65	25812.64
649.002	25596.15
649.355	25553.21
649.707	25373.33
650.059	25343.73
650.411	25882.24
650.763	25952.98
651.115	26459.18
651.467	26428.67
651.819	26374.89
652.171	26309.58
652.523	26339.63
652.875	26315.45
653.227	26366.07
653.578	26491.04
653.93	26462.79
654.282	26237.26
654.633	26322.23
654.985	26448.78
655.337	26378.5
655.688	26342.8
656.039	26441.78
656.391	26203.36
656.742	26369.46
657.094	26444.04
657.445	26423.25
657.796	26518.84
658.147	26332.85
658.498	26509.35
658.849	26423.25
659.2	26438.61
659.551	26371.04
659.902	26617.14
660.253	26424.6
660.604	26606.52
660.955	26508.67
661.306	26602.68
661.656	26548.44
662.007	26613.98
662.358	26677.48
662.708	26673.63
663.059	26743.01
663.409	26443.81
663.76	26662.11
664.11	26798.15
664.461	26830.92
664.811	26823.69
665.161	26730.36
665.511	26830.69
665.862	26754.08
666.212	26741.2
666.562	26844.7
666.912	26759.96
667.262	26622.11
667.612	26771.26
667.962	26811.94
668.312	26866.17
668.662	26981.88
669.011	26780.3
669.361	26880.86
669.711	26890.13
670.06	26790.02
670.41	26801.54
670.76	26753.41
671.109	26834.53
671.459	26777.36
671.808	26772.62
672.157	26763.35
672.507	26632.28
672.856	26630.25
673.205	26562.23
673.554	26736.46
673.904	26609.46
674.253	26920.86
674.602	26582.34
674.951	26336.69
675.3	26178.05
675.649	26646.52
675.998	26602.68
676.346	26581.43
676.695	26656.01
677.044	26311.38
677.393	26505.5
677.741	26442.91
678.09	26509.8
678.438	26311.38
678.787	26326.75
679.135	26462.79
679.484	26180.31
679.832	26259.86
680.181	26175.12
680.529	26229.35
680.877	26099.19
681.225	26057.83
681.573	26298.05
681.922	26009.47
682.27	26093.76
682.618	25926.31
682.966	25777.61
683.314	25935.58
683.661	25821
684.009	25811.51
684.357	25635.92
684.705	25665.07
685.053	25646.77
685.4	25569.26
685.748	25508.02
686.095	25452.2
686.443	25211.98
686.79	25289.26
687.138	25267.12
687.485	25275.71
687.832	25205.42
688.18	24987.13
688.527	24969.95
688.874	24997.97
689.221	24835.04
689.568	24899.44
689.915	24731.31
690.262	24705.55
690.609	24660.13
690.956	24459.91
691.303	24550.75
691.65	24388.05
691.997	24278.22
692.344	24092.01
692.69	24131.55
693.037	24130.65
693.383	23920.03
693.73	23843.2
694.077	23727.95
694.423	23590.78
694.769	23700.38
695.116	23532.47
695.462	23500.16
695.808	23246.15
696.155	23336.1
696.501	23170.9
696.847	23139.94
697.193	22913.28
697.539	23022.66
697.885	22700.63
698.231	22602.1
698.577	22738.15
698.923	22557.36
699.269	22489.79
699.614	22303.13
699.96	22150.36
700.306	22203.47
700.651	22106.75
700.997	22029.92
701.342	22024.27
701.688	21884.61
702.033	21763.26
702.379	21761.67
702.724	21713.54
703.069	21605.97
703.415	21394.23
703.76	21334.79
704.105	21284.62
704.45	21208.92
704.795	21055.48
705.14	21072.43
705.485	20972.09
705.83	20851.19
706.175	20886.44
706.52	20743.4
706.865	20753.11
707.209	20659.56
707.554	20635.15
707.899	20529.39
708.243	20349.06
708.588	20429.05
708.932	20238.32
709.277	20396.96
709.621	20224.09
709.966	20062.28
710.31	20177.31
710.654	19980.48
710.998	20027.93
711.342	20078.1
711.687	19994.04
712.031	19968.73
712.375	19737.77
712.719	19784.55
713.063	19631.56
713.407	19737.77
713.75	19670.66
714.094	19679.92
714.438	19612.13
714.782	19626.14
715.125	19573.48
715.469	19635.63
715.812	19476.08
716.156	19489.64
716.499	19464.78
716.843	19509.53
717.186	19347.5
717.53	19408.06
717.873	19422.3
718.216	19378.91
718.559	19374.84
718.902	19280.16
719.246	19262.76
719.589	19314.73
719.932	19180.05
720.275	19309.08
720.617	19233.83
720.96	19260.04
721.303	19231.12
721.646	19285.81
721.989	19161.97
722.331	19269.31
722.674	19312.7
723.016	19223.44
723.359	19164.68
723.701	19179.37
724.044	19119.48
724.386	19030.9
724.729	19152.7
725.071	19145.92
725.413	19245.58
725.755	19108.86
726.097	19088.98
726.439	19074.96
726.782	19137.56
727.124	19209.42
727.465	19121.52
727.807	19072.7
728.149	19197.67
728.491	19119.03
728.833	19063.21
729.175	19086.49
729.516	19051.69
729.858	19175.3
730.199	19177.56
730.541	19136.66
730.882	19104.79
731.224	19230.21
731.565	19217.56
731.906	19239.25
732.248	19279.03
732.589	19376.88
732.93	19340.95
733.271	19392.92
733.612	19352.25
733.953	19384.56
734.294	19465.01
734.635	19414.39
734.976	19550.21
735.317	19477.67
735.658	19549.75
735.999	19482.64
736.339	19494.16
736.68	19682.18
737.021	19656.42
737.361	19619.81
737.702	19903.87
738.042	19747.72
738.383	19817.77
738.723	19912.46
739.063	19977.77
739.404	19982.06
739.744	20187.03
740.084	20077.42
740.424	20268.38
740.764	20305.89
741.104	20395.16
741.444	20420.01
741.784	20467.92
742.124	20667.69
742.464	20628.82
742.804	20619.1
743.143	20716.5
743.483	20984.07
743.823	20960.56
744.162	21118.07
744.502	21211.41
744.841	21403.72
745.181	21450.04
745.52	21588.57
745.86	21731.84
746.199	21746.76
746.538	21885.51
746.877	22112.17
747.216	22163.24
747.556	22338.16
747.895	22568.21
748.234	22723
748.573	22961.64
748.911	23111.92
749.25	23258.81
749.589	23315.98
749.928	23588.52
750.267	23868.51
750.605	23907.15
750.944	24172.46
751.283	24367.48
751.621	24729.96
751.96	24627.13
752.298	24937.41
752.636	25151.19
752.975	25335.59
753.313	25359.77
753.651	25847.22
753.989	25965.86
754.327	26254.89
754.666	26257.6
755.004	26701.88
755.342	26883.35
755.679	27156.56
756.017	27259.61
756.355	27710.44
756.693	27693.49
757.031	28086.93
757.368	28182.97
757.706	28551.1
758.044	28584.09
758.381	28889.62
758.719	29078.09
759.056	29313.79
759.394	29639.88
759.731	29614.57
760.068	29895.25
760.405	30245.29
760.743	30226.31
761.08	30427.21
761.417	30763.24
761.754	30832.4
762.091	31151.26
762.428	31231.03
762.765	31316.9
763.102	31675.54
763.438	31666.95
763.775	31780.85
764.112	32077.33
764.449	32208.18
764.785	32306.26
765.122	32352.81
765.458	32485.01
765.795	32619.47
766.131	32821.72
766.467	32848.61
766.804	32973.58
767.14	33054.94
767.476	33181.71
767.812	33297.87
768.148	33467.81
768.485	33504.19
768.821	33346.91
769.157	33562.95
769.492	33546.22
769.828	33636.62
770.164	33576.05
770.5	33515.04
770.836	33757.06
771.171	33680.68
771.507	33704.41
771.842	33716.39
772.178	33767.91
772.513	33820.79
772.849	33702.83
773.184	33777.18
773.519	33807.23
773.855	33803.62
774.19	33775.14
774.525	33723.84
774.86	33854.01
775.195	33831.19
775.53	33700.12
775.865	33518.88
776.2	33583.96
776.535	33359.33
776.87	33451.76
777.205	33488.37
777.539	33313.46
777.874	33543.96
778.209	33186.23
778.543	33321.82
778.878	33137.65
779.212	33228.04
779.547	33034.6
779.881	33158.21
780.215	32979.91
780.55	33011.77
780.884	32914.83
781.218	32803.19
781.552	32960.7
781.886	32718.9
782.22	32702.63
782.554	32627.83
782.888	32411.56
783.222	32402.98
783.556	32160.5
783.889	32136.99
784.223	32077.56
784.557	32004.79
784.89	32182.87
785.224	31892.03
785.557	31879.15
785.891	31800.05
786.224	31650.68
786.558	31679.38
786.891	31509.89
787.224	31353.96
787.557	31334.3
787.891	31375.21
788.224	31164.59
788.557	31117.81
788.89	31031.49
789.223	31198.04
789.556	30944.03
789.888	30968.44
790.221	30747.2
790.554	30593.08
790.887	30710.59
791.219	30362.35
791.552	30467.89
791.884	30378.17
792.217	30286.42
792.549	30200.55
792.882	30002.36
793.214	29933.21
793.546	29937.73
793.879	29933.66
794.211	29699.54
794.543	29851.63
794.875	29566.89
795.207	29669.71
795.539	29577.51
795.871	29620
796.203	29444.86
796.535	29282.38
796.867	29236.05
797.198	29018.21
797.53	29210.29
797.862	29024.99
798.193	29039
798.525	28781.83
798.856	28875.16
799.188	28615.96
799.519	28381.16
799.85	28463.64
800.182	28375.06
800.513	28558.56
800.844	28082.19
801.175	28294.38
801.506	28358.56
801.837	28182.07
802.168	28055.97
802.499	28127.16
802.83	27953.83
803.161	27886.94
803.491	27785.7
803.822	27971.68
804.153	27626.6
804.483	27561.75
804.814	27373.5
805.145	27457.79
805.475	27435.2
805.805	27416.67
806.136	27406.95
806.466	27234.98
806.796	27228.42
807.126	27133.51
807.457	26991.37
807.787	27009.22
808.117	26927.64
808.447	26811.26
808.777	26993.85
809.107	26782.56
809.436	26615.11
809.766	26721.09
810.096	26585.95
810.426	26465.73
810.755	26685.16
811.085	26548.21
811.414	26579.17
811.744	26272.06
812.073	26316.81
812.403	26296.02
812.732	26259.18
813.061	26275.23
813.39	26112.07
813.719	26088.79
814.049	26268.45
814.378	26062.13
814.707	26118.17
815.036	25888.57
815.365	25860.77
815.693	25673.21
816.022	25713.21
816.351	25632.31
816.68	25569.94
817.008	25631.63
817.337	25445.19
817.665	25416.04
817.994	25417.4
818.322	25484.74
818.651	25327.68
818.979	25186.22
819.307	25248.14
819.636	25257.85
819.964	25097.41
820.292	25252.2
820.62	25179.44
820.948	25172.21
821.276	25308.7
821.604	25214.92
821.932	25319.09
822.259	25292.2
822.587	25156.16
822.915	25143.96
823.243	25183.05
823.57	25075.71
823.898	25305.31
824.225	25198.19
824.553	25146.44
824.88	25168.36
825.207	25211.53
825.535	25141.25
825.862	25277.29
826.189	25192.77
826.516	25476.6
826.843	25401.13
827.17	25394.35
827.497	25468.24
827.824	25416.04
828.151	25563.38
828.478	25227.8
828.805	25420.56
829.131	25461.01
829.458	25459.43
829.785	25314.12
830.111	25356.83
830.438	25576.94
830.764	25442.93
831.09	25461.46
831.417	25304.41
831.743	25507.79
832.069	25438.87
832.395	25387.11
832.722	25517.28
833.048	25401.35
833.374	25414.68
833.7	25301.47
834.026	25483.16
834.351	25342.6
834.677	25479.77
835.003	25323.16
835.329	25296.95
835.654	25285.2
835.98	25176.27
836.306	25206.78
836.631	25180.11
836.956	25308.02
837.282	25335.14
837.607	25225.99
837.932	25107.12
838.258	25020.57
838.583	25032.55
838.908	25001.14
839.233	25057.41
839.558	24913.68
839.883	24897.41
840.208	24777.64
840.533	24957.97
840.858	24827.58
841.182	24911.42
841.507	24851.54
841.832	24716.4
842.156	24644.76
842.481	24613.12
842.805	24495.84
843.13	24443.18
843.454	24503.97
843.778	24348.5
844.103	24357.09
844.427	24340.14
844.751	24325.45
845.075	24224.21
845.399	24187.82
845.723	24153.48
846.047	24158.67
846.371	23933.59
846.695	23875.52
847.019	23884.33
847.343	23650.44
847.666	23560.95
847.99	23476.2
848.313	23435.75
848.637	23409.31
848.96	23315.53
849.284	23281.18
849.607	23043.22
849.931	23134.74
850.254	22925.48
850.577	22791.48
850.9	22593.74
851.223	22724.13
851.546	22472.39
851.869	22429.23
852.192	22572.5
852.515	22359.17
852.838	22144.71
853.161	22268.78
853.483	22081.44
853.806	22113.75
854.129	21932.06
854.451	21969.8
854.774	21818.62
855.096	21791.5
855.419	21664.05
855.741	21570.27
856.063	21599.19
856.385	21491.4
856.708	21509.48
857.03	21312.87
857.352	21341.35
857.674	21219.77
857.996	21167.34
858.318	21136.83
858.64	21172.31
858.961	20909.72
859.283	20999.89
859.605	20824.07
859.926	20760.8
860.248	20793.56
860.57	20636.96
860.891	20721.93
861.212	20648.93
861.534	20606.9
861.855	20507.92
862.176	20579.78
862.498	20508.15
862.819	20484.19
863.14	20355.83
863.461	20319.9
863.782	20295.27
864.103	20199
864.424	20261.6
864.745	20360.58
865.065	20019.8
865.386	19997.88
865.707	20102.51
866.027	20039.68
866.348	20045.56
866.668	20027.26
866.989	19889.41
867.309	19832.46
867.63	19888.73
867.95	19817.77
868.27	19744.1
868.59	19826.58
868.91	19702.29
869.23	19665.46
869.55	19640.83
869.87	19669.3
870.19	19537.78
870.51	19579.81
870.83	19550.66
871.15	19498.68
871.469	19495.97
871.789	19528.74
872.109	19474.05
872.428	19337.56
872.748	19438.57
873.067	19354.51
873.386	19291.91
873.706	19331.23
874.025	19233.6
874.344	19189.76
874.663	19281.96
874.982	19166.26
875.301	19161.74
875.62	19063.21
875.939	19054.63
876.258	19055.3
876.577	18999.71
876.896	18914.74
877.214	18938.92
877.533	19033.16
877.852	18952.48
878.17	18904.57
878.489	18952.48
878.807	18803.33
879.125	18799.27
879.444	18719.72
879.762	18700.74
880.08	18753.62
880.398	18562.21
880.716	18655.99
881.034	18560.63
881.352	18557.24
881.67	18492.16
881.988	18536.45
882.306	18386.4
882.624	18373.29
882.941	18338.94
883.259	18252.84
883.577	18224.37
883.894	18138.94
884.212	18097.36
884.529	18089.91
884.846	17991.6
885.164	17911.83
885.481	17987.54
885.798	17935.79
886.115	17816.47
886.432	17906.41
886.75	17921.77
887.067	17910.02
887.383	17700.54
887.7	17731.5
888.017	17638.84
888.334	17645.17
888.651	17537.38
888.967	17524.27
889.284	17498.28
889.6	17390.26
889.917	17366.31
890.233	17327.67
890.55	17301.9
890.866	17162.7
891.182	17199.08
891.498	17175.35
891.815	17043.61
892.131	16975.58
892.447	16972.42
892.763	16903.27
893.079	16909.82
893.395	16820.11
893.71	16800
894.026	16738.08
894.342	16669.15
894.657	16525.2
894.973	16521.59
895.289	16460.34
895.604	16512.77
895.92	16338.77
896.235	16318.2
896.55	16269.16
896.865	16233.46
897.181	16213.57
897.496	16316.62
897.811	16170.18
898.126	16078.89
898.441	16013.12
898.756	15979.45
899.071	15928.38
899.386	15906.01
899.7	15805.9
900.015	15711.44
900.33	15672.79
900.644	15635.05
900.959	15578.79
901.273	15537.2
901.588	15470.77
901.902	15401.61
902.216	15299.47
902.531	15377.43
902.845	15221.05
903.159	15118.91
903.473	15162.07
903.787	14980.38
904.101	14995.07
904.415	14993.04
904.729	14894.06
905.042	14819.03
905.356	14699.03
905.67	14686.61
905.984	14650.45
906.297	14575.87
906.611	14600.28
906.924	14485.03
907.237	14450.68
907.551	14432.6
907.864	14384.47
908.177	14353.05
908.491	14220.4
908.804	14085.04
909.117	14064.25
909.43	14026.06
909.743	13895.44
910.056	13948.32
910.368	13903.58
910.681	13821.32
910.994	13769.57
911.307	13697.25
911.619	13568.89
911.932	13573.19
912.244	13427.2
912.557	13486.64
912.869	13323.03
913.181	13321.44
913.494	13254.33
913.806	13255.23
914.118	13123.71
914.43	13104.73
914.742	13158.28
915.054	13035.58
915.366	12940.89
915.678	12923.26
915.99	12894.11
916.302	12750.39
916.613	12754.23
916.925	12804.85
917.236	12703.38
917.548	12659.99
917.859	12591.52
918.171	12507
918.482	12450.05
918.794	12441.47
919.105	12444.63
919.416	12272.66
919.727	12262.04
920.038	12269.95
920.349	12110.85
920.66	12083.28
920.971	12083.96
921.282	12074.7
921.593	11944.76
921.903	11821.14
922.214	11857.08
922.525	11758.32
922.835	11695.95
923.146	11711.09
923.456	11704.54
923.767	11513.13
924.077	11521.04
924.387	11504.54
924.697	11386.35
925.008	11389.74
925.318	11389.29
925.628	11365.11
925.938	11337.09
926.248	11138.9
926.558	11173.48
926.867	11105.91
927.177	11071.79
927.487	11011
927.796	10947.27
928.106	10950.66
928.416	10883.54
928.725	10850.1
929.034	10727.16
929.344	10727.61
929.653	10740.95
929.962	10685.81
930.271	10525.36
930.581	10561.74
930.89	10478.13
931.199	10473.16
931.508	10444.68
931.817	10342.54
932.125	10372.59
932.434	10343.22
932.743	10183.9
933.051	10258.7
933.36	10153.39
933.669	10041.98
933.977	10098.48
934.286	10028.87
934.594	9969.89
934.902	9961.31
935.21	9900.74
935.519	9858.26
935.827	9780.29
936.135	9742.55
936.443	9682.67
936.751	9618.94
937.059	9659.62
937.367	9571.94
937.674	9552.96
937.982	9531.26
938.29	9443.35
938.597	9443.35
938.905	9343.24
939.213	9286.75
939.52	9262.57
939.827	9369.68
940.135	9208.78
940.442	9224.15
940.749	9145.28
941.056	9176.47
941.363	9103.25
941.67	8991.61
941.977	8943.25
942.284	8891.5
942.591	8931.05
942.898	8943.48
943.205	8811.73
943.511	8820.09
943.818	8726.76
944.125	8674.11
944.431	8655.58
944.738	8616.26
945.044	8696.48
945.35	8569.03
945.657	8534.9
945.963	8472.76
946.269	8426.43
946.575	8420.78
946.881	8393.21
947.187	8346.89
947.493	8235.02
947.799	8268.02
948.105	8226.44
948.41	8165.19
948.716	8166.1
949.022	8144.18
949.327	8120.45
949.633	8002.26
949.938	8011.3
950.244	8020.79
950.549	7925.88
950.854	7895.6
951.16	7866.9
951.465	7820.57
951.77	7801.59
952.075	7805.2
952.38	7821.7
952.685	7714.13
952.99	7644.76
953.294	7613.12
953.599	7589.84
953.904	7597.98
954.209	7494.48
954.513	7494.48
954.818	7445.89
955.122	7412.45
955.426	7387.59
955.731	7339.91
956.035	7317.31
956.339	7301.26
956.643	7292.45
956.948	7196.41
957.252	7174.94
957.556	7198.44
957.86	7055.39
958.163	7185.79
958.467	7117.54
958.771	7045
959.075	7021.04
959.378	6932.46
959.682	6990.54
959.985	6928.84
960.289	6856.75
960.592	6852.01
960.896	6784.21
961.199	6821.05
961.502	6809.52
961.805	6772.01
962.108	6665.35
962.411	6720.94
962.714	6599.81
963.017	6613.6
963.32	6618.57
963.623	6520.72
963.926	6559.59
964.228	6502.41
964.531	6459.03
964.833	6456.31
965.136	6365.92
965.438	6391.23
965.741	6329.54
966.043	6376.54
966.345	6306.94
966.648	6311.68
966.95	6240.5
967.252	6151.91
967.554	6149.43
967.856	6122.31
968.158	6111.01
968.46	6136.32
968.761	6063.78
969.063	6042.76
969.365	6014.74
969.666	5994.63
969.968	5916.89
970.269	5944.69
970.571	5934.97
970.872	5876.44
971.174	5830.12
971.475	5826.05
971.776	5828.53
972.077	5741.76
972.378	5781.3
972.679	5737.46
972.98	5783.56
973.281	5685.94
973.582	5678.48
973.883	5593.51
974.183	5596.22
974.484	5566.62
974.785	5574.75
975.085	5481.42
975.386	5510.12
975.686	5472.38
975.986	5421.31
976.287	5419.05
976.587	5394.42
976.887	5343.57
977.187	5364.82
977.487	5372.27
977.787	5319.85
978.087	5307.42
978.387	5252.28
978.687	5274.65
978.987	5156.46
979.286	5178.38
979.586	5130.47
979.885	5149.23
980.185	5114.2
980.484	5084.37
980.784	5023.81
981.083	4993.53
981.382	5043.7
981.682	4995.56
981.981	4982.91
982.28	4921.21
982.579	4906.98
982.878	4929.8
983.177	4846.64
983.475	4826.53
983.774	4845.96
984.073	4810.71
984.372	4797.37
984.67	4768.67
984.969	4800.99
985.267	4768.22
985.566	4705.85
985.864	4688.9
986.162	4665.63
986.461	4602.8
986.759	4585.18
987.057	4554.89
987.355	4537.49
987.653	4492.98
987.951	4519.64
988.249	4491.39
988.547	4453.43
988.844	4429.7
989.142	4430.15
989.44	4416.82
989.737	4392.19
990.035	4384.96
990.332	4349.93
990.63	4330.04
990.927	4320.55
991.224	4293.21
991.521	4241.91
991.819	4255.92
992.116	4248.46
992.413	4158.07
992.71	4145.41
993.006	4190.16
993.303	4159.2
993.6	4140.89
993.897	4065.64
994.193	4075.81
994.49	4072.65
994.787	4063.61
995.083	4015.02
995.379	3985.42
995.676	3977.51
995.972	3957.4
996.268	3936.15
996.565	3882.37
996.861	3884.18
997.157	3886.66
997.453	3878.53
997.749	3813.44
998.044	3801.47
998.34	3815.93
998.636	3805.99
998.932	3758.76
999.227	3721.24
999.523	3744.97
999.818	3690.96
1000.114	3653.68
1000.409	3665.2
1000.704	3601.93
1001	3628.37
1001.295	3586.56
1001.59	3582.94
1001.885	3589.04
1002.18	3500.68
1002.475	3475.37
1002.77	3491.87
1003.065	3452.32
1003.359	3425.88
1003.654	3393.57
1003.949	3378.65
1004.243	3413.46
1004.538	3331.2
1004.832	3344.3
1005.127	3343.4
1005.421	3317.64
1005.715	3252.56
1006.009	3285.32
1006.304	3231.09
1006.598	3276.06
1006.892	3217.75
1007.186	3199.45
1007.48	3183.18
1007.773	3175.5
1008.067	3114.93
1008.361	3130.3
1008.655	3093.24
1008.948	3056.63
1009.242	3081.49
1009.535	3031.77
1009.829	2987.7
1010.122	2973.24
1010.415	2959
1010.708	2949.29
1011.001	2925.11
1011.295	2909.29
1011.588	2908.38
1011.881	2871.77
1012.173	2866.8
1012.466	2867.48
1012.759	2836.75
1013.052	2814.83
1013.344	2849.4
1013.637	2731.21
1013.93	2752.23
1014.222	2733.7
1014.514	2692.34
1014.807	2672.91
1015.099	2709.97
1015.391	2687.82
1015.683	2644.89
1015.976	2642.18
1016.268	2603.99
1016.56	2578.22
1016.851	2610.99
1017.143	2579.35
1017.435	2516.3
1017.727	2549.52
1018.018	2559.24
1018.31	2530.99
1018.602	2449.64
1018.893	2438.11
1019.185	2454.38
1019.476	2438.34
1019.767	2405.8
1020.058	2402.41
1020.35	2393.82
1020.641	2360.15
1020.932	2329.42
1021.223	2316.08
1021.514	2297.1
1021.804	2282.41
1022.095	2279.25
1022.386	2257.1
1022.677	2261.4
1022.967	2232.92
1023.258	2201.96
1023.548	2161.96
1023.839	2172.58
1024.129	2195.18
1024.419	2141.62
1024.709	2171
1025	2163.54
1025.29	2119.25
1025.58	2092.36
1025.87	2086.26
1026.16	2057.11
1026.449	2051.01
1026.739	2045.36
1027.029	2049.65
1027.319	2025.92
1027.608	1998.13
1027.898	1993.83
1028.187	1983.66
1028.477	1974.4
1028.766	1949.54
1029.055	1901.63
1029.344	1919.71
1029.634	1904.12
1029.923	1891.46
1030.212	1878.58
1030.501	1851.24
1030.79	1813.27
1031.078	1813.95
1031.367	1822.31
1031.656	1843.33
1031.945	1763.1
1032.233	1772.14
1032.522	1747.51
1032.81	1778.24
1033.099	1737.57
1033.387	1755.19
1033.675	1714.97
1033.963	1687.4
1034.251	1673.39
1034.54	1682.43
1034.828	1657.57
1035.116	1647.85
1035.403	1631.36
1035.691	1621.19
1035.979	1629.1
1036.267	1620.51
1036.554	1591.36
1036.842	1594.52
1037.129	1591.36
1037.417	1576.89
1037.704	1554.75
1037.992	1538.7
1038.279	1514.75
1038.566	1508.19
1038.853	1508.19
1039.14	1508.19
