Data from 17-5722_FLMS001491_001.txt Node
Date: Thu Apr 19 15:14:10 BST 2018
User: hsy
Spectrometer: FLMS00149
Trigger mode: 0
Integration Time (sec): 1.000000E-2
Scans to average: 10
Electric dark correction enabled: true
Nonlinearity correction enabled: false
Boxcar width: 0
XAxis mode: Wavelengths
Number of Pixels in Spectrum: 2048
>>>>>Begin Spectral Data<<<<<
341.393	-4.31
341.776	-4.31
342.16	-4.31
342.543	-53.57
342.927	-62.39
343.31	-57.64
343.693	-62.39
344.077	-64.19
344.46	-56.74
344.843	-51.99
345.226	-30.07
345.61	-46.79
345.993	-21.48
346.376	-22.39
346.759	8.12
347.142	20.1
347.525	30.49
347.908	71.85
348.291	69.14
348.674	99.19
349.057	114.79
349.44	136.93
349.823	136.48
350.206	167.67
350.588	218.06
350.971	245.18
351.354	253.99
351.737	254.89
352.119	279.75
352.502	306.19
352.884	315.23
353.267	320.2
353.65	339.41
354.032	329.69
354.414	361.11
354.797	362.69
355.179	373.31
355.562	350.03
355.944	361.33
356.326	359.52
356.709	357.49
357.091	383.48
357.473	384.83
357.855	372.18
358.238	391.84
358.62	386.64
359.002	382.8
359.384	415.79
359.766	375.8
360.148	385.51
360.53	386.87
360.912	379.18
361.294	394.1
361.676	366.08
362.057	371.95
362.439	385.29
362.821	399.98
363.203	398.17
363.584	371.5
363.966	371.95
364.348	373.99
364.729	386.87
365.111	350.71
365.493	349.58
365.874	370.82
366.256	366.53
366.637	370.15
367.019	363.14
367.4	351.16
367.781	362.69
368.163	378.96
368.544	354.55
368.925	384.38
369.306	374.67
369.688	389.81
370.069	369.02
370.45	366.76
370.831	365.17
371.212	355.46
371.593	363.14
371.974	388.68
372.355	379.86
372.736	385.51
373.117	380.77
373.498	370.82
373.879	389.81
374.26	374.21
374.641	380.31
375.021	378.73
375.402	386.19
375.783	392.97
376.163	380.09
376.544	383.03
376.925	396.36
377.305	393.42
377.686	386.87
378.066	385.74
378.447	379.41
378.827	392.74
379.208	404.95
379.588	393.87
379.968	400.65
380.349	393.42
380.729	421.9
381.109	400.43
381.489	424.38
381.87	421.44
382.25	437.94
382.63	446.98
383.01	427.32
383.39	442.91
383.77	413.08
384.15	426.87
384.53	441.78
384.91	438.62
385.29	428
385.67	439.3
386.049	446.53
386.429	432.52
386.809	454.89
387.189	444.95
387.568	451.5
387.948	455.79
388.328	445.17
388.707	475.91
389.087	472.06
389.466	466.41
389.846	489.01
390.225	465.74
390.605	483.81
390.984	472.06
391.363	496.92
391.743	490.59
392.122	477.49
392.501	482.01
392.881	512.06
393.26	485.85
393.639	497.6
394.018	503.48
394.397	498.5
394.776	510.03
395.155	529.24
395.534	534.21
395.913	503.25
396.292	521.78
396.671	538.28
397.05	527.2
397.429	541.21
397.808	545.73
398.186	548.9
398.565	538.5
398.944	556.81
399.323	548.67
399.701	566.52
400.08	568.33
400.458	545.73
400.837	558.39
401.215	559.07
401.594	559.97
401.972	569.91
402.351	578.73
402.729	585.96
403.107	605.17
403.486	591.83
403.864	587.32
404.242	606.75
404.62	596.13
404.999	597.26
405.377	607.65
405.755	608.11
406.133	653.53
406.511	644.26
406.889	633.42
407.267	646.75
407.645	652.17
408.023	694.43
408.401	677.03
408.779	692.85
409.156	675
409.534	688.78
409.912	697.37
410.29	739.4
410.667	738.05
411.045	728.55
411.422	745.5
411.8	736.01
412.178	769.46
412.555	747.99
412.933	751.15
413.31	786.63
413.687	772.62
414.065	804.03
414.442	804.94
414.819	827.76
415.197	821.43
415.574	820.98
415.951	836.12
416.328	830.02
416.705	832.73
417.082	834.09
417.46	849
417.837	862.56
418.214	883.8
418.591	869.57
418.967	869.34
419.344	879.74
419.721	923.35
420.098	912.5
420.475	903.01
420.852	940.98
421.228	926.97
421.605	952.5
421.982	951.37
422.358	963.35
422.735	989.79
423.111	953.86
423.488	960.41
423.864	992.05
424.241	1004.71
424.617	997.7
424.994	991.82
425.37	1023.24
425.746	1013.52
426.123	1050.58
426.499	1038.38
426.875	1095.1
427.251	1071.37
427.627	1095.78
428.003	1113.85
428.379	1100.52
428.756	1149.33
429.132	1137.81
429.507	1156.79
429.883	1176.9
430.259	1180.75
430.635	1192.72
431.011	1197.24
431.387	1213.51
431.763	1271.36
432.138	1243.12
432.514	1272.72
432.89	1252.83
433.265	1292.16
433.641	1320.4
434.016	1323.57
434.392	1342.1
434.767	1344.13
435.143	1363.11
435.518	1400.4
435.894	1432.49
436.269	1425.94
436.644	1421.42
437.02	1431.81
437.395	1435.65
437.77	1463.9
438.145	1487.18
438.52	1494.41
438.895	1516.33
439.271	1524.24
439.646	1546.16
440.021	1562.2
440.395	1554.3
440.77	1559.04
441.145	1526.5
441.52	1581.41
441.895	1593.16
442.27	1651.02
442.645	1612.6
443.019	1628.42
443.394	1652.82
443.769	1645.82
444.143	1634.29
444.518	1645.37
444.892	1674.97
445.267	1677.68
445.641	1722.88
446.016	1724.91
446.39	1714.29
446.764	1728.08
447.139	1739.38
447.513	1745.25
447.887	1770.79
448.262	1773.05
448.636	1784.8
449.01	1808.75
449.384	1805.36
449.758	1818.02
450.132	1859.37
450.506	1860.28
450.88	1883.55
451.254	1892.59
451.628	1914.74
452.002	1936.21
452.376	1947.73
452.75	1973.72
453.123	1947.96
453.497	2022.76
453.871	2013.94
454.244	2072.25
454.618	2061.63
454.992	2111.12
455.365	2125.81
455.739	2159.03
456.112	2157.22
456.486	2206.93
456.859	2185.24
457.232	2218.46
457.606	2269.76
457.979	2313.6
458.352	2377.55
458.725	2334.39
459.099	2411
459.472	2424.33
459.845	2471.79
460.218	2503.42
460.591	2504.55
460.964	2518.34
461.337	2566.47
461.71	2610.76
462.083	2625.68
462.456	2632.46
462.829	2662.74
463.201	2687.15
463.574	2726.69
463.947	2749.29
464.32	2789.74
464.692	2822.51
465.065	2849.4
465.438	2876.75
465.81	2955.16
466.183	2932.56
466.555	3010.75
466.928	3043.75
467.3	3009.62
467.672	3017.76
468.045	3101.6
468.417	3150.64
468.789	3147.02
469.161	3182.95
469.534	3251.43
469.906	3304.98
470.278	3299.33
470.65	3377.3
471.022	3410.29
471.394	3500.68
471.766	3495.94
472.138	3544.75
472.51	3626.78
472.882	3654.35
473.253	3738.64
473.625	3730.06
473.997	3817.74
474.369	3810.28
474.74	3853.9
475.112	3946.77
475.484	4056.83
475.855	4107
476.227	4114
476.598	4259.08
476.97	4238.29
477.341	4393.77
477.713	4445.29
478.084	4458.63
478.455	4598.28
478.827	4635.8
479.198	4747.21
479.569	4795.79
479.94	4874.43
480.311	4953.98
480.682	5107.42
481.053	5212.5
481.424	5285.95
481.795	5323.69
482.166	5425.83
482.537	5495.43
482.908	5582.44
483.279	5672.15
483.65	5778.37
484.021	5912.82
484.391	6071.46
484.762	6098.36
485.133	6181.52
485.503	6264.91
485.874	6434.84
486.244	6542.64
486.615	6649.75
486.985	6673.71
487.356	6863.53
487.726	6960.03
488.097	7139.91
488.467	7185.33
488.837	7320.47
489.207	7459.45
489.578	7616.96
489.948	7733.12
490.318	7844.53
490.688	7903.05
491.058	8086.1
491.428	8297.39
491.798	8308.24
492.168	8512.08
492.538	8696.71
492.908	8806.31
493.278	8874.78
493.648	8955.91
494.017	9141.44
494.387	9230.25
494.757	9339.4
495.126	9463.69
495.496	9593.18
495.866	9683.8
496.235	9906.17
496.605	10000.4
496.974	10086.95
497.344	10332.6
497.713	10396.32
498.082	10409.88
498.452	10659.37
498.821	10776.88
499.19	10821.62
499.559	11083.76
499.928	11157.21
500.298	11220.48
500.667	11322.63
501.036	11434.94
501.405	11579.34
501.774	11643.52
502.143	11846.91
502.512	11961.25
502.88	12127.12
503.249	12153.11
503.618	12357.85
503.987	12371.41
504.356	12587.45
504.724	12702.7
505.093	12828.8
505.462	12862.47
505.83	13036.25
506.199	13207.32
506.567	13314.21
506.936	13396.02
507.304	13523.47
507.672	13593.07
508.041	13754.2
508.409	13807.53
508.777	13914.2
509.145	14131.59
509.514	14091.59
509.882	14263.34
510.25	14347.18
510.618	14500.17
510.986	14481.64
511.354	14732.71
511.722	14900.39
512.09	14932.47
512.458	15005.47
512.826	15091.79
513.193	15150.1
513.561	15299.92
513.929	15392.8
514.297	15441.39
514.664	15610.87
515.032	15641.38
515.4	15801.15
515.767	15932.9
516.135	15975.16
516.502	15957.53
516.869	16300.12
517.237	16253.34
517.604	16200.69
517.972	16391.87
518.339	16548.93
518.706	16659.66
519.073	16688.13
519.44	16742.82
519.808	16970.39
520.175	17020.56
520.542	17207.22
520.909	17240.66
521.276	17265.07
521.643	17407.89
522.009	17545.51
522.376	17651.05
522.743	17749.8
523.11	17804.49
523.477	17999.29
523.843	18024.37
524.21	18212.39
524.577	18338.26
524.943	18433.4
525.31	18470.01
525.676	18704.8
526.043	18766.27
526.409	18759.49
526.776	18995.64
527.142	19032.25
527.508	19114.29
527.874	19303.89
528.241	19286.26
528.607	19410.55
528.973	19610.09
529.339	19567.15
529.705	19730.77
530.071	19834.94
530.437	19919.69
530.803	20054.15
531.169	20140.7
531.535	20074.49
531.901	20166.24
532.267	20158.55
532.632	20281.71
532.998	20306.57
533.364	20535.27
533.73	20482.39
534.095	20568.48
534.461	20574.81
534.826	20670.18
535.192	20685.09
535.557	20874.69
535.923	20804.64
536.288	20848.93
536.653	20926.89
537.019	20935.03
537.384	20929.61
537.749	20937.29
538.114	20967.12
538.479	20941.13
538.845	20968.02
539.21	20960.34
539.575	20971.19
539.94	20949.27
540.305	21172.76
540.67	21105.42
541.034	21264.51
541.399	21176.83
541.764	21078.98
542.129	21076.95
542.494	21225.19
542.858	21142.03
543.223	21184.29
543.587	21251.4
543.952	21138.41
544.316	21130.73
544.681	20996.95
545.045	21296.15
545.41	21303.38
545.774	21055.48
546.138	21170.28
546.503	21142.48
546.867	21278.75
547.231	21289.6
547.595	21320.56
547.959	21216.6
548.324	21285.98
548.688	21148.13
549.052	21222.93
549.416	21158.53
549.779	21163.27
550.143	21189.26
550.507	21232.2
550.871	21257.28
551.235	21243.27
551.599	21345.19
551.962	21308.58
552.326	21276.71
552.689	21299.99
553.053	21099.32
553.417	21267.45
553.78	21479.65
554.143	21387.9
554.507	21384.96
554.87	21437.39
555.234	21523.26
555.597	21384.51
555.96	21523.49
556.323	21505.64
556.686	21565.52
557.05	21586.08
557.413	21554.45
557.776	21600.77
558.139	21707.44
558.502	21713.54
558.865	21570.72
559.228	21879.18
559.59	21844.16
559.953	21852.07
560.316	21975.68
560.679	21938.17
561.041	22076.47
561.404	22196.92
561.767	22297.25
562.129	22102.91
562.492	22232.85
562.854	22242.56
563.217	22346.52
563.579	22391.49
563.941	22423.35
564.304	22476.91
564.666	22737.92
565.028	22763.68
565.39	22752.61
565.753	22849.33
566.115	22817.01
566.477	22954.64
566.839	22940.85
567.201	23130.45
567.563	23033.73
567.925	23206.61
568.287	23289.32
568.648	23370.9
569.01	23405.02
569.372	23712.81
569.734	23565.92
570.095	23723.66
570.457	23845.69
570.819	23895.18
571.18	23829.19
571.542	24040.26
571.903	24104.44
572.265	24159.8
572.626	24273.25
572.987	24279.35
573.349	24356.63
573.71	24490.64
574.071	24585.78
574.432	24585.78
574.794	24738.32
575.155	24783.06
575.516	24848.82
575.877	24816.28
576.238	24852.21
576.599	24995.71
576.96	25018.76
577.32	25126.33
577.681	25144.64
578.042	25262.37
578.403	25232.54
578.763	25278.42
579.124	25274.35
579.485	25513.89
579.845	25470.73
580.206	25474.57
580.566	25490.39
580.927	25511.86
581.287	25623.72
581.648	25630.72
582.008	25713.89
582.368	25772.19
582.728	25785.3
583.089	25712.76
583.449	25695.81
583.809	25763.83
584.169	25914.11
584.529	25863.49
584.889	26036.14
585.249	25884.5
585.609	25639.54
585.969	25978.74
586.329	25844.96
586.688	26033.43
587.048	25955.01
587.408	25904.39
587.768	25939.19
588.127	26005.86
588.487	25975.57
588.846	26224.16
589.206	26025.74
589.565	25978.51
589.925	26241.33
590.284	26082.46
590.643	26069.58
591.003	26194.1
591.362	26350.71
591.721	26269.58
592.08	26256.92
592.44	26293.31
592.799	26308.45
593.158	26266.41
593.517	26215.79
593.876	26175.34
594.235	26173.31
594.593	26285.85
594.952	26390.25
595.311	26304.38
595.67	26276.36
596.029	26490.14
596.387	26524.49
596.746	26557.03
597.104	26366.52
597.463	26471.15
597.822	26523.81
598.18	26387.54
598.538	26430.03
598.897	26631.6
599.255	26452.17
599.613	26778.04
599.972	26515.22
600.33	26566.74
600.688	26526.07
601.046	26684.71
601.404	26748.66
601.762	26615.33
602.12	26760.19
602.478	26682
602.836	26747.31
603.194	26604.26
603.552	26717.25
603.91	26600.64
604.268	26743.01
604.625	26781.88
604.983	26915.44
605.341	26736.23
605.698	26917.24
606.056	26924.48
606.413	26799.51
606.771	27056.45
607.128	26994.76
607.485	26889.45
607.843	26934.42
608.2	27032.5
608.557	27165.83
608.914	27025.49
609.272	27221.42
609.629	27374.63
609.986	27400.17
610.343	27370.11
610.7	27475.2
611.057	27396.55
611.414	27365.37
611.771	27559.04
612.127	27522.65
612.484	27571.46
612.841	27699.6
613.198	27510.9
613.554	27564.91
613.911	27790.67
614.267	27761.74
614.624	27818.69
614.98	27848.75
615.337	27915.41
615.693	27905.47
616.05	27987.05
616.406	28010.1
616.762	27923.77
617.118	28029.31
617.475	27914.96
617.831	28149.08
618.187	28088.06
618.543	28132.13
618.899	28267.49
619.255	28299.81
619.611	28181.84
619.967	28441.5
620.323	28409.86
620.678	28443.31
621.034	28352.46
621.39	28225.23
621.746	28389.75
622.101	28513.36
622.457	28363.99
622.812	28444.44
623.168	28597.43
623.523	28455.51
623.879	28508.39
624.234	28376.19
624.589	28636.97
624.945	28462.97
625.3	28630.19
625.655	28581.83
626.01	28531.89
626.365	28552.46
626.72	28432.46
627.075	28472.91
627.43	28476.3
627.785	28525.56
628.14	28617.09
628.495	28468.39
628.85	28599.69
629.205	28437.2
629.559	28610.76
629.914	28437.88
630.269	28460.48
630.623	28324.89
630.978	28286.02
631.332	28423.65
631.687	28401.95
632.041	28204.44
632.396	28323.76
632.75	28348.17
633.104	28349.3
633.459	28227.27
633.813	28124.44
634.167	28180.71
634.521	28116.31
634.875	28243.76
635.229	28150.21
635.583	27991.34
635.937	27991.79
636.291	27915.64
636.645	27993.6
636.999	27802.87
637.352	27975.07
637.706	27735.53
638.06	27966.71
638.413	27742.99
638.767	27774.85
639.121	27691.01
639.474	27664.34
639.828	27661.18
640.181	27622.54
640.534	27777.56
640.888	27552.71
641.241	27480.85
641.594	27438.13
641.947	27520.39
642.301	27415.31
642.654	27555.65
643.007	27465.03
643.36	27409.89
643.713	27422.99
644.066	27542.54
644.419	27430
644.771	27100.97
645.124	26791.15
645.477	26778.26
645.83	26639.74
646.182	26722.45
646.535	26724.48
646.888	26920.18
647.24	26806.74
647.593	26960.18
647.945	26774.42
648.298	26651.94
648.65	26516.58
649.002	26340.54
649.355	26249.92
649.707	26228.45
650.059	26204.27
650.411	26571.26
650.763	26713.86
651.115	27255.54
651.467	27084.02
651.819	27141.42
652.171	27140.97
652.523	27032.5
652.875	27121.08
653.227	26952.72
653.578	27159.95
653.93	27131.7
654.282	26980.29
654.633	26999.95
654.985	27001.31
655.337	27118.82
655.688	27023
656.039	27257.57
656.391	26967.86
656.742	26995.21
657.094	27035.21
657.445	27112.04
657.796	27117.46
658.147	27045.83
658.498	27183.23
658.849	27219.84
659.2	27166.73
659.551	27165.15
659.902	27258.03
660.253	27076.11
660.604	27228.42
660.955	27113.4
661.306	27343.67
661.656	27312.71
662.007	27202.66
662.358	27252.83
662.708	27343.9
663.059	27469.55
663.409	27202.21
663.76	27478.81
664.11	27357.23
664.461	27466.38
664.811	27416.89
665.161	27392.94
665.511	27454.18
665.862	27392.71
666.212	27492.6
666.562	27637.23
666.912	27410.34
667.262	27424.58
667.612	27528.3
667.962	27455.54
668.312	27350
668.662	27582.76
669.011	27598.13
669.361	27591.12
669.711	27546.38
670.06	27537.57
670.41	27500.51
670.76	27449.66
671.109	27563.33
671.459	27495.31
671.808	27493.5
672.157	27418.93
672.507	27335.54
672.856	27303.45
673.205	27401.98
673.554	27443.78
673.904	27354.75
674.253	27505.48
674.602	27411.92
674.951	26982.78
675.3	26902.56
675.649	27327.85
675.998	27341.41
676.346	27205.15
676.695	27204.69
677.044	27128.31
677.393	27133.28
677.741	27126.73
678.09	27144.13
678.438	27138.93
678.787	27155.66
679.135	27202.89
679.484	26940.52
679.832	27100.74
680.181	26977.81
680.529	27014.42
680.877	26824.59
681.225	26849.45
681.573	27011.25
681.922	26799.51
682.27	26649.68
682.618	26725.38
682.966	26606.07
683.314	26509.8
683.661	26577.82
684.009	26425.51
684.357	26348.67
684.705	26334.21
685.053	26454.66
685.4	26260.54
685.748	26330.82
686.095	26148.45
686.443	26021.22
686.79	26073.2
687.138	26045.18
687.485	26059.87
687.832	25914.11
688.18	25823.94
688.527	25826.43
688.874	25648.8
689.221	25709.37
689.568	25524.29
689.915	25402.93
690.262	25370.17
690.609	25298.53
690.956	25154.13
691.303	25141.47
691.65	25096.28
691.997	24947.58
692.344	24891.31
692.69	24725.66
693.037	24870.52
693.383	24459.91
693.73	24521.83
694.077	24334.71
694.423	24326.35
694.769	24205
695.116	24285.45
695.462	24014.04
695.808	23993.48
696.155	23954.61
696.501	23839.59
696.847	23734.05
697.193	23594.85
697.539	23558.01
697.885	23377
698.231	23292.48
698.577	23318.69
698.923	23228.53
699.269	22930.46
699.614	22928.87
699.96	22848.65
700.306	22781.99
700.651	22743.79
700.997	22524.14
701.342	22636.9
701.688	22555.78
702.033	22412.5
702.379	22367.99
702.724	22186.75
703.069	22178.16
703.415	21930.93
703.76	21899.75
704.105	21916.92
704.45	21906.53
704.795	21772.75
705.14	21594.67
705.485	21597.84
705.83	21421.57
706.175	21645.52
706.52	21488.69
706.865	21341.12
707.209	21316.94
707.554	21264.06
707.899	21216.6
708.243	21122.59
708.588	20961.02
708.932	20864.3
709.277	21000.34
709.621	20832.66
709.966	20731.42
710.31	20849.61
710.654	20592.89
710.998	20626.56
711.342	20575.49
711.687	20523.06
712.031	20613.46
712.375	20344.08
712.719	20379.79
713.063	20349.06
713.407	20430.86
713.75	20283.75
714.094	20309.06
714.438	20171.88
714.782	20267.25
715.125	20168.72
715.469	20276.51
715.812	20077.42
716.156	20053.7
716.499	19968.73
716.843	20088.05
717.186	19963.98
717.53	19990.65
717.873	20072.68
718.216	19914.94
718.559	19954.49
718.902	19782.97
719.246	19852.12
719.589	19794.95
719.932	19732.57
720.275	19676.08
720.617	19775.06
720.96	19761.05
721.303	19830.42
721.646	19849.86
721.989	19663.42
722.331	19652.8
722.674	19696.64
723.016	19654.16
723.359	19688.73
723.701	19682.18
724.044	19618.68
724.386	19664.55
724.729	19699.81
725.071	19638.34
725.413	19741.16
725.755	19669.07
726.097	19576.65
726.439	19630.88
726.782	19614.61
727.124	19620.49
727.465	19666.81
727.807	19610.32
728.149	19617.32
728.491	19509.3
728.833	19739.13
729.175	19682.63
729.516	19567.61
729.858	19673.82
730.199	19715.85
730.541	19724.21
730.882	19713.37
731.224	19738.45
731.565	19629.3
731.906	19798.79
732.248	19816.19
732.589	19782.52
732.93	19659.13
733.271	19767.38
733.612	19866.13
733.953	19982.96
734.294	19889.63
734.635	19846.92
734.976	19917.65
735.317	19962.85
735.658	19940.48
735.999	20019.8
736.339	20143.86
736.68	20106.12
737.021	20149.29
737.361	20133.69
737.702	20393.12
738.042	20303.63
738.383	20304.08
738.723	20441.26
739.063	20434.02
739.404	20608.03
739.744	20647.8
740.084	20618.43
740.424	20725.09
740.764	20720.12
741.104	20984.97
741.444	20948.14
741.784	20931.41
742.124	21146.1
742.464	21261.35
742.804	21265.19
743.143	21321.23
743.483	21502.47
743.823	21526.65
744.162	21615.69
744.502	21653.2
744.841	21787.44
745.181	22009.58
745.52	22081.21
745.86	22240.53
746.199	22375.89
746.538	22520.98
746.877	22705.38
747.216	22767.07
747.556	22880.51
747.895	22986.73
748.234	23200.96
748.573	23383.55
748.911	23446.6
749.25	23758.01
749.589	23807.72
749.928	23927.72
750.267	24261.95
750.605	24297.2
750.944	24510.53
751.283	24767.7
751.621	25071.87
751.96	25090.85
752.298	25310.28
752.636	25686.54
752.975	25861.23
753.313	25884.05
753.651	26335.11
753.989	26401.33
754.327	26583.24
754.666	26712.5
755.004	27172.6
755.342	27419.38
755.679	27641.07
756.017	27678.58
756.355	28092.81
756.693	28338.68
757.031	28599.46
757.368	28613.92
757.706	29034.48
758.044	29086
758.381	29278.31
758.719	29615.25
759.056	29786.1
759.394	30081.23
759.731	30159.64
760.068	30302.24
760.405	30591.72
760.743	30685.73
761.08	31056.57
761.417	31249.11
761.754	31339.05
762.091	31495.88
762.428	31581.98
762.765	31691.13
763.102	32011.8
763.438	32146.03
763.775	32340.6
764.112	32553.25
764.449	32673.48
764.785	32857.65
765.122	32835.28
765.458	32884.54
765.795	33026.24
766.131	33317.3
766.467	33311.43
766.804	33350.97
767.14	33444.08
767.476	33685.2
767.812	33674.58
768.148	33889.49
768.485	33984.85
768.821	33844.52
769.157	34047.9
769.492	34006.55
769.828	34191.63
770.164	34005.19
770.5	34188.92
770.836	34217.17
771.171	34216.71
771.507	34270.05
771.842	34144.85
772.178	34324.28
772.513	34248.8
772.849	34226.2
773.184	34331.06
773.519	34325.41
773.855	34316.82
774.19	34320.44
774.525	34374.68
774.86	34284.51
775.195	34388.46
775.53	34353.43
775.865	34081.58
776.2	34092.87
776.535	33917.74
776.87	34130.39
777.205	33939.21
777.539	33856.27
777.874	34000
778.209	33782.15
778.543	33847.91
778.878	33706.22
779.212	33889.49
779.547	33562.72
779.881	33704.64
780.215	33498.99
780.55	33631.87
780.884	33301.71
781.218	33420.58
781.552	33397.53
781.886	33260.81
782.22	33246.12
782.554	33193.69
782.888	32892.45
783.222	32923.19
783.556	32848.61
783.889	32745.11
784.223	32522.29
784.557	32703.53
784.89	32703.98
785.224	32387.38
785.557	32349.42
785.891	32283.43
786.224	32395.74
786.558	32314.62
786.891	32194.62
787.224	32075.07
787.557	31999.37
787.891	31901.29
788.224	31785.36
788.557	31743.78
788.89	31738.36
789.223	31666.05
789.556	31408.2
789.888	31423.57
790.221	31288.88
790.554	31218.15
790.887	31266.96
791.219	31157.81
791.552	30994.2
791.884	30996.46
792.217	30984.71
792.549	30920.75
792.882	30634.66
793.214	30562.35
793.546	30541.1
793.879	30477.6
794.211	30186.31
794.543	30368.45
794.875	30283.94
795.207	30213.2
795.539	30089.82
795.871	30231.51
796.203	30052.53
796.535	29945.64
796.867	29978.41
797.198	29610.51
797.53	29616.83
797.862	29521.02
798.193	29615.03
798.525	29428.59
798.856	29520.57
799.188	29086.68
799.519	29055.72
799.85	28959.22
800.182	29067.7
800.513	29064.08
800.844	28688.72
801.175	28942.95
801.506	28896.63
801.837	28645.33
802.168	28682.62
802.499	28583.19
802.83	28372.57
803.161	28345.23
803.491	28423.19
803.822	28441.05
804.153	28251.22
804.483	28074.95
804.814	28074.28
805.145	28046.48
805.475	27965.58
805.805	27938.69
806.136	28069.08
806.466	27832.7
806.796	27878.8
807.126	27712.03
807.457	27571.46
807.787	27675.64
808.117	27592.93
808.447	27518.13
808.777	27469.55
809.107	27317.91
809.436	27263.68
809.766	27265.71
810.096	27287.86
810.426	26981.88
810.755	27143
811.085	27114.75
811.414	27121.76
811.744	26947.98
812.073	26850.81
812.403	26809.9
812.732	26672.5
813.061	26933.74
813.39	26489.91
813.719	26575.78
814.049	26709.79
814.378	26595.22
814.707	26578.5
815.036	26553.86
815.365	26290.37
815.693	26212.86
816.022	26189.81
816.351	26216.7
816.68	26109.81
817.008	26117.94
817.337	25928.34
817.665	26023.71
817.994	25918.4
818.322	26024.84
818.651	25891.28
818.979	25889.47
819.307	25849.02
819.636	25888.34
819.964	25752.08
820.292	25831.17
820.62	25743.26
820.948	25695.81
821.276	25875.01
821.604	25771.29
821.932	25800.66
822.259	25831.85
822.587	25723.15
822.915	25732.42
823.243	25754.79
823.57	25698.07
823.898	25886.99
824.225	25751.4
824.553	25746.88
824.88	25682.47
825.207	25844.73
825.535	25629.14
825.862	25822.36
826.189	25845.86
826.516	25887.44
826.843	25906.2
827.17	26014.9
827.497	25950.94
827.824	25916.82
828.151	25888.12
828.478	25893.32
828.805	26082.69
829.131	25964.73
829.458	26012.41
829.785	25825.75
830.111	25946.2
830.438	26186.87
830.764	25938.29
831.09	26001.79
831.417	25870.04
831.743	25960.21
832.069	25918.85
832.395	25997.04
832.722	26017.38
833.048	25865.07
833.374	25946.87
833.7	25748.91
834.026	25897.61
834.351	25947.55
834.677	25939.19
835.003	25905.29
835.329	25831.62
835.654	25822.13
835.98	25701.68
836.306	25913.88
836.631	25684.28
836.956	25976.7
837.282	25936.25
837.607	25739.2
837.932	25642.02
838.258	25759.08
838.583	25589.6
838.908	25539.65
839.233	25512.08
839.558	25469.82
839.883	25447.9
840.208	25374.01
840.533	25486.55
840.858	25392.09
841.182	25435.93
841.507	25368.36
841.832	25147.12
842.156	25279.1
842.481	25218.31
842.805	25184.18
843.13	25055.6
843.454	25210.85
843.778	25064.86
844.103	24984.19
844.427	24957.52
844.751	24864.87
845.075	24855.83
845.399	24857.41
845.723	24692.44
846.047	24690.41
846.371	24403.86
846.695	24380.14
847.019	24288.84
847.343	24330.65
847.666	24070.09
847.99	24113.7
848.313	23964.33
848.637	23882.3
848.96	23741.51
849.284	23821.96
849.607	23545.81
849.931	23648.4
850.254	23419.03
850.577	23252.26
850.9	23037.35
851.223	23153.5
851.546	23028.08
851.869	22889.78
852.192	22992.6
852.515	22846.84
852.838	22732.95
853.161	22671.71
853.483	22619.05
853.806	22576.79
854.129	22552.61
854.451	22427.19
854.774	22254.54
855.096	22270.13
855.419	22161.66
855.741	22218.16
856.063	22000.76
856.385	21980.2
856.708	21881.9
857.03	21787.21
857.352	21756.7
857.674	21788.34
857.996	21662.47
858.318	21536.59
858.64	21516.03
858.961	21496.37
859.283	21444.62
859.605	21389.93
859.926	21288.69
860.248	21244.85
860.57	21191.52
860.891	21126.21
861.212	21058.87
861.534	21066.1
861.855	20930.73
862.176	21008.92
862.498	21000.56
862.819	20965.76
863.14	20893.67
863.461	20771.42
863.782	20755.37
864.103	20762.38
864.424	20708.14
864.745	20733.68
865.065	20584.98
865.386	20518.09
865.707	20510.18
866.027	20589.73
866.348	20440.58
866.668	20450.75
866.989	20330.3
867.309	20270.41
867.63	20300.24
867.95	20363.74
868.27	20204.2
868.59	20243.07
868.91	20197.87
869.23	20124.2
869.55	20089.18
869.87	20138.67
870.19	20060.7
870.51	20054.83
870.83	20014.83
871.15	19901.84
871.469	19822.97
871.789	20044.43
872.109	19932.57
872.428	19820.03
872.748	19919.46
873.067	19781.61
873.386	19822.74
873.706	19666.81
874.025	19664.33
874.344	19579.58
874.663	19631.79
874.982	19624.1
875.301	19622.07
875.62	19551.56
875.939	19444.67
876.258	19545.46
876.577	19410.55
876.896	19350.21
877.214	19277.22
877.533	19351.12
877.852	19386.82
878.17	19427.27
878.489	19359.7
878.807	19243.32
879.125	19290.55
879.444	19174.17
879.762	19095.98
880.08	19199.26
880.398	18987.28
880.716	19076.32
881.034	18937.79
881.352	19071.8
881.67	18901.18
881.988	19018.02
882.306	18793.39
882.624	18814.86
882.941	18692.6
883.259	18688.31
883.577	18646.05
883.894	18606.73
884.212	18615.09
884.529	18560.85
884.846	18538.03
885.164	18461.2
885.481	18309.79
885.798	18345.72
886.115	18282.44
886.432	18294.19
886.75	18312.5
887.067	18248.32
887.383	18060.98
887.7	18019.4
888.017	17984.6
888.334	18094.65
888.651	18006.74
888.967	17865.28
889.284	17869.57
889.6	17815.79
889.917	17776.47
890.233	17815.56
890.55	17668.22
890.866	17665.74
891.182	17592.97
891.498	17587.77
891.815	17488.57
892.131	17395.23
892.447	17314.78
892.763	17345.97
893.079	17232.08
893.395	17144.85
893.71	17099.65
894.026	17038.63
894.342	17049.26
894.657	16883.16
894.973	16941.91
895.289	16896.26
895.604	16793.44
895.92	16728.36
896.235	16661.02
896.55	16665.31
896.865	16527.01
897.181	16540.12
897.496	16546.9
897.811	16492.43
898.126	16358.88
898.441	16401.59
898.756	16346.45
899.071	16310.07
899.386	16268.71
899.7	16050.19
900.015	15997.98
900.33	15925.67
900.644	15952.33
900.959	15875.95
901.273	15812.9
901.588	15792.79
901.902	15723.19
902.216	15602.74
902.531	15580.59
902.845	15555.28
903.159	15389.41
903.473	15427.38
903.787	15308.51
904.101	15271.45
904.415	15250.43
904.729	15159.36
905.042	15095.86
905.356	15097.89
905.67	15099.48
905.984	15074.17
906.297	14914.62
906.611	14745.81
906.924	14813.61
907.237	14758.69
907.551	14754.4
907.864	14645.7
908.177	14646.38
908.491	14537.23
908.804	14389.44
909.117	14329.78
909.43	14267.18
909.743	14185.83
910.056	14267.41
910.368	14181.08
910.681	14120.07
910.994	14088.88
911.307	14016.34
911.619	13901.77
911.932	13919.62
912.244	13737.93
912.557	13790.36
912.869	13684.82
913.181	13661.55
913.494	13575.22
913.806	13511.95
914.118	13514.88
914.43	13420.88
914.742	13355.57
915.054	13324.38
915.366	13269.69
915.678	13247.32
915.99	13234.89
916.302	13090.72
916.613	13026.08
916.925	13004.62
917.236	12933.88
917.548	12805.52
917.859	12891.62
918.171	12751.74
918.482	12694.57
918.794	12683.04
919.105	12606.43
919.416	12490.96
919.727	12491.86
920.038	12403.5
920.349	12316.72
920.66	12325.99
920.971	12235.14
921.282	12211.64
921.593	12161.7
921.903	12051.65
922.214	12117.18
922.525	11971.65
922.835	11909.5
923.146	11914.02
923.456	11844.65
923.767	11834.25
924.077	11777.08
924.387	11717.87
924.697	11667.7
925.008	11561.94
925.318	11643.97
925.628	11601.04
925.938	11471.77
926.248	11433.81
926.558	11333.25
926.867	11337.77
927.177	11235.85
927.487	11191.33
927.796	11093.48
928.106	11207.37
928.416	11052.35
928.725	10991.11
929.034	10988.4
929.344	10977.78
929.653	11005.35
929.962	10815.07
930.271	10782.3
930.581	10835.86
930.89	10748.86
931.199	10633.83
931.508	10581.4
931.817	10563.1
932.125	10586.83
932.434	10541.63
932.743	10427.28
933.051	10418.47
933.36	10400.62
933.669	10296.66
933.977	10194.75
934.286	10287.4
934.594	10149.78
934.902	10095.77
935.21	10072.94
935.519	10029.1
935.827	10008.76
936.135	9971.48
936.443	9890.8
936.751	9898.48
937.059	9809.9
937.367	9816.45
937.674	9799.95
937.982	9758.37
938.29	9724.25
938.597	9644.25
938.905	9514.99
939.213	9529.45
939.52	9482.67
939.827	9475.89
940.135	9462.11
940.442	9304.83
940.749	9309.8
941.056	9338.95
941.363	9219.86
941.67	9182.8
941.977	9160.42
942.284	9041.33
942.591	9086.75
942.898	9040.2
943.205	9021.9
943.511	9002.46
943.818	8976.47
944.125	8919.07
944.431	8904.38
944.738	8834.78
945.044	8823.93
945.35	8803.82
945.657	8766.31
945.963	8656.71
946.269	8603.6
946.575	8543.04
946.881	8564.51
947.187	8491.51
947.493	8443.15
947.799	8416.49
948.105	8398.64
948.41	8329.94
948.716	8303.72
949.022	8304.17
949.327	8319.32
949.633	8158.64
949.938	8177.62
950.244	8203.16
950.549	8055.59
950.854	8025.99
951.16	8054.24
951.465	7971.75
951.77	7934.24
952.075	7980.34
952.38	7927.01
952.685	7904.18
952.99	7843.62
953.294	7824.64
953.599	7738.31
953.904	7710.74
954.209	7635.72
954.513	7593.91
954.818	7616.96
955.122	7579.9
955.426	7597.07
955.731	7472.11
956.035	7515.27
956.339	7457.19
956.643	7476.63
956.948	7312.56
957.252	7350.08
957.556	7306.46
957.86	7328.15
958.163	7308.27
958.467	7242.06
958.771	7222.85
959.075	7137.2
959.378	7151.89
959.682	7145.56
959.985	7065.56
960.289	6986.69
960.592	6969.97
960.896	6995.73
961.199	6985.56
961.502	6975.17
961.805	6880.26
962.108	6836.64
962.411	6812.91
962.714	6764.33
963.017	6757.77
963.32	6743.54
963.623	6707.61
963.926	6728.17
964.228	6598.68
964.531	6612.24
964.833	6572.92
965.136	6560.27
965.438	6510.32
965.741	6492.92
966.043	6467.16
966.345	6373.38
966.648	6327.5
966.95	6350.55
967.252	6328.41
967.554	6284.11
967.856	6243.44
968.158	6247.96
968.46	6221.29
968.761	6231.23
969.063	6162.31
969.365	6156.21
969.666	6069.88
969.968	6109.66
970.269	6006.61
970.571	6068.07
970.872	5999.38
971.174	5983.78
971.475	5901.3
971.776	5884.35
972.077	5905.82
972.378	5892.94
972.679	5880.28
972.98	5823.79
973.281	5767.29
973.582	5777.69
973.883	5706.05
974.183	5711.25
974.484	5645.26
974.785	5645.26
975.085	5636.22
975.386	5641.19
975.686	5572.27
975.986	5542.66
976.287	5488.43
976.587	5433.97
976.887	5487.07
977.187	5478.49
977.487	5405.27
977.787	5398.71
978.087	5373.18
978.387	5367.53
978.687	5337.7
978.987	5238.72
979.286	5258.38
979.586	5277.59
979.885	5167.08
980.185	5195.1
980.484	5176.8
980.784	5111.49
981.083	5147.65
981.382	5076.01
981.682	5092.06
981.981	5097.48
982.28	5041.66
982.579	5002.57
982.878	4994.88
983.177	4946.97
983.475	4932.96
983.774	4964.15
984.073	4892.06
984.372	4892.06
984.67	4896.81
984.969	4849.58
985.267	4829.01
985.566	4794.44
985.864	4730.26
986.162	4727.77
986.461	4716.25
986.759	4706.53
987.057	4634.21
987.355	4614.33
987.653	4612.97
987.951	4602.12
988.249	4593.99
988.547	4559.19
988.844	4519.42
989.142	4538.4
989.44	4474.67
989.737	4469.92
990.035	4422.24
990.332	4424.5
990.63	4402.58
990.927	4398.06
991.224	4363.49
991.521	4378.85
991.819	4354.67
992.116	4238.07
992.413	4274.9
992.71	4252.76
993.006	4154.23
993.303	4223.6
993.6	4175.92
993.897	4178.86
994.193	4149.71
994.49	4127.11
994.787	4117.62
995.083	4071.97
995.379	4046.66
995.676	4034
995.972	4023.16
996.268	4012.54
996.565	3912.88
996.861	3946.32
997.157	3937.74
997.453	3909.94
997.749	3874.91
998.044	3845.31
998.34	3861.81
998.636	3829.94
998.932	3826.55
999.227	3811.41
999.523	3786.1
999.818	3755.37
1000.114	3708.14
1000.409	3704.3
1000.704	3689.38
1001	3700.91
1001.295	3616.61
1001.59	3633.11
1001.885	3567.12
1002.18	3587.01
1002.475	3568.93
1002.77	3538.88
1003.065	3558.54
1003.359	3497.07
1003.654	3492.78
1003.949	3465.21
1004.243	3421.14
1004.538	3424.98
1004.832	3386.56
1005.127	3377.98
1005.421	3349.95
1005.715	3328.71
1006.009	3292.78
1006.304	3260.47
1006.598	3253.69
1006.892	3264.76
1007.186	3197.42
1007.48	3212.78
1007.773	3218.21
1008.067	3158.32
1008.361	3169.39
1008.655	3130.3
1008.948	3128.27
1009.242	3079.68
1009.535	3080.81
1009.829	3061.37
1010.122	3078.1
1010.415	2983.41
1010.708	3004.43
1011.001	3000.36
1011.295	2985.44
1011.588	2943.64
1011.881	2926.69
1012.173	2901.83
1012.466	2891.66
1012.759	2855.28
1013.052	2858.89
1013.344	2855.73
1013.637	2826.58
1013.93	2808.05
1014.222	2806.92
1014.514	2773.25
1014.807	2757.65
1015.099	2732.12
1015.391	2690.99
1015.683	2682.85
1015.976	2690.99
1016.268	2693.47
1016.56	2653.02
1016.851	2599.69
1017.143	2608.96
1017.435	2586.36
1017.727	2566.7
1018.018	2552.24
1018.31	2534.83
1018.602	2538.45
1018.893	2495.06
1019.185	2490.99
1019.476	2491.45
1019.767	2473.14
1020.058	2400.83
1020.35	2424.33
1020.641	2390.66
1020.932	2383.43
1021.223	2375.97
1021.514	2388.17
1021.804	2307.95
1022.095	2318.12
1022.386	2280.83
1022.677	2260.27
1022.967	2257.78
1023.258	2215.29
1023.548	2245.12
1023.839	2246.25
1024.129	2227.95
1024.419	2173.49
1024.709	2165.58
1025	2165.8
1025.29	2162.19
1025.58	2121.29
1025.87	2107.73
1026.16	2088.07
1026.449	2078.58
1026.739	2048.75
1027.029	2063.66
1027.319	2018.92
1027.608	2044
1027.898	2017.56
1028.187	2024.57
1028.477	1978.92
1028.766	1970.1
1029.055	1955.19
1029.344	1966.94
1029.634	1924.68
1029.923	1904.12
1030.212	1908.64
1030.501	1893.04
1030.79	1882.87
1031.078	1848.52
1031.367	1846.72
1031.656	1845.14
1031.945	1826.6
1032.233	1788.87
1032.522	1789.09
1032.81	1778.02
1033.099	1781.63
1033.387	1762.88
1033.675	1734.4
1033.963	1715.65
1034.251	1722.2
1034.54	1710.22
1034.828	1703.67
1035.116	1645.82
1035.403	1677.23
1035.691	1664.57
1035.979	1651.02
1036.267	1632.71
1036.554	1625.93
1036.842	1623.67
1037.129	1613.28
1037.417	1582.54
1037.704	1557.01
1037.992	1544.35
1038.279	1558.81
1038.566	1551.81
1038.853	1551.81
1039.14	1551.81
