Data from 17-5722_FLMS001491_004.txt Node
Date: Thu Apr 19 15:14:35 BST 2018
User: hsy
Spectrometer: FLMS00149
Trigger mode: 0
Integration Time (sec): 1.000000E-2
Scans to average: 10
Electric dark correction enabled: true
Nonlinearity correction enabled: false
Boxcar width: 0
XAxis mode: Wavelengths
Number of Pixels in Spectrum: 2048
>>>>>Begin Spectral Data<<<<<
341.393	1.81
341.776	1.81
342.16	1.81
342.543	-69.38
342.927	-65.31
343.31	-65.99
343.693	-63.95
344.077	-67.57
344.46	-52.2
344.843	-57.63
345.226	-33.22
345.61	-38.42
345.993	-18.53
346.376	-28.7
346.759	26.67
347.142	19.43
347.525	47.91
347.908	64.18
348.291	66.66
348.674	87
349.057	114.35
349.44	111.18
349.823	138.98
350.206	177.62
350.588	221.24
350.971	219.66
351.354	263.04
351.737	256.72
352.119	259.2
352.502	296.72
352.884	304.17
353.267	321.57
353.65	327
354.032	332.19
354.414	327.68
354.797	329.71
355.179	350.5
355.562	352.31
355.944	342.14
356.326	364.06
356.709	365.19
357.091	381.91
357.473	376.26
357.855	371.97
358.238	388.01
358.62	381.23
359.002	360.22
359.384	385.53
359.766	366.77
360.148	383.27
360.53	373.32
360.912	390.05
361.294	374
361.676	383.04
362.057	350.5
362.439	377.62
362.821	365.19
363.203	383.49
363.584	367.45
363.966	386.43
364.348	373.32
364.729	366.32
365.111	355.24
365.493	376.26
365.874	380.33
366.256	374.91
366.637	367.9
367.019	354.57
367.4	367.22
367.781	367.45
368.163	364.96
368.544	351.4
368.925	358.18
369.306	364.74
369.688	362.02
370.069	374.23
370.45	370.16
370.831	363.15
371.212	360.22
371.593	363.15
371.974	352.53
372.355	353.21
372.736	383.72
373.117	375.13
373.498	376.26
373.879	363.83
374.26	351.4
374.641	358.86
375.021	368.35
375.402	406.54
375.783	392.98
376.163	380.78
376.544	411.51
376.925	393.89
377.305	384.62
377.686	365.64
378.066	393.21
378.447	402.25
378.827	381.23
379.208	395.02
379.588	409.25
379.968	405.41
380.349	401.8
380.729	419.42
381.109	399.54
381.489	422.36
381.87	416.03
382.25	409.25
382.63	425.3
383.01	419.88
383.39	430.95
383.77	413.77
384.15	434.79
384.53	425.3
384.91	438.63
385.29	450.84
385.67	457.84
386.049	452.87
386.429	439.76
386.809	442.25
387.189	460.55
387.568	467.11
387.948	466.88
388.328	451.97
388.707	466.65
389.087	479.08
389.466	464.39
389.846	460.55
390.225	455.13
390.605	481.34
390.984	463.72
391.363	465.07
391.743	520.89
392.122	498.97
392.501	479.76
392.881	509.82
393.26	491.96
393.639	494.9
394.018	518.18
394.397	517.5
394.776	516.6
395.155	521.12
395.534	528.12
395.913	506.2
396.292	539.19
396.671	538.52
397.05	545.3
397.429	537.61
397.808	578.52
398.186	556.82
398.565	554.34
398.944	569.02
399.323	559.76
399.701	566.54
400.08	583.49
400.458	581
400.837	594.33
401.215	599.76
401.594	592.98
401.972	602.47
402.351	593.43
402.729	592.53
403.107	608.12
403.486	622.36
403.864	624.62
404.242	617.61
404.62	648.34
404.999	635.24
405.377	646.31
405.755	637.27
406.133	659.87
406.511	650.38
406.889	652.41
407.267	688.57
407.645	672.52
408.023	656.48
408.401	675.91
408.779	689.93
409.156	726.31
409.534	717.04
409.912	730.83
410.29	751.84
410.667	733.77
411.045	754.56
411.422	787.78
411.8	753.2
412.178	759.53
412.555	815.57
412.933	786.42
413.31	813.09
413.687	800.88
414.065	824.39
414.442	829.81
414.819	849.47
415.197	862.8
415.574	866.42
415.951	863.03
416.328	877.49
416.705	900.54
417.082	902.12
417.46	882.69
417.837	902.8
418.214	914.78
418.591	928.79
418.967	893.76
419.344	912.97
419.721	940.54
420.098	930.37
420.475	921.33
420.852	942.35
421.228	947.77
421.605	983.93
421.982	996.58
422.358	1004.49
422.735	998.17
423.111	1011.5
423.488	1006.75
423.864	1009.01
424.241	1026.19
424.617	1050.37
424.994	1048.11
425.37	1076.13
425.746	1099.18
426.123	1098.05
426.499	1083.14
426.875	1112.97
427.251	1134.66
427.627	1178.05
428.003	1138.73
428.379	1173.53
428.756	1180.53
429.132	1207.88
429.507	1231.15
429.883	1211.27
430.259	1231.38
430.635	1241.1
431.011	1246.97
431.387	1272.96
431.763	1272.51
432.138	1297.37
432.514	1334.65
432.89	1317.93
433.265	1354.09
433.641	1370.36
434.016	1382.79
434.392	1388.44
434.767	1414.65
435.143	1447.19
435.518	1439.28
435.894	1460.07
436.269	1485.84
436.644	1480.87
437.02	1528.1
437.395	1532.84
437.77	1539.85
438.145	1583.91
438.52	1611.94
438.895	1586.62
439.271	1582.11
439.646	1620.07
440.021	1626.17
440.395	1668.66
440.77	1606.74
441.145	1644.25
441.52	1685.38
441.895	1667.98
442.27	1696.23
442.645	1725.83
443.019	1738.49
443.394	1698.94
443.769	1725.15
444.143	1705.27
444.518	1770.8
444.892	1742.1
445.267	1770.8
445.641	1779.61
446.016	1768.54
446.39	1824.58
446.764	1823
447.139	1826.84
447.513	1842.89
447.887	1841.53
448.262	1846.73
448.636	1872.95
449.01	1903.68
449.384	1916.56
449.758	1903.9
450.132	1939.84
450.506	1973.51
450.88	1974.19
451.254	1971.25
451.628	2000.17
452.002	2032.04
452.376	2055.09
452.75	2071.58
453.123	2054.64
453.497	2102.32
453.871	2131.47
454.244	2145.93
454.618	2197.68
454.992	2221.64
455.365	2218.92
455.739	2282.88
456.112	2313.39
456.486	2326.04
456.859	2332.59
457.232	2377.34
457.606	2418.02
457.979	2413.95
458.352	2513.61
458.725	2481.52
459.099	2517
459.472	2565.36
459.845	2591.34
460.218	2604.45
460.591	2657.56
460.964	2684
461.337	2665.47
461.71	2749.76
462.083	2796.76
462.456	2784.79
462.829	2822.75
463.201	2864.56
463.574	2898.45
463.947	2910.66
464.32	2942.97
464.692	2984.55
465.065	3023.42
465.438	3061.61
465.81	3076.08
466.183	3087.6
466.555	3187.71
466.928	3163.31
467.3	3173.48
467.672	3231.1
468.045	3304.09
468.417	3274.04
468.789	3319.46
469.161	3359.69
469.534	3426.12
469.906	3510.64
470.278	3561.94
470.65	3572.11
471.022	3611.2
471.394	3691.88
471.766	3722.84
472.138	3758.09
472.51	3828.15
472.882	3886.45
473.253	3905.89
473.625	3942.95
473.997	4053.23
474.369	4112.66
474.74	4131.19
475.112	4190.85
475.484	4243.28
475.855	4333.67
476.227	4347.91
476.598	4462.71
476.97	4501.12
477.341	4643.27
477.713	4682.36
478.084	4746.32
478.455	4867.22
478.827	4900.44
479.198	5068.79
479.569	5037.16
479.94	5232.4
480.311	5244.83
480.682	5392.4
481.053	5511.49
481.424	5563.47
481.795	5664.26
482.166	5811.6
482.537	5853.86
482.908	6007.07
483.279	6034.64
483.65	6207.52
484.021	6311.47
484.391	6403.45
484.762	6493.39
485.133	6617.23
485.503	6642.09
485.874	6810.89
486.244	6918.69
486.615	7074.62
486.985	7142.41
487.356	7315.06
487.726	7396.64
488.097	7608.84
488.467	7715.96
488.837	7865.33
489.207	7966.34
489.578	8138.77
489.948	8274.58
490.318	8367.46
490.688	8517.74
491.058	8646.55
491.428	8765.42
491.798	8950.73
492.168	9091.74
492.538	9199.98
492.908	9401.33
493.278	9521.56
493.648	9600.43
494.017	9716.35
494.387	9921.77
494.757	10032.5
495.126	10176
495.496	10250.35
495.866	10426.84
496.235	10550.46
496.605	10724.01
496.974	10790.9
497.344	11023.66
497.713	11131.46
498.082	11230.89
498.452	11420.72
498.821	11575.74
499.19	11677.66
499.559	11763.31
499.928	11932.12
500.298	11984.54
500.667	12308.83
501.036	12248.94
501.405	12447.36
501.774	12484.42
502.143	12806.22
502.512	12841.7
502.88	13044.85
503.249	13100.45
503.618	13214.79
503.987	13272.87
504.356	13500.66
504.724	13598.51
505.093	13678.74
505.462	13762.12
505.83	13930.03
506.199	14042.57
506.567	14244.15
506.936	14308.1
507.304	14496.34
507.672	14567.07
508.041	14646.39
508.409	14755.54
508.777	14993.28
509.145	15058.36
509.514	15124.8
509.882	15227.62
510.25	15380.16
510.618	15494.28
510.986	15496.32
511.354	15668.97
511.722	15855.85
512.09	15972.46
512.458	15962.07
512.826	16139.01
513.193	16128.16
513.561	16344.43
513.929	16429.4
514.297	16645.66
514.664	16666.23
515.032	16828.03
515.4	16934.47
515.767	17068.93
516.135	17065.31
516.502	16960.91
516.869	17277.51
517.237	17344.18
517.604	17216.5
517.972	17527.67
518.339	17671.17
518.706	17740.1
519.073	17671.4
519.44	17833.43
519.808	18070.71
520.175	18112.97
520.542	18258.05
520.909	18319.07
521.276	18376.92
521.643	18635.22
522.009	18678.83
522.376	18760.41
522.743	18926.28
523.11	18990.01
523.477	19179.38
523.843	19228.65
524.21	19469.54
524.577	19546.6
524.943	19580.05
525.31	19674.74
525.676	19784.34
526.043	19952.47
526.409	20088.96
526.776	20210.54
527.142	20186.36
527.508	20262.29
527.874	20497.54
528.241	20607.59
528.607	20621.38
528.973	20759.23
529.339	20798.78
529.705	21023.18
530.071	20995.38
530.437	21070.18
530.803	21318.54
531.169	21262.27
531.535	21303.17
531.901	21431.53
532.267	21443.73
532.632	21591.3
532.998	21472.88
533.364	21610.05
533.73	21766.43
534.095	21843.72
534.461	21815.92
534.826	21834.68
535.192	21870.61
535.557	22059.08
535.923	22071.06
536.288	22084.17
536.653	22124.62
537.019	22064.73
537.384	22207.1
537.749	22209.81
538.114	22201
538.479	22177.95
538.845	22181.56
539.21	22219.98
539.575	22174.33
539.94	22263.14
540.305	22329.81
540.67	22256.14
541.034	22228.57
541.399	22274.89
541.764	22266.53
542.129	22367.77
542.494	22234.44
542.858	22297.94
543.223	22199.64
543.587	22436.7
543.952	22274.89
544.316	22267.44
544.681	22246.42
545.045	22342.24
545.41	22305.63
545.774	22197.38
546.138	22298.17
546.503	22302.69
546.867	22323.93
547.231	22367.1
547.595	22354.44
547.959	22289.13
548.324	22367.1
548.688	22352.18
549.052	22399.86
549.416	22265.63
549.779	22198.96
550.143	22217.49
550.507	22417.94
550.871	22496.13
551.235	22232.41
551.599	22368.23
551.962	22371.16
552.326	22415.91
552.689	22421.33
553.053	22262.24
553.417	22228.12
553.78	22492.52
554.143	22406.19
554.507	22376.81
554.87	22417.26
555.234	22597.82
555.597	22365.06
555.96	22533.87
556.323	22517.15
556.686	22475.57
557.05	22552.85
557.413	22624.94
557.776	22612.06
558.139	22680.53
558.502	22698.39
558.865	22589.69
559.228	22747.2
559.59	22819.51
559.953	22820.64
560.316	22977.25
560.679	22782.23
561.041	22925.72
561.404	23141.99
561.767	23091.37
562.129	23009.56
562.492	23195.1
562.854	23224.7
563.217	23175.66
563.579	23281.87
563.941	23297.24
564.304	23475.99
564.666	23648.19
565.028	23557.12
565.39	23631.92
565.753	23682.32
566.115	23753.05
566.477	23794.63
566.839	23767.96
567.201	24146.71
567.563	24017.67
567.925	24248.63
568.287	24255.41
568.648	24194.62
569.01	24315.74
569.372	24478.9
569.734	24448.4
570.095	24631.22
570.457	24654.27
570.819	24717.32
571.18	24685.45
571.542	24960.93
571.903	24921.38
572.265	25044.77
572.626	25066.01
572.987	25127.7
573.349	25283.18
573.71	25349.84
574.071	25389.16
574.432	25415.15
574.794	25557.75
575.155	25506
575.516	25555.03
575.877	25696.5
576.238	25734.46
576.599	25809.49
576.96	25985.76
577.32	25827.57
577.681	25984.4
578.042	26215.13
578.403	26213.77
578.763	26051.07
579.124	26057.85
579.485	26290.83
579.845	26345.52
580.206	26321.79
580.566	26266.43
580.927	26407.89
581.287	26405.18
581.648	26294.68
582.008	26485.63
582.368	26581.22
582.728	26534.22
583.089	26439.53
583.449	26538.96
583.809	26658.51
584.169	26678.17
584.529	26507.55
584.889	26762.01
585.249	26636.36
585.609	26574.89
585.969	26709.81
586.329	26691.73
586.688	26725.17
587.048	26705.96
587.408	26825.96
587.768	26799.75
588.127	26775.12
588.487	26738.05
588.846	26929.24
589.206	26744.61
589.565	26695.8
589.925	27016.46
590.284	26867.54
590.643	26874.55
591.003	26850.14
591.362	27081.77
591.721	27066.18
592.08	26955
592.44	27037.93
592.799	27101.89
593.158	26954.32
593.517	27016.92
593.876	27240.41
594.235	27049.68
594.593	26977.37
594.952	27087.65
595.311	27114.09
595.67	27147.08
596.029	27262.79
596.387	27305.5
596.746	27370.13
597.104	27240.41
597.463	27150.47
597.822	27270.02
598.18	27129.46
598.538	27228.66
598.897	27390.69
599.255	27052.17
599.613	27428.21
599.972	27320.64
600.33	27296.68
600.688	27188.21
601.046	27453.74
601.404	27452.39
601.762	27422.1
602.12	27527.64
602.478	27639.95
602.836	27488.32
603.194	27389.56
603.552	27511.59
603.91	27441.54
604.268	27562.67
604.625	27529.67
604.983	27574.87
605.341	27514.98
605.698	27613.29
606.056	27827.97
606.413	27678.14
606.771	27877.01
607.128	27745.94
607.485	27686.5
607.843	27727.86
608.2	27860.28
608.557	27892.37
608.914	27986.61
609.272	27936.44
609.629	28092.82
609.986	28205.81
610.343	28020.73
610.7	28241.97
611.057	28093.72
611.414	28207.39
611.771	28346.83
612.127	28306.83
612.484	28289.65
612.841	28285.58
613.198	28349.09
613.554	28316.77
613.911	28532.36
614.267	28571.68
614.624	28610.32
614.98	28629.76
615.337	28728.74
615.693	28728.96
616.05	28744.78
616.406	28939.35
616.762	28820.03
617.118	28722.41
617.475	28675.4
617.831	28966.24
618.187	28999.01
618.543	28963.98
618.899	29091.44
619.255	29091.89
619.611	29051.67
619.967	29048.28
620.323	29236.52
620.678	29192.9
621.034	29021.16
621.39	29100.48
621.746	29099.12
622.101	29465.89
622.457	29169.4
622.812	29373.24
623.168	29385.89
623.523	29291.43
623.879	29422.5
624.234	29278.1
624.589	29351.09
624.945	29248.95
625.3	29371.66
625.655	29422.5
626.01	29500.47
626.365	29307.7
626.72	29440.36
627.075	29330.3
627.43	29420.02
627.785	29200.59
628.14	29210.76
628.495	29456.4
628.85	29425.44
629.205	29351.77
629.559	29453.24
629.914	29125.79
630.269	29235.84
630.623	29111.55
630.978	28944.55
631.332	29198.55
631.687	29235.16
632.041	28987.71
632.396	29165.56
632.75	29041.72
633.104	29071.1
633.459	28992.91
633.813	28997.66
634.167	29027.03
634.521	29022.06
634.875	28990.42
635.229	28844.44
635.583	28627.04
635.937	28823.2
636.291	28684.9
636.645	28731
636.999	28646.7
637.352	28702.3
637.706	28441.51
638.06	28616.65
638.413	28586.59
638.767	28429.76
639.121	28549.76
639.474	28391.12
639.828	28399.71
640.181	28336.66
640.534	28515.63
640.888	28444.9
641.241	28234.51
641.594	28417.78
641.947	28404.68
642.301	28344.11
642.654	28273.38
643.007	28248.52
643.36	28319.93
643.713	28172.59
644.066	28302.76
644.419	28094.4
644.771	27837.91
645.124	27554.53
645.477	27550.01
645.83	27413.97
646.182	27406.96
646.535	27493.74
646.888	27508.2
647.24	27406.29
647.593	27599.27
647.945	27541.42
648.298	27435.21
648.65	27188.66
649.002	27168.33
649.355	26942.57
649.707	26967.65
650.059	26916.35
650.411	27361.54
650.763	27639.5
651.115	27993.84
651.467	27876.56
651.819	27881.98
652.171	27861.64
652.523	27743
652.875	27691.93
653.227	27615.55
653.578	27904.13
653.93	27859.15
654.282	27757.01
654.633	27721.76
654.985	27741.19
655.337	27899.38
655.688	27867.74
656.039	27968.76
656.391	27672.49
656.742	27790
657.094	27906.38
657.445	27822.32
657.796	27913.39
658.147	27721.98
658.498	27878.59
658.849	28101.63
659.2	27883.56
659.551	27891.24
659.902	28000.62
660.253	27862.77
660.604	28063.89
660.955	28004.69
661.306	28083.78
661.656	28027.51
662.007	28015.76
662.358	28149.77
662.708	28089.88
663.059	28047.85
663.409	27971.47
663.76	28099.15
664.11	28131.92
664.461	28235.42
664.811	28152.25
665.161	28265.47
665.511	28233.16
665.862	28138.7
666.212	28275.41
666.562	28234.74
666.912	28215.76
667.262	28318.13
667.612	28213.5
667.962	28301.4
668.312	28327.16
668.662	28415.3
669.011	28404.45
669.361	28349.54
669.711	28204
670.06	28268.41
670.41	28310.89
670.76	28371.91
671.109	28377.56
671.459	28298.46
671.808	28224.57
672.157	28313.15
672.507	28132.59
672.856	28161.52
673.205	28067.28
673.554	28238.13
673.904	28110.67
674.253	28383.89
674.602	28101.41
674.951	27813.05
675.3	27470.24
675.649	28068.87
675.998	28007.17
676.346	28131.69
676.695	27920.4
677.044	27948.19
677.393	27813.05
677.741	28025.25
678.09	27782.77
678.438	27732.15
678.787	27817.12
679.135	27769.67
679.484	27670.46
679.832	27787.74
680.181	27700.29
680.529	27679.72
680.877	27505.49
681.225	27488.99
681.573	27704.13
681.922	27542.78
682.27	27305.5
682.618	27256.68
682.966	27290.58
683.314	27247.87
683.661	27268.44
684.009	27095.78
684.357	27070.47
684.705	27081.77
685.053	26996.13
685.4	26840.2
685.748	26772.86
686.095	26735.79
686.443	26699.41
686.79	26555.01
687.138	26781.67
687.485	26682.01
687.832	26449.93
688.18	26505.52
688.527	26345.52
688.874	26345.52
689.221	26196.15
689.568	26188.24
689.915	26047.9
690.262	26134.23
690.609	25883.84
690.956	25772.43
691.303	25835.93
691.65	25622.6
691.997	25604.75
692.344	25428.26
692.69	25259.45
693.037	25342.16
693.383	25041.6
693.73	25120.92
694.077	25011.77
694.423	24937.42
694.769	24876.63
695.116	24796.64
695.462	24638
695.808	24591.67
696.155	24724.32
696.501	24480.94
696.847	24404.33
697.193	24181.29
697.539	24299.93
697.885	24115.3
698.231	23911.24
698.577	23817.68
698.923	23713.05
699.269	23470.34
699.614	23501.98
699.96	23389.44
700.306	23395.99
700.651	23280.52
700.997	23085.49
701.342	23033.97
701.688	23043.69
702.033	23027.64
702.379	22938.15
702.724	22835.33
703.069	22847.76
703.415	22473.53
703.76	22501.33
704.105	22505.62
704.45	22411.61
704.795	22332.97
705.14	22110.61
705.485	22256.59
705.83	22021.57
706.175	22115.8
706.52	22063.37
706.865	21885.07
707.209	21854.79
707.554	21795.36
707.899	21646.89
708.243	21640.33
708.588	21619.77
708.932	21447.35
709.277	21520.11
709.621	21516.95
709.966	21206.9
710.31	21344.3
710.654	21135.49
710.998	21114.7
711.342	21113.34
711.687	21050.07
712.031	21032.44
712.375	20949.51
712.719	20954.7
713.063	20753.13
713.407	20973.69
713.75	20872.67
714.094	20768.27
714.438	20722.84
714.782	20708.61
715.125	20639.23
715.469	20641.94
715.812	20553.58
716.156	20549.52
716.499	20555.39
716.843	20569.18
717.186	20385.45
717.53	20516.3
717.873	20553.81
718.216	20589.52
718.559	20523.53
718.902	20287.15
719.246	20335.96
719.589	20462.06
719.932	20295.96
720.275	20380.71
720.617	20316.98
720.96	20330.76
721.303	20293.7
721.646	20333.93
721.989	20198.11
722.331	20263.65
722.674	20273.37
723.016	20315.17
723.359	20260.03
723.701	20269.3
724.044	20227.26
724.386	20107.95
724.729	20260.94
725.071	20201.05
725.413	20201.73
725.755	20208.28
726.097	20095.52
726.439	20098.23
726.782	19979.81
727.124	20297.09
727.465	20160.83
727.807	19975.75
728.149	20282.63
728.491	20138.91
728.833	20226.81
729.175	20167.61
729.516	20188.4
729.858	20156.76
730.199	20280.82
730.541	20228.39
730.882	20192.69
731.224	20293.48
731.565	20199.24
731.906	20232.24
732.248	20338.9
732.589	20269.52
732.93	20348.84
733.271	20384.55
733.612	20336.64
733.953	20571.89
734.294	20380.48
734.635	20423.19
734.976	20503.87
735.317	20518.1
735.658	20561.04
735.999	20529.18
736.339	20626.8
736.68	20652.11
737.021	20720.36
737.361	20653.69
737.702	20890.3
738.042	20866.34
738.383	20995.15
738.723	21114.25
739.063	20954.48
739.404	21136.17
739.744	21191.31
740.084	21086.45
740.424	21221.81
740.764	21382.26
741.104	21475.14
741.444	21540.22
741.784	21581.58
742.124	21538.87
742.464	21706.1
742.804	21774.79
743.143	21832.87
743.483	22096.37
743.823	21960.1
744.162	22147.67
744.502	22253.65
744.841	22455.45
745.181	22481.89
745.52	22529.8
745.86	22764.6
746.199	23029
746.538	23038.72
746.877	23307.18
747.216	23299.27
747.556	23457.24
747.895	23635.99
748.234	23762.54
748.573	23919.6
748.911	24101.97
749.25	24246.37
749.589	24307.84
749.928	24674.38
750.267	24866.24
750.605	25002.73
750.944	25195.27
751.283	25390.74
751.621	25568.59
751.96	25741.92
752.298	25990.05
752.636	26234.79
752.975	26416.71
753.313	26573.99
753.651	26962.91
753.989	26999.74
754.327	27293.29
754.666	27382.56
755.004	27652.38
755.342	27929.66
755.679	28218.69
756.017	28179.82
756.355	28669.75
756.693	28786.14
757.031	29286.69
757.368	29266.58
757.706	29516.51
758.044	29612.78
758.381	29928.25
758.719	30099.1
759.056	30342.48
759.394	30629.7
759.731	30665.18
760.068	30892.52
760.405	31317.82
760.743	31238.27
761.08	31612.5
761.417	31695.66
761.754	31864.02
762.091	32169.1
762.428	32191.47
762.765	32341.52
763.102	32570.22
763.438	32709.87
763.775	32746.26
764.112	32951.45
764.449	33131.11
764.785	33303.08
765.122	33437.54
765.458	33461.72
765.795	33653.13
766.131	33835.27
766.467	33950.29
766.804	33905.32
767.14	34006.34
767.476	34064.42
767.812	34177.63
768.148	34425.54
768.485	34367.23
768.821	34371.75
769.157	34400.9
769.492	34560
769.828	34601.8
770.164	34508.02
770.5	34490.84
770.836	34662.37
771.171	34576.27
771.507	34622.37
771.842	34551.63
772.178	34762.25
772.513	34610.62
772.849	34763.38
773.184	34771.06
773.519	34736.49
773.855	34697.17
774.19	34690.84
774.525	34595.25
774.86	34760.67
775.195	34760.22
775.53	34565.42
775.865	34589.15
776.2	34531.07
776.535	34330.85
776.87	34561.8
777.205	34229.83
777.539	34190.06
777.874	34375.37
778.209	34084.3
778.543	34279.55
778.878	34044.08
779.212	34082.49
779.547	33963.4
779.881	34063.51
780.215	33872.1
780.55	33911.88
780.884	33637.99
781.218	33631.21
781.552	33835.49
781.886	33574.26
782.22	33356.41
782.554	33304.89
782.888	33169.98
783.222	33170.65
783.556	32985.12
783.889	32984.67
784.223	32852.92
784.557	32817.67
784.89	32962.75
785.224	32679.82
785.557	32518.69
785.891	32553.49
786.224	32563.44
786.558	32505.59
786.891	32410
787.224	32072.15
787.557	32121.64
787.891	32228.98
788.224	32008.2
788.557	32141.3
788.89	31932.95
789.223	31857.02
789.556	31667.64
789.888	31593.07
790.221	31592.39
790.554	31445.73
790.887	31367.76
791.219	31258.61
791.552	31267.2
791.884	31047.77
792.217	31053.65
792.549	30953.99
792.882	30782.47
793.214	30666.31
793.546	30848.45
793.879	30679.19
794.211	30499.99
794.543	30649.36
794.875	30486.88
795.207	30470.16
795.539	30415.47
795.871	30425.87
796.203	30146.33
796.535	30071.07
796.867	30074.92
797.198	29973.68
797.53	29937.29
797.862	29725.55
798.193	29747.47
798.525	29651.2
798.856	29763.06
799.188	29350.87
799.519	29168.05
799.85	29224.32
800.182	29167.82
800.513	29233.36
800.844	28945.23
801.175	29169.85
801.506	29150.65
801.837	28951.56
802.168	28929.41
802.499	28949.52
802.83	28666.36
803.161	28621.85
803.491	28609.87
803.822	28778.68
804.153	28533.04
804.483	28404.9
804.814	28156.32
805.145	28288.75
805.475	28277.22
805.805	28224.12
806.136	28149.09
806.466	27994.74
806.796	28041.97
807.126	27829.55
807.457	27766.28
807.787	27861.87
808.117	27735.77
808.447	27474.53
808.777	27664.13
809.107	27467.98
809.436	27459.39
809.766	27332.39
810.096	27376.68
810.426	27338.49
810.755	27395.89
811.085	27301.88
811.414	27232.28
811.744	27002.68
812.073	27115.45
812.403	26943.47
812.732	26933.98
813.061	27098.27
813.39	26735.34
813.719	26780.54
814.049	26852.4
814.378	26768.34
814.707	26654.21
815.036	26555.23
815.365	26402.92
815.693	26318.4
816.022	26349.59
816.351	26282.25
816.68	26100.1
817.008	26334
817.337	26078.18
817.665	26056.26
817.994	26036.38
818.322	26150.72
818.651	25932.2
818.979	25903.27
819.307	25933.78
819.636	25949.83
819.964	25754.13
820.292	25947.57
820.62	25823.5
820.948	25889.49
821.276	25905.53
821.604	25838.64
821.932	25943.27
822.259	25884.97
822.587	25804.52
822.915	25821.47
823.243	25923.16
823.57	25875.7
823.898	25962.48
824.225	26000.67
824.553	25899.88
824.88	25906.44
825.207	26068.47
825.535	25918.87
825.862	26049.94
826.189	25947.34
826.516	26146.88
826.843	26101.69
827.17	26056.49
827.497	26237.95
827.824	26080.67
828.151	26101.91
828.478	26013.1
828.805	26118.18
829.131	25982.37
829.458	26049.48
829.785	25964.52
830.111	26011.07
830.438	26268.69
830.764	26110.05
831.09	26173.1
831.417	26047.22
831.743	26210.38
832.069	26040.67
832.395	25990.05
832.722	25955.7
833.048	25908.92
833.374	26126.54
833.7	25932.88
834.026	26043.16
834.351	25933.78
834.677	26019.65
835.003	25950.5
835.329	25904.86
835.654	25923.39
835.98	25824.63
836.306	26015.14
836.631	25892.2
836.956	26094.46
837.282	26050.39
837.607	25746.89
837.932	25852.65
838.258	25822.6
838.583	25765.88
838.908	25593.23
839.233	25864.4
839.558	25572.66
839.883	25584.41
840.208	25434.81
840.533	25439.56
840.858	25466.45
841.182	25425.09
841.507	25439.78
841.832	25335.61
842.156	25354.59
842.481	25389.84
842.805	25175.61
843.13	25095.84
843.454	25104.65
843.778	25056.29
844.103	25155.27
844.427	24975.84
844.751	24993.69
845.075	24892.68
845.399	24917.54
845.723	24857.43
846.047	24814.49
846.371	24504.21
846.695	24455.85
847.019	24412.47
847.343	24247.05
847.666	24254.73
847.99	24111.68
848.313	23981.74
848.637	23944.68
848.96	23908.07
849.284	24035.3
849.607	23648.19
849.931	23567.06
850.254	23439.84
850.577	23440.97
850.9	23195.1
851.223	23233.74
851.546	23103.8
851.869	22985.61
852.192	23235.32
852.515	22789.68
852.838	22863.13
853.161	22784.26
853.483	22684.15
853.806	22599.63
854.129	22573.42
854.451	22614.77
854.774	22421.78
855.096	22349.24
855.419	22160.55
855.741	22274.89
856.063	22092.98
856.385	21956.48
856.708	21916.49
857.03	21883.27
857.352	21859.76
857.674	21890.05
857.996	21686.89
858.318	21533.67
858.64	21612.77
858.961	21442.15
859.283	21501.36
859.605	21335.71
859.926	21442.83
860.248	21348.37
860.57	21175.04
860.891	21123.74
861.212	21058.88
861.534	21025.89
861.855	20967.13
862.176	20989.96
862.498	20990.41
862.819	20962.84
863.14	20892.78
863.461	20864.08
863.782	20724.65
864.103	20847.59
864.424	20675.39
864.745	20781.83
865.065	20649.85
865.386	20574.37
865.707	20628.61
866.027	20582.51
866.348	20494.38
866.668	20425.45
866.989	20389.07
867.309	20269.75
867.63	20291.44
867.95	20345.91
868.27	20134.61
868.59	20312.91
868.91	20170.32
869.23	20062.75
869.55	20045.12
869.87	20168.96
870.19	20020.49
870.51	20092.58
870.83	20094.16
871.15	19895.75
871.469	19927.61
871.789	19989.08
872.109	19923.09
872.428	19787.5
872.748	19819.82
873.067	19839.25
873.386	19832.02
873.706	19857.1
874.025	19728.07
874.344	19615.08
874.663	19774.85
874.982	19695.75
875.301	19594.74
875.62	19573.27
875.939	19437.68
876.258	19551.8
876.577	19382.99
876.896	19429.77
877.214	19395.65
877.533	19456.89
877.852	19423.67
878.17	19387.74
878.489	19392.26
878.807	19220.29
879.125	19170.12
879.444	19218.25
879.762	19119.5
880.08	19221.64
880.398	19047.18
880.716	19148.42
881.034	19148.65
881.352	19048.76
881.67	18975.55
881.988	18861.42
882.306	18785.72
882.624	18853.97
882.941	18728.77
883.259	18770.81
883.577	18738.26
883.894	18710.92
884.212	18692.84
884.529	18564.48
884.846	18426.63
885.164	18315
885.481	18439.97
885.798	18395.67
886.115	18358.39
886.432	18426.86
886.75	18339.63
887.067	18305.73
887.383	18301.89
887.7	18158.39
888.017	18005.4
888.334	18023.93
888.651	18018.96
888.967	17983.26
889.284	17873.65
889.6	17840.66
889.917	17787.55
890.233	17782.81
890.55	17810.83
890.866	17608.58
891.182	17684.51
891.498	17623.49
891.815	17451.97
892.131	17486.32
892.447	17397.06
892.763	17301.69
893.079	17358.41
893.395	17208.36
893.71	17213.78
894.026	17197.29
894.342	17130.85
894.657	17037.97
894.973	16942.38
895.289	16992.32
895.604	16898.09
895.92	16800.24
896.235	16798.2
896.55	16695.61
896.865	16586.46
897.181	16574.25
897.496	16495.16
897.811	16533.58
898.126	16419
898.441	16386.46
898.756	16291.55
899.071	16244.54
899.386	16189.18
899.7	16106.7
900.015	16015.62
900.33	15937.66
900.644	15909.64
900.959	15849.53
901.273	15754.61
901.588	15845.23
901.902	15698.34
902.216	15624
902.531	15625.35
902.845	15612.24
903.159	15476.66
903.473	15400.95
903.787	15308.75
904.101	15264.23
904.415	15333.83
904.729	15166.38
905.042	15125.03
905.356	15061.75
905.67	14997.57
905.984	15066.5
906.297	14951.92
906.611	14874.86
906.924	14806.39
907.237	14772.04
907.551	14718.48
907.864	14660.86
908.177	14629.9
908.491	14599.39
908.804	14426.74
909.117	14391.71
909.43	14272.62
909.743	14349.91
910.056	14321.66
910.368	14238.72
910.681	14140.65
910.994	14066.3
911.307	13989.69
911.619	13758.06
911.932	13932.06
912.244	13741.79
912.557	13841.9
912.869	13732.97
913.181	13705.18
913.494	13601.9
913.806	13585.18
914.118	13426.77
914.43	13487.78
914.742	13394.68
915.054	13248.92
915.366	13244.85
915.678	13182.7
915.99	13144.74
916.302	13104.06
916.613	12974.35
916.925	13021.35
917.236	12887.57
917.548	12816.61
917.859	12860
918.171	12785.88
918.482	12642.38
918.794	12645.32
919.105	12642.38
919.416	12498.2
919.727	12485.55
920.038	12536.85
920.349	12406.23
920.66	12341.6
920.971	12329.85
921.282	12256.85
921.593	12271.32
921.903	12147.03
922.214	12119.91
922.525	12034.71
922.835	12033.13
923.146	11835.62
923.456	11908.61
923.767	11716.08
924.077	11731.89
924.387	11686.7
924.697	11622.07
925.008	11663.2
925.318	11583.88
925.628	11549.75
925.938	11503.43
926.248	11466.14
926.558	11338.46
926.867	11335.3
927.177	11272.47
927.487	11228.18
927.796	11207.61
928.106	11183.43
928.416	11152.25
928.725	11080.84
929.034	11032.7
929.344	11046.94
929.653	10925.14
929.962	10825.7
930.271	10821.64
930.581	10819.6
930.89	10729.21
931.199	10687.4
931.508	10646.73
931.817	10601.53
932.125	10577.35
932.434	10551.81
932.743	10422.32
933.051	10396.56
933.36	10435.43
933.669	10304.14
933.977	10277.7
934.286	10235.89
934.594	10251.93
934.902	10183.01
935.21	10071.37
935.519	10081.54
935.827	10052.17
936.135	9958.38
936.443	9934.2
936.751	9850.81
937.059	9864.15
937.367	9772.85
937.674	9770.14
937.982	9739.63
938.29	9710.48
938.597	9674.32
938.905	9579.86
939.213	9555.68
939.52	9492.18
939.827	9503.7
940.135	9417.61
940.442	9386.87
940.749	9349.58
941.056	9403.59
941.363	9227.33
941.67	9231.4
941.977	9186.88
942.284	9143.94
942.591	9117.05
942.898	9073.43
943.205	9063.94
943.511	9034.79
943.818	8973.78
944.125	8894.46
944.431	8869.82
944.738	8881.12
945.044	8777.85
945.35	8783.27
945.657	8684.97
945.963	8671.41
946.269	8646.33
946.575	8599.55
946.881	8527.69
947.187	8538.31
947.493	8504.86
947.799	8508.02
948.105	8437.07
948.41	8410.63
948.716	8348.71
949.022	8342.38
949.327	8265.32
949.633	8136.96
949.938	8116.17
950.244	8144.64
950.549	8091.09
950.854	8003.18
951.16	8047.02
951.465	7987.36
951.77	7929.51
952.075	7952.33
952.38	7884.76
952.685	7851.09
952.99	7767.25
953.294	7793.92
953.599	7725.67
953.904	7710.76
954.209	7626.47
954.513	7655.39
954.818	7627.6
955.122	7592.57
955.426	7580.37
955.731	7466.02
956.035	7475.06
956.339	7376.08
956.643	7395.06
956.948	7363.2
957.252	7350.77
957.556	7283.65
957.86	7304.89
958.163	7230.09
958.467	7222.18
958.771	7191.22
959.075	7133.15
959.378	7102.64
959.682	7078.68
959.985	7071.68
960.289	7010.89
960.592	6971.34
960.896	6930.89
961.199	6974.73
961.502	6940.16
961.805	6875.53
962.108	6807.28
962.411	6846.83
962.714	6721.41
963.017	6737.22
963.32	6733.16
963.623	6679.15
963.926	6732.25
964.228	6614.97
964.531	6581.3
964.833	6573.16
965.136	6499.04
965.438	6458.59
965.741	6467.17
966.043	6447.74
966.345	6414.52
966.648	6317.8
966.95	6401.41
967.252	6308.08
967.554	6325.26
967.856	6313.73
968.158	6262.66
968.46	6215.88
968.761	6204.58
969.063	6172.04
969.365	6080.52
969.666	6104.47
969.968	6078.94
970.269	6023.8
970.571	6021.31
970.872	6004.81
971.174	5938.37
971.475	5978.83
971.776	5919.39
972.077	5886.4
972.378	5905.38
972.679	5861.54
972.98	5832.16
973.281	5809.11
973.582	5764.82
973.883	5714.65
974.183	5684.37
974.484	5670.13
974.785	5612.96
975.085	5582.45
975.386	5618.84
975.686	5570.48
975.986	5502.68
976.287	5535.67
976.587	5454.09
976.887	5467.43
977.187	5411.16
977.487	5418.84
977.787	5389.46
978.087	5359.63
978.387	5328
978.687	5273.31
978.987	5294.32
979.286	5276.02
979.586	5200.09
979.885	5195.12
980.185	5172.52
980.484	5150.37
980.784	5147.21
981.083	5131.62
981.382	5086.65
981.682	5103.14
981.981	5035.35
982.28	5061.34
982.579	4964.84
982.878	4984.5
983.177	4943.15
983.475	4980.89
983.774	4857.27
984.073	4895.01
984.372	4799.42
984.67	4855.69
984.969	4824.51
985.267	4815.47
985.566	4734.79
985.864	4749.48
986.162	4733.21
986.461	4660.22
986.759	4689.37
987.057	4663.15
987.355	4599.43
987.653	4604.62
987.951	4570.5
988.249	4550.39
988.547	4541.58
988.844	4499.09
989.142	4516.72
989.44	4452.31
989.737	4500.67
990.035	4454.57
990.332	4396.27
990.63	4403.5
990.927	4383.16
991.224	4347.46
991.521	4316.95
991.819	4309.49
992.116	4242.6
992.413	4251.41
992.71	4252.32
993.006	4236.5
993.303	4227.91
993.6	4177.29
993.897	4221.36
994.193	4165.31
994.49	4102.72
994.787	4075.37
995.083	4024.75
995.379	4058.42
995.676	4013.91
995.972	4011.19
996.268	4015.71
996.565	3942.5
996.861	3933.23
997.157	3955.38
997.453	3907.92
997.749	3900.24
998.044	3851.65
998.34	3875.38
998.636	3857.3
998.932	3803.52
999.227	3839.9
999.523	3745.44
999.818	3768.26
1000.114	3681.94
1000.409	3720.13
1000.704	3723.74
1001	3686.91
1001.295	3632.67
1001.59	3602.39
1001.885	3657.53
1002.18	3560.36
1002.475	3539.12
1002.77	3554.26
1003.065	3550.87
1003.359	3528.04
1003.654	3463.86
1003.949	3445.79
1004.243	3427.48
1004.538	3387.48
1004.832	3403.07
1005.127	3379.12
1005.421	3364.88
1005.715	3352.68
1006.009	3357.2
1006.304	3325.79
1006.598	3279.46
1006.892	3299.12
1007.186	3236.07
1007.48	3172.12
1007.773	3197.66
1008.067	3177.32
1008.361	3145.45
1008.655	3152.69
1008.948	3108.84
1009.242	3087.83
1009.535	3112.91
1009.829	3048.96
1010.122	3062.74
1010.415	2999.24
1010.708	3007.83
1011.001	2990.88
1011.295	2943.2
1011.588	2957.89
1011.881	2953.82
1012.173	2887.16
1012.466	2935.97
1012.759	2869.53
1013.052	2860.26
1013.344	2846.03
1013.637	2831.11
1013.93	2827.95
1014.222	2794.05
1014.514	2784.33
1014.807	2756.31
1015.099	2728.06
1015.391	2742.07
1015.683	2692.81
1015.976	2639.25
1016.268	2677.44
1016.56	2624.11
1016.851	2632.7
1017.143	2607.62
1017.435	2595.41
1017.727	2566.03
1018.018	2553.15
1018.31	2539.82
1018.602	2543.89
1018.893	2496.66
1019.185	2469.99
1019.476	2479.48
1019.767	2470.67
1020.058	2410.11
1020.35	2416.66
1020.641	2370.79
1020.932	2380.95
1021.223	2384.57
1021.514	2366.27
1021.804	2309.09
1022.095	2316.32
1022.386	2282.43
1022.677	2262.31
1022.967	2252.37
1023.258	2225.03
1023.548	2208.3
1023.839	2215.08
1024.129	2225.03
1024.419	2200.17
1024.709	2180.51
1025	2179.15
1025.29	2136.22
1025.58	2092.6
1025.87	2093.05
1026.16	2119.27
1026.449	2096.22
1026.739	2031.81
1027.029	2076.56
1027.319	2030.68
1027.608	2018.7
1027.898	2045.37
1028.187	1972.15
1028.477	1968.99
1028.766	1973.28
1029.055	1948.88
1029.344	1930.8
1029.634	1922.89
1029.923	1900.06
1030.212	1872.49
1030.501	1898.48
1030.79	1842.89
1031.078	1841.76
1031.367	1832.72
1031.656	1841.31
1031.945	1809.67
1032.233	1800.18
1032.522	1781.2
1032.81	1765.15
1033.099	1764.93
1033.387	1754.08
1033.675	1723.12
1033.963	1714.98
1034.251	1729.9
1034.54	1718.37
1034.828	1679.28
1035.116	1681.76
1035.403	1637.47
1035.691	1623.01
1035.979	1629.34
1036.267	1617.36
1036.554	1620.07
1036.842	1617.81
1037.129	1566.96
1037.417	1558.15
1037.704	1546.17
1037.992	1551.15
1038.279	1521.54
1038.566	1524.71
1038.853	1524.71
1039.14	1524.71
