Data from 17-5722_FLMS001491_009.txt Node
Date: Thu Apr 19 15:14:48 BST 2018
User: hsy
Spectrometer: FLMS00149
Trigger mode: 0
Integration Time (sec): 1.000000E-2
Scans to average: 10
Electric dark correction enabled: true
Nonlinearity correction enabled: false
Boxcar width: 0
XAxis mode: Wavelengths
Number of Pixels in Spectrum: 2048
>>>>>Begin Spectral Data<<<<<
341.393	-19.36
341.776	-19.36
342.16	-19.36
342.543	-62.98
342.927	-60.04
343.31	-57.1
343.693	-59.59
344.077	-74.5
344.46	-52.58
344.843	-43.32
345.226	-45.8
345.61	-62.98
345.993	-30.44
346.376	-9.65
346.759	18.83
347.142	30.13
347.525	44.59
347.908	50.24
348.291	76.23
348.674	89.79
349.057	126.17
349.44	125.04
349.823	152.38
350.206	176.79
350.588	233.74
350.971	233.06
351.354	268.99
351.737	249.78
352.119	261.53
352.502	294.3
352.884	295.66
353.267	332.72
353.65	337.46
354.032	344.47
354.414	347.86
354.797	351.25
355.179	352.6
355.562	350.34
355.944	381.08
356.326	361.87
356.709	377.01
357.091	368.87
357.473	386.05
357.855	370.68
358.238	373.62
358.62	373.39
359.002	385.37
359.384	376.78
359.766	387.86
360.148	382.21
360.53	389.21
360.912	367.07
361.294	364.58
361.676	369.55
362.057	384.47
362.439	384.69
362.821	365.48
363.203	390.79
363.584	362.55
363.966	388.99
364.348	375.2
364.729	388.08
365.111	384.69
365.493	350.34
365.874	360.97
366.256	369.33
366.637	356.45
367.019	355.32
367.4	341.53
367.781	367.97
368.163	356.22
368.544	387.41
368.925	345.15
369.306	372.04
369.688	365.26
370.069	361.87
370.45	382.66
370.831	384.92
371.212	357.58
371.593	379.27
371.974	346.28
372.355	370.68
372.736	369.55
373.117	395.31
373.498	376.78
373.879	373.85
374.26	389.66
374.641	365.26
375.021	400.74
375.402	380.85
375.783	400.74
376.163	405.26
376.544	403.68
376.925	407.52
377.305	404.35
377.686	411.36
378.066	386.5
378.447	389.21
378.827	397.57
379.208	406.61
379.588	385.82
379.968	416.56
380.349	405.71
380.729	410.91
381.109	412.04
381.489	399.38
381.87	412.49
382.25	436.44
382.63	414.3
383.01	421.53
383.39	432.38
383.77	446.39
384.15	450.91
384.53	447.06
384.91	421.53
385.29	453.39
385.67	455.65
386.049	444.35
386.429	445.93
386.809	467.18
387.189	454.52
387.568	461.75
387.948	464.47
388.328	450.68
388.707	457.46
389.087	429.21
389.466	499.94
389.846	464.69
390.225	472.6
390.605	469.66
390.984	472.83
391.363	499.04
391.743	503.56
392.122	491.36
392.501	514.41
392.881	504.24
393.26	495.42
393.639	497.01
394.018	521.19
394.397	522.77
394.776	537.68
395.155	527.29
395.534	512.83
395.913	512.6
396.292	544.69
396.671	554.86
397.05	526.84
397.429	517.57
397.808	543.33
398.186	527.97
398.565	558.25
398.944	559.15
399.323	556.44
399.701	553.05
400.08	575.42
400.458	575.87
400.837	572.26
401.215	584.69
401.594	604.8
401.972	582.43
402.351	588.3
402.729	595.08
403.107	588.53
403.486	595.99
403.864	589.43
404.242	613.61
404.62	633.05
404.999	625.14
405.377	619.49
405.755	624.69
406.133	638.47
406.511	642.54
406.889	660.39
407.267	665.36
407.645	681.18
408.023	695.42
408.401	670.34
408.779	675.31
409.156	728.87
409.534	714.4
409.912	722.31
410.29	737
410.667	729.54
411.045	747.85
411.422	757.79
411.8	776.1
412.178	766.38
412.555	779.94
412.933	808.18
413.31	790.56
413.687	814.06
414.065	813.83
414.442	849.09
414.819	825.81
415.197	831.24
415.574	851.35
415.951	841.4
416.328	842.31
416.705	876.43
417.082	850.67
417.46	861.52
417.837	907.84
418.214	887.73
418.591	908.07
418.967	913.27
419.344	897.9
419.721	898.58
420.098	958.69
420.475	943.77
420.852	928.86
421.228	962.76
421.605	967.95
421.982	986.49
422.358	975.64
422.735	1006.82
423.111	992.13
423.488	1025.81
423.864	1024.22
424.241	1020.83
424.617	1028.07
424.994	1030.33
425.37	1046.6
425.746	1033.94
426.123	1071.45
426.499	1094.73
426.875	1079.36
427.251	1116.43
427.627	1113.04
428.003	1124.11
428.379	1154.16
428.756	1155.07
429.132	1176.99
429.507	1178.34
429.883	1199.36
430.259	1209.76
430.635	1229.64
431.011	1226.25
431.387	1255.86
431.763	1268.74
432.138	1275.29
432.514	1292.92
432.89	1280.04
433.265	1311.45
433.641	1340.6
434.016	1341.96
434.392	1385.34
434.767	1432.58
435.143	1388.28
435.518	1400.49
435.894	1430.77
436.269	1465.34
436.644	1450.65
437.02	1466.7
437.395	1490.65
437.77	1520.26
438.145	1538.56
438.52	1544.66
438.895	1540.6
439.271	1562.74
439.646	1594.6
440.021	1613.81
440.395	1597.54
440.77	1572.46
441.145	1613.59
441.52	1658.78
441.895	1618.79
442.27	1646.58
442.645	1649.52
443.019	1659.01
443.394	1692.46
443.769	1695.62
444.143	1717.54
444.518	1701.95
444.892	1691.78
445.267	1723.19
445.641	1742.4
446.016	1761.38
446.39	1779.01
446.764	1790.53
447.139	1796.18
447.513	1809.06
447.887	1825.79
448.262	1804.32
448.636	1845.45
449.01	1889.29
449.384	1868.72
449.758	1871.43
450.132	1903.98
450.506	1933.13
450.88	1943.3
451.254	1924.99
451.628	1949.17
452.002	1966.57
452.376	2010.64
452.75	2036.63
453.123	2060.81
453.497	2079.34
453.871	2075.72
454.244	2141.03
454.618	2125.89
454.992	2163.4
455.365	2204.76
455.739	2223.97
456.112	2274.81
456.486	2250.41
456.859	2270.07
457.232	2332.44
457.606	2346
457.979	2369.5
458.352	2376.28
458.725	2438.2
459.099	2458.31
459.472	2483.4
459.845	2508.71
460.218	2549.38
460.591	2577.86
460.964	2586.9
461.337	2647.91
461.71	2688.36
462.083	2736.5
462.456	2725.2
462.829	2754.35
463.201	2789.15
463.574	2786.44
463.947	2823.5
464.32	2893.78
464.692	2922.48
465.065	2936.04
465.438	2976.49
465.81	3044.28
466.183	2998.86
466.555	3089.25
466.928	3123.15
467.3	3104.85
467.672	3111.4
468.045	3244.28
468.417	3223.26
468.789	3261.45
469.161	3302.13
469.534	3382.13
469.906	3442.47
470.278	3426.87
470.65	3491.5
471.022	3538.51
471.394	3591.16
471.766	3627.77
472.138	3670.03
472.51	3704.61
472.882	3783.93
473.253	3795.23
473.625	3896.92
473.997	3964.94
474.369	3948.44
474.74	4043.58
475.112	4052.62
475.484	4143.92
475.855	4190.24
476.227	4253.52
476.598	4371.48
476.97	4412.16
477.341	4522.89
477.713	4576.9
478.084	4639.27
478.455	4710.91
478.827	4805.37
479.198	4920.39
479.569	4942.09
479.94	5112.03
480.311	5124.91
480.682	5245.58
481.053	5341.63
481.424	5465.69
481.795	5485.35
482.166	5633.14
482.537	5660.49
482.908	5822.52
483.279	5903.64
483.65	5979.8
484.021	6105.9
484.391	6194.94
484.762	6275.39
485.133	6369.62
485.503	6413.46
485.874	6640.12
486.244	6751.31
486.615	6775.94
486.985	6898.65
487.356	7046.21
487.726	7194.23
488.097	7332.08
488.467	7477.16
488.837	7582.92
489.207	7705.63
489.578	7916.25
489.948	7979.75
490.318	8126.86
490.688	8224.04
491.058	8384.48
491.428	8539.73
491.798	8571.37
492.168	8814.3
492.538	8854.3
492.908	9076.44
493.278	9214.07
493.648	9341.52
494.017	9474.62
494.387	9624.9
494.757	9725.46
495.126	9880.04
495.496	9972.46
495.866	10143.76
496.235	10320.25
496.605	10375.17
496.974	10585.55
497.344	10710.07
497.713	10771.99
498.082	10992.78
498.452	11138.76
498.821	11242.71
499.19	11327.46
499.559	11501.92
499.928	11676.83
500.298	11749.82
500.667	11969.47
501.036	11957.04
501.405	12079.53
501.774	12265.51
502.143	12402.91
502.512	12506.86
502.88	12676.12
503.249	12696.23
503.618	12926.28
503.987	12973.06
504.356	13156.33
504.724	13239.5
505.093	13333.73
505.462	13439.04
505.83	13605.14
506.199	13724.91
506.567	13971
506.936	13982.75
507.304	14215.06
507.672	14294.16
508.041	14355.63
508.409	14520.59
508.777	14726.24
509.145	14870.64
509.514	14882.17
509.882	15034.25
510.25	15059.79
510.618	15241.93
510.986	15269.5
511.354	15349.72
511.722	15639.43
512.09	15722.6
512.458	15715.36
512.826	15966.2
513.193	16010.95
513.561	16075.35
513.929	16190.83
514.297	16346.08
514.664	16396.02
515.032	16462.69
515.4	16644.38
515.767	16739.07
516.135	16798.72
516.502	16799.63
516.869	17035.55
517.237	17155.1
517.604	17112.84
517.972	17325.49
518.339	17386.05
518.706	17385.83
519.073	17535.2
519.44	17650.91
519.808	17869.66
520.175	17860.17
520.542	18063.78
520.909	18159.14
521.276	18240.49
521.643	18335.63
522.009	18465.12
522.376	18494.27
522.743	18696.3
523.11	18877.09
523.477	19053.13
523.843	19063.98
524.21	19251.32
524.577	19261.26
524.943	19474.36
525.31	19523.85
525.676	19766.78
526.043	19715.48
526.409	19967.46
526.776	20074.57
527.142	20086.77
527.508	20204.74
527.874	20336.94
528.241	20382.81
528.607	20555.69
528.973	20710.26
529.339	20608.12
529.705	20856.7
530.071	20968.56
530.437	21079.52
530.803	21058.05
531.169	21238.16
531.535	21190.7
531.901	21319.96
532.267	21411.03
532.632	21587.07
532.998	21561.09
533.364	21651.03
533.73	21655.77
534.095	21844.24
534.461	21758.82
534.826	21745.94
535.192	21905.71
535.557	21948.42
535.923	21997.01
536.288	21978.25
536.653	22122.65
537.019	22007.63
537.384	22113.16
537.749	22207.85
538.114	22074.74
538.479	22115.2
538.845	22142.09
539.21	22148.41
539.575	22140.05
539.94	22118.13
540.305	22260.95
540.67	22295.08
541.034	22268.64
541.399	22314.96
541.764	22304.57
542.129	22225.7
542.494	22299.37
542.858	22382.98
543.223	22252.14
543.587	22393.38
543.952	22228.86
544.316	22264.57
544.681	22159.71
545.045	22394.28
545.41	22402.42
545.774	22323.33
546.138	22283.1
546.503	22493.26
546.867	22350.9
547.231	22497.56
547.595	22475.41
547.959	22453.27
548.324	22500.72
548.688	22530.55
549.052	22439.71
549.416	22401.97
549.779	22426.15
550.143	22546.37
550.507	22499.14
550.871	22514.51
551.235	22395.19
551.599	22482.19
551.962	22585.24
552.326	22584.11
552.689	22488.97
553.053	22553.15
553.417	22526.03
553.78	22658.91
554.143	22541.4
554.507	22696.42
554.87	22627.27
555.234	22736.87
555.597	22558.8
555.96	22537.11
556.323	22596.09
556.686	22690.55
557.05	22667.95
557.413	22760.38
557.776	22769.64
558.139	22896.64
558.502	22764.22
558.865	22797.44
559.228	22969.64
559.59	23019.8
559.953	22971.44
560.316	23237.43
560.679	23161.5
561.041	23159.24
561.404	23241.27
561.767	23355.39
562.129	23307.03
562.492	23372.56
562.854	23429.06
563.217	23448.27
563.579	23512.45
563.941	23651.65
564.304	23653.91
564.666	23911.98
565.028	23800.8
565.39	23813.91
565.753	23976.84
566.115	23961.93
566.477	24164.63
566.839	24157.4
567.201	24421.35
567.563	24312.88
567.925	24427.9
568.287	24481.01
568.648	24579.99
569.01	24603.49
569.372	24719.65
569.734	24737.95
570.095	24926.42
570.457	25069.92
570.819	25115.79
571.18	25082.57
571.542	25220.88
571.903	25316.24
572.265	25465.16
572.626	25573.64
572.987	25560.53
573.349	25739.96
573.71	25752.84
574.071	25880.75
574.432	25934.76
574.794	26038.03
575.155	26027.18
575.516	26032.83
575.877	26312.83
576.238	26159.38
576.599	26348.3
576.96	26443.9
577.32	26581.07
577.681	26615.19
578.042	26688.86
578.403	26593.27
578.763	26643.89
579.124	26765.24
579.485	26820.16
579.845	26919.36
580.206	26750.78
580.566	26880.49
580.927	26941.06
581.287	26957.55
581.648	26941.51
582.008	27078.91
582.368	27127.49
582.728	27224.21
583.089	27308.28
583.449	27118
583.809	27129.3
584.169	27351.44
584.529	27065.57
584.889	27415.85
585.249	27255.4
585.609	27181.5
585.969	27448.84
586.329	27212.01
586.688	27485.68
587.048	27290.2
587.408	27456.07
587.768	27473.02
588.127	27439.8
588.487	27578.78
588.846	27617.42
589.206	27388.5
589.565	27409.97
589.925	27712.34
590.284	27550.98
590.643	27483.87
591.003	27597.31
591.362	27604.77
591.721	27501.27
592.08	27713.92
592.44	27647.71
592.799	27614.71
593.158	27634.82
593.517	27684.99
593.876	27770.19
594.235	27629.17
594.593	27727.7
594.952	27782.84
595.311	27613.81
595.67	27747.59
596.029	27954.59
596.387	27833.24
596.746	27935.38
597.104	27733.8
597.463	27760.47
597.822	27980.35
598.18	27917.75
598.538	27891.54
598.897	28062.84
599.255	27878.66
599.613	28137.41
599.972	28006.11
600.33	28122.27
600.688	27873.24
601.046	28108.26
601.404	28244.98
601.762	28241.14
602.12	28205.2
602.478	28185.32
602.836	28249.72
603.194	28044.08
603.552	28235.71
603.91	28225.77
604.268	28298.76
604.625	28188.48
604.983	28362.49
605.341	28148.48
605.698	28529.72
606.056	28339.21
606.413	28396.16
606.771	28458.31
607.128	28496.27
607.485	28251.98
607.843	28444.29
608.2	28584.18
608.557	28730.84
608.914	28474.8
609.272	28690.16
609.629	28717.06
609.986	28877.28
610.343	28813.78
610.7	28972.42
611.057	28881.8
611.414	28777.39
611.771	28921.34
612.127	28912.08
612.484	29004.28
612.841	29054.45
613.198	29061.68
613.554	29068.68
613.911	29330.15
614.267	29220.55
614.624	29192.98
614.98	29305.74
615.337	29367.89
615.693	29294.22
616.05	29438.17
616.406	29497.37
616.762	29424.16
617.118	29521.33
617.475	29549.8
617.831	29719.74
618.187	29669.57
618.543	29743.92
618.899	29893.97
619.255	29854.88
619.611	29728.55
619.967	29939.17
620.323	29977.14
620.678	29878.38
621.034	29808.55
621.39	29822.79
621.746	29870.02
622.101	30079.96
622.457	29860.53
622.812	30041.77
623.168	30109.56
623.523	29984.82
623.879	30164.25
624.234	29985.5
624.589	30132.39
624.945	30150.24
625.3	30142.55
625.655	30148.88
626.01	30043.12
626.365	30184.36
626.72	30026.17
627.075	29993.41
627.43	30077.47
627.785	29989.79
628.14	30073.63
628.495	30079.96
628.85	30062.11
629.205	29964.71
629.559	30100.3
629.914	29888.78
630.269	29942.11
630.623	29874.54
630.978	29841.32
631.332	29926.97
631.687	29902.56
632.041	29846.74
632.396	29787.08
632.75	29814.43
633.104	29899.17
633.459	29723.36
633.813	29677.93
634.167	29629.35
634.521	29531.27
634.875	29664.83
635.229	29609.46
635.583	29421.9
635.937	29577.37
636.291	29424.61
636.645	29573.08
636.999	29418.51
637.352	29524.27
637.706	29270.04
638.06	29339.86
638.413	29338.28
638.767	29204.73
639.121	29272.3
639.474	29163.6
639.828	29250.83
640.181	29143.94
640.534	29189.36
640.888	29035.69
641.241	29054.67
641.594	29031.62
641.947	29050.61
642.301	28977.84
642.654	29148.68
643.007	28835.02
643.36	29078.18
643.713	28980.33
644.066	29109.81
644.419	28964.96
644.771	28570.84
645.124	28363.84
645.477	28380.57
645.83	28117.75
646.182	28281.13
646.535	28186.22
646.888	28294.24
647.24	28167.24
647.593	28442.71
647.945	28305.77
648.298	28188.71
648.65	28077.07
649.002	27822.84
649.355	27866.91
649.707	27653.13
650.059	27699.23
650.411	28033.23
650.763	28204.98
651.115	28693.55
651.467	28776.49
651.819	28630.73
652.171	28620.11
652.523	28543.05
652.875	28635.02
653.227	28453.56
653.578	28796.83
653.93	28651.07
654.282	28439.1
654.633	28509.83
654.985	28602.26
655.337	28524.74
655.688	28550.51
656.039	28761.12
656.391	28476.61
656.742	28493.11
657.094	28654.23
657.445	28514.12
657.796	28645.87
658.147	28581.47
658.498	28669.15
658.849	28792.99
659.2	28686.1
659.551	28610.84
659.902	28829.82
660.253	28826.21
660.604	28881.35
660.955	28618.3
661.306	28873.66
661.656	28870.05
662.007	28766.32
662.358	28908.24
662.708	28947.11
663.059	28800.9
663.409	28664.18
663.76	28962.25
664.11	28980.78
664.461	28993.66
664.811	28984.39
665.161	29074.11
665.511	28969.25
665.862	28914.11
666.212	29019.87
666.562	29104.62
666.912	29039.99
667.262	28943.49
667.612	28969.03
667.962	29078.18
668.312	28980.78
668.662	29172.64
669.011	29156.37
669.361	29058.29
669.711	29166.99
670.06	29096.93
670.41	29063.94
670.76	29035.01
671.109	29121.56
671.459	29011.51
671.808	29056.03
672.157	29081.34
672.507	28879.76
672.856	28898.07
673.205	28911.85
673.554	28986.65
673.904	28776.26
674.253	29110.04
674.602	28808.58
674.951	28544.4
675.3	28355.03
675.649	28861.46
675.998	28787.79
676.346	28832.53
676.695	28914.56
677.044	28700.11
677.393	28663.05
677.741	28763.38
678.09	28629.15
678.438	28549.83
678.787	28614.23
679.135	28615.82
679.484	28383.28
679.832	28576.04
680.181	28393.22
680.529	28461.02
680.877	28276.39
681.225	28211.98
681.573	28387.8
681.922	28146
682.27	28057.19
682.618	28135.38
682.966	28099.9
683.314	28158.43
683.661	28039.33
684.009	27880.69
684.357	27846.34
684.705	27773.35
685.053	27705.56
685.4	27577.42
685.748	27523.41
686.095	27528.16
686.443	27344.89
686.79	27458.56
687.138	27417.88
687.485	27348.28
687.832	27298.56
688.18	27229.64
688.527	27115.74
688.874	27019.47
689.221	26952.13
689.568	26863.32
689.915	26809.54
690.262	26819.48
690.609	26744.68
690.956	26635.3
691.303	26512.14
691.65	26480.28
691.997	26334.52
692.344	26243.22
692.69	26158.7
693.037	26090.68
693.383	25897.69
693.73	25927.3
694.077	25730.24
694.423	25733.41
694.769	25630.58
695.116	25674.65
695.462	25457.48
695.808	25428.78
696.155	25416.13
696.501	25125.96
696.847	25208.9
697.193	24868.8
697.539	24952.41
697.885	24729.14
698.231	24631.97
698.577	24628.35
698.923	24475.36
699.269	24394.01
699.614	24215.71
699.96	24099.78
700.306	24099.55
700.651	24073.79
700.997	23798.54
701.342	23890.52
701.688	23767.81
702.033	23596.51
702.379	23540.47
702.724	23402.85
703.069	23464.54
703.415	23114.72
703.76	23163.76
704.105	23151.78
704.45	23006.25
704.795	22874.05
705.14	22838.34
705.485	22840.37
705.83	22540.04
706.175	22683.32
706.52	22535.3
706.865	22464.79
707.209	22377.34
707.554	22379.6
707.899	22403.32
708.243	22110.22
708.588	22146.61
708.932	22090.11
709.277	22136.89
709.621	21934.41
709.966	21815.77
710.31	21905.71
710.654	21665.04
710.998	21670.01
711.342	21853.96
711.687	21610.8
712.031	21675.88
712.375	21593.18
712.719	21515.66
713.063	21459.39
713.407	21562.89
713.75	21434.54
714.094	21307.08
714.438	21218.72
714.782	21297.59
715.125	21188.44
715.469	21315.67
715.812	21132.17
716.156	21163.13
716.499	21100.98
716.843	21096.92
717.186	20985.06
717.53	21204.03
717.873	21086.3
718.216	21060.76
718.559	20976.92
718.902	20931.72
719.246	21056.24
719.589	20879.07
719.932	20804.04
720.275	20915
720.617	20837.94
720.96	20820.77
721.303	20887.88
721.646	20936.47
721.989	20736.02
722.331	20880.88
722.674	20853.53
723.016	20791.16
723.359	20685.18
723.701	20745.74
724.044	20690.15
724.386	20674.78
724.729	20769.69
725.071	20743.48
725.413	20664.16
725.755	20694.89
726.097	20671.39
726.439	20633.2
726.782	20649.92
727.124	20749.13
727.465	20689.47
727.807	20732.41
728.149	20760.2
728.491	20592.98
728.833	20755.23
729.175	20797.72
729.516	20566.08
729.858	20773.08
730.199	20710.71
730.541	20823.93
730.882	20768.79
731.224	20863.02
731.565	20769.47
731.906	20795.91
732.248	20938.73
732.589	20771.95
732.93	20819.64
733.271	20869.35
733.612	20942.12
733.953	20951.61
734.294	20947.54
734.635	20975.79
734.976	21095.79
735.317	21151.83
735.658	21085.84
735.999	21059.18
736.339	21116.13
736.68	21374.42
737.021	21216.01
737.361	21217.37
737.702	21478.6
738.042	21283.8
738.383	21418.94
738.723	21575.1
739.063	21459.17
739.404	21659.16
739.744	21652.16
740.084	21776.9
740.424	21786.84
740.764	21775.09
741.104	21995.2
741.444	22002.2
741.784	22021.19
742.124	22194.52
742.464	22370.1
742.804	22428.41
743.143	22411.46
743.483	22598.8
743.823	22462.76
744.162	22671.34
744.502	22860.49
744.841	22845.12
745.181	23135.51
745.52	23274.94
745.86	23354.03
746.199	23456.85
746.538	23684.42
746.877	23852.32
747.216	23997.41
747.556	24006.22
747.895	24365.31
748.234	24427
748.573	24514.23
748.911	24735.92
749.25	24918.06
749.589	25001.45
749.928	25329.12
750.267	25441.66
750.605	25591.26
750.944	25764.36
751.283	25980.4
751.621	26307.63
751.96	26300.85
752.298	26658.35
752.636	26986.93
752.975	27018.12
753.313	27186.7
753.651	27556.41
753.989	27748.49
754.327	27929.96
754.666	27916.17
755.004	28515.93
755.342	28692.65
755.679	28788.69
756.017	28929.93
756.355	29277.04
756.693	29430.03
757.031	29790.47
757.368	29826.41
757.706	30056.46
758.044	30321.53
758.381	30539.38
758.719	30748.19
759.056	30930.33
759.394	31230.89
759.731	31138.23
760.068	31522.41
760.405	31817.09
760.743	31809.4
761.08	32244.65
761.417	32261.37
761.754	32447.81
762.091	32566.45
762.428	32650.96
762.765	32789.94
763.102	32991.97
763.438	33147.22
763.775	33188.35
764.112	33451.39
764.449	33589.7
764.785	33742.23
765.122	33742.46
765.458	33877.6
765.795	34031.49
766.131	34320.75
766.467	34350.35
766.804	34122.11
767.14	34410.47
767.476	34625.15
767.812	34636
768.148	34768.87
768.485	34787.86
768.821	34790.57
769.157	34824.69
769.492	34996.21
769.828	35153.5
770.164	35019.71
770.5	34972.94
770.836	35154.4
771.171	35111.24
771.507	35039.83
771.842	35050.9
772.178	35115.31
772.513	35039.15
772.849	35101.97
773.184	35150.33
773.519	35125.7
773.855	35007.51
774.19	35188.52
774.525	34954.86
774.86	34935.2
775.195	35128.19
775.53	34965.48
775.865	34915.31
776.2	34861.53
776.535	34723
776.87	34755.31
777.205	34697.01
777.539	34627.63
777.874	34657.01
778.209	34479.16
778.543	34546.73
778.878	34486.85
779.212	34443.46
779.547	34239.62
779.881	34285.5
780.215	34155.1
780.55	34269.23
780.884	34084.37
781.218	33995.11
781.552	34034.66
781.886	33973.87
782.22	33719.86
782.554	33648.23
782.888	33494.11
783.222	33445.07
783.556	33293.66
783.889	33263.15
784.223	33142.7
784.557	33139.54
784.89	33311.29
785.224	33012.31
785.557	32914.91
785.891	32956.49
786.224	32749.72
786.558	32900.45
786.891	32699.1
787.224	32448.71
787.557	32476.05
787.891	32418.43
788.224	32117.64
788.557	32255.95
788.89	32171.43
789.223	32120.13
789.556	31913.81
789.888	31780.48
790.221	31923.98
790.554	31647.15
790.887	31613.02
791.219	31582.52
791.552	31448.74
791.884	31441.5
792.217	31328.29
792.549	31185.92
792.882	31017.11
793.214	30928.52
793.546	31098.91
793.879	30890.56
794.211	30623.67
794.543	30833.16
794.875	30749.54
795.207	30650.56
795.539	30603.79
795.871	30565.14
796.203	30386.84
796.535	30233.63
796.867	30152.05
797.198	30045.83
797.53	30119.5
797.862	29822.56
798.193	30038.83
798.525	29790.7
798.856	29951.37
799.188	29501.89
799.519	29481.1
799.85	29449.01
800.182	29491.27
800.513	29532.18
800.844	29098.74
801.175	29359.3
801.506	29336.02
801.837	29039.31
802.168	28957.95
802.499	29059.87
802.83	28913.43
803.161	28779.88
803.491	28793.66
803.822	28917.28
804.153	28746.89
804.483	28446.1
804.814	28352.55
805.145	28399.78
805.475	28391.41
805.805	28273.45
806.136	28269.61
806.466	28149.84
806.796	28150.74
807.126	28005.44
807.457	28068.71
807.787	28067.13
808.117	27914.82
808.447	27735.84
808.777	27938.32
809.107	27750.08
809.436	27566.35
809.766	27603.86
810.096	27730.64
810.426	27523.41
810.755	27519.35
811.085	27454.04
811.414	27376.53
811.744	27258.11
812.073	27300.82
812.403	27232.35
812.732	27062.86
813.061	27201.16
813.39	26867.61
813.719	26971.79
814.049	27108.28
814.378	26975.86
814.707	26789.65
815.036	26778.12
815.365	26774.28
815.693	26522.09
816.022	26609.09
816.351	26473.72
816.68	26429.21
817.008	26474.85
817.337	26271.92
817.665	26198.25
817.994	26313.95
818.322	26327.51
818.651	26206.39
818.979	26179.72
819.307	26141.3
819.636	26146.73
819.964	25938.37
820.292	26110.34
820.62	25998.48
820.948	26064.7
821.276	26154.64
821.604	26052.94
821.932	26206.39
822.259	26061.98
822.587	26021.99
822.915	25971.82
823.243	26101.98
823.57	25937.02
823.898	26127.97
824.225	26016.11
824.553	26135.65
824.88	26040.97
825.207	26100.63
825.535	25971.82
825.862	26153.06
826.189	26082.1
826.516	26228.08
826.843	26210.45
827.17	26248.42
827.497	26179.95
827.824	26240.28
828.151	26261.3
828.478	26065.37
828.805	26421.75
829.131	26332.26
829.458	26336.1
829.785	26072.38
830.111	26080.29
830.438	26411.35
830.764	26087.07
831.09	26219.72
831.417	26145.37
831.743	26311.92
832.069	26175.43
832.395	26092.04
832.722	26199.38
833.048	26116.9
833.374	26270.11
833.7	26092.49
834.026	26157.12
834.351	26160.29
834.677	26319.15
835.003	26266.5
835.329	26174.07
835.654	26198.03
835.98	25818.37
836.306	26058.59
836.631	26007.52
836.956	26240.74
837.282	26090.91
837.607	25932.27
837.932	25889.79
838.258	25980.18
838.583	25892.5
838.908	25714.87
839.233	25783.35
839.558	25670.81
839.883	25656.35
840.208	25574.31
840.533	25718.72
840.858	25635.33
841.182	25640.53
841.507	25628.32
841.832	25385.39
842.156	25396.01
842.481	25408.44
842.805	25264.49
843.13	25262.01
843.454	25379.97
843.778	25121.9
844.103	25035.57
844.427	25106.53
844.751	25109.69
845.075	24997.15
845.399	24974.78
845.723	24778.63
846.047	24736.6
846.371	24657.73
846.695	24636.94
847.019	24493.66
847.343	24311.07
847.666	24383.16
847.99	24156.95
848.313	24068.82
848.637	24079.89
848.96	24034.24
849.284	23986.33
849.607	23744.31
849.931	23718.99
850.254	23593.8
850.577	23364.88
850.9	23328.95
851.223	23413.69
851.546	23328.27
851.869	23144.32
852.192	23291.21
852.515	22935.74
852.838	22935.29
853.161	22901.39
853.483	22720.15
853.806	22662.75
854.129	22574.62
854.451	22639.93
854.774	22401.97
855.096	22346.6
855.419	22421.18
855.741	22292.82
856.063	22084.24
856.385	22165.14
856.708	22042.2
857.03	21954.52
857.352	22049.89
857.674	21962.21
857.996	21831.81
858.318	21665.26
858.64	21810.12
858.961	21655.32
859.283	21486.06
859.605	21581.2
859.926	21504.36
860.248	21418.94
860.57	21356.8
860.891	21270.47
861.212	21227.54
861.534	21090.82
861.855	21130.81
862.176	21016.69
862.498	21050.36
862.819	21112.06
863.14	20891.5
863.461	20868.9
863.782	20879.3
864.103	20874.1
864.424	20832.07
864.745	20830.71
865.065	20743.25
865.386	20614.22
865.707	20692.63
866.027	20695.8
866.348	20589.59
866.668	20542.13
866.989	20508.91
867.309	20332.42
867.63	20423.71
867.95	20420.1
868.27	20357.28
868.59	20387.11
868.91	20242.25
869.23	20270.95
869.55	20107.34
869.87	20312.53
870.19	20138.75
870.51	20131.29
870.83	20139.65
871.15	19911.19
871.469	19932.43
871.789	20074.35
872.109	20028.7
872.428	19863.96
872.748	19912.99
873.067	19912.32
873.386	19942.37
873.706	19861.24
874.025	19705.09
874.344	19727.01
874.663	19724.75
874.982	19674.36
875.301	19731.53
875.62	19583.74
875.939	19455.15
876.258	19424.64
876.577	19423.29
876.896	19493.57
877.214	19451.08
877.533	19435.04
877.852	19414.02
878.17	19399.11
878.489	19456.73
878.807	19294.7
879.125	19279.56
879.444	19240.02
879.762	19287.25
880.08	19315.95
880.398	19145.1
880.716	19131.54
881.034	19116.18
881.352	19088.16
881.67	18975.39
881.988	19020.14
882.306	18943.3
882.624	18896.75
882.941	18805.45
883.259	18769.29
883.577	18793.7
883.894	18577.66
884.212	18765.45
884.529	18587.6
884.846	18575.85
885.164	18546.93
885.481	18561.39
885.798	18475.97
886.115	18441.39
886.432	18485.23
886.75	18453.6
887.067	18394.39
887.383	18324.56
887.7	18202.76
888.017	18054.74
888.334	18146.94
888.651	18032.36
888.967	18131.8
889.284	17956.43
889.6	17923.22
889.917	17851.35
890.233	17953.95
890.55	17752.82
890.866	17739.72
891.182	17679.38
891.498	17609.1
891.815	17509.21
892.131	17522.55
892.447	17521.42
892.763	17400.29
893.079	17375.66
893.395	17338.15
893.71	17367.52
894.026	17245.72
894.342	17197.58
894.657	17029.68
894.973	16974.77
895.289	16979.96
895.604	16943.35
895.92	16921.43
896.235	16902.45
896.55	16806.18
896.865	16738.84
897.181	16662.46
897.496	16696.58
897.811	16526.64
898.126	16538.17
898.441	16441.67
898.756	16432.63
899.071	16405.51
899.386	16435.34
899.7	16220.21
900.015	16104.96
900.33	16071.29
900.644	15962.81
900.959	15974.57
901.273	15922.82
901.588	15901.8
901.902	15828.58
902.216	15724.18
902.531	15707.23
902.845	15657.51
903.159	15587.68
903.473	15522.15
903.787	15378.2
904.101	15307.24
904.415	15420.46
904.729	15309.72
905.042	15121.48
905.356	15200.12
905.67	15144.53
905.984	15114.93
906.297	15045.1
906.611	14895.95
906.924	14894.14
907.237	14854.14
907.551	14784.09
907.864	14691.89
908.177	14772.34
908.491	14566.02
908.804	14471.55
909.117	14462.74
909.43	14292.8
909.743	14307.27
910.056	14315.17
910.368	14204.67
910.681	14205.8
910.994	14134.16
911.307	14117.67
911.619	13915.41
911.932	13978.01
912.244	13848.07
912.557	13860.27
912.869	13665.47
913.181	13648.07
913.494	13687.39
913.806	13579.6
914.118	13589.54
914.43	13490.56
914.742	13403.79
915.054	13348.87
915.366	13345.48
915.678	13273.62
915.99	13317.23
916.302	13111.36
916.613	13003.34
916.925	13125.83
917.236	13063.23
917.548	12901.65
917.859	12927.41
918.171	12788.21
918.482	12742.11
918.794	12734.88
919.105	12710.47
919.416	12543.02
919.727	12611.94
920.038	12482.23
920.349	12464.6
920.66	12381.67
920.971	12432.96
921.282	12235.91
921.593	12227.55
921.903	12146.87
922.214	12165.17
922.525	12116.81
922.835	12091.5
923.146	11982.58
923.456	11921.11
923.767	11867.1
924.077	11830.95
924.387	11831.62
924.697	11799.08
925.008	11711.63
925.318	11678.86
925.628	11616.94
925.938	11563.61
926.248	11476.61
926.558	11468.7
926.867	11342.15
927.177	11350.05
927.487	11285.42
927.796	11216.5
928.106	11235.93
928.416	11132.43
928.725	11133.34
929.034	11010.18
929.344	11019.44
929.653	10990.74
929.962	10908.71
930.271	10810.18
930.581	10856.51
930.89	10815.38
931.199	10748.71
931.508	10726.34
931.817	10693.12
932.125	10622.16
932.434	10565.67
932.743	10470.08
933.051	10462.39
933.36	10444.99
933.669	10361.83
933.977	10349.18
934.286	10281.16
934.594	10259.24
934.902	10186.24
935.21	10086.81
935.519	10087.94
935.827	10059.24
936.135	9993.93
936.443	9934.05
936.751	9892.92
937.059	9956.42
937.367	9802.3
937.674	9756.42
937.982	9803.65
938.29	9708.29
938.597	9712.58
938.905	9565.02
939.213	9574.28
939.52	9564.34
939.827	9509.65
940.135	9480.5
940.442	9468.97
940.749	9391.69
941.056	9430.11
941.363	9305.59
941.67	9260.17
941.977	9228.75
942.284	9230.56
942.591	9151.92
942.898	9170.22
943.205	9044.13
943.511	9015.43
943.818	9026.27
944.125	8881.87
944.431	8857.69
944.738	8867.18
945.044	8835.54
945.35	8804.36
945.657	8716.68
945.963	8767.98
946.269	8701.31
946.575	8636.45
946.881	8567.75
947.187	8529.56
947.493	8493.41
947.799	8518.04
948.105	8391.04
948.41	8386.29
948.716	8360.3
949.022	8338.38
949.327	8311.04
949.633	8198.5
949.938	8214.77
950.244	8203.24
950.549	8133.42
950.854	8106.07
951.16	8089.8
951.465	8016.58
951.77	7988.34
952.075	7992.18
952.38	7984.95
952.685	7930.94
952.99	7864.72
953.294	7876.7
953.599	7810.49
953.904	7712.41
954.209	7646.65
954.513	7673.99
954.818	7621.34
955.122	7623.82
955.426	7633.32
955.731	7546.76
956.035	7440.1
956.339	7491.85
956.643	7396.71
956.948	7432.42
957.252	7361.23
957.556	7406.66
957.86	7297.96
958.163	7315.81
958.467	7215.47
958.771	7227.45
959.075	7173.22
959.378	7118.53
959.682	7132.09
959.985	7116.49
960.289	7048.25
960.592	7021.81
960.896	6933.22
961.199	6973.9
961.502	6998.98
961.805	6967.35
962.108	6863.17
962.411	6814.35
962.714	6800.57
963.017	6778.2
963.32	6735.26
963.623	6705.43
963.926	6710.4
964.228	6668.82
964.531	6586.34
964.833	6588.15
965.136	6547.7
965.438	6513.35
965.741	6485.1
966.043	6443.97
966.345	6428.38
966.648	6481.48
966.95	6392.9
967.252	6336.63
967.554	6405.1
967.856	6330.07
968.158	6276.29
968.46	6252.79
968.761	6219.57
969.063	6200.36
969.365	6187.93
969.666	6149.97
969.968	6082.62
970.269	6102.28
970.571	6107.93
970.872	6019.35
971.174	6043.08
971.475	5992.46
971.776	6005.34
972.077	5902.51
972.378	5891.44
972.679	5808.51
972.98	5896.86
973.281	5778.9
973.582	5781.16
973.883	5702.97
974.183	5795.17
974.484	5707.49
974.785	5622.75
975.085	5662.75
975.386	5616.42
975.686	5597.66
975.986	5573.03
976.287	5508.17
976.587	5497.55
976.887	5483.09
977.187	5504.11
977.487	5478.34
977.787	5417.33
978.087	5376.43
978.387	5389.76
978.687	5368.07
978.987	5323.09
979.286	5282.87
979.586	5269.31
979.885	5266.37
980.185	5255.3
980.484	5174.17
980.784	5173.27
981.083	5143.89
981.382	5102.99
981.682	5119.94
981.981	5111.57
982.28	5055.08
982.579	4999.49
982.878	5065.93
983.177	4983.22
983.475	4955.42
983.774	4920.62
984.073	4871.58
984.372	4855.76
984.67	4864.35
984.969	4839.27
985.267	4803.11
985.566	4755.2
985.864	4804.69
986.162	4754.52
986.461	4698.03
986.759	4719.04
987.057	4725.6
987.355	4639.5
987.653	4664.58
987.951	4588.65
988.249	4574.41
988.547	4585.03
988.844	4554.53
989.142	4538.03
989.44	4496.68
989.737	4521.08
990.035	4460.29
990.332	4417.81
990.63	4438.82
990.927	4390.24
991.224	4390.24
991.521	4328.32
991.819	4344.59
992.116	4302.56
992.413	4290.81
992.71	4258.72
993.006	4232.95
993.303	4193.18
993.6	4217.81
993.897	4185.5
994.193	4134.88
994.49	4163.58
994.787	4115.67
995.083	4099.85
995.379	4044.03
995.676	4021.89
995.972	4083.35
996.268	3981.89
996.565	3968.33
996.861	3942.79
997.157	3931.27
997.453	3960.19
997.749	3946.63
998.044	3892.17
998.34	3875.22
998.636	3862.12
998.932	3828.22
999.227	3766.75
999.523	3805.62
999.818	3784.38
1000.114	3739.41
1000.409	3723.81
1000.704	3717.49
1001	3649.69
1001.295	3667.09
1001.59	3646.3
1001.885	3633.65
1002.18	3636.36
1002.475	3584.84
1002.77	3559.07
1003.065	3562.24
1003.359	3501.9
1003.654	3505.06
1003.949	3473.88
1004.243	3451.51
1004.538	3397.72
1004.832	3402.02
1005.127	3388.46
1005.421	3360.66
1005.715	3351.39
1006.009	3365.41
1006.304	3313.43
1006.598	3314.56
1006.892	3286.31
1007.186	3248.8
1007.48	3254.45
1007.773	3222.81
1008.067	3164.06
1008.361	3161.8
1008.655	3158.41
1008.948	3127.22
1009.242	3122.7
1009.535	3083.83
1009.829	3090.84
1010.122	3085.87
1010.415	3086.32
1010.708	3032.99
1011.001	3014
1011.295	3000.67
1011.588	2940.78
1011.881	2940.11
1012.173	2932.87
1012.466	2879.99
1012.759	2872.54
1013.052	2896.49
1013.344	2836.15
1013.637	2873.22
1013.93	2832.99
1014.222	2842.26
1014.514	2822.82
1014.807	2740.34
1015.099	2746.89
1015.391	2748.25
1015.683	2703.05
1015.976	2717.74
1016.268	2669.6
1016.56	2672.32
1016.851	2617.18
1017.143	2607.01
1017.435	2602.94
1017.727	2609.95
1018.018	2581.25
1018.31	2557.97
1018.602	2580.34
1018.893	2524.52
1019.185	2538.53
1019.476	2483.85
1019.767	2488.14
1020.058	2458.54
1020.35	2443.62
1020.641	2381.25
1020.932	2410.63
1021.223	2372.44
1021.514	2378.77
1021.804	2336.28
1022.095	2319.33
1022.386	2280.01
1022.677	2293.8
1022.967	2290.18
1023.258	2270.52
1023.548	2235.72
1023.839	2201.37
1024.129	2213.35
1024.419	2181.71
1024.709	2168.38
1025	2166.57
1025.29	2153.91
1025.58	2129.73
1025.87	2096.96
1026.16	2136.74
1026.449	2100.81
1026.739	2096.74
1027.029	2073.91
1027.319	2038.44
1027.608	2059.9
1027.898	2025.1
1028.187	2008.83
1028.477	1977.19
1028.766	1964.54
1029.055	1964.76
1029.344	1939.68
1029.634	1935.84
1029.923	1932.45
1030.212	1918.44
1030.501	1880.02
1030.79	1852.9
1031.078	1878.44
1031.367	1847.93
1031.656	1830.3
1031.945	1796.41
1032.233	1782.62
1032.522	1783.98
1032.81	1805.22
1033.099	1761.15
1033.387	1729.74
1033.675	1736.07
1033.963	1736.75
1034.251	1742.85
1034.54	1668.5
1034.828	1675.05
1035.116	1694.49
1035.403	1681.16
1035.691	1689.07
1035.979	1638.22
1036.267	1640.93
1036.554	1626.69
1036.842	1618.33
1037.129	1582.85
1037.417	1582.63
1037.704	1587.37
1037.992	1581.05
1038.279	1542.4
1038.566	1573.14
1038.853	1573.14
1039.14	1573.14
