Data from 17-5722_FLMS001491_008.txt Node
Date: Thu Apr 19 15:14:44 BST 2018
User: hsy
Spectrometer: FLMS00149
Trigger mode: 0
Integration Time (sec): 1.000000E-2
Scans to average: 10
Electric dark correction enabled: true
Nonlinearity correction enabled: false
Boxcar width: 0
XAxis mode: Wavelengths
Number of Pixels in Spectrum: 2048
>>>>>Begin Spectral Data<<<<<
341.393	-24.79
341.776	-24.79
342.16	-24.79
342.543	-55.07
342.927	-71.34
343.31	-69.31
343.693	-71.11
344.077	-86.93
344.46	-67.72
344.843	-64.11
345.226	-39.7
345.61	-27.5
345.993	-5.13
346.376	7.53
346.759	11.82
347.142	16.34
347.525	43.69
347.908	58.37
348.291	96.11
348.674	96.79
349.057	100.86
349.44	125.04
349.823	133.63
350.206	176.56
350.588	205.71
350.971	229.22
351.354	247.07
351.737	277.8
352.119	271.48
352.502	301.76
352.884	313.06
353.267	322.55
353.65	317.58
354.032	323.23
354.414	343.79
354.797	339.72
355.179	348.54
355.562	367.74
355.944	355.77
356.326	368.42
356.709	362.32
357.091	375.43
357.473	366.61
357.855	376.11
358.238	381.76
358.62	385.82
359.002	357.35
359.384	368.65
359.766	379.27
360.148	357.35
360.53	372.72
360.912	397.8
361.294	376.11
361.676	358.93
362.057	363
362.439	363.68
362.821	368.87
363.203	383.34
363.584	371.13
363.966	369.33
364.348	388.53
364.729	356.67
365.111	346.28
365.493	353.73
365.874	372.94
366.256	361.87
366.637	384.24
367.019	367.74
367.4	363.68
367.781	375.65
368.163	367.29
368.544	350.34
368.925	381.98
369.306	339.95
369.688	346.95
370.069	375.88
370.45	377.91
370.831	379.5
371.212	367.07
371.593	358.03
371.974	368.65
372.355	364.81
372.736	371.36
373.117	371.13
373.498	368.42
373.879	363.9
374.26	365.71
374.641	360.51
375.021	365.03
375.402	380.85
375.783	392.83
376.163	373.39
376.544	382.89
376.925	383.11
377.305	381.98
377.686	392.6
378.066	384.47
378.447	397.57
378.827	393.28
379.208	389.21
379.588	398.48
379.968	392.83
380.349	411.81
380.729	412.26
381.109	426.95
381.489	405.71
381.87	412.26
382.25	426.5
382.63	413.17
383.01	407.97
383.39	407.97
383.77	399.38
384.15	451.81
384.53	442.77
384.91	440.51
385.29	464.47
385.67	447.52
386.049	461.75
386.429	453.39
386.809	469.44
387.189	417.91
387.568	452.71
387.948	466.05
388.328	460.62
388.707	459.72
389.087	450.91
389.466	468.08
389.846	476.67
390.225	488.19
390.605	469.21
390.984	464.92
391.363	466.73
391.743	492.26
392.122	483.45
392.501	485.48
392.881	502.66
393.26	493.62
393.639	480.06
394.018	514.18
394.397	528.42
394.776	495.2
395.155	512.83
395.534	527.06
395.913	510.11
396.292	524.12
396.671	510.57
397.05	555.31
397.429	559.83
397.808	518.25
398.186	530
398.565	550.79
398.944	545.82
399.323	555.08
399.701	549.43
400.08	565.93
400.458	565.48
400.837	557.12
401.215	576.78
401.594	597.34
401.972	598.02
402.351	588.76
402.729	598.92
403.107	612.26
403.486	579.04
403.864	596.67
404.242	597.12
404.62	617.91
404.999	632.14
405.377	648.64
405.755	617
406.133	646.83
406.511	651.35
406.889	652.71
407.267	650.9
407.645	670.11
408.023	685.25
408.401	691.8
408.779	672.6
409.156	718.7
409.534	688.87
409.912	732.93
410.29	733.38
410.667	753.27
411.045	744.23
411.422	755.08
411.8	761.41
412.178	767.51
412.555	757.79
412.933	796.43
413.31	770.45
413.687	795.08
414.065	811.35
414.442	792.59
414.819	831.69
415.197	815.42
415.574	857
415.951	839.6
416.328	850.67
416.705	859.94
417.082	874.4
417.46	871.91
417.837	888.41
418.214	890.67
418.591	872.59
418.967	879.37
419.344	908.97
419.721	909.43
420.098	918.01
420.475	929.09
420.852	942.87
421.228	934.06
421.605	956.66
421.982	966.15
422.358	970.89
422.735	986.26
423.111	997.11
423.488	1015.19
423.864	996.43
424.241	1003.66
424.617	1046.82
424.994	1043.88
425.37	1042.3
425.746	1049.53
426.123	1050.44
426.499	1064.9
426.875	1081.85
427.251	1116.88
427.627	1109.42
428.003	1110.78
428.379	1136.54
428.756	1174.95
429.132	1165.24
429.507	1179.47
429.883	1167.05
430.259	1208.85
430.635	1213.82
431.011	1215.18
431.387	1256.31
431.763	1261.51
432.138	1276.2
432.514	1274.84
432.89	1289.53
433.265	1315.29
433.641	1343.54
434.016	1322.97
434.392	1366.59
434.767	1368.62
435.143	1372.01
435.518	1383.54
435.894	1414.04
436.269	1449.98
436.644	1474.16
437.02	1501.05
437.395	1485.91
437.77	1524.55
438.145	1501.73
438.52	1543.31
438.895	1551.67
439.271	1527.94
439.646	1558.9
440.021	1604.32
440.395	1623.53
440.77	1584.66
441.145	1615.4
441.52	1626.47
441.895	1614.49
442.27	1654.26
442.645	1656.3
443.019	1663.98
443.394	1669.86
443.769	1685.68
444.143	1698.33
444.518	1715.51
444.892	1715.96
445.267	1752.57
445.641	1746.24
446.016	1767.03
446.39	1769.29
446.764	1774.94
447.139	1767.71
447.513	1792.11
447.887	1782.85
448.262	1828.05
448.636	1837.08
449.01	1837.76
449.384	1868.27
449.758	1910.75
450.132	1905.56
450.506	1934.93
450.88	1944.88
451.254	1921.15
451.628	1949.62
452.002	1988.72
452.376	2000.92
452.75	2012.22
453.123	2022.16
453.497	2047.93
453.871	2050.19
454.244	2127.92
454.618	2137.87
454.992	2171.54
455.365	2203.63
455.739	2219.9
456.112	2249.28
456.486	2287.69
456.859	2279.56
457.232	2325.66
457.606	2348.48
457.979	2377.86
458.352	2392.32
458.725	2441.81
459.099	2426.9
459.472	2481.59
459.845	2523.62
460.218	2518.87
460.591	2588.7
460.964	2592.77
461.337	2644.07
461.71	2658.98
462.083	2710.51
462.456	2718.19
462.829	2749.38
463.201	2775.36
463.574	2769.04
463.947	2820.11
464.32	2876.38
464.692	2941.91
465.065	2903.5
465.438	2964.06
465.81	2969.26
466.183	3011.74
466.555	3086.32
466.928	3122.47
467.3	3089.03
467.672	3144.17
468.045	3229.36
468.417	3195.24
468.789	3237.5
469.161	3310.72
469.534	3343.71
469.906	3438.85
470.278	3412.18
470.65	3458.06
471.022	3526.31
471.394	3593.42
471.766	3593.42
472.138	3615.12
472.51	3733.98
472.882	3780.99
473.253	3813.98
473.625	3895.11
473.997	3981.66
474.369	3937.82
474.74	3997.48
475.112	4102.11
475.484	4120.64
475.855	4237.7
476.227	4276.79
476.598	4360.18
476.97	4386.62
477.341	4478.14
477.713	4590.01
478.084	4584.58
478.455	4728.31
478.827	4763.34
479.198	4878.36
479.569	4915.2
479.94	5058.24
480.311	5127.39
480.682	5256.43
481.053	5349.99
481.424	5429.08
481.795	5501.17
482.166	5590.43
482.537	5686.7
482.908	5751.11
483.279	5878.11
483.65	5987.94
484.021	6112.68
484.391	6196.29
484.762	6276.06
485.133	6378.43
485.503	6471.09
485.874	6693
486.244	6781.81
486.615	6866.1
486.985	6968.25
487.356	7109.49
487.726	7204.17
488.097	7386.77
488.467	7448.91
488.837	7631.51
489.207	7738.85
489.578	7877.6
489.948	8055.68
490.318	8163.47
490.688	8210.48
491.058	8428.32
491.428	8511.26
491.798	8629.22
492.168	8818.82
492.538	8936.78
492.908	9064.92
493.278	9243.67
493.648	9307.4
494.017	9456.32
494.387	9578.35
494.757	9827.61
495.126	9933.82
495.496	10032.8
495.866	10143.53
496.235	10267.82
496.605	10429.17
496.974	10534.71
497.344	10704.42
497.713	10781.03
498.082	10930.18
498.452	11077.07
498.821	11282.71
499.19	11298.53
499.559	11478.86
499.928	11629.37
500.298	11749.37
500.667	11903.26
501.036	11912.98
501.405	12203.14
501.774	12289.46
502.143	12467.54
502.512	12490.36
502.88	12612.62
503.249	12757.02
503.618	12953.63
503.987	12967.41
504.356	13113.4
504.724	13323.56
505.093	13377.12
505.462	13510.68
505.83	13457.57
506.199	13782.76
506.567	13983.21
506.936	14036.76
507.304	14196.31
507.672	14254.16
508.041	14291.22
508.409	14473.59
508.777	14602.17
509.145	14787.25
509.514	14866.12
509.882	14932.33
510.25	15036.96
510.618	15173.23
510.986	15211.87
511.354	15338.2
511.722	15546.33
512.09	15573.45
512.458	15580.45
512.826	15781.58
513.193	15849.82
513.561	15993.32
513.929	16143.15
514.297	16205.97
514.664	16300.43
515.032	16403.93
515.4	16539.3
515.767	16649.8
516.135	16795.11
516.502	16577.04
516.869	16952.85
517.237	17000.08
517.604	16898.84
517.972	17232.39
518.339	17215.21
518.706	17284.36
519.073	17434.41
519.44	17527.52
519.808	17761.64
520.175	17752.37
520.542	17856.32
520.909	17963.67
521.276	18028.75
521.643	18252.02
522.009	18264
522.376	18522.52
522.743	18486.14
523.11	18674.83
523.477	18749.18
523.843	18883.19
524.21	19094.94
524.577	19045.67
524.943	19291.54
525.31	19243.63
525.676	19500.57
526.043	19543.29
526.409	19561.14
526.776	19897.4
527.142	19899.21
527.508	20004.97
527.874	20076.38
528.241	20200.9
528.607	20286.32
528.973	20359.31
529.339	20441.79
529.705	20589.59
530.071	20706.64
530.437	20782.58
530.803	20857.38
531.169	20969.46
531.535	20970.14
531.901	21093.53
532.267	21068.67
532.632	21176.46
532.998	21154.09
533.364	21341.88
533.73	21351.6
534.095	21492.39
534.461	21448.32
534.826	21515.44
535.192	21515.21
535.557	21683.12
535.923	21612.61
536.288	21708.65
536.653	21781.42
537.019	21678.6
537.384	21660.52
537.749	21803.34
538.114	21783.23
538.479	21674.98
538.845	21783.23
539.21	21776.9
539.575	21767.18
539.94	21806.73
540.305	21987.06
540.67	21875.88
541.034	21943.45
541.399	21831.14
541.764	21945.48
542.129	21980.28
542.494	21849.67
542.858	21972.15
543.223	21913.39
543.587	21996.55
543.952	21966.95
544.316	21955.65
544.681	21942.77
545.045	22002.2
545.41	22084.24
545.774	21919.27
546.138	21868.2
546.503	21951.13
546.867	21992.94
547.231	22008.08
547.595	21999.94
547.959	22031.13
548.324	22051.47
548.688	22021.86
549.052	22019.15
549.416	21964.24
549.779	21896.44
550.143	22031.36
550.507	21967.85
550.871	22075.87
551.235	21954.3
551.599	22060.51
551.962	22099.15
552.326	22114.52
552.689	22138.25
553.053	21943.9
553.417	22017.8
553.78	22180.73
554.143	22189.09
554.507	22066.61
554.87	22205.14
555.234	22226.15
555.597	22051.02
555.96	22114.52
556.323	22280.61
556.686	22104.57
557.05	22376.21
557.413	22309.09
557.776	22180.05
558.139	22249.88
558.502	22281.07
558.865	22279.26
559.228	22302.54
559.59	22490.78
559.953	22524
560.316	22625.24
560.679	22576.65
561.041	22598.57
561.404	22752.01
561.767	22813.48
562.129	22710.66
562.492	22725.8
562.854	22785.01
563.217	22768.29
563.579	22798.79
563.941	23008.96
564.304	23137.77
564.666	23244.43
565.028	23130.31
565.39	23148.39
565.753	23282.17
566.115	23372.34
566.477	23480.58
566.839	23472.22
567.201	23739.79
567.563	23692.55
567.925	23772.33
568.287	23851.65
568.648	23877.86
569.01	23929.38
569.372	24062.49
569.734	24096.61
570.095	24262.48
570.457	24306.78
570.819	24390.84
571.18	24291.64
571.542	24559.2
571.903	24487.34
572.265	24661.34
572.626	24698.18
572.987	24772.98
573.349	24933.88
573.71	24987.21
574.071	24984.05
574.432	25108.11
574.794	25211.39
575.155	25218.39
575.516	25199.86
575.877	25339.97
576.238	25339.29
576.599	25490.02
576.96	25531.83
577.32	25574.77
577.681	25644.14
578.042	25749
578.403	25714.87
578.763	25746.74
579.124	25754.65
579.485	25970.24
579.845	25966.62
580.206	25886.85
580.566	26062.44
580.927	26064.02
581.287	26082.1
581.648	26057.92
582.008	26288.19
582.368	26135.2
582.728	26139.04
583.089	26132.49
583.449	26297.23
583.809	26424.01
584.169	26418.59
584.529	26278.7
584.889	26493.61
585.249	26337.91
585.609	26300.4
585.969	26373.84
586.329	26273.73
586.688	26393.95
587.048	26451.58
587.408	26499.71
587.768	26431.24
588.127	26461.52
588.487	26421.97
588.846	26729.54
589.206	26404.8
589.565	26421.97
589.925	26693.61
590.284	26629.2
590.643	26535.19
591.003	26590.33
591.362	26728.18
591.721	26630.1
592.08	26666.04
592.44	26822.87
592.799	26673.27
593.158	26769.76
593.517	26722.08
593.876	26701.74
594.235	26703.55
594.593	26782.64
594.952	26816.54
595.311	26657
595.67	26830.78
596.029	26918.23
596.387	26921.85
596.746	27046.59
597.104	26882.3
597.463	27019.93
597.822	26980.83
598.18	26897.22
598.538	26945.58
598.897	27042.75
599.255	26851.34
599.613	27255.85
599.972	26977.67
600.33	27085.69
600.688	27063.99
601.046	27087.49
601.404	27251.33
601.762	27249.07
602.12	27248.39
602.478	27237.77
602.836	27326.36
603.194	27087.72
603.552	27137.21
603.91	27145.12
604.268	27245.46
604.625	27310.31
604.983	27382.63
605.341	27182.18
605.698	27313.48
606.056	27509.4
606.413	27336.98
606.771	27523.41
607.128	27529.52
607.485	27334.72
607.843	27480.03
608.2	27623.53
608.557	27623.07
608.914	27641.83
609.272	27684.09
609.629	27768.61
609.986	27833.46
610.343	27807.25
610.7	28038.2
611.057	27895.61
611.414	27782.62
611.771	27984.42
612.127	28026
612.484	28016.06
612.841	28084.08
613.198	27972.67
613.554	28011.09
613.911	28227.35
614.267	28150.52
614.624	28123.4
614.98	28240.91
615.337	28528.59
615.693	28501.47
616.05	28428.7
616.406	28442.71
616.762	28269.61
617.118	28372.66
617.475	28431.41
617.831	28503.73
618.187	28503.5
618.543	28598.41
618.899	28673.44
619.255	28799.09
619.611	28636.61
619.967	28753.44
620.323	28994.79
620.678	28756.15
621.034	28800.67
621.39	28725.64
621.746	28700.78
622.101	29054.9
622.457	28800.9
622.812	28974.68
623.168	28945.07
623.523	28942.81
623.879	29103.26
624.234	28913.66
624.589	29095.35
624.945	29034.79
625.3	28983.72
625.655	29140.55
626.01	29036.37
626.365	29107.33
626.72	29135.8
627.075	28924.51
627.43	29058.06
627.785	28959.76
628.14	28863.49
628.495	29039.53
628.85	29052.64
629.205	29014.67
629.559	29086.09
629.914	28782.36
630.269	28885.86
630.623	28835.47
630.978	28817.39
631.332	29018.06
631.687	28898.07
632.041	28945.07
632.396	28856.04
632.75	28759.77
633.104	28868.46
633.459	28816.04
633.813	28707.34
634.167	28614.69
634.521	28611.97
634.875	28643.61
635.229	28572.43
635.583	28450.62
635.937	28440.9
636.291	28387.12
636.645	28528.36
636.999	28401.81
637.352	28435.03
637.706	28200.91
638.06	28282.72
638.413	28302.83
638.767	28296.5
639.121	28235.03
639.474	28181.25
639.828	28108.94
640.181	28113.91
640.534	28103.74
640.888	28052.89
641.241	27939
641.594	27974.02
641.947	28072.78
642.301	27844.99
642.654	28024.64
643.007	27888.38
643.36	28016.06
643.713	27969.73
644.066	27983.52
644.419	27880.47
644.771	27506.47
645.124	27313.25
645.477	27296.3
645.83	27189.64
646.182	27273.7
646.535	27273.7
646.888	27396.19
647.24	27244.55
647.593	27408.62
647.945	27339.92
648.298	27148.06
648.65	27066.48
649.002	26940.83
649.355	26840.04
649.707	26805.24
650.059	26743.77
650.411	27083.65
650.763	27366.13
651.115	27831.43
651.467	27698.1
651.819	27661.94
652.171	27632.79
652.523	27506.69
652.875	27634.6
653.227	27539.46
653.578	27650.87
653.93	27768.15
654.282	27469.63
654.633	27453.81
654.985	27651.55
655.337	27746.46
655.688	27620.36
656.039	27857.19
656.391	27561.83
656.742	27630.98
657.094	27641.6
657.445	27673.47
657.796	27637.31
658.147	27763.86
658.498	27682.96
658.849	27811.09
659.2	27742.39
659.551	27813.8
659.902	27981.48
660.253	27862.16
660.604	27923.63
660.955	27750.53
661.306	27999.79
661.656	27894.25
662.007	27868.94
662.358	27987.58
662.708	27899.9
663.059	28021.71
663.409	27943.52
663.76	27959.11
664.11	28084.98
664.461	28057.86
664.811	27996.62
665.161	27985.78
665.511	27970.86
665.862	27975.15
666.212	27968.6
666.562	28178.99
666.912	28107.13
667.262	27967.47
667.612	28116.85
667.962	28049.05
668.312	28051.31
668.662	28279.1
669.011	28077.3
669.361	27958.21
669.711	28028.71
670.06	27965.89
670.41	27885.67
670.76	27972.67
671.109	28080.01
671.459	27991.2
671.808	27889.05
672.157	28029.16
672.507	27952.33
672.856	27891.99
673.205	27976.96
673.554	27977.41
673.904	27762.05
674.253	28056.96
674.602	27889.05
674.951	27512.79
675.3	27369.97
675.649	27853.12
675.998	27916.85
676.346	27856.97
676.695	27961.14
677.044	27747.14
677.393	27803.63
677.741	27783.07
678.09	27647.93
678.438	27551.89
678.787	27684.99
679.135	27699
679.484	27474.6
679.832	27577.42
680.181	27560.93
680.529	27486.13
680.877	27294.04
681.225	27296.75
681.573	27523.19
681.922	27335.4
682.27	27242.97
682.618	27299.92
682.966	27089.53
683.314	27126.81
683.661	27055.63
684.009	27069.42
684.357	26878.46
684.705	26790.1
685.053	26861.29
685.4	26820.61
685.748	26687.96
686.095	26694.51
686.443	26502.42
686.79	26475.31
687.138	26534.97
687.485	26525.93
687.832	26347.63
688.18	26411.81
688.527	26172.49
688.874	26151.93
689.221	26071.7
689.568	25971.59
689.915	25855.66
690.262	25984.02
690.609	25848.43
690.956	25735.89
691.303	25690.47
691.65	25645.72
691.997	25440.98
692.344	25280.08
692.69	25290.48
693.037	25276.69
693.383	25037.15
693.73	25222.91
694.077	24939.53
694.423	25003.03
694.769	24733.88
695.116	24758.29
695.462	24636.94
695.808	24494.12
696.155	24508.8
696.501	24326.21
696.847	24190.85
697.193	24045.77
697.539	24111.3
697.885	23939.78
698.231	23917.86
698.577	23730.97
698.923	23720.35
699.269	23546.34
699.614	23377.31
699.96	23300.7
700.306	23314.26
700.651	23168.5
700.997	23070.42
701.342	23069.07
701.688	23038.56
702.033	22806.48
702.379	22836.98
702.724	22657.1
703.069	22566.71
703.415	22489.65
703.76	22350.67
704.105	22303.89
704.45	22239.49
704.795	22125.82
705.14	22105.93
705.485	22019.15
705.83	21909.1
706.175	21954.97
706.52	21762.89
706.865	21724.7
707.209	21663
707.554	21675.66
707.899	21601.99
708.243	21388.89
708.588	21341.66
708.932	21303.24
709.277	21276.57
709.621	21204.03
709.966	21087.65
710.31	21092.85
710.654	20983.25
710.998	21110.25
711.342	21050.82
711.687	20900.99
712.031	20810.14
712.375	20760.88
712.719	20737.6
713.063	20673.2
713.407	20685.4
713.75	20623.71
714.094	20592.52
714.438	20585.74
714.782	20640.43
715.125	20440.21
715.469	20584.16
715.812	20409.25
716.156	20342.13
716.499	20333.1
716.843	20333.32
717.186	20252.42
717.53	20343.94
717.873	20342.81
718.216	20254.68
718.559	20196.15
718.902	20118.86
719.246	20244.96
719.589	20152.76
719.932	20053.1
720.275	20171.07
720.617	20218.75
720.96	20097.62
721.303	20202.93
721.646	20098.75
721.989	20044.97
722.331	20060.11
722.674	20076.83
723.016	20110.05
723.359	20071.18
723.701	20017.62
724.044	20042.26
724.386	20035.7
724.729	20102.37
725.071	20071.41
725.413	20112.54
725.755	20112.08
726.097	19945.31
726.439	19995.25
726.782	20048.58
727.124	20157.73
727.465	20089.71
727.807	20018.3
728.149	20062.37
728.491	20095.14
728.833	20028.24
729.175	20137.17
729.516	20020.56
729.858	20021.24
730.199	20271.4
730.541	20179.43
730.882	20021.01
731.224	20179.88
731.565	20158.18
731.906	20254.68
732.248	20175.13
732.589	20106.43
732.93	20217.84
733.271	20284.06
733.612	20348.01
733.953	20376.26
734.294	20362.7
734.635	20320.44
734.976	20417.61
735.317	20452.87
735.658	20432.08
735.999	20551.85
736.339	20539.19
736.68	20611.28
737.021	20680.2
737.361	20637.95
737.702	20770.15
738.042	20695.35
738.383	20831.84
738.723	20938.96
739.063	20938.28
739.404	20994.77
739.744	21069.12
740.084	21151.83
740.424	21291.49
740.764	21317.93
741.104	21426.63
741.444	21349.79
741.784	21473.86
742.124	21547.98
742.464	21685.6
742.804	21764.7
743.143	21919.49
743.483	21924.01
743.823	22041.98
744.162	22234.74
744.502	22298.69
744.841	22415.98
745.181	22548.86
745.52	22640.15
745.86	22840.6
746.199	22892.35
746.538	23062.74
746.877	23354.71
747.216	23350.87
747.556	23535.95
747.895	23727.58
748.234	23835.6
748.573	24024.3
748.911	24206.44
749.25	24379.09
749.589	24546.09
749.928	24775.01
750.267	24965.97
750.605	25058.85
750.944	25219.52
751.283	25497.03
751.621	25787.19
751.96	25864.25
752.298	26054.75
752.636	26366.83
752.975	26548.3
753.313	26771.12
753.651	27119.81
753.989	27174.05
754.327	27444.55
754.666	27628.95
755.004	27947.81
755.342	28208.59
755.679	28499.89
756.017	28557.29
756.355	28849.71
756.693	28931.51
757.031	29332.41
757.368	29447.43
757.706	29807.42
758.044	29907.76
758.381	30154.53
758.719	30284.02
759.056	30638.14
759.394	30860.5
759.731	30949.31
760.068	31227.05
760.405	31467.94
760.743	31479.47
761.08	31850.08
761.417	31920.81
761.754	32207.59
762.091	32448.26
762.428	32448.48
762.765	32478.09
763.102	32920.33
763.438	32968.02
763.775	32984.74
764.112	33137.28
764.449	33403.94
764.785	33468.8
765.122	33524.61
765.458	33534.1
765.795	33792.85
766.131	34112.39
766.467	34019.97
766.804	34062.45
767.14	34114.88
767.476	34181.32
767.812	34376.57
768.148	34593.51
768.485	34694.07
768.821	34582.21
769.157	34542.89
769.492	34716.22
769.828	34833.73
770.164	34709.89
770.5	34775.43
770.836	35081.86
771.171	34884.13
771.507	34941.07
771.842	34881.64
772.178	34942.43
772.513	35113.27
772.849	34917.12
773.184	34996.21
773.519	34936.33
773.855	34899.04
774.19	35005.48
774.525	34892.03
774.86	34912.6
775.195	34880.51
775.53	34774.3
775.865	34799.38
776.2	34744.92
776.535	34498.6
776.87	34631.48
777.205	34547.18
777.539	34623.57
777.874	34566.39
778.209	34371.6
778.543	34427.41
778.878	34284.14
779.212	34383.8
779.547	34167.76
779.881	34133.41
780.215	33977.71
780.55	34227.42
780.884	33856.58
781.218	33879.86
781.552	33928.44
781.886	33785.85
782.22	33668.79
782.554	33507.66
782.888	33340.89
783.222	33411.85
783.556	33262.92
783.889	33150.84
784.223	32962.14
784.557	32994.23
784.89	33031.29
785.224	32859.32
785.557	32783.16
785.891	32587.69
786.224	32764.18
786.558	32675.37
786.891	32437.86
787.224	32350.63
787.557	32296.85
787.891	32226.57
788.224	32117.87
788.557	32129.62
788.89	32036.06
789.223	32031.54
789.556	31860.48
789.888	31791.33
790.221	31646.02
790.554	31504.1
790.887	31569.18
791.219	31430.88
791.552	31546.81
791.884	31157.44
792.217	31185.47
792.549	31175.52
792.882	30902.76
793.214	30849.65
793.546	30832.93
793.879	30679.72
794.211	30468.2
794.543	30740.05
794.875	30601.53
795.207	30489.89
795.539	30429.55
795.871	30404.69
796.203	30387.29
796.535	30088.77
796.867	30168.09
797.198	29902.34
797.53	29968.55
797.862	29712.51
798.193	29759.06
798.525	29696.01
798.856	29736.46
799.188	29375.12
799.519	29390.48
799.85	29306.64
800.182	29365.85
800.513	29343.93
800.844	29009.03
801.175	29135.35
801.506	29134.22
801.837	29010.16
802.168	28864.4
802.499	29013.55
802.83	28658.3
803.161	28739.88
803.491	28612.65
803.822	28711.63
804.153	28443.39
804.483	28353.22
804.814	28181.93
805.145	28204.07
805.475	28349.61
805.805	28303.51
806.136	28145.77
806.466	28097.64
806.796	28110.07
807.126	27859.23
807.457	27854.48
807.787	27989.84
808.117	27773.58
808.447	27662.62
808.777	27842.95
809.107	27509.18
809.436	27476.64
809.766	27550.53
810.096	27510.08
810.426	27383.08
810.755	27456.07
811.085	27338.11
811.414	27268.05
811.744	27132.92
812.073	27144.22
812.403	27043.65
812.732	26920.94
813.061	27175.4
813.39	26801.17
813.719	26846.14
814.049	26932.7
814.378	26846.37
814.707	26668.3
815.036	26770.44
815.365	26464.69
815.693	26459.26
816.022	26444.12
816.351	26345.59
816.68	26264.01
817.008	26432.37
817.337	26132.26
817.665	26036.9
817.994	26109.67
818.322	26117.12
818.651	26124.36
818.979	25946.51
819.307	26062.21
819.636	25944.47
819.964	25971.82
820.292	25898.15
820.62	25963.91
820.948	25925.94
821.276	26077.58
821.604	25981.76
821.932	26108.99
822.259	25871.93
822.587	25960.74
822.915	25840.52
823.243	25927.07
823.57	25873.97
823.898	25900.86
824.225	25875.55
824.553	25878.26
824.88	25852.27
825.207	26088.88
825.535	25792.61
825.862	25926.85
826.189	25941.54
826.516	26134.3
826.843	26185.6
827.17	26126.84
827.497	26151.7
827.824	26059.5
828.151	26047.97
828.478	26042.78
828.805	26190.34
829.131	26065.37
829.458	26154.86
829.785	26019.05
830.111	26105.6
830.438	26247.52
830.764	26130.46
831.09	26263.56
831.417	26096.56
831.743	26281.64
832.069	26151.02
832.395	26118.25
832.722	26226.05
833.048	26129.1
833.374	26247.97
833.7	26054.98
834.026	26197.12
834.351	26041.42
834.677	26130.68
835.003	26156.22
835.329	26169.55
835.654	25931.59
835.98	25874.87
836.306	26148.31
836.631	25875.55
836.956	26069.89
837.282	26034.64
837.607	25849.79
837.932	25905.15
838.258	25789.45
838.583	25743.12
838.908	25659.73
839.233	25725.95
839.558	25593.07
839.883	25656.35
840.208	25486.18
840.533	25585.84
840.858	25559.85
841.182	25551.26
841.507	25535.67
841.832	25401.21
842.156	25371.83
842.481	25341.1
842.805	25224.04
843.13	25165.28
843.454	25264.04
843.778	25175.45
844.103	24988.57
844.427	25003.48
844.751	24982.46
845.075	24939.3
845.399	24983.14
845.723	24728.46
846.047	24750.61
846.371	24619.31
846.695	24576.6
847.019	24464.29
847.343	24460.67
847.666	24288.7
847.99	24070.17
848.313	24149.94
848.637	24045.99
848.96	24052.77
849.284	23889.61
849.607	23730.29
849.931	23783.4
850.254	23483.75
850.577	23431.09
850.9	23247.59
851.223	23236.97
851.546	23248.05
851.869	23055.74
852.192	23238.33
852.515	22918.34
852.838	22819.81
853.161	22796.99
853.483	22675.18
853.806	22639.02
854.129	22508.18
854.451	22623.2
854.774	22419.82
855.096	22294.63
855.419	22263.67
855.741	22187.51
856.063	22100.96
856.385	22072.71
856.708	21973.5
857.03	22023.9
857.352	21941.64
857.674	21972.37
857.996	21674.3
858.318	21576.9
858.64	21667.75
858.961	21479.96
859.283	21556.57
859.605	21303.24
859.926	21416
860.248	21376.01
860.57	21288.1
860.891	21229.34
861.212	21133.07
861.534	21029.12
861.855	21030.03
862.176	21103.02
862.498	21050.59
862.819	21047.65
863.14	20872.52
863.461	20904.61
863.782	20876.13
864.103	20761.78
864.424	20783.25
864.745	20849.92
865.065	20702.13
865.386	20577.61
865.707	20680.2
866.027	20627.78
866.348	20551.39
866.668	20535.8
866.989	20396.14
867.309	20303.49
867.63	20308.92
867.95	20457.39
868.27	20286.77
868.59	20308.69
868.91	20329.93
869.23	20243.83
869.55	20121.8
869.87	20200.22
870.19	20128.81
870.51	20120.67
870.83	20091.52
871.15	19950.73
871.469	20006.55
871.789	19949.83
872.109	19831.41
872.428	19901.02
872.748	19933.33
873.067	19914.8
873.386	19921.35
873.706	19791.87
874.025	19797.74
874.344	19595.26
874.663	19640.23
874.982	19572.66
875.301	19577.86
875.62	19555.49
875.939	19539.44
876.258	19514.13
876.577	19447.92
876.896	19366.34
877.214	19363.86
877.533	19297.42
877.852	19377.87
878.17	19329.73
878.489	19384.65
878.807	19364.76
879.125	19266.91
879.444	19272.11
879.762	19204.76
880.08	19271.2
880.398	19095.61
880.716	19073.02
881.034	19026.46
881.352	18986.01
881.67	18872.12
881.988	18920.7
882.306	18926.8
882.624	18928.16
882.941	18838.22
883.259	18836.19
883.577	18716.87
883.894	18703.31
884.212	18729.75
884.529	18589.41
884.846	18447.27
885.164	18425.57
885.481	18472.35
885.798	18412.24
886.115	18268.52
886.432	18420.38
886.75	18274.39
887.067	18273.71
887.383	18144.45
887.7	18255.64
888.017	17993.95
888.334	18032.82
888.651	17986.26
888.967	17985.59
889.284	17956.21
889.6	17856.32
889.917	17814.07
890.233	17899.94
890.55	17851.58
890.866	17706.95
891.182	17675.76
891.498	17637.57
891.815	17405.04
892.131	17385.38
892.447	17381.31
892.763	17339.05
893.079	17342.67
893.395	17312.61
893.71	17238.49
894.026	17025.84
894.342	17113.52
894.657	17026.74
894.973	17084.37
895.289	17041.43
895.604	16902.23
895.92	16875.33
896.235	16726.64
896.55	16799.85
896.865	16690.03
897.181	16568.9
897.496	16632.18
897.811	16610.71
898.126	16466.98
898.441	16389.92
898.756	16385.18
899.071	16264.28
899.386	16368.45
899.7	16157.84
900.015	15976.37
900.33	15929.6
900.644	15957.39
900.959	15893.89
901.273	15843.04
901.588	15670.85
901.902	15667.68
902.216	15610.28
902.531	15595.82
902.845	15603.95
903.159	15496.39
903.473	15496.84
903.787	15388.59
904.101	15276.96
904.415	15313.57
904.729	15310.63
905.042	15140.69
905.356	15164.87
905.67	15046
905.984	15026.34
906.297	14934.14
906.611	14900.92
906.924	14883.75
907.237	14706.12
907.551	14789.06
907.864	14630.42
908.177	14714.03
908.491	14702.51
908.804	14495.73
909.117	14412.35
909.43	14316.98
909.743	14271.33
910.056	14307.94
910.368	14185.91
910.681	14158.57
910.994	14060.04
911.307	14023.43
911.619	13931.23
911.932	13968.29
912.244	13728.98
912.557	13735.08
912.869	13752.48
913.181	13645.14
913.494	13677
913.806	13505.48
914.118	13455.31
914.43	13459.38
914.742	13440.85
915.054	13275.88
915.366	13228.42
915.678	13213.73
915.99	13099.16
916.302	13079.5
916.613	13036.34
916.925	13099.39
917.236	13022.55
917.548	12882.67
917.859	12986.62
918.171	12829.79
918.482	12722
918.794	12748.21
919.105	12632.73
919.416	12631.15
919.727	12532.85
920.038	12539.63
920.349	12425.28
920.66	12321.78
920.971	12331.95
921.282	12333.08
921.593	12219.41
921.903	12176.93
922.214	12161.56
922.525	12070.04
922.835	11976.7
923.146	12013.99
923.456	11904.62
923.767	11783.49
924.077	11882.7
924.387	11884.5
924.697	11701.68
925.008	11627.11
925.318	11601.35
925.628	11634.79
925.938	11538.75
926.248	11412.65
926.558	11483.38
926.867	11373.78
927.177	11320.22
927.487	11286.55
927.796	11167.01
928.106	11143.28
928.416	11182.38
928.725	11190.74
929.034	11035.94
929.344	11086.11
929.653	10912.33
929.962	10858.32
930.271	10785.32
930.581	10903.51
930.89	10798.66
931.199	10723.18
931.508	10717.53
931.817	10649.51
932.125	10695.16
932.434	10543.97
932.743	10538.78
933.051	10476.86
933.36	10462.17
933.669	10369.06
933.977	10265.34
934.286	10312.34
934.594	10207.03
934.902	10216.53
935.21	10178.11
935.519	10098.56
935.827	10084.55
936.135	10026.47
936.443	9921.62
936.751	9854.73
937.059	9829.64
937.367	9771.79
937.674	9842.98
937.982	9745.58
938.29	9720.72
938.597	9690.21
938.905	9567.73
939.213	9547.39
939.52	9535.64
939.827	9503.55
940.135	9473.27
940.442	9392.14
940.749	9371.58
941.056	9398.02
941.363	9304.46
941.67	9329.09
941.977	9179.49
942.284	9121.19
942.591	9102.66
942.898	9017.46
943.205	9020.17
943.511	9059.95
943.818	8965.48
944.125	8890.01
944.431	8855.88
944.738	8828.31
945.044	8823.34
945.35	8740.18
945.657	8679.84
945.963	8689.33
946.269	8680.97
946.575	8668.77
946.881	8544.93
947.187	8541.09
947.493	8485.27
947.799	8459.28
948.105	8444.59
948.41	8392.62
948.716	8370.7
949.022	8314.2
949.327	8293.64
949.633	8183.13
949.938	8270.36
950.244	8221.55
950.549	8157.6
950.854	8103.81
951.16	8057.03
951.465	7974.32
951.77	8019.97
952.075	7959.64
952.38	7926.87
952.685	7881.22
952.99	7878.28
953.294	7826.98
953.599	7742.47
953.904	7718.96
954.209	7681.68
954.513	7666.99
954.818	7611.4
955.122	7622.47
955.426	7587.22
955.731	7548.12
956.035	7434.45
956.339	7439.87
956.643	7430.84
956.948	7378.63
957.252	7398.07
957.556	7332.99
957.86	7318.3
958.163	7274.23
958.467	7252.99
958.771	7272.42
959.075	7262.7
959.378	7190.84
959.682	7119.43
959.985	7046.66
960.289	7016.38
960.592	7018.42
960.896	7023.39
961.199	6947.68
961.502	6946.33
961.805	6958.53
962.108	6821.81
962.411	6801.25
962.714	6754.7
963.017	6775.49
963.32	6723.74
963.623	6731.42
963.926	6689.39
964.228	6573.23
964.531	6640.12
964.833	6637.64
965.136	6572.1
965.438	6517.19
965.741	6520.35
966.043	6490.97
966.345	6414.59
966.648	6423.4
966.95	6361.03
967.252	6363.52
967.554	6327.81
967.856	6251.66
968.158	6302.05
968.46	6314.71
968.761	6174.6
969.063	6163.52
969.365	6170.3
969.666	6137.54
969.968	6083.75
970.269	6068.84
970.571	6029.06
970.872	6036.97
971.174	5939.35
971.475	6013.25
971.776	5935.06
972.077	5905.9
972.378	5911.1
972.679	5861.84
972.98	5830.88
973.281	5795.4
973.582	5763.31
973.883	5756.76
974.183	5693.25
974.484	5659.58
974.785	5659.13
975.085	5646.02
975.386	5617.78
975.686	5554.05
975.986	5559.92
976.287	5570.55
976.587	5503.43
976.887	5484.9
977.187	5473.82
977.487	5430.21
977.787	5405.35
978.087	5370.32
978.387	5351.57
978.687	5348.63
978.987	5310.21
979.286	5257.79
979.586	5251.01
979.885	5242.42
980.185	5199.03
980.484	5177.34
980.784	5172.82
981.083	5183.89
981.382	5105.47
981.682	5068.64
981.981	5078.13
982.28	5044.23
982.579	5057.34
982.878	4986.83
983.177	5010.11
983.475	4998.36
983.774	4917
984.073	4942.77
984.372	4836.1
984.67	4896.67
984.969	4821.64
985.267	4814.18
985.566	4751.13
985.864	4734.18
986.162	4751.13
986.461	4715.88
986.759	4694.18
987.057	4627.29
987.355	4674.3
987.653	4644.24
987.951	4593.4
988.249	4598.59
988.547	4557.69
988.844	4544.81
989.142	4556.33
989.44	4465.04
989.737	4453.96
990.035	4462.1
990.332	4415.1
990.63	4424.36
990.927	4397.24
991.224	4390.01
991.521	4361.09
991.819	4345.49
992.116	4291.48
992.413	4281.31
992.71	4259.17
993.006	4254.42
993.303	4207.64
993.6	4206.51
993.897	4191.15
994.193	4186.85
994.49	4146.4
994.787	4115.89
995.083	4111.83
995.379	4043.58
995.676	4045.84
995.972	4028.44
996.268	4060.08
996.565	3973.98
996.861	3959.97
997.157	3926.07
997.453	3939.63
997.749	3925.17
998.044	3864.38
998.34	3873.19
998.636	3855.34
998.932	3832.96
999.227	3776.24
999.523	3832.74
999.818	3750.93
1000.114	3773.76
1000.409	3704.38
1000.704	3685.85
1001	3656.47
1001.295	3616.92
1001.59	3648.34
1001.885	3627.32
1002.18	3562.91
1002.475	3564.95
1002.77	3559.98
1003.065	3478.4
1003.359	3487.21
1003.654	3474.1
1003.949	3457.61
1004.243	3463.48
1004.538	3395.01
1004.832	3392.52
1005.127	3374.67
1005.421	3394.11
1005.715	3339.42
1006.009	3313.88
1006.304	3320.44
1006.598	3286.09
1006.892	3279.08
1007.186	3199.99
1007.48	3244.51
1007.773	3180.78
1008.067	3185.07
1008.361	3126.09
1008.655	3134.68
1008.948	3152.76
1009.242	3086.54
1009.535	3081.12
1009.829	3054.91
1010.122	3054.91
1010.415	3041.8
1010.708	3012.65
1011.001	3017.84
1011.295	2955.93
1011.588	2950.73
1011.881	2907.56
1012.173	2897.85
1012.466	2872.54
1012.759	2882.71
1013.052	2865.53
1013.344	2876.83
1013.637	2844.97
1013.93	2809.49
1014.222	2802.03
1014.514	2786.89
1014.807	2751.64
1015.099	2713.67
1015.391	2691.75
1015.683	2713.45
1015.976	2652.88
1016.268	2678.64
1016.56	2649.49
1016.851	2613.79
1017.143	2635.26
1017.435	2574.47
1017.727	2599.32
1018.018	2572.21
1018.31	2559.55
1018.602	2496.95
1018.893	2512.55
1019.185	2491.3
1019.476	2480.23
1019.767	2454.02
1020.058	2458.09
1020.35	2392.32
1020.641	2404.3
1020.932	2406.11
1021.223	2360.69
1021.514	2380.35
1021.804	2358.2
1022.095	2355.49
1022.386	2321.14
1022.677	2319.11
1022.967	2279.56
1023.258	2257.86
1023.548	2226
1023.839	2234.59
1024.129	2206.11
1024.419	2190.97
1024.709	2154.14
1025	2154.82
1025.29	2147.81
1025.58	2139.22
1025.87	2099.45
1026.16	2098.32
1026.449	2062.16
1026.739	2071.65
1027.029	2086.34
1027.319	2027.14
1027.608	2034.37
1027.898	2040.69
1028.187	1985.1
1028.477	2016.97
1028.766	1954.37
1029.055	1948.72
1029.344	1936.29
1029.634	1906.01
1029.923	1892.9
1030.212	1900.36
1030.501	1908.95
1030.79	1833.92
1031.078	1845.9
1031.367	1834.37
1031.656	1817.65
1031.945	1816.97
1032.233	1798.22
1032.522	1779.68
1032.81	1788.27
1033.099	1751.66
1033.387	1732.68
1033.675	1743.98
1033.963	1726.8
1034.251	1717.99
1034.54	1671.89
1034.828	1717.31
1035.116	1679.12
1035.403	1663.08
1035.691	1640.48
1035.979	1635.73
1036.267	1635.96
1036.554	1618.33
1036.842	1586.7
1037.129	1598.9
1037.417	1591.22
1037.704	1586.92
1037.992	1557.54
1038.279	1540.82
1038.566	1526.36
1038.853	1526.36
1039.14	1526.36
