Data from 17-5722_FLMS001491_007.txt Node
Date: Thu Apr 19 15:14:42 BST 2018
User: hsy
Spectrometer: FLMS00149
Trigger mode: 0
Integration Time (sec): 1.000000E-2
Scans to average: 10
Electric dark correction enabled: true
Nonlinearity correction enabled: false
Boxcar width: 0
XAxis mode: Wavelengths
Number of Pixels in Spectrum: 2048
>>>>>Begin Spectral Data<<<<<
341.393	-15.18
341.776	-15.18
342.16	-15.18
342.543	-41.62
342.927	-62.41
343.31	-82.07
343.693	-59.02
344.077	-70.1
344.46	-65.58
344.843	-49.31
345.226	-42.75
345.61	-33.71
345.993	-29.87
346.376	3.8
346.759	14.19
347.142	19.17
347.525	41.54
347.908	52.84
348.291	74.31
348.674	106.62
349.057	119.95
349.44	134.64
349.823	154.08
350.206	177.13
350.588	245.83
350.971	242.89
351.354	282.89
351.737	278.37
352.119	279.5
352.502	286.05
352.884	299.38
353.267	314.75
353.65	319.72
354.032	343.23
354.414	356.11
354.797	350.68
355.179	347.52
355.562	357.24
355.944	377.57
356.326	377.12
356.709	380.96
357.091	374.19
357.473	395.2
357.855	371.7
358.238	386.39
358.62	392.49
359.002	362.43
359.384	346.39
359.766	387.29
360.148	402.66
360.53	394.98
360.912	382.32
361.294	370.8
361.676	370.57
362.057	386.16
362.439	374.19
362.821	354.07
363.203	353.62
363.584	395.2
363.966	367.18
364.348	360.85
364.729	366.28
365.111	362.21
365.493	387.97
365.874	365.15
366.256	370.8
366.637	366.95
367.019	351.13
367.4	361.3
367.781	360.85
368.163	372.6
368.544	369.67
368.925	372.6
369.306	382.32
369.688	374.86
370.069	356.56
370.45	370.34
370.831	371.25
371.212	371.7
371.593	362.43
371.974	365.37
372.355	361.98
372.736	386.84
373.117	392.26
373.498	369.21
373.879	360.63
374.26	383.45
374.641	376.44
375.021	349.1
375.402	390.91
375.783	385.03
376.163	394.3
376.544	402.88
376.925	407.4
377.305	390
377.686	396.11
378.066	393.85
378.447	401.98
378.827	391.13
379.208	385.03
379.588	382.09
379.968	392.49
380.349	427.97
380.729	421.42
381.109	394.07
381.489	418.25
381.87	417.57
382.25	379.61
382.63	432.26
383.01	436.1
383.39	411.02
383.77	436.78
384.15	420.74
384.53	451.47
384.91	436.78
385.29	434.97
385.67	445.37
386.049	432.49
386.429	438.36
386.809	454.41
387.189	454.18
387.568	433.62
387.948	456.89
388.328	464.58
388.707	443.79
389.087	452.83
389.466	457.12
389.846	478.82
390.225	482.88
390.605	476.33
390.984	479.04
391.363	471.36
391.743	476.1
392.122	499.83
392.501	490.79
392.881	482.88
393.26	504.8
393.639	505.93
394.018	484.24
394.397	529.89
394.776	534.41
395.155	514.29
395.534	533.28
395.913	539.38
396.292	547.06
396.671	524.24
397.05	532.15
397.429	533.28
397.808	533.5
398.186	522.66
398.565	531.24
398.944	561.52
399.323	535.76
399.701	560.17
400.08	560.17
400.458	562.2
400.837	552.71
401.215	592.48
401.594	571.24
401.972	578.25
402.351	581.64
402.729	604.01
403.107	588.42
403.486	612.14
403.864	600.39
404.242	608.3
404.62	619.83
404.999	632.71
405.377	619.6
405.755	637
406.133	646.04
406.511	622.31
406.889	631.13
407.267	654.4
407.645	682.88
408.023	673.84
408.401	690.11
408.779	681.3
409.156	697.57
409.534	709.32
409.912	695.08
410.29	717
410.667	725.81
411.045	724.23
411.422	762.65
411.8	745.47
412.178	768.75
412.555	762.88
412.933	780.05
413.31	809.2
413.687	799.94
414.065	796.32
414.442	814.17
414.819	819.82
415.197	818.47
415.574	829.54
415.951	833.83
416.328	812.37
416.705	855.53
417.082	862.99
417.46	829.54
417.837	864.34
418.214	862.53
418.591	860.05
418.967	877
419.344	917.67
419.721	884.45
420.098	919.03
420.475	917.67
420.852	938.01
421.228	958.8
421.605	960.61
421.982	969.88
422.358	963.55
422.735	971.23
423.111	978.46
423.488	982.98
423.864	1004.23
424.241	1008.29
424.617	1013.04
424.994	1021.17
425.37	1052.81
425.746	1046.26
426.123	1037.9
426.499	1058.01
426.875	1074.05
427.251	1072.02
427.627	1090.1
428.003	1110.89
428.379	1132.13
428.756	1133.94
429.132	1133.26
429.507	1142.07
429.883	1181.4
430.259	1167.16
430.635	1209.19
431.011	1192.47
431.387	1222.52
431.763	1220.72
432.138	1249.64
432.514	1274.05
432.89	1262.98
433.265	1310.43
433.641	1313.14
434.016	1334.39
434.392	1340.49
434.767	1381.39
435.143	1390.43
435.518	1375.51
435.894	1410.99
436.269	1418.45
436.644	1431.33
437.02	1430.43
437.395	1466.36
437.77	1451.67
438.145	1475.63
438.52	1506.36
438.895	1524.66
439.271	1524.66
439.646	1536.87
440.021	1541.84
440.395	1585.23
440.77	1555.17
441.145	1581.16
441.52	1592.46
441.895	1601.5
442.27	1608.5
442.645	1602.85
443.019	1615.73
443.394	1671.78
443.769	1625.9
444.143	1659.8
444.518	1680.37
444.892	1681.04
445.267	1691.21
445.641	1698.9
446.016	1708.84
446.39	1727.37
446.764	1761.95
447.139	1725.34
447.513	1745.67
447.887	1766.46
448.262	1767.59
448.636	1770.31
449.01	1813.92
449.384	1820.47
449.758	1777.09
450.132	1874.03
450.506	1903.86
450.88	1844.43
451.254	1863.19
451.628	1889.17
452.002	1910.87
452.376	1952.67
452.75	1960.58
453.123	1971.88
453.497	1992.9
453.871	2036.51
454.244	2078.77
454.618	2078.55
454.992	2087.81
455.365	2098.21
455.739	2127.13
456.112	2165.32
456.486	2186.79
456.859	2198.09
457.232	2258.43
457.606	2255.27
457.979	2320.8
458.352	2348.37
458.725	2351.31
459.099	2366
459.472	2442.83
459.845	2454.81
460.218	2500.23
460.591	2508.37
460.964	2505.65
461.337	2558.99
461.71	2605.54
462.083	2692.32
462.456	2597.63
462.829	2647.8
463.201	2701.58
463.574	2727.12
463.947	2748.13
464.32	2824.06
464.692	2812.54
465.065	2850.05
465.438	2875.81
465.81	2911.29
466.183	2926.66
466.555	2962.14
466.928	3037.39
467.3	2995.13
467.672	3058.41
468.045	3099.99
468.417	3145.19
468.789	3142.93
469.161	3193.32
469.534	3251.4
469.906	3277.16
470.278	3310.15
470.65	3381.34
471.022	3431.51
471.394	3482.58
471.766	3475.35
472.138	3542.92
472.51	3642.8
472.882	3629.69
473.253	3678.28
473.625	3729.8
473.997	3819.29
474.369	3813.42
474.74	3885.51
475.112	3921.21
475.484	4013.64
475.855	4105.61
476.227	4114.43
476.598	4233.97
476.97	4240.3
477.341	4332.27
477.713	4417.47
478.084	4482.1
478.455	4559.61
478.827	4580.4
479.198	4729.55
479.569	4812.26
479.94	4868.53
480.311	4945.14
480.682	5088.41
481.053	5185.13
481.424	5280.5
481.795	5255.19
482.166	5416.09
482.537	5461.06
482.908	5582.86
483.279	5675.06
483.65	5758.45
484.021	5843.42
484.391	5969.29
484.762	6048.84
485.133	6131.32
485.503	6193.24
485.874	6364.99
486.244	6432.33
486.615	6614.02
486.985	6714.13
487.356	6732.21
487.726	6911.41
488.097	7054.01
488.467	7131.52
488.837	7307.79
489.207	7445.41
489.578	7566.76
489.948	7650.38
490.318	7760.21
490.688	7863.03
491.058	8028.22
491.428	8183.7
491.798	8286.29
492.168	8489.9
492.538	8502.78
492.908	8760.18
493.278	8836.79
493.648	8917.46
494.017	9093.28
494.387	9216.44
494.757	9319.94
495.126	9446.26
495.496	9536.66
495.866	9705.92
496.235	9813.48
496.605	9980.49
496.974	10108.62
497.344	10291.21
497.713	10354.49
498.082	10383.41
498.452	10629.06
498.821	10790.86
499.19	10819.56
499.559	10928.03
499.928	11122.6
500.298	11217.06
500.667	11342.48
501.036	11438.53
501.405	11571.86
501.774	11674
502.143	11787.67
502.512	11886.65
502.88	12134.55
503.249	12160.54
503.618	12321.67
503.987	12394.66
504.356	12539.97
504.724	12680.3
505.093	12773.86
505.462	12927.98
505.83	13045.26
506.199	13233.96
506.567	13343.11
506.936	13380.17
507.304	13585.14
507.672	13673.04
508.041	13779.48
508.409	13814.96
508.777	14061.06
509.145	14182.18
509.514	14202.52
509.882	14324.78
510.25	14427.37
510.618	14450.88
510.986	14594.83
511.354	14720.93
511.722	14919.11
512.09	14983.29
512.458	15099.45
512.826	15172.21
513.193	15209.95
513.561	15369.27
513.929	15521.13
514.297	15571.07
514.664	15617.4
515.032	15779.43
515.4	15885.19
515.767	15913.66
516.135	16010.16
516.502	15998.86
516.869	16343.26
517.237	16371.05
517.604	16197.72
517.972	16425.51
518.339	16524.04
518.706	16596.36
519.073	16726.52
519.44	16816.01
519.808	17048.1
520.175	16973.75
520.542	17231.37
520.909	17221.65
521.276	17318.6
521.643	17393.85
522.009	17398.82
522.376	17667.29
522.743	17736.44
523.11	17959.49
523.477	17987.28
523.843	18055.3
524.21	18249.2
524.577	18357.67
524.943	18375.29
525.31	18605.8
525.676	18749.75
526.043	18930.99
526.409	18872.46
526.776	19129.85
527.142	19161.94
527.508	19167.82
527.874	19364.65
528.241	19366.23
528.607	19349.51
528.973	19678.54
529.339	19614.36
529.705	19819.78
530.071	19984.52
530.437	19960.34
530.803	20027
531.169	20139.32
531.535	20187
531.901	20165.08
532.267	20295.47
532.632	20392.42
532.998	20462.24
533.364	20549.47
533.73	20612.07
534.095	20776.59
534.461	20738.4
534.826	20753.31
535.192	20818.39
535.557	20971.84
535.923	20826.75
536.288	20914.21
536.653	21006.41
537.019	20959.18
537.384	21047.99
537.749	21022.46
538.114	21139.29
538.479	21053.64
538.845	21086.18
539.21	21021.1
539.575	21158.95
539.94	21220.42
540.305	21267.42
540.67	21225.84
541.034	21235.33
541.399	21222.45
541.764	21320.08
542.129	21257.48
542.494	21227.42
542.858	21281.88
543.223	21216.8
543.587	21303.13
543.952	21266.07
544.316	21320.53
544.681	21105.62
545.045	21298.38
545.41	21342.67
545.774	21243.47
546.138	21257.93
546.503	21353.75
546.867	21294.76
547.231	21398.04
547.595	21418.6
547.959	21465.61
548.324	21385.61
548.688	21367.53
549.052	21434.87
549.416	21286.4
549.779	21431.48
550.143	21425.83
550.507	21377.93
550.871	21415.21
551.235	21306.06
551.599	21544.02
551.962	21523.46
552.326	21397.14
552.689	21497.25
553.053	21339.28
553.417	21476
553.78	21687.07
554.143	21572.5
554.507	21599.16
554.87	21590.58
555.234	21633.29
555.597	21481.2
555.96	21570.46
556.323	21598.26
556.686	21570.01
557.05	21689.78
557.413	21665.15
557.776	21729.78
558.139	21818.59
558.502	21725.71
558.865	21809.55
559.228	21987.18
559.59	21873.05
559.953	21899.72
560.316	22085.03
560.679	21972.04
561.041	22234.18
561.404	22203.89
561.767	22289.54
562.129	22229.43
562.492	22383.32
562.854	22452.93
563.217	22329.99
563.579	22417.9
563.941	22633.26
564.304	22596.65
564.666	22820.37
565.028	22725.69
565.39	22777.21
565.753	22914.38
566.115	22924.55
566.477	23006.81
566.839	23063.53
567.201	23375.16
567.563	23287.48
567.925	23464.43
568.287	23481.6
568.648	23531.09
569.01	23641.37
569.372	23862.83
569.734	23691.76
570.095	24018.54
570.457	24020.57
570.819	24035.26
571.18	24047.46
571.542	24205.2
571.903	24238.42
572.265	24395.7
572.626	24536.49
572.987	24564.51
573.349	24631.85
573.71	24735.13
574.071	24778.52
574.432	24944.39
574.794	25106.64
575.155	25066.42
575.516	25022.58
575.877	25152.74
576.238	25090.6
576.599	25269.35
576.96	25343.7
577.32	25454.88
577.681	25464.37
578.042	25592.73
578.403	25702.33
578.763	25587.53
579.124	25613.3
579.485	25824.14
579.845	25856.68
580.206	25800.64
580.566	25879.5
580.927	25860.75
581.287	26002.66
581.648	25906.85
582.008	26064.13
582.368	25958.82
582.728	26021.87
583.089	26220.74
583.449	26096.9
583.809	26091.93
584.169	26087.63
584.529	26116.79
584.889	26296.44
585.249	26213.51
585.609	26125.6
585.969	26279.94
586.329	26287.85
586.688	26310.9
587.048	26291.02
587.408	26332.15
587.768	26177.57
588.127	26294.18
588.487	26330.34
588.846	26523.55
589.206	26307.06
589.565	26338.47
589.925	26394.74
590.284	26531.69
590.643	26369.21
591.003	26475.87
591.362	26576.21
591.721	26691.69
592.08	26602.42
592.44	26754.51
592.799	26635.42
593.158	26578.92
593.517	26594.29
593.876	26739.82
594.235	26791.8
594.593	26697.56
594.952	26701.85
595.311	26676.77
595.67	26728.75
596.029	26879.7
596.387	26807.84
596.746	26985.24
597.104	26860.49
597.463	26774.85
597.822	26901.4
598.18	26777.56
598.538	26805.58
598.897	26962.19
599.255	26734.4
599.613	27125.35
599.972	26822.76
600.33	27012.35
600.688	27026.82
601.046	26910.44
601.404	27168.28
601.762	27059.59
602.12	27268.85
602.478	27133.03
602.836	27228.17
603.194	27087.83
603.552	27115.18
603.91	27168.73
604.268	27214.61
604.625	27229.75
604.983	27387.03
605.341	27112.01
605.698	27322.86
606.056	27397.88
606.413	27328.05
606.771	27391.1
607.128	27371.67
607.485	27332.35
607.843	27379.8
608.2	27509.29
608.557	27582.51
608.914	27464.09
609.272	27653.92
609.629	27699.79
609.986	27828.83
610.343	27842.39
610.7	27895.27
611.057	27879.22
611.414	27854.82
611.771	27846.68
612.127	27943.4
612.484	27902.27
612.841	28002.39
613.198	27897.98
613.554	28004.19
613.911	28128.94
614.267	28187.69
614.624	27968.49
614.98	28076.96
615.337	28393.11
615.693	28266.33
616.05	28358.31
616.406	28362.38
616.762	28348.82
617.118	28335.94
617.475	28401.7
617.831	28634.68
618.187	28618.87
618.543	28623.61
618.899	28912.87
619.255	28689.15
619.611	28681.46
619.967	28804.62
620.323	28797.84
620.678	28757.85
621.034	28732.54
621.39	28749.71
621.746	28687.56
622.101	29039.65
622.457	28762.59
622.812	28925.75
623.168	28975.69
623.523	29088.46
623.879	28982.02
624.234	28940.21
624.589	29005.07
624.945	28976.14
625.3	29001.68
625.655	29007.78
626.01	29054.11
626.365	29051.85
626.72	28991.06
627.075	28936.82
627.43	28989.48
627.785	29021.34
628.14	28966.2
628.495	29045.52
628.85	29097.27
629.205	28897.05
629.559	29026.77
629.914	28992.87
630.269	28958.97
630.623	28879.65
630.978	28818.86
631.332	28880.1
631.687	28992.87
632.041	28906.99
632.396	29044.84
632.75	28822.25
633.104	28808.69
633.459	28817.73
633.813	28711.75
634.167	28706.55
634.521	28511.3
634.875	28626.32
635.229	28457.06
635.583	28369.83
635.937	28375.26
636.291	28418.19
636.645	28445.76
636.999	28251.87
637.352	28419.78
637.706	28418.65
638.06	28328.7
638.413	28296.39
638.767	28128.94
639.121	28260.23
639.474	28137.3
639.828	27976.62
640.181	28094.36
640.534	28144.98
640.888	28023.85
641.241	27903.63
641.594	28000.8
641.947	28005.1
642.301	27919.22
642.654	27897.98
643.007	27855.5
643.36	27967.13
643.713	27872.9
644.066	28010.97
644.419	27858.21
644.771	27458.67
645.124	27264.1
645.477	27234.95
645.83	27154.05
646.182	27212.8
646.535	27092.13
646.888	27243.31
647.24	27135.97
647.593	27227.26
647.945	27154.5
648.298	27094.39
648.65	26949.53
649.002	26891.91
649.355	26784.79
649.707	26567.62
650.059	26706.83
650.411	26957.67
650.763	27258
651.115	27754.71
651.467	27547.93
651.819	27595.16
652.171	27427.03
652.523	27414.15
652.875	27617.08
653.227	27387.26
653.578	27626.8
653.93	27632.45
654.282	27470.42
654.633	27403.3
654.985	27510.65
655.337	27543.19
655.688	27545.67
656.039	27556.75
656.391	27320.6
656.742	27554.04
657.094	27445.56
657.445	27526.01
657.796	27600.81
658.147	27601.27
658.498	27607.59
658.849	27631.1
659.2	27594.71
659.551	27574.37
659.902	27781.83
660.253	27703.18
660.604	27794.71
660.955	27638.1
661.306	27812.33
661.656	27761.04
662.007	27800.81
662.358	27787.48
662.708	27825.44
663.059	27866.8
663.409	27732.11
663.76	27864.54
664.11	27919
664.461	27884.2
664.811	28022.27
665.161	27992.67
665.511	28005.77
665.862	27890.52
666.212	27981.37
666.562	27968.04
666.912	27969.17
667.262	27931.65
667.612	27977.3
667.962	28011.88
668.312	27958.32
668.662	28075.6
669.011	28020.24
669.361	27989.05
669.711	28016.85
670.06	27903.86
670.41	27867.47
670.76	27821.15
671.109	28066.34
671.459	27966.91
671.808	27961.48
672.157	28021.14
672.507	27713.58
672.856	27728.95
673.205	27874.03
673.554	27861.15
673.904	27761.94
674.253	27948.83
674.602	27825.67
674.951	27497.99
675.3	27152.46
675.649	27776.18
675.998	27654.37
676.346	27730.08
676.695	27745.44
677.044	27535.96
677.393	27632.23
677.741	27696.63
678.09	27611.44
678.438	27606.01
678.787	27487.37
679.135	27549.06
679.484	27496.86
679.832	27434.26
680.181	27286.7
680.529	27367.15
680.877	27331.44
681.225	27237.43
681.573	27431.1
681.922	27121.28
682.27	27214.84
682.618	27041.05
682.966	26956.99
683.314	26996.99
683.661	27036.99
684.009	26835.86
684.357	26824.56
684.705	26705.24
685.053	26754.28
685.4	26640.16
685.748	26531.24
686.095	26498.24
686.443	26280.4
686.79	26410.11
687.138	26325.82
687.485	26458.7
687.832	26242.21
688.18	26113.62
688.527	26073.17
688.874	26100.97
689.221	25952.04
689.568	25870.01
689.915	25687.87
690.262	25752.5
690.609	25677.7
690.956	25441.55
691.303	25521.09
691.65	25398.16
691.997	25402.91
692.344	25202.91
692.69	24988.45
693.037	25184.83
693.383	24859.87
693.73	24874.56
694.077	24848.57
694.423	24744.62
694.769	24570.84
695.116	24548.24
695.462	24383.27
695.808	24271.18
696.155	24355.48
696.501	24171.3
696.847	24162.71
697.193	23934.47
697.539	24014.24
697.885	23761.82
698.231	23714.36
698.577	23662.16
698.923	23563.18
699.269	23376.29
699.614	23267.37
699.96	23126.58
700.306	23169.74
700.651	23052.68
700.997	23033.93
701.342	22890.2
701.688	22901.5
702.033	22654.73
702.379	22693.15
702.724	22503.09
703.069	22541.06
703.415	22324.79
703.76	22287.96
704.105	22233.95
704.45	22151.69
704.795	21942.66
705.14	21964.8
705.485	21913.51
705.83	21720.97
706.175	21905.82
706.52	21839.61
706.865	21682.1
707.209	21524.14
707.554	21422.67
707.899	21523.46
708.243	21284.82
708.588	21290.7
708.932	21135.9
709.277	21163.92
709.621	21070.59
709.966	21045.73
710.31	20942.01
710.654	20767.1
710.998	20807.09
711.342	20906.07
711.687	20719.64
712.031	20738.85
712.375	20654.33
712.719	20543.82
713.063	20620.43
713.407	20606.65
713.75	20610.26
714.094	20527.1
714.438	20491.62
714.782	20467.89
715.125	20278.07
715.469	20473.09
715.812	20341.34
716.156	20324.85
716.499	20239.2
716.843	20268.13
717.186	20226.77
717.53	20289.82
717.873	20387.67
718.216	20265.41
718.559	20167.11
718.902	20058.41
719.246	20055.02
719.589	20028.36
719.932	20043.27
720.275	20036.04
720.617	20024.29
720.96	19939.09
721.303	20017.06
721.646	20032.2
721.989	19988.36
722.331	19992.2
722.674	19961.92
723.016	20044.18
723.359	19980.45
723.701	19934.57
724.044	19898.42
724.386	19827.23
724.729	19927.57
725.071	19908.13
725.413	19963.05
725.755	19913.78
726.097	19848.25
726.439	19865.42
726.782	19815.26
727.124	19996.72
727.465	19870.4
727.807	19947.91
728.149	19962.37
728.491	19877.18
728.833	19984.52
729.175	19984.29
729.516	19936.61
729.858	19930.28
730.199	19920.56
730.541	20013.67
730.882	19959.21
731.224	20001.01
731.565	19989.71
731.906	20031.97
732.248	20091.86
732.589	20060.67
732.93	20083.72
733.271	20148.81
733.612	20119.88
733.953	20266.09
734.294	20142.25
734.635	20243.72
734.976	20420.66
735.317	20276.26
735.658	20310.84
735.999	20361
736.339	20309.93
736.68	20515.8
737.021	20473.77
737.361	20426.99
737.702	20713.99
738.042	20648.68
738.383	20641.67
738.723	20720.77
739.063	20707.66
739.404	20906.53
739.744	20907.88
740.084	20931.84
740.424	21093.41
740.764	21174.09
741.104	21313.75
741.444	21299.96
741.784	21256.57
742.124	21439.85
742.464	21489.56
742.804	21540.41
743.143	21739.27
743.483	21816.79
743.823	21778.14
744.162	22021.3
744.502	22072.82
744.841	22207.28
745.181	22332.7
745.52	22423.32
745.86	22631.68
746.199	22608.63
746.538	22898.11
746.877	23096.3
747.216	23241.83
747.556	23252.23
747.895	23488.83
748.234	23673.91
748.573	23826.22
748.911	23894.47
749.25	24068.25
749.589	24193.22
749.928	24470.05
750.267	24718.86
750.605	24742.13
750.944	24971.5
751.283	25178.96
751.621	25417.59
751.96	25529.91
752.298	25773.52
752.636	25981.65
752.975	26141.42
753.313	26350.45
753.651	26768.29
753.989	26909.31
754.327	27314.95
754.666	27129.64
755.004	27638.33
755.342	27765.78
755.679	28080.12
756.017	28166.45
756.355	28513.33
756.693	28634.01
757.031	29038.29
757.368	29118.97
757.706	29256.82
758.044	29482.35
758.381	29842.11
758.719	29990.58
759.056	30353.74
759.394	30398.93
759.731	30469.89
760.068	30636.44
760.405	30928.41
760.743	31066.49
761.08	31343.09
761.417	31491.11
761.754	31713.02
762.091	31803.64
762.428	32037.08
762.765	32094.71
763.102	32386.9
763.438	32471.65
763.775	32524.3
764.112	32829.6
764.449	32874.12
764.785	33008.81
765.122	33153.44
765.458	33177.62
765.795	33366.76
766.131	33535.57
766.467	33699.41
766.804	33677.26
767.14	33709.13
767.476	33857.37
767.812	33901.21
768.148	34098.5
768.485	34073.86
768.821	34045.62
769.157	34009.68
769.492	34335.78
769.828	34336.68
770.164	34130.36
770.5	34111.83
770.836	34285.84
771.171	34313.41
771.507	34315.67
771.842	34181.88
772.178	34373.74
772.513	34356.79
772.849	34228.89
773.184	34476.34
773.519	34500.07
773.855	34331.94
774.19	34287.87
774.525	34228.66
774.86	34241.54
775.195	34345.5
775.53	34282.67
775.865	34207.87
776.2	34030.02
776.535	33946.41
776.87	33919.29
777.205	33899.63
777.539	33761.78
777.874	33956.35
778.209	33782.8
778.543	33738.73
778.878	33630.26
779.212	33747.32
779.547	33399.98
779.881	33526.76
780.215	33343.26
780.55	33538.06
780.884	33326.54
781.218	33244.73
781.552	33530.38
781.886	33131.06
782.22	33050.84
782.554	33074.12
782.888	32794.35
783.222	32811.52
783.556	32616.5
783.889	32603.85
784.223	32524.53
784.557	32549.84
784.89	32481.59
785.224	32336.28
785.557	32252.44
785.891	32157.3
786.224	32091.54
786.558	32140.81
786.891	31928.38
787.224	31827.82
787.557	31686.36
787.891	31706.92
788.224	31591.44
788.557	31599.13
788.89	31459.92
789.223	31502.63
789.556	31341.96
789.888	31367.49
790.221	31255.63
790.554	30996.88
790.887	30983.32
791.219	30938.13
791.552	30958.24
791.884	30774.97
792.217	30786.72
792.549	30700.85
792.882	30427.63
793.214	30466.73
793.546	30509.21
793.879	30242.33
794.211	30158.03
794.543	30290.91
794.875	30146.28
795.207	30109.45
795.539	30061.54
795.871	29976.57
796.203	29992.16
796.535	29699.74
796.867	29707.2
797.198	29485.06
797.53	29635.56
797.862	29237.83
798.193	29457.71
798.525	29245.97
798.856	29467.43
799.188	28980.89
799.519	28868.35
799.85	28799.43
800.182	28784.51
800.513	28913.55
800.844	28515.37
801.175	28763.5
801.506	28699.77
801.837	28501.81
802.168	28450.51
802.499	28477.63
802.83	28219.1
803.161	28206
803.491	28082.16
803.822	28334.35
804.153	28122.16
804.483	27901.6
804.814	27698.66
805.145	27811.88
805.475	27815.95
805.805	27714.03
806.136	27758.78
806.466	27609.18
806.796	27621.6
807.126	27436.98
807.457	27321.5
807.787	27460.03
808.117	27134.39
808.447	27241.95
808.777	27287.83
809.107	27074.95
809.436	27064.78
809.766	26939.59
810.096	27051.68
810.426	26950.66
810.755	26971
811.085	26820.5
811.414	26748.86
811.744	26685.13
812.073	26655.75
812.403	26536.89
812.732	26541.41
813.061	26627.05
813.39	26365.59
813.719	26377.8
814.049	26579.82
814.378	26314.75
814.707	26085.37
815.036	26305.48
815.365	26139.16
815.693	26072.49
816.022	26017.35
816.351	25971.93
816.68	25793.63
817.008	25989.56
817.337	25700.3
817.665	25716.57
817.994	25660.53
818.322	25816.45
818.651	25699.39
818.979	25543.01
819.307	25538.04
819.636	25573.97
819.964	25482.23
820.292	25496.01
820.62	25516.57
820.948	25564.48
821.276	25553.41
821.604	25458.5
821.932	25597.48
822.259	25466.86
822.587	25535.78
822.915	25508.67
823.243	25625.72
823.57	25442.45
823.898	25701.43
824.225	25459.4
824.553	25439.29
824.88	25464.37
825.207	25519.74
825.535	25479.51
825.862	25618.72
826.189	25460.53
826.516	25798.15
826.843	25705.27
827.17	25702.56
827.497	25738.94
827.824	25596.57
828.151	25718.6
828.478	25588.44
828.805	25715.21
829.131	25790.47
829.458	25658.27
829.785	25436.12
830.111	25501.89
830.438	25790.24
830.764	25647.87
831.09	25698.49
831.417	25577.59
831.743	25856
832.069	25716.57
832.395	25669.57
832.722	25715.89
833.048	25672.28
833.374	25754.76
833.7	25590.7
834.026	25675.89
834.351	25608.55
834.677	25648.55
835.003	25751.37
835.329	25562.9
835.654	25438.84
835.98	25490.59
836.306	25559.06
836.631	25372.17
836.956	25603.13
837.282	25547.99
837.607	25439.74
837.932	25407.43
838.258	25473.19
838.583	25341.89
838.908	25287.65
839.233	25310.03
839.558	25229.8
839.883	25163.14
840.208	25112.07
840.533	25113.65
840.858	25018.96
841.182	25051.5
841.507	25093.76
841.832	25051.95
842.156	24894.67
842.481	24952.52
842.805	24869.36
843.13	24823.71
843.454	24782.36
843.778	24800.44
844.103	24730.61
844.427	24577.16
844.751	24723.15
845.075	24634.79
845.399	24394.57
845.723	24423.5
846.047	24361.8
846.371	24328.81
846.695	24186.44
847.019	24224.63
847.343	23902.15
847.666	23842.95
847.99	23666.68
848.313	23739.9
848.637	23698.32
848.96	23626.91
849.284	23509.4
849.607	23332
849.931	23360.25
850.254	23287.03
850.577	23032.8
850.9	22983.08
851.223	22872.58
851.546	22921.39
851.869	22772.69
852.192	22881.62
852.515	22496.99
852.838	22461.74
853.161	22552.58
853.483	22367.96
853.806	22405.92
854.129	22291.12
854.451	22189.2
854.774	22098.36
855.096	22108.53
855.419	21938.82
855.741	21888.2
856.063	21792.83
856.385	21762.55
856.708	21686.85
857.03	21594.87
857.352	21683
857.674	21458.83
857.996	21461.77
858.318	21352.62
858.64	21389
858.961	21281.88
859.283	21217.48
859.605	21136.13
859.926	21117.59
860.248	21020.87
860.57	20979.52
860.891	20903.14
861.212	20900.43
861.534	20712.86
861.855	20705.63
862.176	20708.11
862.498	20751.95
862.819	20674.67
863.14	20635.57
863.461	20555.8
863.782	20523.49
864.103	20503.37
864.424	20421.12
864.745	20494.11
865.065	20344.06
865.386	20219.54
865.707	20335.47
866.027	20268.8
866.348	20275.13
866.668	20194.45
866.989	20150.16
867.309	19999.43
867.63	20042.14
867.95	20077.85
868.27	19955.82
868.59	20083.95
868.91	19917.17
869.23	19870.85
869.55	19910.62
869.87	19952.65
870.19	19795.37
870.51	19794.69
870.83	19772.32
871.15	19696.84
871.469	19730.06
871.789	19795.14
872.109	19733.9
872.428	19627.46
872.748	19628.82
873.067	19617.75
873.386	19593.11
873.706	19558.77
874.025	19493.46
874.344	19383.4
874.663	19376.17
874.982	19353.57
875.301	19393.57
875.62	19208.27
875.939	19349.28
876.258	19215.72
876.577	19191.09
876.896	19180.7
877.214	19109.51
877.533	19175.72
877.852	19157.42
878.17	19131.66
878.489	19140.7
878.807	19029.29
879.125	19030.42
879.444	18901.61
879.762	18785
880.08	18920.14
880.398	18748.84
880.716	18746.58
881.034	18732.12
881.352	18728.05
881.67	18693.7
881.988	18595.85
882.306	18653.25
882.624	18669.07
882.941	18525.35
883.259	18450.77
883.577	18417.55
883.894	18393.15
884.212	18372.36
884.529	18285.13
884.846	18309.31
885.164	18124.23
885.481	18068.41
885.798	18242.42
886.115	18087.62
886.432	18108.41
886.75	18016.43
887.067	18004
887.383	17833.16
887.7	17956.55
888.017	17768.98
888.334	17816.89
888.651	17793.84
888.967	17653.5
889.284	17621.42
889.6	17597.91
889.917	17560.17
890.233	17516.79
890.55	17440.18
890.866	17442.44
891.182	17396.79
891.498	17413.74
891.815	17173.97
892.131	17093.29
892.447	17119.28
892.763	17037.7
893.079	17088.77
893.395	16985.05
893.71	16950.47
894.026	16859.63
894.342	16918.38
894.657	16750.03
894.973	16665.28
895.289	16649.46
895.604	16635
895.92	16624.83
896.235	16470.71
896.55	16396.59
896.865	16420.54
897.181	16383.93
897.496	16348
897.811	16166.09
898.126	16139.87
898.441	16134.45
898.756	16157.72
899.071	16043.6
899.386	16080.66
899.7	15924.74
900.015	15755.02
900.33	15712.54
900.644	15659.21
900.959	15713.89
901.273	15629.6
901.588	15598.87
901.902	15529.04
902.216	15422.83
902.531	15390.97
902.845	15411.76
903.159	15199.78
903.473	15255.83
903.787	15121.37
904.101	15057.64
904.415	15161.82
904.729	15049.05
905.042	14913.01
905.356	14846.35
905.67	14867.14
905.984	14826.69
906.297	14699.23
906.611	14746.01
906.924	14600.03
907.237	14597.77
907.551	14573.81
907.864	14503.98
908.177	14462.18
908.491	14417.43
908.804	14284.78
909.117	14198.68
909.43	14111.23
909.743	14064.9
910.056	14085.69
910.368	14066.48
910.681	13967.27
910.994	13868.75
911.307	13767.73
911.619	13654.29
911.932	13726.6
912.244	13636.66
912.557	13561.41
912.869	13493.39
913.181	13445.71
913.494	13545.82
913.806	13401.87
914.118	13290.23
914.43	13261.98
914.742	13265.37
915.054	13117.8
915.366	13136.79
915.678	12934.76
915.99	13010.24
916.302	12910.58
916.613	12863.57
916.925	12789.23
917.236	12885.49
917.548	12690.25
917.859	12639.17
918.171	12694.31
918.482	12551.27
918.794	12550.81
919.105	12518.5
919.416	12431.5
919.727	12418.16
920.038	12354.66
920.349	12235.34
920.66	12163.93
920.971	12193.08
921.282	12135.68
921.593	12037.61
921.903	11902.24
922.214	11928.23
922.525	11915.35
922.835	11822.02
923.146	11810.95
923.456	11646.88
923.767	11650.27
924.077	11576.83
924.387	11611.63
924.697	11504.74
925.008	11530.5
925.318	11433.56
925.628	11454.35
925.938	11338.42
926.248	11241.7
926.558	11203.5
926.867	11173.68
927.177	11136.39
927.487	11085.54
927.796	11016.84
928.106	10936.85
928.416	10982.95
928.725	10919.67
929.034	10809.62
929.344	10862.72
929.653	10802.61
929.962	10729.39
930.271	10691.65
930.581	10614.82
930.89	10622.5
931.199	10537.08
931.508	10470.64
931.817	10453.24
932.125	10488.72
932.434	10425.67
932.743	10313.81
933.051	10215.51
933.36	10224.32
933.669	10164.44
933.977	10207.6
934.286	10106.36
934.594	10057.55
934.902	10053.7
935.21	10013.71
935.519	9985.23
935.827	9938
936.135	9884.44
936.443	9760.15
936.751	9806.03
937.059	9762.64
937.367	9671.34
937.674	9707.5
937.982	9613.26
938.29	9538.69
938.597	9554.28
938.905	9423.44
939.213	9393.83
939.52	9358.13
939.827	9453.95
940.135	9316.55
940.442	9316.1
940.749	9274.06
941.056	9270.67
941.363	9147.97
941.67	9188.64
941.977	9009.44
942.284	9002.21
942.591	9023
942.898	8982.32
943.205	8947.52
943.511	8910.46
943.818	8865.94
944.125	8743.46
944.431	8754.53
944.738	8675.21
945.044	8668.43
945.35	8601.77
945.657	8633.4
945.963	8592.05
946.269	8491.03
946.575	8432.96
946.881	8402.9
947.187	8419.17
947.493	8378.49
947.799	8303.24
948.105	8352.28
948.41	8248.33
948.716	8212.17
949.022	8179.4
949.327	8118.84
949.633	8116.35
949.938	8139.86
950.244	8093.3
950.549	7978.28
950.854	7933.53
951.16	7983.93
951.465	7863.71
951.77	7796.81
952.075	7872.74
952.38	7853.08
952.685	7818.06
952.99	7654.9
953.294	7736.93
953.599	7658.29
953.904	7583.94
954.209	7517.27
954.513	7607.22
954.818	7526.99
955.122	7496.26
955.426	7491.51
955.731	7427.78
956.035	7363.61
956.339	7361.12
956.643	7304.4
956.948	7210.84
957.252	7267.79
957.556	7167.45
957.86	7155.02
958.163	7217.17
958.467	7133.1
958.771	7121.13
959.075	7109.6
959.378	7057.4
959.682	7013.56
959.985	6963.84
960.289	6947.35
960.592	6917.29
960.896	6895.14
961.199	6830.06
961.502	6808.82
961.805	6797.74
962.108	6758.65
962.411	6687.01
962.714	6673.45
963.017	6626
963.32	6669.16
963.623	6617.64
963.926	6636.85
964.228	6578.32
964.531	6475.04
964.833	6546.68
965.136	6434.14
965.438	6396.17
965.741	6388.49
966.043	6384.2
966.345	6319.34
966.648	6295.16
966.95	6288.38
967.252	6256.97
967.554	6230.3
967.856	6227.36
968.158	6184.2
968.46	6161.83
968.761	6142.17
969.063	6069.63
969.365	6070.31
969.666	6047.03
969.968	6028.5
970.269	5963.87
970.571	5978.11
970.872	5938.33
971.174	5879.8
971.475	5874.38
971.776	5875.06
972.077	5819.69
972.378	5808.62
972.679	5746.02
972.98	5793.7
973.281	5738.79
973.582	5748.96
973.883	5654.5
974.183	5622.18
974.484	5643.2
974.785	5600.26
975.085	5564.78
975.386	5555.74
975.686	5505.58
975.986	5492.02
976.287	5496.99
976.587	5409.08
976.887	5386.71
977.187	5364.11
977.487	5412.47
977.787	5343.55
978.087	5312.59
978.387	5317.33
978.687	5262.19
978.987	5266.94
979.286	5197.79
979.586	5215.41
979.885	5173.83
980.185	5186.94
980.484	5067.4
980.784	5056.1
981.083	5049.32
981.382	5033.95
981.682	5025.36
981.981	5001.63
982.28	5020.62
982.579	4914.18
982.878	4958.92
983.177	4914.4
983.475	4894.74
983.774	4887.06
984.073	4793.73
984.372	4829.44
984.67	4705.82
984.969	4773.84
985.267	4770
985.566	4680.96
985.864	4707.86
986.162	4683
986.461	4668.31
986.759	4615.88
987.057	4567.75
987.355	4537.01
987.653	4554.64
987.951	4545.37
988.249	4513.29
988.547	4525.26
988.844	4448.43
989.142	4478.03
989.44	4431.25
989.737	4415.21
990.035	4409.33
990.332	4355.1
990.63	4353.74
990.927	4302.9
991.224	4305.83
991.521	4289.56
991.819	4244.14
992.116	4234.42
992.413	4269.68
992.71	4263.57
993.006	4163.46
993.303	4164.14
993.6	4168.89
993.897	4136.12
994.193	4109
994.49	4073.3
994.787	4033.52
995.083	4036.46
995.379	4020.42
995.676	3987.2
995.972	3942.9
996.268	3959.4
996.565	3953.75
996.861	3897.48
997.157	3881.44
997.453	3859.07
997.749	3841.66
998.044	3830.82
998.34	3775.23
998.636	3781.55
998.932	3752.18
999.227	3749.01
999.523	3743.14
999.818	3741.55
1000.114	3685.96
1000.409	3671.05
1000.704	3603.93
1001	3612.74
1001.295	3593.99
1001.59	3569.81
1001.885	3584.5
1002.18	3520.09
1002.475	3517.15
1002.77	3495.01
1003.065	3477.38
1003.359	3477.15
1003.654	3464.05
1003.949	3383.15
1004.243	3445.52
1004.538	3335.46
1004.832	3389.47
1005.127	3346.76
1005.421	3338.63
1005.715	3314.22
1006.009	3300.21
1006.304	3257.05
1006.598	3269.25
1006.892	3235.8
1007.186	3183.38
1007.48	3177.73
1007.773	3184.28
1008.067	3150.38
1008.361	3123.72
1008.655	3108.35
1008.948	3089.37
1009.242	3098.18
1009.535	3061.35
1009.829	3025.19
1010.122	3018.86
1010.415	3007.56
1010.708	2942.25
1011.001	2962.82
1011.295	2951.29
1011.588	2917.17
1011.881	2900.67
1012.173	2887.79
1012.466	2855.48
1012.759	2829.04
1013.052	2811.41
1013.344	2819.09
1013.637	2800.34
1013.93	2756.72
1014.222	2770.05
1014.514	2742.48
1014.807	2747.68
1015.099	2706.33
1015.391	2661.13
1015.683	2636.5
1015.976	2638.98
1016.268	2600.12
1016.56	2603.05
1016.851	2568.93
1017.143	2598.99
1017.435	2545.88
1017.727	2533.9
1018.018	2552.43
1018.31	2499.1
1018.602	2508.14
1018.893	2467.92
1019.185	2448.03
1019.476	2435.15
1019.767	2455.71
1020.058	2439.89
1020.35	2384.53
1020.641	2348.6
1020.932	2352.44
1021.223	2342.49
1021.514	2324.42
1021.804	2294.13
1022.095	2277.86
1022.386	2300.46
1022.677	2257.98
1022.967	2239.9
1023.258	2240.35
1023.548	2209.84
1023.839	2194.48
1024.129	2174.59
1024.419	2185.21
1024.709	2144.31
1025	2149.51
1025.29	2099.34
1025.58	2121.48
1025.87	2096.85
1026.16	2089.39
1026.449	2055.95
1026.739	2092.56
1027.029	2021.6
1027.319	2019.11
1027.608	2009.4
1027.898	1961.26
1028.187	1961.49
1028.477	1994.03
1028.766	1949.28
1029.055	1892.34
1029.344	1904.99
1029.634	1912.68
1029.923	1902.51
1030.212	1864.54
1030.501	1893.92
1030.79	1848.72
1031.078	1852.56
1031.367	1798.55
1031.656	1813.7
1031.945	1772.79
1032.233	1798.1
1032.522	1760.82
1032.81	1766.24
1033.099	1749.29
1033.387	1734.15
1033.675	1702.29
1033.963	1693.92
1034.251	1698.22
1034.54	1689.63
1034.828	1684.89
1035.116	1653.47
1035.403	1648.28
1035.691	1671.78
1035.979	1609.41
1036.267	1603.76
1036.554	1575.28
1036.842	1607.82
1037.129	1581.38
1037.417	1575.74
1037.704	1542.97
1037.992	1545.91
1038.279	1540.03
1038.566	1517.66
1038.853	1517.66
1039.14	1517.66
