Data from 17-5722_FLMS001491_006.txt Node
Date: Thu Apr 19 15:14:39 BST 2018
User: hsy
Spectrometer: FLMS00149
Trigger mode: 0
Integration Time (sec): 1.000000E-2
Scans to average: 10
Electric dark correction enabled: true
Nonlinearity correction enabled: false
Boxcar width: 0
XAxis mode: Wavelengths
Number of Pixels in Spectrum: 2048
>>>>>Begin Spectral Data<<<<<
341.393	-18.5
341.776	-18.5
342.16	-18.5
342.543	-63.25
342.927	-67.31
343.31	-81.33
343.693	-68.67
344.077	-65.73
344.46	-48.78
344.843	-42.68
345.226	-44.94
345.61	-4.49
345.993	-12.4
346.376	-5.17
346.759	-2.68
347.142	5.9
347.525	33.25
347.908	42.96
348.291	85.68
348.674	93.13
349.057	115.96
349.44	134.94
349.823	156.86
350.206	172.68
350.588	215.84
350.971	247.25
351.354	275.28
351.737	267.82
352.119	292.45
352.502	294.48
352.884	314.14
353.267	323.41
353.65	314.14
354.032	344.43
354.414	366.12
354.797	357.98
355.179	338.55
355.562	349.17
355.944	360.7
356.326	357.08
356.709	369.51
357.091	367.7
357.473	381.26
357.855	379.23
358.238	372
358.62	387.14
359.002	371.54
359.384	360.24
359.766	395.05
360.148	371.09
360.53	386.91
360.912	384.42
361.294	349.17
361.676	375.84
362.057	351.43
362.439	364.31
362.821	388.94
363.203	362.5
363.584	370.64
363.966	394.82
364.348	368.83
364.729	372.45
365.111	375.61
365.493	364.99
365.874	357.76
366.256	357.76
366.637	345.56
367.019	376.97
367.4	369.74
367.781	347.14
368.163	377.19
368.544	366.12
368.925	368.38
369.306	348.27
369.688	376.29
370.069	363.18
370.45	369.74
370.831	345.56
371.212	361.6
371.593	371.32
371.974	368.83
372.355	372
372.736	374.26
373.117	378.78
373.498	383.97
373.879	374.93
374.26	342.39
374.641	378.1
375.021	383.3
375.402	391.2
375.783	407.48
376.163	412.45
376.544	409.28
376.925	387.36
377.305	380.13
377.686	387.36
378.066	393.92
378.447	416.06
378.827	402.05
379.208	409.06
379.588	419.23
379.968	407.02
380.349	422.84
380.729	398.66
381.109	419.23
381.489	406.8
381.87	458.55
382.25	420.58
382.63	413.35
383.01	434.82
383.39	440.92
383.77	425.33
384.15	441.6
384.53	432.33
384.91	440.24
385.29	438.66
385.67	433.24
386.049	438.21
386.429	449.96
386.809	451.32
387.189	458.1
387.568	468.49
387.948	451.09
388.328	457.42
388.707	482.5
389.087	483.86
389.466	484.08
389.846	496.06
390.225	484.76
390.605	491.77
390.984	495.61
391.363	478.89
391.743	490.86
392.122	487.02
392.501	503.52
392.881	496.29
393.26	502.61
393.639	520.92
394.018	531.99
394.397	529.51
394.776	522.5
395.155	528.38
395.534	574.02
395.913	543.74
396.292	534.03
396.671	541.26
397.05	577.19
397.429	550.75
397.808	550.97
398.186	533.8
398.565	574.93
398.944	571.76
399.323	564.99
399.701	583.52
400.08	583.52
400.458	574.02
400.837	597.75
401.215	574.48
401.594	584.65
401.972	588.71
402.351	613.35
402.729	614.48
403.107	627.13
403.486	611.54
403.864	626.23
404.242	631.42
404.62	646.11
404.999	651.99
405.377	632.78
405.755	648.15
406.133	671.87
406.511	659.45
406.889	656.06
407.267	685.21
407.645	683.85
408.023	698.31
408.401	703.29
408.779	726.34
409.156	717.52
409.534	721.37
409.912	734.7
410.29	757.07
410.667	738.99
411.045	748.03
411.422	772.89
411.8	786.45
412.178	794.58
412.555	805.2
412.933	811.53
413.31	833.45
413.687	821.25
414.065	855.82
414.442	816.73
414.819	856.5
415.197	870.74
415.574	888.37
415.951	877.29
416.328	888.37
416.705	880.91
417.082	898.99
417.46	915.03
417.837	885.43
418.214	914.13
418.591	924.07
418.967	938.76
419.344	937.18
419.721	914.81
420.098	940.57
420.475	961.36
420.852	953.9
421.228	963.84
421.605	1019.21
421.982	989.15
422.358	1002.49
422.735	1006.1
423.111	1020.11
423.488	1029.61
423.864	1049.27
424.241	1034.13
424.617	1058.53
424.994	1055.14
425.37	1079.77
425.746	1091.98
426.123	1110.06
426.499	1105.76
426.875	1145.76
427.251	1142.6
427.627	1166.55
428.003	1178.98
428.379	1210.84
428.756	1208.81
429.132	1196.61
429.507	1255.36
429.883	1226.66
430.259	1257.85
430.635	1266.66
431.011	1303.5
431.387	1294.23
431.763	1306.21
432.138	1335.36
432.514	1345.53
432.89	1343.72
433.265	1400.22
433.641	1394.34
434.016	1390.73
434.392	1419.43
434.767	1434.79
435.143	1458.97
435.518	1457.62
435.894	1490.84
436.269	1522.47
436.644	1513.21
437.02	1531.06
437.395	1513.21
437.77	1568.57
438.145	1569.03
438.52	1588.91
438.895	1590.04
439.271	1605.41
439.646	1673.43
440.021	1658.06
440.395	1656.71
440.77	1677.05
441.145	1679.08
441.52	1715.46
441.895	1690.38
442.27	1708.01
442.645	1723.15
443.019	1729.47
443.394	1729.7
443.769	1743.94
444.143	1743.71
444.518	1754.78
444.892	1779.87
445.267	1761.79
445.641	1789.59
446.016	1831.17
446.39	1821.45
446.764	1845.63
447.139	1856.48
447.513	1879.98
447.887	1905.51
448.262	1890.37
448.636	1912.97
449.01	1912.75
449.384	1936.93
449.758	1942.12
450.132	1971.73
450.506	1985.96
450.88	1997.72
451.254	1986.19
451.628	2056.47
452.002	2054.66
452.376	2037.26
452.75	2082.46
453.123	2127.2
453.497	2127.43
453.871	2140.54
454.244	2213.08
454.618	2216.92
454.992	2258.05
455.365	2276.58
455.739	2288.56
456.112	2304.83
456.486	2327.65
456.859	2375.11
457.232	2413.07
457.606	2449.68
457.979	2426.41
458.352	2499.17
458.725	2561.09
459.099	2566.29
459.472	2620.07
459.845	2619.62
460.218	2651.71
460.591	2662.56
460.964	2717.92
461.337	2759.5
461.71	2774.42
462.083	2811.93
462.456	2822.1
462.829	2894.87
463.201	2905.26
463.574	2928.54
463.947	2979.16
464.32	2991.36
464.692	3040.4
465.065	3019.38
465.438	3108.87
465.81	3125.82
466.183	3130.57
466.555	3223.22
466.928	3259.38
467.3	3243.11
467.672	3274.29
468.045	3356.55
468.417	3354.06
468.789	3392.03
469.161	3463.67
469.534	3518.35
469.906	3534.62
470.278	3556.54
470.65	3601.97
471.022	3674.73
471.394	3748.86
471.766	3784.56
472.138	3821.62
472.51	3889.87
472.882	3908.4
473.253	3996.76
473.625	4033.82
473.997	4145.46
474.369	4146.81
474.74	4226.81
475.112	4285.79
475.484	4327.6
475.855	4371.44
476.227	4461.83
476.598	4516.75
476.97	4629.29
477.341	4685.1
477.713	4759
478.084	4805.55
478.455	4983.17
478.827	4974.81
479.198	5143.85
479.569	5152.21
479.94	5277.18
480.311	5346.33
480.682	5458.87
481.053	5550.16
481.424	5674.23
481.795	5750.16
482.166	5832.87
482.537	5934.34
482.908	6088
483.279	6128.91
483.65	6296.81
484.021	6398.05
484.391	6462.46
484.762	6543.36
485.133	6666.75
485.503	6789
485.874	6943.57
486.244	7002.33
486.615	7134.53
486.985	7243.91
487.356	7394.86
487.726	7499.04
488.097	7724.57
488.467	7762.99
488.837	7989.65
489.207	8089.76
489.578	8221.96
489.948	8373.37
490.318	8506.25
490.688	8470.54
491.058	8786.01
491.428	8900.59
491.798	8953.92
492.168	9246.34
492.538	9320.91
492.908	9456.73
493.278	9627.12
493.648	9668.7
494.017	9802.93
494.387	9967.45
494.757	10105.3
495.126	10265.3
495.496	10366.54
495.866	10575.8
496.235	10642.23
496.605	10875
496.974	10994.77
497.344	11103.92
497.713	11284.93
498.082	11411.71
498.452	11572.38
498.821	11663
499.19	11743.45
499.559	11910.9
499.928	12014.4
500.298	12161.74
500.667	12288.97
501.036	12370.55
501.405	12523.77
501.774	12705.91
502.143	12966.92
502.512	13006.24
502.88	13162.17
503.249	13210.53
503.618	13361.48
503.987	13502.5
504.356	13585.66
504.724	13806.67
505.093	13839.66
505.462	13992.2
505.83	14128.47
506.199	14257.05
506.567	14474
506.936	14502.92
507.304	14701.11
507.672	14846.64
508.041	14914.66
508.409	15080.08
508.777	15221.55
509.145	15327.53
509.514	15456.8
509.882	15564.59
510.25	15624.25
510.618	15811.36
510.986	15787.86
511.354	16018.14
511.722	16138.81
512.09	16323.21
512.458	16310.56
512.826	16540.16
513.193	16566.82
513.561	16691.79
513.929	16791.45
514.297	17011.78
514.664	17068.05
515.032	17229.63
515.4	17326.8
515.767	17404.99
516.135	17457.65
516.502	17306.47
516.869	17836.62
517.237	17781.48
517.604	17788.26
517.972	18068.25
518.339	18023.28
518.706	18212.66
519.073	18151.42
519.44	18305.76
519.808	18530.84
520.175	18519.54
520.542	18778.74
520.909	18870.04
521.276	18865.07
521.643	19132.86
522.009	19322.46
522.376	19248.56
522.743	19357.03
523.11	19627.31
523.477	19744.59
523.843	19743.92
524.21	19917.47
524.577	20104.36
524.943	20189.78
525.31	20232.94
525.676	20452.37
526.043	20643.78
526.409	20681.52
526.776	20916.54
527.142	20950.44
527.508	20989.76
527.874	21069.76
528.241	21349.3
528.607	21321.28
528.973	21560.37
529.339	21497.99
529.705	21718.1
530.071	21774.37
530.437	21901.15
530.803	22077.19
531.169	22039.45
531.535	22067.92
531.901	22210.97
532.267	22262.95
532.632	22377.29
532.998	22537.97
533.364	22508.81
533.73	22557.18
534.095	22740.9
534.461	22729.6
534.826	22770.5
535.192	22800.56
535.557	22941.35
535.923	22850.05
536.288	22945.19
536.653	23086.65
537.019	22972.31
537.384	23074.22
537.749	23098.63
538.114	23026.09
538.479	23041.68
538.845	23076.71
539.21	23107.44
539.575	23192.19
539.94	23157.39
540.305	23422.01
540.67	23350.6
541.034	23307.21
541.399	23322.35
541.764	23295.23
542.129	23350.37
542.494	23413.88
542.858	23417.72
543.223	23390.15
543.587	23455.46
543.952	23379.3
544.316	23368
544.681	23359.19
545.045	23447.32
545.41	23484.83
545.774	23409.36
546.138	23493.2
546.503	23438.06
546.867	23447.32
547.231	23657.71
547.595	23586.3
547.959	23559.86
548.324	23623.36
548.688	23564.83
549.052	23589.69
549.416	23608.67
549.779	23568.9
550.143	23577.49
550.507	23668.33
550.871	23712.85
551.235	23667.2
551.599	23761.66
551.962	23672.17
552.326	23719.18
552.689	23814.09
553.053	23522.8
553.417	23711.27
553.78	23856.58
554.143	23847.76
554.507	23803.02
554.87	23924.82
555.234	23973.18
555.597	23755.34
555.96	23871.49
556.323	23946.97
556.686	23928.66
557.05	24010.7
557.413	24030.81
557.776	24045.95
558.139	24195.1
558.502	24182.44
558.865	24118.94
559.228	24346.73
559.59	24323.68
559.953	24216.34
560.316	24562.09
560.679	24467.63
561.041	24555.54
561.404	24635.09
561.767	24743.78
562.129	24691.36
562.492	24819.71
562.854	24745.14
563.217	24824.01
563.579	24809.09
563.941	25034.4
564.304	25149.65
564.666	25287.72
565.028	25273.04
565.39	25282.75
565.753	25448.62
566.115	25368.4
566.477	25605.46
566.839	25615.85
567.201	25926.35
567.563	25786.24
567.925	26020.81
568.287	26002.28
568.648	26031.21
569.01	26235.95
569.372	26289.28
569.734	26368.6
570.095	26554.58
570.457	26611.08
570.819	26669.16
571.18	26651.3
571.542	26906.21
571.903	26891.07
572.265	26962.71
572.626	27072.31
572.987	27070.05
573.349	27125.87
573.71	27330.38
574.071	27459.19
574.432	27620.54
574.794	27757.94
575.155	27779.41
575.516	27680.2
575.877	27877.71
576.238	27868.22
576.599	27850.6
576.96	27953.64
577.32	28068.89
577.681	28191.15
578.042	28240.64
578.403	28155.22
578.763	28168.78
579.124	28319.28
579.485	28521.76
579.845	28552.5
580.206	28493.29
580.566	28594.76
580.927	28529.9
581.287	28673.17
581.648	28629.33
582.008	28732.83
582.368	28748.42
582.728	28777.58
583.089	28843.34
583.449	28846.28
583.809	28787.52
584.169	28895.77
584.529	28836.33
584.889	29034.29
585.249	28875.2
585.609	28766.96
585.969	29006.72
586.329	28871.13
586.688	28981.64
587.048	29030.68
587.408	28935.31
587.768	28985.48
588.127	29003.56
588.487	28939.15
588.846	29118.81
589.206	28950.23
589.565	29007.4
589.925	29264.8
590.284	29138.92
590.643	29137.34
591.003	29126.27
591.362	29373.95
591.721	29207.85
592.08	29151.8
592.44	29271.12
592.799	29197.9
593.158	29258.24
593.517	29200.84
593.876	29351.57
594.235	29300.05
594.593	29242.65
594.952	29289.2
595.311	29227.73
595.67	29331.91
596.029	29413.49
596.387	29536.2
596.746	29510.66
597.104	29354.74
597.463	29384.57
597.822	29566.26
598.18	29466.6
598.538	29349.99
598.897	29571.91
599.255	29422.53
599.613	29847.38
599.972	29573.26
600.33	29630.21
600.688	29393.15
601.046	29594.05
601.404	29835.85
601.762	29678.34
602.12	29812.8
602.478	29741.85
602.836	29770.54
603.194	29648.06
603.552	29785.69
603.91	29634.96
604.268	29858
604.625	29761.73
604.983	29870.43
605.341	29736.87
605.698	29983.42
606.056	30145.45
606.413	29855.74
606.771	30020.71
607.128	30005.79
607.485	29951.11
607.843	30011.89
608.2	30175.28
608.557	30215.73
608.914	30098.22
609.272	30189.52
609.629	30274.03
609.986	30458.89
610.343	30365.33
610.7	30429.96
611.057	30619.56
611.414	30424.99
611.771	30568.26
612.127	30681.48
612.484	30711.54
612.841	30727.36
613.198	30682.16
613.554	30492.11
613.911	30819.33
614.267	30802.83
614.624	30769.61
614.98	30956.05
615.337	31163.05
615.693	30912.89
616.05	30914.47
616.406	31049.83
616.762	31106.55
617.118	31100
617.475	31040.57
617.831	31158.53
618.187	31244.86
618.543	31177.51
618.899	31496.83
619.255	31311.3
619.611	31247.57
619.967	31369.6
620.323	31450.05
620.678	31397.17
621.034	31264.97
621.39	31326.44
621.746	31438.52
622.101	31789.47
622.457	31388.13
622.812	31644.62
623.168	31636.26
623.523	31647.56
623.879	31770.04
624.234	31614.79
624.589	31729.14
624.945	31627.45
625.3	31692.53
625.655	31737.05
626.01	31804.16
626.365	31845.52
626.72	31649.14
627.075	31503.83
627.43	31546.77
627.785	31602.14
628.14	31489.37
628.495	31662.92
628.85	31657.73
629.205	31673.55
629.559	31678.52
629.914	31481.91
630.269	31560.1
630.623	31333.89
630.978	31445.08
631.332	31758.29
631.687	31526.2
632.041	31442.14
632.396	31552.42
632.75	31495.02
633.104	31457.73
633.459	31332.31
633.813	31253.9
634.167	31137.06
634.521	31309.71
634.875	31247.34
635.229	31168.93
635.583	30979.1
635.937	31066.78
636.291	31045.09
636.645	30942.04
636.999	30883.51
637.352	30938.2
637.706	30767.13
638.06	30797.41
638.413	30851.42
638.767	30728.94
639.121	30789.05
639.474	30620.92
639.828	30610.07
640.181	30687.81
640.534	30651.43
640.888	30564.87
641.241	30279.01
641.594	30337.08
641.947	30476.74
642.301	30420.02
642.654	30416.18
643.007	30276.07
643.36	30487.14
643.713	30365.11
644.066	30508.15
644.419	30243.75
644.771	29961.5
645.124	29715.63
645.477	29764.22
645.83	29602.19
646.182	29636.76
646.535	29679.02
646.888	29594.05
647.24	29449.65
647.593	29681.06
647.945	29563.09
648.298	29585.47
648.65	29406.26
649.002	29213.95
649.355	29174.18
649.707	28990.9
650.059	28963.79
650.411	29466.37
650.763	29652.58
651.115	30145
651.467	30076.98
651.819	30068.62
652.171	29981.84
652.523	29989.75
652.875	29949.75
653.227	29906.13
653.578	30204.43
653.93	30021.16
654.282	29874.72
654.633	29976.64
654.985	29894.38
655.337	29997.66
655.688	29953.36
656.039	30121.04
656.391	29886.25
656.742	29894.61
657.094	29984.32
657.445	30050.76
657.796	30163.53
658.147	30179.8
658.498	30026.36
658.849	30177.54
659.2	30095.06
659.551	30118.78
659.902	30340.47
660.253	30112.23
660.604	30304.32
660.955	30031.1
661.306	30319.68
661.656	30203.08
662.007	30253.47
662.358	30255.96
662.708	30193.81
663.059	30222.06
663.409	30057.77
663.76	30249.4
664.11	30470.87
664.461	30386.12
664.811	30409.85
665.161	30348.61
665.511	30392.9
665.862	30314.03
666.212	30397.42
666.562	30580.47
666.912	30406.69
667.262	30372.79
667.612	30385.9
667.962	30341.38
668.312	30248.5
668.662	30612.78
669.011	30443.52
669.361	30290.31
669.711	30455.72
670.06	30328.72
670.41	30243.98
670.76	30270.19
671.109	30438.32
671.459	30291.66
671.808	30400.36
672.157	30381.38
672.507	30212.12
672.856	30281.49
673.205	30157.43
673.554	30315.16
673.904	30216.18
674.253	30392.9
674.602	30124.43
674.951	29860.26
675.3	29612.13
675.649	29941.61
675.998	30011.44
676.346	30018.22
676.695	30072.01
677.044	30114.26
677.393	30032.91
677.741	30063.87
678.09	29909.07
678.438	29806.02
678.787	29979.13
679.135	29928.96
679.484	29676.54
679.832	29802.18
680.181	29691.45
680.529	29813.03
680.877	29556.09
681.225	29542.3
681.573	29818.68
681.922	29549.53
682.27	29392.7
682.618	29487.39
682.966	29375.75
683.314	29403.77
683.661	29368.07
684.009	29175.08
684.357	29103.22
684.705	29055.31
685.053	29183.67
685.4	28982.32
685.748	28855.77
686.095	28906.39
686.443	28730.8
686.79	28605.38
687.138	28659.84
687.485	28598.37
687.832	28579.84
688.18	28509.11
688.527	28378.72
688.874	28422.33
689.221	28304.14
689.568	28201.09
689.915	28073.41
690.262	28087.88
690.609	27978.73
690.956	27772.18
691.303	27796.36
691.65	27636.82
691.997	27540.1
692.344	27493.54
692.69	27387.33
693.037	27235.7
693.383	27085.19
693.73	27278.63
694.077	27063.5
694.423	26945.31
694.769	26739.89
695.116	26757.29
695.462	26519.78
695.808	26490.41
696.155	26444.08
696.501	26170.41
696.847	26311.88
697.193	26056.74
697.539	26034.15
697.885	25771.33
698.231	25755.74
698.577	25710.31
698.923	25685.23
699.269	25385.35
699.614	25435.07
699.96	25254.05
700.306	25334.5
700.651	25030.56
700.997	25024.68
701.342	24892.71
701.688	24886.61
702.033	24731.81
702.379	24646.61
702.724	24525.26
703.069	24627.86
703.415	24173.4
703.76	24220.86
704.105	24217.7
704.45	24153.52
704.795	24013.41
705.14	23837.82
705.485	23936.57
705.83	23660.88
706.175	23723.02
706.52	23715.79
706.865	23605.51
707.209	23537.49
707.554	23393.31
707.899	23489.81
708.243	23217.5
708.588	23289.59
708.932	23134.56
709.277	23173.43
709.621	23027.22
709.966	22907.67
710.31	22979.99
710.654	22712.65
710.998	22888.92
711.342	22845.76
711.687	22627
712.031	22693.67
712.375	22553.56
712.719	22478.31
713.063	22544.97
713.407	22564.41
713.75	22456.39
714.094	22430.85
714.438	22357.18
714.782	22298.88
715.125	22179.11
715.469	22288.26
715.812	22195.15
716.156	22189.5
716.499	22153.12
716.843	22148.37
717.186	22082.84
717.53	22126.45
717.873	22117.41
718.216	22187.92
718.559	21925.55
718.902	21895.95
719.246	21879.45
719.589	21852.56
719.932	21832.9
720.275	21912.22
720.617	21937.08
720.96	21753.13
721.303	21827.93
721.646	21914.71
721.989	21721.27
722.331	21858.21
722.674	21731.89
723.016	21703.19
723.359	21750.19
723.701	21733.24
724.044	21761.26
724.386	21656.18
724.729	21808.72
725.071	21837.19
725.413	21745.67
725.755	21675.16
726.097	21769.17
726.439	21560.14
726.782	21590.65
727.124	21764.65
727.465	21686.46
727.807	21717.2
728.149	21851.66
728.491	21684.2
728.833	21728.04
729.175	21741.6
729.516	21690.98
729.858	21842.62
730.199	21856.4
730.541	21767.59
730.882	21830.41
731.224	21820.47
731.565	21723.52
731.906	21845.78
732.248	22009.85
732.589	21839.45
732.93	21781.15
733.271	21814.37
733.612	21898.89
733.953	22010.52
734.294	21827.25
734.635	21994.03
734.976	22060.69
735.317	22047.81
735.658	22088.71
735.999	22053.23
736.339	22156.28
736.68	22201.25
737.021	22276.05
737.361	22214.81
737.702	22385.43
738.042	22354.47
738.383	22443.73
738.723	22553.33
739.063	22526.22
739.404	22597.85
739.744	22784.06
740.084	22749.94
740.424	22813.44
740.764	22802.82
741.104	22934.34
741.444	22965.07
741.784	22962.81
742.124	23105.18
742.464	23213.43
742.804	23245.97
743.143	23318.51
743.483	23654.77
743.823	23545.17
744.162	23588.56
744.502	23770.25
744.841	23852.73
745.181	24114.87
745.52	24049.34
745.86	24220.18
746.199	24268.99
746.538	24476.67
746.877	24694.07
747.216	24825.82
747.556	24961.18
747.895	25108.07
748.234	25316.65
748.573	25360.72
748.911	25665.57
749.25	25797.77
749.589	25931.1
749.928	26194.82
750.267	26310.52
750.605	26593.68
750.944	26735.82
751.283	26731.98
751.621	27152.08
751.96	27220.78
752.298	27522.24
752.636	27715.23
752.975	27913.19
753.313	28069.35
753.651	28468.88
753.989	28491.71
754.327	28878.59
754.666	28764.92
755.004	29228.19
755.342	29575.3
755.679	29621.4
756.017	29736.65
756.355	30223.19
756.693	30392.22
757.031	30697.98
757.368	30713.8
757.706	31062.94
758.044	31253.9
758.381	31434.23
758.719	31631.51
759.056	31966.42
759.394	32089.13
759.731	32220.42
760.068	32517.14
760.405	32722.33
760.743	32799.39
761.08	33163.22
761.417	33396.21
761.754	33472.37
762.091	33746.49
762.428	33807.73
762.765	33811.79
763.102	34108.51
763.438	34325.45
763.775	34348.28
764.112	34553.92
764.449	34900.81
764.785	34939.45
765.122	35016.51
765.458	35050.41
765.795	35101.93
766.131	35377.18
766.467	35462.82
766.804	35302.15
767.14	35641.58
767.476	35553.22
767.812	35637.06
768.148	35862.59
768.485	35933.32
768.821	35858.97
769.157	35934.9
769.492	36061.23
769.828	36161.56
770.164	35887.9
770.5	36075.92
770.836	36246.98
771.171	36216.48
771.507	36157.5
771.842	36136.48
772.178	36216.03
772.513	36280.43
772.849	36186.2
773.184	36215.8
773.519	36177.61
773.855	36229.36
774.19	36102.58
774.525	36147.78
774.86	36209.7
775.195	36132.41
775.53	36049.7
775.865	35909.59
776.2	35854.9
776.535	35779.43
776.87	35769.03
777.205	35615.59
777.539	35647
777.874	35757.05
778.209	35566.1
778.543	35695.36
778.878	35524.29
779.212	35539.21
779.547	35226.67
779.881	35482.94
780.215	35187.8
780.55	35310.96
780.884	35094.92
781.218	35082.27
781.552	35122.04
781.886	34942.84
782.22	34867.13
782.554	34694.71
782.888	34530.65
783.222	34599.34
783.556	34357.54
783.889	34400.48
784.223	34263.99
784.557	34151.67
784.89	34359.8
785.224	34044.1
785.557	33898.57
785.891	33834.17
786.224	33849.08
786.558	33791.46
786.891	33698.13
787.224	33534.74
787.557	33457.91
787.891	33432.6
788.224	33332.26
788.557	33273.5
788.89	33228.53
789.223	33289.77
789.556	32979.05
789.888	32906.06
790.221	32801.43
790.554	32770.92
790.887	32767.98
791.219	32538.83
791.552	32673.52
791.884	32333.87
792.217	32327.77
792.549	32376.8
792.882	32063.82
793.214	31947.66
793.546	31995.35
793.879	31869.02
794.211	31643.04
794.543	31875.12
794.875	31716.26
795.207	31773.88
795.539	31565.3
795.871	31627.22
796.203	31503.61
796.535	31210.06
796.867	31245.99
797.198	30940.46
797.53	31058.87
797.862	30790.86
798.193	30839.67
798.525	30702.05
798.856	30878.99
799.188	30408.95
799.519	30438.55
799.85	30243.07
800.182	30328.5
800.513	30519
800.844	29986.13
801.175	30217.99
801.506	30235.17
801.837	30034.49
802.168	29954.49
802.499	30031.55
802.83	29777.1
803.161	29606.03
803.491	29643.54
803.822	29755.63
804.153	29447.62
804.483	29305.47
804.814	29213.5
805.145	29259.37
805.475	29330.33
805.805	29162.88
806.136	29285.13
806.466	29103.44
806.796	28969.21
807.126	28819.16
807.457	28795.2
807.787	28886.05
808.117	28700.52
808.447	28667.52
808.777	28706.62
809.107	28486.96
809.436	28462.56
809.766	28409.45
810.096	28504.82
810.426	28318.38
810.755	28380.98
811.085	28293.75
811.414	28241.32
811.744	28055.79
812.073	28089.91
812.403	28063.7
812.732	27892.18
813.061	28110.93
813.39	27845.62
813.719	27654.89
814.049	27904.61
814.378	27758.39
814.707	27663.48
815.036	27643.14
815.365	27536.25
815.693	27459.42
816.022	27414.9
816.351	27236.6
816.68	27214.45
817.008	27268.24
817.337	27080.67
817.665	27143.27
817.994	27131.97
818.322	27089.94
818.651	27017.85
818.979	26910.73
819.307	26976.95
819.636	26905.08
819.964	26708.93
820.292	26840.23
820.62	26825.31
820.948	26940.34
821.276	27022.37
821.604	26848.14
821.932	26948.02
822.259	26941.47
822.587	26807.23
822.915	26861.02
823.243	26834.58
823.57	26754.58
823.898	26935.82
824.225	26934.24
824.553	26844.07
824.88	26809.94
825.207	27036.83
825.535	26850.17
825.862	26935.59
826.189	26800.45
826.516	27113.44
826.843	26983.5
827.17	27047.23
827.497	26969.49
827.824	27072.99
828.151	27052.88
828.478	26925.42
828.805	27087
829.131	27078.19
829.458	27032.99
829.785	26929.26
830.111	26777.86
830.438	27048.58
830.764	27013.78
831.09	27003.84
831.417	26926.55
831.743	27085.42
832.069	26981.69
832.395	26993.67
832.722	27112.31
833.048	26924.97
833.374	26985.08
833.7	26929.26
834.026	26993.67
834.351	27026.66
834.677	27045.87
835.003	27029.83
835.329	26959.09
835.654	26914.8
835.98	26878.42
836.306	26828.7
836.631	26830.51
836.956	26959.77
837.282	26934.69
837.607	26758.87
837.932	26861.69
838.258	26747.8
838.583	26861.24
838.908	26705.99
839.233	26665.99
839.558	26537.41
839.883	26570.4
840.208	26289.73
840.533	26440.91
840.858	26287.7
841.182	26474.81
841.507	26378.09
841.832	26267.81
842.156	26244.76
842.481	26341.26
842.805	26166.57
843.13	26072.56
843.454	26202.5
843.778	26063.3
844.103	25975.39
844.427	25946.24
844.751	25905.56
845.075	25837.54
845.399	25667.83
845.723	25714.38
846.047	25700.37
846.371	25465.12
846.695	25266.48
847.019	25343.99
847.343	25084.79
847.666	25167.5
847.99	24944.23
848.313	24955.08
848.637	24898.81
848.96	24840.51
849.284	24795.31
849.607	24488.2
849.931	24455.88
850.254	24276.45
850.577	24150.35
850.9	23991.49
851.223	24051.37
851.546	23945.16
851.869	23831.72
852.192	23951.04
852.515	23699.74
852.838	23557.83
853.161	23594.21
853.483	23468.56
853.806	23404.16
854.129	23355.57
854.451	23262.92
854.774	23199.87
855.096	23157.16
855.419	23056.15
855.741	23036.94
856.063	22839.43
856.385	22751.29
856.708	22816.38
857.03	22696.83
857.352	22653.44
857.674	22564.63
857.996	22565.08
858.318	22431.08
858.64	22396.28
858.961	22281.7
859.283	22294.58
859.605	22252.55
859.926	22210.07
860.248	22159.67
860.57	22001.03
860.891	22020.24
861.212	21895.5
861.534	21800.13
861.855	21771.66
862.176	21860.24
862.498	21805.78
862.819	21788.61
863.14	21686.69
863.461	21673.81
863.782	21518.56
864.103	21564.43
864.424	21509.29
864.745	21443.08
865.065	21295.06
865.386	21232.01
865.707	21373.25
866.027	21280.37
866.348	21246.48
866.668	21290.32
866.989	21114.28
867.309	21049.19
867.63	21054.62
867.95	21090.55
868.27	20927.61
868.59	21058.23
868.91	20926.48
869.23	20984.34
869.55	20773.95
869.87	20900.95
870.19	20702.31
870.51	20747.05
870.83	20759.03
871.15	20685.36
871.469	20680.61
871.789	20767.84
872.109	20701.4
872.428	20553.84
872.748	20579.15
873.067	20654.17
873.386	20524.23
873.706	20484.24
874.025	20386.16
874.344	20321.08
874.663	20403.33
874.982	20440.85
875.301	20268.87
875.62	20272.04
875.939	20164.47
876.258	20265.03
876.577	20112.04
876.896	20138.93
877.214	20132.83
877.533	20147.52
877.852	20147.3
878.17	20077.92
878.489	20087.18
878.807	19914.31
879.125	19897.13
879.444	19835.21
879.762	19887.64
880.08	19960.86
880.398	19781.88
880.716	19748.66
881.034	19684.03
881.352	19676.12
881.67	19668.21
881.988	19647.42
882.306	19528.33
882.624	19690.58
882.941	19445.17
883.259	19351.16
883.577	19299.41
883.894	19300.09
884.212	19222.8
884.529	19222.8
884.846	19241.33
885.164	19212.4
885.481	19072.75
885.798	19042.01
886.115	18905.29
886.432	19079.98
886.75	18883.6
887.067	18974.44
887.383	18878.63
887.7	18837.27
888.017	18718.86
888.334	18760.66
888.651	18720.89
888.967	18598.41
889.284	18585.75
889.6	18438.64
889.917	18416.95
890.233	18449.71
890.55	18325.65
890.866	18326.78
891.182	18270.73
891.498	18242.03
891.815	18126.11
892.131	18015.37
892.447	17995.49
892.763	17962.95
893.079	17902.61
893.395	17823.29
893.71	17821.25
894.026	17682.28
894.342	17688.83
894.657	17622.39
894.973	17636.85
895.289	17561.6
895.604	17442.06
895.92	17365.67
896.235	17341.95
896.55	17368.39
896.865	17301.95
897.181	17169.75
897.496	17202.74
897.811	17017.21
898.126	17014.72
898.441	16902.63
898.756	16881.39
899.071	16802.75
899.386	16820.15
899.7	16719.59
900.015	16567.5
900.33	16411.35
900.644	16511.46
900.959	16503.32
901.273	16340.62
901.588	16315.53
901.902	16249.32
902.216	16225.82
902.531	16127.51
902.845	16099.94
903.159	15881.64
903.473	15977.91
903.787	15868.99
904.101	15824.7
904.415	15810.46
904.729	15767.3
905.042	15614.08
905.356	15549.45
905.67	15590.8
905.984	15618.15
906.297	15477.36
906.611	15295.9
906.924	15278.04
907.237	15266.29
907.551	15234.66
907.864	15121.89
908.177	15177.71
908.491	14972.06
908.804	14984.94
909.117	14898.62
909.43	14800.54
909.743	14788.57
910.056	14803.03
910.368	14707.89
910.681	14626.99
910.994	14509.93
911.307	14532.75
911.619	14319.2
911.932	14307.9
912.244	14236.26
912.557	14222.25
912.869	14161.46
913.181	14167.11
913.494	14210.05
913.806	14041.47
914.118	14018.19
914.43	14007.12
914.742	13835.37
915.054	13771.87
915.366	13713.11
915.678	13636.73
915.99	13647.8
916.302	13513.12
916.613	13498.2
916.925	13465.21
917.236	13419.34
917.548	13340.47
917.859	13299.34
918.171	13278.55
918.482	13093.92
918.794	13097.09
919.105	13168.5
919.416	13026.8
919.727	12982.74
920.038	12946.58
920.349	12815.96
920.66	12800.37
920.971	12772.8
921.282	12681.73
921.593	12564.22
921.903	12568.29
922.214	12494.84
922.525	12404.9
922.835	12462.3
923.146	12366.93
923.456	12275.64
923.767	12228.86
924.077	12163.55
924.387	12196.77
924.697	12106.83
925.008	12032.48
925.318	11980.96
925.628	11964.69
925.938	11927.62
926.248	11796.1
926.558	11791.81
926.867	11784.13
927.177	11764.01
927.487	11627.07
927.796	11608.08
928.106	11634.07
928.416	11574.19
928.725	11469.33
929.034	11430.01
929.344	11386.17
929.653	11376.23
929.962	11269.34
930.271	11312.27
930.581	11120.41
930.89	11137.36
931.199	11025.95
931.508	11048.78
931.817	11093.52
932.125	10994.32
932.434	10898.5
932.743	10781.67
933.051	10778.5
933.36	10760.65
933.669	10717.71
933.977	10642.91
934.286	10636.36
934.594	10592.97
934.902	10573.08
935.21	10518.17
935.519	10506.42
935.827	10410.38
936.135	10370.83
936.443	10262.36
936.751	10240.89
937.059	10234.11
937.367	10189.59
937.674	10180.1
937.982	10081.8
938.29	10063.72
938.597	10041.35
938.905	9872.31
939.213	9881.58
939.52	9837.51
939.827	9858.07
940.135	9744.86
940.442	9719.32
940.749	9744.86
941.056	9749.38
941.363	9540.12
941.67	9570.17
941.977	9531.76
942.284	9455.82
942.591	9467.35
942.898	9456.5
943.205	9489.5
943.511	9310.97
943.818	9320.69
944.125	9255.83
944.431	9180.58
944.738	9163.18
945.044	9131.31
945.35	9008.6
945.657	9047.7
945.963	8991.43
946.269	8906.46
946.575	8958.21
946.881	8876.86
947.187	8834.37
947.493	8802.73
947.799	8807.48
948.105	8738.56
948.41	8659.91
948.716	8666.24
949.022	8565.9
949.327	8567.71
949.633	8430.77
949.938	8503.08
950.244	8517.77
950.549	8361.62
950.854	8371.79
951.16	8362.97
951.465	8244.56
951.77	8234.16
952.075	8267.16
952.38	8209.76
952.685	8179.93
952.99	8090.21
953.294	8083.88
953.599	8010.44
953.904	7992.81
954.209	7967.28
954.513	7947.16
954.818	7807.28
955.122	7870.56
955.426	7796.66
955.731	7788.3
956.035	7709.66
956.339	7647.28
956.643	7715.53
956.948	7577
957.252	7580.39
957.556	7522.32
957.86	7511.92
958.163	7563.67
958.467	7463.11
958.771	7436.67
959.075	7437.57
959.378	7348.54
959.682	7323.9
959.985	7378.59
960.289	7234.64
960.592	7289.1
960.896	7203.91
961.199	7178.6
961.502	7167.52
961.805	7076.45
962.108	6984.25
962.411	7081.88
962.714	7019.05
963.017	6964.59
963.32	6987.87
963.623	6960.98
963.926	6925.5
964.228	6856.12
964.531	6813.41
964.833	6860.41
965.136	6727.53
965.438	6759.4
965.741	6672.4
966.043	6618.84
966.345	6603.47
966.648	6669.46
966.95	6594.66
967.252	6533.64
967.554	6556.92
967.856	6519.63
968.158	6472.63
968.46	6414.32
968.761	6414.77
969.063	6311.05
969.365	6297.72
969.666	6320.09
969.968	6271.95
970.269	6212.52
970.571	6286.64
970.872	6148.79
971.174	6166.87
971.475	6164.39
971.776	6137.04
972.077	6088.23
972.378	6078.06
972.679	6058.85
972.98	5995.8
973.281	6015.46
973.582	5981.57
973.883	5917.39
974.183	5895.01
974.484	5933.88
974.785	5815.92
975.085	5825.64
975.386	5832.19
975.686	5789.03
975.986	5738.18
976.287	5780.44
976.587	5639.43
976.887	5675.59
977.187	5646.89
977.487	5590.16
977.787	5556.04
978.087	5577.06
978.387	5520.79
978.687	5548.81
978.987	5440.79
979.286	5450.28
979.586	5461.35
979.885	5359.66
980.185	5435.37
980.484	5388.14
980.784	5323.05
981.083	5281.02
981.382	5290.51
981.682	5235.37
981.981	5225.65
982.28	5159.89
982.579	5192.43
982.878	5179.78
983.177	5149.27
983.475	5156.28
983.774	5045.55
984.073	5024.53
984.372	5062.27
984.67	5001.7
984.969	4968.71
985.267	5003.74
985.566	4978.65
985.864	4899.79
986.162	4887.36
986.461	4886.91
986.759	4876.74
987.057	4795.38
987.355	4790.86
987.653	4777.08
987.951	4741.6
988.249	4749.73
988.547	4690.3
988.844	4682.39
989.142	4674.26
989.44	4575.95
989.737	4611.21
990.035	4592
990.332	4587.03
990.63	4573.02
990.927	4535.95
991.224	4523.75
991.521	4479.23
991.819	4440.82
992.116	4472.68
992.413	4440.82
992.71	4375.28
993.006	4384.55
993.303	4334.38
993.6	4334.6
993.897	4314.72
994.193	4288.96
994.49	4264.32
994.787	4216.41
995.083	4227.71
995.379	4238.11
995.676	4229.97
995.972	4161.27
996.268	4119.02
996.565	4095.29
996.861	4074.72
997.157	4087.83
997.453	4060.49
997.749	4024.78
998.044	4015.97
998.34	4000.15
998.636	3967.83
998.932	3910.43
999.227	3919.93
999.523	3900.04
999.818	3891.68
1000.114	3856.2
1000.409	3851.9
1000.704	3784.11
1001	3809.87
1001.295	3757.44
1001.59	3714.05
1001.885	3735.52
1002.18	3685.36
1002.475	3684.9
1002.77	3666.6
1003.065	3657.33
1003.359	3658.01
1003.654	3582.31
1003.949	3546.6
1004.243	3531.01
1004.538	3504.57
1004.832	3507.51
1005.127	3492.37
1005.421	3445.59
1005.715	3458.69
1006.009	3436.32
1006.304	3401.75
1006.598	3392.93
1006.892	3335.31
1007.186	3330.56
1007.48	3324.91
1007.773	3243.78
1008.067	3298.02
1008.361	3236.33
1008.655	3236.78
1008.948	3212.83
1009.242	3201.07
1009.535	3183.67
1009.829	3154.52
1010.122	3162.2
1010.415	3120.85
1010.708	3100.96
1011.001	3063
1011.295	3048.31
1011.588	3077.24
1011.881	3025.26
1012.173	3041.3
1012.466	3003.34
1012.759	2994.3
1013.052	2964.24
1013.344	2927.18
1013.637	2875.66
1013.93	2891.48
1014.222	2844.93
1014.514	2882.21
1014.807	2865.04
1015.099	2819.16
1015.391	2799.73
1015.683	2811.25
1015.976	2776.68
1016.268	2753.4
1016.56	2730.8
1016.851	2703.23
1017.143	2693.97
1017.435	2675.44
1017.727	2651.48
1018.018	2630.24
1018.31	2631.6
1018.602	2602.67
1018.893	2615.33
1019.185	2585.5
1019.476	2534.42
1019.767	2536.23
1020.058	2526.74
1020.35	2484.48
1020.641	2470.47
1020.932	2449.91
1021.223	2423.69
1021.514	2400.42
1021.804	2380.76
1022.095	2356.12
1022.386	2394.99
1022.677	2345.96
1022.967	2344.83
1023.258	2317.48
1023.548	2309.8
1023.839	2256.01
1024.129	2291.72
1024.419	2258.95
1024.709	2254.43
1025	2189.35
1025.29	2188.9
1025.58	2190.25
1025.87	2181.21
1026.16	2136.02
1026.449	2127.43
1026.739	2122.68
1027.029	2099.63
1027.319	2120.65
1027.608	2106.41
1027.898	2080.88
1028.187	2013.08
1028.477	2023.7
1028.766	1990.48
1029.055	1996.36
1029.344	2001.78
1029.634	1959.98
1029.923	1934.44
1030.212	1926.08
1030.501	1939.86
1030.79	1898.96
1031.078	1906.64
1031.367	1874.56
1031.656	1879.3
1031.945	1844.05
1032.233	1835.46
1032.522	1849.92
1032.81	1789.36
1033.099	1837.49
1033.387	1795.91
1033.675	1811.51
1033.963	1767.21
1034.251	1775.57
1034.54	1767.67
1034.828	1751.39
1035.116	1711.62
1035.403	1707.1
1035.691	1733.54
1035.979	1723.6
1036.267	1661.91
1036.554	1654.9
1036.842	1669.36
1037.129	1643.15
1037.417	1614
1037.704	1586.65
1037.992	1623.26
1038.279	1574
1038.566	1585.3
1038.853	1585.3
1039.14	1585.3
