Data from 1797_FLMS001491_004.txt Node
Date: Thu Apr 19 16:33:55 BST 2018
User: hsy
Spectrometer: FLMS00149
Trigger mode: 0
Integration Time (sec): 1.000000E-2
Scans to average: 10
Electric dark correction enabled: true
Nonlinearity correction enabled: false
Boxcar width: 0
XAxis mode: Wavelengths
Number of Pixels in Spectrum: 2048
>>>>>Begin Spectral Data<<<<<
341.393	-8.02
341.776	-8.02
342.16	-8.02
342.543	-70.17
342.927	-86.89
343.31	-68.59
343.693	-71.75
344.077	-76.95
344.46	-76.04
344.843	-52.54
345.226	-43.05
345.61	-50.96
345.993	-35.37
346.376	0.79
346.759	19.32
347.142	41.69
347.525	42.82
347.908	77.63
348.291	83.95
348.674	76.27
349.057	132.76
349.44	133.22
349.823	144.97
350.206	177.96
350.588	248.69
350.971	238.3
351.354	249.6
351.737	268.35
352.119	278.52
352.502	301.8
352.884	305.64
353.267	319.2
353.65	342.48
354.032	340.44
354.414	364.17
354.797	365.53
355.179	374.79
355.562	362.59
355.944	369.59
356.326	354.68
356.709	383.83
357.091	366.43
357.473	373.66
357.855	396.71
358.238	396.71
358.62	385.87
359.002	395.58
359.384	402.81
359.766	365.3
360.148	384.74
360.53	408.92
360.912	384.28
361.294	383.38
361.676	378.63
362.057	394.45
362.439	385.87
362.821	383.38
363.203	365.53
363.584	379.09
363.966	391.52
364.348	385.87
364.729	374.79
365.111	357.84
365.493	398.52
365.874	398.97
366.256	377.05
366.637	383.61
367.019	394.9
367.4	396.03
367.781	368.01
368.163	390.61
368.544	360.1
368.925	380.22
369.306	384.06
369.688	387.67
370.069	404.85
370.45	377.96
370.831	391.97
371.212	401.91
371.593	376.83
371.974	395.36
372.355	398.52
372.736	404.4
373.117	375.24
373.498	388.8
373.879	404.4
374.26	385.19
374.641	384.74
375.021	400.33
375.402	403.49
375.783	408.46
376.163	419.99
376.544	419.54
376.925	399.2
377.305	430.61
377.686	418.18
378.066	430.61
378.447	409.59
378.827	400.1
379.208	419.54
379.588	417.73
379.968	401.46
380.349	416.83
380.729	393.77
381.109	409.37
381.489	417.28
381.87	424.96
382.25	430.61
382.63	429.71
383.01	455.47
383.39	441.46
383.77	445.75
384.15	455.24
384.53	475.13
384.91	457.05
385.29	437.62
385.67	474.22
386.049	470.84
386.429	465.19
386.809	481
387.189	467.67
387.568	480.1
387.948	485.75
388.328	467.22
388.707	489.82
389.087	484.85
389.466	498.18
389.846	482.59
390.225	486.65
390.605	482.13
390.984	505.86
391.363	503.6
391.743	502.92
392.122	529.82
392.501	520.78
392.881	523.49
393.26	524.62
393.639	534.11
394.018	556.71
394.397	517.61
394.776	543.15
395.155	551.28
395.534	557.16
395.913	534.11
396.292	556.93
396.671	545.41
397.05	561
397.429	555.35
397.808	546.99
398.186	568.01
398.565	548.12
398.944	570.49
399.323	584.05
399.701	579.08
400.08	563.04
400.458	572.53
400.837	593.77
401.215	601.23
401.594	608.46
401.972	609.81
402.351	617.95
402.729	588.57
403.107	605.07
403.486	631.28
403.864	618.85
404.242	626.76
404.62	657.27
404.999	608.23
405.377	637.84
405.755	651.4
406.133	674.9
406.511	664.5
406.889	666.08
407.267	665.63
407.645	647.78
408.023	685.74
408.401	678.51
408.779	669.02
409.156	699.3
409.534	711.51
409.912	718.29
410.29	725.97
410.667	718.51
411.045	737.49
411.422	742.24
411.8	791.05
412.178	769.58
412.555	753.31
412.933	813.65
413.31	791.96
413.687	792.41
414.065	786.76
414.442	790.15
414.819	789.02
415.197	810.94
415.574	828.11
415.951	837.38
416.328	818.17
416.705	829.47
417.082	856.81
417.46	875.8
417.837	871.73
418.214	864.95
418.591	888.45
418.967	859.3
419.344	880.99
419.721	902.01
420.098	896.81
420.475	890.71
420.852	932.52
421.228	897.94
421.605	927.55
421.982	925.29
422.358	929.35
422.735	939.52
423.111	942.91
423.488	957.83
423.864	975.68
424.241	961.22
424.617	1000.09
424.994	998.73
425.37	991.95
425.746	1030.59
426.123	1011.16
426.499	996.47
426.875	1046.64
427.251	1045.51
427.627	1073.08
428.003	1073.31
428.379	1078.28
428.756	1081.21
429.132	1115.11
429.507	1113.76
429.883	1127.31
430.259	1170.48
430.635	1174.32
431.011	1186.07
431.387	1195.34
431.763	1187.2
432.138	1179.52
432.514	1231.72
432.89	1197.82
433.265	1253.64
433.641	1280.76
434.016	1285.5
434.392	1299.97
434.767	1320.53
435.143	1308.55
435.518	1344.03
435.894	1370.02
436.269	1349.46
436.644	1377.25
437.02	1382.45
437.395	1374.09
437.77	1436.46
438.145	1446.63
438.52	1438.72
438.895	1455.22
439.271	1454.76
439.646	1457.02
440.021	1522.78
440.395	1460.87
440.77	1469.45
441.145	1478.94
441.52	1528.89
441.895	1530.47
442.27	1534.31
442.645	1532.28
443.019	1532.95
443.394	1574.53
443.769	1569.34
444.143	1555.33
444.518	1581.09
444.892	1571.15
445.267	1606.4
445.641	1620.86
446.016	1638.71
446.39	1642.33
446.764	1659.05
447.139	1665.15
447.513	1688.88
447.887	1728.43
448.262	1678.26
448.636	1730.24
449.01	1728.43
449.384	1716
449.758	1731.59
450.132	1750.8
450.506	1783.57
450.88	1769.56
451.254	1780.41
451.628	1813.62
452.002	1802.78
452.376	1879.84
452.75	1904.24
453.123	1898.59
453.497	1890.91
453.871	1942.89
454.244	1986.05
454.618	1984.24
454.992	2001.87
455.365	1971.13
455.739	2101.07
456.112	2045.71
456.486	2091.58
456.859	2110.79
457.232	2178.81
457.606	2188.08
457.979	2200.51
458.352	2230.56
458.725	2279.38
459.099	2256.1
459.472	2299.71
459.845	2360.73
460.218	2348.07
460.591	2373.16
460.964	2404.57
461.337	2452.25
461.71	2466.04
462.083	2492.7
462.456	2523.89
462.829	2528.86
463.201	2579.03
463.574	2609.08
463.947	2608.41
464.32	2658.8
464.692	2679.82
465.065	2687.05
465.438	2722.75
465.81	2734.96
466.183	2783.77
466.555	2873.26
466.928	2884.33
467.3	2859.47
467.672	2899.7
468.045	3007.72
468.417	3004.78
468.789	3051.78
469.161	3056.08
469.534	3130.43
469.906	3143.08
470.278	3132.01
470.65	3144.44
471.022	3259.01
471.394	3275.73
471.766	3313.47
472.138	3387.82
472.51	3503.3
472.882	3420.14
473.253	3487.25
473.625	3573.35
473.997	3667.14
474.369	3686.12
474.74	3704.65
475.112	3750.07
475.484	3819.67
475.855	3883.85
476.227	3942.38
476.598	4046.56
476.97	4088.14
477.341	4195.93
477.713	4184.64
478.084	4288.14
478.455	4380.79
478.827	4384.4
479.198	4525.64
479.569	4562.03
479.94	4651.97
480.311	4743.27
480.682	4869.14
481.053	4929.93
481.424	5039.3
481.795	5086.31
482.166	5181.9
482.537	5199.75
482.908	5335.57
483.279	5447.65
483.65	5527.2
484.021	5651.94
484.391	5693.52
484.762	5759.74
485.133	5830.69
485.503	5943.69
485.874	6091.25
486.244	6157.69
486.615	6284.92
486.985	6344.58
487.356	6445.59
487.726	6484.69
488.097	6648.75
488.467	6705.02
488.837	6828.41
489.207	6979.14
489.578	7106.14
489.948	7196.76
490.318	7348.62
490.688	7314.04
491.058	7556.52
491.428	7610.99
491.798	7693.92
492.168	7809.4
492.538	7914.71
492.908	8010.75
493.278	8136.4
493.648	8185.21
494.017	8334.36
494.387	8391.3
494.757	8460.23
495.126	8563.05
495.496	8673.56
495.866	8715.14
496.235	8869.26
496.605	8957.39
496.974	9012.76
497.344	9071.74
497.713	9178.18
498.082	9277.84
498.452	9361.67
498.821	9455.91
499.19	9527.32
499.559	9638.28
499.928	9679.41
500.298	9747.2
500.667	9881.21
501.036	9825.17
501.405	9969.12
501.774	10043.69
502.143	10141.54
502.512	10175.44
502.88	10335.21
503.249	10339.95
503.618	10464.02
503.987	10467.86
504.356	10549.89
504.724	10605.71
505.093	10678.7
505.462	10772.03
505.83	10851.35
506.199	10931.8
506.567	11106.26
506.936	11072.36
507.304	11219.93
507.672	11240.27
508.041	11282.98
508.409	11373.37
508.777	11495.4
509.145	11581.28
509.514	11670.99
509.882	11657.21
510.25	11768.17
510.618	11799.12
510.986	11805.68
511.354	11998.67
511.722	12112.34
512.09	12189.17
512.458	12191.43
512.826	12314.37
513.193	12350.52
513.561	12481.59
513.929	12528.15
514.297	12650.85
514.664	12739.67
515.032	12832.09
515.4	12961.58
515.767	13009.04
516.135	13082.93
516.502	13005.87
516.869	13250.39
517.237	13331.51
517.604	13290.61
517.972	13522.7
518.339	13512.07
518.706	13628.23
519.073	13657.16
519.44	13825.06
519.808	13932.18
520.175	14057.14
520.542	14162
520.909	14209.68
521.276	14271.15
521.643	14561.76
522.009	14623.23
522.376	14718.82
522.743	14774.64
523.11	15080.85
523.477	15113.39
523.843	15200.39
524.21	15374.85
524.577	15487.84
524.943	15604
525.31	15730.09
525.676	15895.51
526.043	16068.39
526.409	16208.05
526.776	16341.15
527.142	16412.34
527.508	16580.02
527.874	16702.95
528.241	16813.91
528.607	16825.43
528.973	17021.36
529.339	17082.6
529.705	17278.75
530.071	17409.6
530.437	17577.96
530.803	17637.84
531.169	17810.27
531.535	17810.94
531.901	17987.21
532.267	18030.37
532.632	18188.56
532.998	18252.06
533.364	18380.42
533.73	18480.31
534.095	18695.21
534.461	18681.66
534.826	18911.48
535.192	18954.42
535.557	19052.49
535.923	19026.51
536.288	19147.18
536.653	19285.26
537.019	19279.61
537.384	19404.35
537.749	19516.66
538.114	19476.44
538.479	19725.47
538.845	19757.79
539.21	19789.42
539.575	19899.25
539.94	19922.53
540.305	20102.86
540.67	20141.96
541.034	20281.39
541.399	20306.47
541.764	20418.56
542.129	20414.49
542.494	20560.48
542.858	20589.18
543.223	20591.21
543.587	20757.53
543.952	20876.85
544.316	20897.19
544.681	20873.01
545.045	21039.33
545.41	21113.46
545.774	21135.15
546.138	21204.98
546.503	21395.26
546.867	21420.11
547.231	21505.99
547.595	21581.01
547.959	21612.2
548.324	21628.92
548.688	21818.52
549.052	21796.38
549.416	21763.61
549.779	21936.49
550.143	21991.4
550.507	22096.93
550.871	22188
551.235	22206.31
551.599	22485.62
551.962	22466.41
552.326	22477.94
552.689	22704.15
553.053	22562.23
553.417	22688.78
553.78	23002.22
554.143	22889.45
554.507	23027.76
554.87	23101.88
555.234	23326.28
555.597	23211.93
555.96	23373.28
556.323	23578.02
556.686	23561.98
557.05	23827.74
557.413	23791.8
557.776	23900.73
558.139	24108.41
558.502	24151.34
558.865	24185.24
559.228	24465.46
559.59	24527.15
559.953	24469.75
560.316	24865.67
560.679	24872.23
561.041	24931.66
561.404	25151.54
561.767	25304.76
562.129	25313.57
562.492	25517.41
562.854	25561.93
563.217	25564.64
563.579	25742.26
563.941	25925.31
564.304	26144.74
564.666	26471.28
565.028	26350.15
565.39	26483.71
565.753	26724.38
566.115	26702.01
566.477	27018.16
566.839	27054.77
567.201	27254.31
567.563	27302.9
567.925	27490.46
568.287	27622.89
568.648	27701.08
569.01	27939.94
569.372	28156.66
569.734	28194.4
570.095	28410.89
570.457	28559.36
570.819	28621.06
571.18	28735.18
571.542	28978.33
571.903	28996.64
572.265	29255.39
572.626	29376.29
572.987	29462.16
573.349	29674.14
573.71	29727.01
574.071	29871.87
574.432	30111.86
574.794	30451.97
575.155	30310.95
575.516	30336.72
575.877	30524.28
576.238	30711.17
576.599	30747.1
576.96	31082.69
577.32	31100.09
577.681	31208.33
578.042	31384.82
578.403	31367.65
578.763	31481.55
579.124	31660.3
579.485	31831.37
579.845	32089.44
580.206	32086.73
580.566	32255.08
580.927	32273.39
581.287	32607.17
581.648	32650.78
582.008	32906.82
582.368	33005.8
582.728	33154.72
583.089	33161.73
583.449	33509.29
583.809	33589.51
584.169	33908.37
584.529	33957.41
584.889	34642.82
585.249	34473.78
585.609	34591.75
585.969	34897.27
586.329	35088.23
586.688	35469.01
587.048	35638.05
587.408	35927.08
587.768	36151.7
588.127	36544.24
588.487	36731.8
588.846	37432.12
589.206	37378.11
589.565	37736.97
589.925	38348.48
590.284	38604.52
590.643	38839.54
591.003	39351.62
591.362	39853.75
591.721	39923.36
592.08	40407.86
592.44	41000.16
592.799	41238.35
593.158	41585.69
593.517	41777.55
593.876	42429.96
594.235	42700.01
594.593	43092.09
594.952	43497.5
595.311	43629.02
595.67	44257.48
596.029	44847.52
596.387	45162.77
596.746	45655.18
597.104	45793.49
597.463	46208.84
597.822	46796.62
598.18	46948.03
598.538	47274.35
598.897	47833.43
599.255	47972.41
599.613	48737.59
599.972	48733.07
600.33	49189.78
600.688	49416.67
601.046	49815.53
601.404	50285.12
601.762	50463.42
602.12	50929.4
602.478	51043.74
602.836	51385.65
603.194	51365.54
603.552	51783.61
603.91	51939.31
604.268	52231.96
604.625	52463.82
604.983	52868.1
605.341	52956.46
605.698	53372.27
606.056	53567.07
606.413	53612.26
606.771	53998.92
607.128	54113.94
607.485	54171.34
607.843	54388.29
608.2	54762.51
608.557	54858.78
608.914	55062.39
609.272	55312.56
609.629	55462.84
609.986	55709.38
610.343	55812.43
610.7	56104.4
611.057	56142.59
611.414	56198.64
611.771	56459.87
612.127	56633.88
612.484	56729.24
612.841	56933.98
613.198	56942.57
613.554	57105.73
613.911	57287.65
614.267	57478.6
614.624	57512.73
614.98	57630.91
615.337	57837.01
615.693	57921.3
616.05	57963.11
616.406	58201.75
616.762	58187.06
617.118	58261.41
617.475	58339.82
617.831	58522.87
618.187	58549.31
618.543	58697.78
618.899	58826.14
619.255	58904.33
619.611	58889.41
619.967	59039.69
620.323	59141.38
620.678	59082.18
621.034	59108.39
621.39	59198.78
621.746	59300.25
622.101	59558.55
622.457	59348.61
622.812	59534.37
623.168	59629.96
623.523	59620.92
623.879	59735.27
624.234	59632.67
624.589	59788.6
624.945	59894.81
625.3	59894.13
625.655	59939.55
626.01	59932.32
626.365	60019.55
626.72	59925.99
627.075	59976.84
627.43	60007.35
627.785	60024.3
628.14	59985.43
628.495	60078.53
628.85	60149.72
629.205	60070.17
629.559	60182.03
629.914	60061.13
630.269	60121.47
630.623	60016.84
630.978	59991.53
631.332	60140.9
631.687	60143.62
632.041	60038.08
632.396	60012.77
632.75	60029.5
633.104	60044.64
633.459	59949.05
633.813	59944.98
634.167	60014.81
634.521	59954.92
634.875	59972.32
635.229	59928.71
635.583	59818.2
635.937	59813.91
636.291	59854.36
636.645	59838.54
636.999	59793.8
637.352	59860.01
637.706	59728.03
638.06	59836.28
638.413	59704.76
638.767	59649.39
639.121	59723.97
639.474	59632.44
639.828	59592.9
640.181	59531.66
640.534	59679.45
640.888	59562.39
641.241	59461.37
641.594	59536.85
641.947	59520.13
642.301	59455.5
642.654	59499.11
643.007	59436.74
643.36	59476.06
643.713	59408.27
644.066	59431.32
644.419	59303.19
644.771	59072.46
645.124	58834.72
645.477	58869.07
645.83	58708.85
646.182	58651.68
646.535	58712.92
646.888	58769.19
647.24	58724.67
647.593	58766.7
647.945	58694.61
648.298	58560.61
648.65	58491.23
649.002	58309.54
649.355	58291.46
649.707	58245.81
650.059	58267.73
650.411	58643.54
650.763	58723.54
651.115	59056.64
651.467	58983.19
651.819	58961.95
652.171	58958.11
652.523	58879.24
652.875	58898.68
653.227	58788.62
653.578	59025.91
653.93	58876.98
654.282	58723.54
654.633	58714.5
654.985	58774.16
655.337	58822.75
655.688	58741.39
656.039	58854.38
656.391	58611.45
656.742	58696.2
657.094	58666.59
657.445	58669.53
657.796	58721.73
658.147	58644.22
658.498	58685.35
658.849	58761.51
659.2	58606.03
659.551	58560.83
659.902	58703.43
660.253	58586.82
660.604	58675.41
660.955	58557.9
661.306	58707.27
661.656	58609.87
662.007	58547.95
662.358	58591.34
662.708	58606.03
663.059	58551.34
663.409	58428.86
663.76	58554.51
664.11	58610.55
664.461	58648.29
664.811	58608.29
665.161	58616.42
665.511	58521.51
665.862	58565.35
666.212	58622.07
666.562	58645.58
666.912	58652.58
667.262	58533.26
667.612	58544.11
667.962	58618.23
668.312	58484
668.662	58670.43
669.011	58631.34
669.361	58553.38
669.711	58618.01
670.06	58568.97
670.41	58508.86
670.76	58529.2
671.109	58632.24
671.459	58537.56
671.808	58500.5
672.157	58527.84
672.507	58383.89
672.856	58402.87
673.205	58475.86
673.554	58544.79
673.904	58363.78
674.253	58553.15
674.602	58426.83
674.951	58108.87
675.3	57978.7
675.649	58410.1
675.998	58363.55
676.346	58399.93
676.695	58424.57
677.044	58237.68
677.393	58310.22
677.741	58418.69
678.09	58360.16
678.438	58258.47
678.787	58253.72
679.135	58260.73
679.484	58154.06
679.832	58251.91
680.181	58103.67
680.529	58167.4
680.877	57956.78
681.225	58041.3
681.573	58236.32
681.922	58017.34
682.27	57909.78
682.618	57995.65
682.966	57821.19
683.314	57950.91
683.661	57872.04
684.009	57772.83
684.357	57691.48
684.705	57647.86
685.053	57741.87
685.4	57585.72
685.748	57583.91
686.095	57584.14
686.443	57433.41
686.79	57418.04
687.138	57483.12
687.485	57398.15
687.832	57207.2
688.18	57223.47
688.527	57164.03
688.874	57145.96
689.221	57120.42
689.568	57015.79
689.915	56905.96
690.262	56987.09
690.609	56923.59
690.956	56841.78
691.303	56763.82
691.65	56606.31
691.997	56580.55
692.344	56483.83
692.69	56462.36
693.037	56447.22
693.383	56200.67
693.73	56233.44
694.077	56152.53
694.423	56139.88
694.769	55970.62
695.116	55950.05
695.462	55811.07
695.808	55776.27
696.155	55811.75
696.501	55491.08
696.847	55557.75
697.193	55440.69
697.539	55484.53
697.885	55257.64
698.231	55168.61
698.577	55194.82
698.923	55083.18
699.269	54913.25
699.614	54850.42
699.96	54774.27
700.306	54762.51
700.651	54671.9
700.997	54537.89
701.342	54525.23
701.688	54435.07
702.033	54421.73
702.379	54304.67
702.724	54159.37
703.069	54197.11
703.415	53865.14
703.76	53919.83
704.105	53861.07
704.45	53721.64
704.795	53626.05
705.14	53607.74
705.485	53504.02
705.83	53401.42
706.175	53499.5
706.52	53328.65
706.865	53235.55
707.209	53112.61
707.554	53060.41
707.899	53029.68
708.243	52901.09
708.588	52917.82
708.932	52685.96
709.277	52692.29
709.621	52642.57
709.966	52463.14
710.31	52432.86
710.654	52281
710.998	52246.87
711.342	52261.56
711.687	52130.72
712.031	52147.44
712.375	51874.68
712.719	51923.72
713.063	51818.41
713.407	51991.29
713.75	51700.45
714.094	51639.21
714.438	51621.13
714.782	51580
715.125	51391.3
715.469	51549.94
715.812	51270.4
716.156	51270.63
716.499	51235.38
716.843	51255.04
717.186	51003.74
717.53	51272.66
717.873	51196.28
718.216	51034.03
718.559	50909.06
718.902	50657.99
719.246	50801.49
719.589	50668.39
719.932	50490.31
720.275	50569.4
720.617	50598.33
720.96	50412.12
721.303	50376.42
721.646	50547.03
721.989	50296.87
722.331	50275.4
722.674	50218.45
723.016	50319.69
723.359	50065.46
723.701	50188.4
724.044	50012.58
724.386	49941.17
724.729	50007.84
725.071	49980.27
725.413	49814.17
725.755	49790.67
726.097	49567.17
726.439	49662.31
726.782	49509.77
727.124	49659.37
727.465	49707.05
727.807	49459.6
728.149	49524.46
728.491	49334.64
728.833	49378.02
729.175	49296.9
729.516	49267.74
729.858	49165.37
730.199	49366.72
730.541	49270.23
730.882	49053.29
731.224	49115.21
731.565	48981.88
731.906	49013.29
732.248	49014.87
732.589	48799.28
732.93	48767.87
733.271	48811.94
733.612	48780.53
733.953	48828.89
734.294	48706.18
734.635	48604.71
734.976	48726.29
735.317	48592.51
735.658	48621.21
735.999	48625.05
736.339	48382.12
736.68	48473.87
737.021	48586.63
737.361	48327.43
737.702	48611.72
738.042	48367.2
738.383	48407.2
738.723	48443.13
739.063	48198.39
739.404	48457.14
739.744	48235
740.084	48228.68
740.424	48355.23
740.764	48049.25
741.104	48350.03
741.444	48096.7
741.784	47980.55
742.124	48190.26
742.464	48033.88
742.804	47931.96
743.143	47945.52
743.483	47890.61
743.823	47797.27
744.162	47799.31
744.502	47759.54
744.841	47670.05
745.181	47925.86
745.52	47636.83
745.86	47854.22
746.199	47545.76
746.538	47579.88
746.877	47741.23
747.216	47583.49
747.556	47602.25
747.895	47672.98
748.234	47554.79
748.573	47461.92
748.911	47385.76
749.25	47417.4
749.589	47376.04
749.928	47335.14
750.267	47450.16
750.605	47232.77
750.944	47289.94
751.283	47129.04
751.621	47281.58
751.96	47058.54
752.298	47139.66
752.636	47061.7
752.975	47094.02
753.313	46847.69
753.651	47087.01
753.989	46807.7
754.327	46805.89
754.666	46525.44
755.004	46727.47
755.342	46639.11
755.679	46657.42
756.017	46262.85
756.355	46531.32
756.693	46387.82
757.031	46475.95
757.368	46188.96
757.706	46074.38
758.044	45941.73
758.381	46028.51
758.719	45865.12
759.056	45911
759.394	45818.34
759.731	45531.12
760.068	45496.77
760.405	45482.31
760.743	45308.98
761.08	45275.08
761.417	44971.59
761.754	45061.98
762.091	44901.53
762.428	44782.21
762.765	44655.89
763.102	44698.82
763.438	44476.91
763.775	44313.52
764.112	44397.59
764.449	44147.2
764.785	44078.5
765.122	43981.33
765.458	43823.37
765.795	43758.28
766.131	43646.2
766.467	43529.14
766.804	43293.66
767.14	43172.54
767.476	43069.26
767.812	43086.89
768.148	42955.82
768.485	42848.7
768.821	42497.75
769.157	42439.68
769.492	42391.31
769.828	42240.13
770.164	41899.12
770.5	41754.04
770.836	41818.22
771.171	41651.45
771.507	41514.5
771.842	41219.82
772.178	41304.56
772.513	41073.16
772.849	40891.69
773.184	40934.63
773.519	40865.03
773.855	40575.09
774.19	40487.41
774.525	40239.28
774.86	40264.82
775.195	40127.42
775.53	39884.71
775.865	39755.23
776.2	39438.17
776.535	39198.4
776.87	39276.59
777.205	39016.26
777.539	38947.11
777.874	39064.17
778.209	38667.57
778.543	38627.57
778.878	38466.22
779.212	38297.64
779.547	38109.85
779.881	38100.81
780.215	37730.42
780.55	37925.44
780.884	37697.65
781.218	37513.7
781.552	37659.69
781.886	37341.96
782.22	37152.13
782.554	36980.84
782.888	36681.18
783.222	36647.28
783.556	36560.28
783.889	36389.21
784.223	36200.97
784.557	36176.34
784.89	36167.98
785.224	35938.83
785.557	35808.44
785.891	35630.59
786.224	35636.01
786.558	35498.39
786.891	35353.76
787.224	35061.79
787.557	35027.67
787.891	34990.61
788.224	34831.97
788.557	34740.44
788.89	34714
789.223	34522.37
789.556	34299.1
789.888	34248.48
790.221	34080.8
790.554	33798.77
790.887	33720.81
791.219	33706.12
791.552	33571.66
791.884	33553.58
792.217	33391.33
792.549	33314.72
792.882	33023.65
793.214	32903.88
793.546	32982.07
793.879	32745.24
794.211	32528.98
794.543	32727.39
794.875	32504.57
795.207	32530.33
795.539	32289.43
795.871	32202.66
796.203	32169.44
796.535	31888.31
796.867	31929.67
797.198	31811.48
797.53	31679.05
797.862	31372.17
798.193	31551.83
798.525	31306.63
798.856	31343.47
799.188	30977.15
799.519	30954.78
799.85	30940.32
800.182	30943.03
800.513	30929.47
800.844	30461.01
801.175	30728.57
801.506	30661
801.837	30452.65
802.168	30328.36
802.499	30353.44
802.83	30206.1
803.161	30069.6
803.491	29998.87
803.822	30106.44
804.153	29842.72
804.483	29603.63
804.814	29567.02
805.145	29536.51
805.475	29500.35
805.805	29543.97
806.136	29414.03
806.466	29240.47
806.796	29254.49
807.126	29045.45
807.457	29010.88
807.787	28938.79
808.117	28847.72
808.447	28830.99
808.777	28814.5
809.107	28520.49
809.436	28581.06
809.766	28520.04
810.096	28495.18
810.426	28388.97
810.755	28443.21
811.085	28237.56
811.414	28285.7
811.744	27995.76
812.073	27974.97
812.403	27875.99
812.732	27738.14
813.061	27900.17
813.39	27686.39
813.719	27638.03
814.049	27830.34
814.378	27731.81
814.707	27435.55
815.036	27510.8
815.365	27206.18
815.693	27155.33
816.022	27262.45
816.351	27184.26
816.68	27039.18
817.008	26980.65
817.337	26815.45
817.665	26740.88
817.994	26832.63
818.322	26840.76
818.651	26658.4
818.979	26617.94
819.307	26739.07
819.636	26496.59
819.964	26532.52
820.292	26475.8
820.62	26414.79
820.948	26473.09
821.276	26628.11
821.604	26445.97
821.932	26651.84
822.259	26513.09
822.587	26448.01
822.915	26451.17
823.243	26534.56
823.57	26287.78
823.898	26489.13
824.225	26422.02
824.553	26331.85
824.88	26354
825.207	26459.53
825.535	26288.46
825.862	26447.78
826.189	26335.01
826.516	26501.79
826.843	26559.19
827.17	26495.91
827.497	26381.79
827.824	26455.69
828.151	26514.22
828.478	26211.18
828.805	26488.23
829.131	26476.25
829.458	26322.58
829.785	26180.22
830.111	26208.01
830.438	26527.33
830.764	26421.57
831.09	26434.9
831.417	26175.02
831.743	26401.68
832.069	26368.01
832.395	26307.9
832.722	26295.24
833.048	26222.7
833.374	26251.17
833.7	26202.59
834.026	26281
834.351	26299.31
834.677	26246.2
835.003	26079.65
835.329	26119.2
835.654	26116.49
835.98	26011.86
836.306	26117.62
836.631	25888.7
836.956	26121.91
837.282	26003.95
837.607	25987.9
837.932	25883.95
838.258	25832.43
838.583	25853.44
838.908	25773.67
839.233	25794.01
839.558	25714.47
839.883	25665.88
840.208	25443.51
840.533	25568.25
840.858	25551.31
841.182	25504.3
841.507	25495.04
841.832	25259.11
842.156	25376.17
842.481	25406.9
842.805	25163.97
843.13	25150.41
843.454	25192.22
843.778	24984.54
844.103	25014.6
844.427	24947.25
844.751	25011.88
845.075	24911.1
845.399	24902.51
845.723	24623.65
846.047	24767.15
846.371	24541.61
846.695	24549.52
847.019	24388.62
847.343	24184.34
847.666	24197.89
847.99	24031.12
848.313	24008.52
848.637	23929.2
848.96	23842.2
849.284	23766.27
849.607	23576.67
849.931	23645.14
850.254	23336
850.577	23279.27
850.9	23233.17
851.223	23117.25
851.546	23022.11
851.869	22875.44
852.192	22999.06
852.515	22796.12
852.838	22692.62
853.161	22812.17
853.483	22507.54
853.806	22504.15
854.129	22376.47
854.451	22392.74
854.774	22171.51
855.096	22202.69
855.419	22173.77
855.741	22031.62
856.063	21951.4
856.385	21737.17
856.708	21744.4
857.03	21829.82
857.352	21684.74
857.674	21641.8
857.996	21588.7
858.318	21367.46
858.64	21532.88
858.961	21330.63
859.283	21420.11
859.605	21221.93
859.926	21285.88
860.248	21213.11
860.57	21111.87
860.891	21023.06
861.212	20885.67
861.534	20901.94
861.855	20824.2
862.176	20828.94
862.498	20875.5
862.819	20931.54
863.14	20739.68
863.461	20704.88
863.782	20633.69
864.103	20574.26
864.424	20504.66
864.745	20519.57
865.065	20427.6
865.386	20455.39
865.707	20462.17
866.027	20403.87
866.348	20434.83
866.668	20291.33
866.989	20298.11
867.309	20199.13
867.63	20086.82
867.95	20121.17
868.27	20058.34
868.59	20101.28
868.91	20012.47
869.23	20084.56
869.55	19920.04
869.87	20035.74
870.19	19919.14
870.51	19961.17
870.83	19864.22
871.15	19697
871.469	19827.61
871.789	19906.93
872.109	19774.06
872.428	19641.4
872.748	19762.98
873.067	19710.78
873.386	19542.65
873.706	19532.93
874.025	19476.44
874.344	19426.04
874.663	19457.23
874.982	19526.83
875.301	19516.44
875.62	19328.19
875.939	19265.6
876.258	19363.9
876.577	19145.15
876.896	19228.99
877.214	19248.19
877.533	19228.76
877.852	19193.28
878.17	19175.65
878.489	19244.8
878.807	19162.1
879.125	19033.28
879.444	18996.9
879.762	18949.22
880.08	19011.36
880.398	18885.49
880.716	18840.97
881.034	18813.63
881.352	18782.67
881.67	18796.91
881.988	18786.06
882.306	18752.84
882.624	18660.41
882.941	18512.85
883.259	18539.74
883.577	18496.12
883.894	18373.19
884.212	18426.07
884.529	18375.9
884.846	18313.08
885.164	18255.45
885.481	18233.76
885.798	18269.69
886.115	18108.79
886.432	18121.22
886.75	18111.05
887.067	18090.48
887.383	18110.82
887.7	18073.76
888.017	17785.86
888.334	17987.44
888.651	17854.11
888.967	17867.44
889.284	17714.22
889.6	17621.12
889.917	17582.48
890.233	17514.68
890.55	17536.83
890.866	17478.75
891.182	17485.3
891.498	17488.24
891.815	17380.67
892.131	17283.27
892.447	17230.39
892.763	17223.84
893.079	17138.19
893.395	17103.17
893.71	17052.55
894.026	16890.97
894.342	17058.42
894.657	16847.13
894.973	16785.89
895.289	16804.42
895.604	16777.75
895.92	16699.33
896.235	16627.02
896.55	16551.09
896.865	16532.11
897.181	16464.76
897.496	16402.39
897.811	16249.63
898.126	16316.29
898.441	16234.26
898.756	16179.8
899.071	16035.62
899.386	16085.11
899.7	15959.24
900.015	15886.47
900.33	15846.93
900.644	15793.82
900.959	15741.85
901.273	15676.76
901.588	15595.64
901.902	15602.87
902.216	15583.66
902.531	15496.65
902.845	15443.32
903.159	15387.73
903.473	15338.92
903.787	15185.02
904.101	15151.58
904.415	15109.09
904.729	15081.52
905.042	15110.68
905.356	14984.35
905.67	14933.51
905.984	14916.1
906.297	14950.91
906.611	14768.76
906.924	14711.36
907.237	14733.96
907.551	14725.83
907.864	14564.48
908.177	14594.98
908.491	14486.96
908.804	14393.41
909.117	14322.22
909.43	14193.86
909.743	14180.31
910.056	14244.71
910.368	14113.41
910.681	14091.49
910.994	13991.16
911.307	13966.75
911.619	13806.98
911.932	13918.39
912.244	13764.04
912.557	13745.74
912.869	13654.44
913.181	13527.21
913.494	13537.38
913.806	13413.32
914.118	13317.5
914.43	13317.95
914.742	13347.33
915.054	13235.47
915.366	13150.05
915.678	13136.04
915.99	13104.85
916.302	12990.51
916.613	12981.92
916.925	12978.3
917.236	12907.57
917.548	12835.03
917.859	12811.3
918.171	12703.96
918.482	12670.06
918.794	12598.88
919.105	12527.24
919.416	12442.72
919.727	12530.63
920.038	12397.3
920.349	12263.52
920.66	12258.77
920.971	12241.83
921.282	12289.06
921.593	12140.13
921.903	12042.73
922.214	12012
922.525	11983.98
922.835	11852.23
923.146	11843.19
923.456	11786.24
923.767	11740.6
924.077	11738.56
924.387	11671.44
924.697	11687.94
925.008	11582.63
925.318	11520.94
925.628	11543.09
925.938	11391.68
926.248	11368.18
926.558	11295.41
926.867	11350.77
927.177	11254.51
927.487	11142.42
927.796	11059.94
928.106	11170.44
928.416	11049.31
928.725	10935.42
929.034	10976.77
929.344	10948.07
929.653	10938.13
929.962	10868.98
930.271	10767.29
930.581	10749.43
930.89	10672.37
931.199	10550.12
931.508	10573.39
931.817	10568.65
932.125	10503.57
932.434	10451.82
932.743	10316.68
933.051	10330.91
933.36	10311.93
933.669	10252.05
933.977	10243.46
934.286	10181.54
934.594	10097.02
934.902	10100.41
935.21	10001.43
935.519	9967.76
935.827	9998.04
936.135	9942.22
936.443	9786.3
936.751	9813.64
937.059	9780.87
937.367	9672.63
937.674	9692.74
937.982	9683.02
938.29	9633.76
938.597	9612.52
938.905	9512.41
939.213	9474.89
939.52	9446.19
939.827	9462.24
940.135	9332.75
940.442	9338.4
940.749	9297.04
941.056	9311.51
941.363	9186.99
941.67	9146.09
941.977	9085.98
942.284	9031.97
942.591	9028.58
942.898	9125.97
943.205	9011.4
943.511	8936.15
943.818	8943.83
944.125	8803.5
944.431	8805.31
944.738	8757.85
945.044	8726.89
945.35	8698.64
945.657	8642.6
945.963	8624.07
946.269	8540.68
946.575	8607.57
946.881	8501.13
947.187	8496.16
947.493	8422.04
947.799	8408.71
948.105	8358.99
948.41	8318.31
948.716	8266.34
949.022	8228.82
949.327	8215.72
949.633	8133.23
949.938	8108.83
950.244	8115.61
950.549	8023.63
950.854	8001.94
951.16	7972.78
951.465	7939.34
951.77	7905.44
952.075	7874.48
952.38	7871.77
952.685	7867.93
952.99	7763.98
953.294	7734.15
953.599	7634.49
953.904	7620.7
954.209	7568.28
954.513	7592.68
954.818	7516.3
955.122	7550.2
955.426	7470.43
955.731	7480.37
956.035	7446.92
956.339	7419.58
956.643	7340.03
956.948	7334.61
957.252	7279.02
957.556	7266.81
957.86	7245.8
958.163	7172.81
958.467	7161.96
958.771	7119.02
959.075	7093.26
959.378	7012.58
959.682	7093.26
959.985	6983.43
960.289	6940.5
960.592	6937.11
960.896	6887.39
961.199	6862.31
961.502	6783.89
961.805	6793.83
962.108	6752.48
962.411	6792.7
962.714	6684.68
963.017	6669.77
963.32	6714.51
963.623	6644.46
963.926	6691.69
964.228	6549.32
964.531	6502.99
964.833	6612.59
965.136	6496.89
965.438	6489.89
965.741	6382.09
966.043	6410.34
966.345	6324.24
966.648	6355.43
966.95	6328.53
967.252	6248.99
967.554	6300.51
967.856	6204.02
968.158	6171.48
968.46	6212.61
968.761	6143
969.063	6115.21
969.365	6092.16
969.666	6018.71
969.968	6038.15
970.269	5976.68
970.571	5971.03
970.872	5985.49
971.174	5853.74
971.475	5899.39
971.776	5912.95
972.077	5848.32
972.378	5837.02
972.679	5797.93
972.98	5808.77
973.281	5762.9
973.582	5735.78
973.883	5675.44
974.183	5679.51
974.484	5619.85
974.785	5576.46
975.085	5592.73
975.386	5579.85
975.686	5534.43
975.986	5519.52
976.287	5500.31
976.587	5491.95
976.887	5441.33
977.187	5374.89
977.487	5431.83
977.787	5324.94
978.087	5295.79
978.387	5299.86
978.687	5302.35
978.987	5279.75
979.286	5251.05
979.586	5223.03
979.885	5166.3
980.185	5160.2
980.484	5170.82
980.784	5140.77
981.083	5094.22
981.382	5051.51
981.682	5062.8
981.981	5023.71
982.28	5043.82
982.579	4943.49
982.878	4992.75
983.177	4948.91
983.475	4917.72
983.774	4871.4
984.073	4873.88
984.372	4810.38
984.67	4824.62
984.969	4791.63
985.267	4832.3
985.566	4796.37
985.864	4710.72
986.162	4658.07
986.461	4637.05
986.759	4652.87
987.057	4651.74
987.355	4609.26
987.653	4604.96
987.951	4546.66
988.249	4521.12
988.547	4533.55
988.844	4509.15
989.142	4505.98
989.44	4443.39
989.737	4406.55
990.035	4401.13
990.332	4381.92
990.63	4384.4
990.927	4382.82
991.224	4316.84
991.521	4327.46
991.819	4290.17
992.116	4279.32
992.413	4261.92
992.71	4197.06
993.006	4190.29
993.303	4228.48
993.6	4189.16
993.897	4164.52
994.193	4147.12
994.49	4111.19
994.787	4075.26
995.083	4074.36
995.379	4019.67
995.676	4054.24
995.972	3986.9
996.268	3990.29
996.565	3977.18
996.861	3925.66
997.157	3867.81
997.453	3887.92
997.749	3822.61
998.044	3863.74
998.34	3858.32
998.636	3828.03
998.932	3811.76
999.227	3783.74
999.523	3748.94
999.818	3736.74
1000.114	3731.54
1000.409	3666.23
1000.704	3635.5
1001	3627.59
1001.295	3644.31
1001.59	3573.13
1001.885	3600.02
1002.18	3534.48
1002.475	3566.12
1002.77	3509.85
1003.065	3494.26
1003.359	3495.16
1003.654	3490.42
1003.949	3502.85
1004.243	3439.8
1004.538	3407.26
1004.832	3391.21
1005.127	3360.25
1005.421	3332.68
1005.715	3344.43
1006.009	3328.61
1006.304	3324.09
1006.598	3239.8
1006.892	3245
1007.186	3230.08
1007.48	3251.78
1007.773	3186.02
1008.067	3160.03
1008.361	3126.58
1008.655	3163.65
1008.948	3127.71
1009.242	3130.43
1009.535	3107.15
1009.829	3063.31
1010.122	3040.26
1010.415	2989.19
1010.708	3016.08
1011.001	2966.59
1011.295	2968.4
1011.588	2964.78
1011.881	2938.11
1012.173	2897.66
1012.466	2928.62
1012.759	2906.48
1013.052	2888.62
1013.344	2866.25
1013.637	2844.11
1013.93	2789.19
1014.222	2809.53
1014.514	2776.76
1014.807	2773.6
1015.099	2687.95
1015.391	2709.19
1015.683	2725.47
1015.976	2696.31
1016.268	2682.08
1016.56	2664
1016.851	2676.88
1017.143	2616.54
1017.435	2603.21
1017.727	2575.64
1018.018	2524.34
1018.31	2524.11
1018.602	2525.7
1018.893	2497.9
1019.185	2462.65
1019.476	2464
1019.767	2502.87
1020.058	2442.31
1020.35	2443.66
1020.641	2412.25
1020.932	2403.44
1021.223	2365.25
1021.514	2358.24
1021.804	2367.06
1022.095	2316.44
1022.386	2341.75
1022.677	2275.53
1022.967	2275.08
1023.258	2231.69
1023.548	2262.43
1023.839	2215.2
1024.129	2214.07
1024.419	2210.9
1024.709	2180.62
1025	2187.63
1025.29	2184.01
1025.58	2139.49
1025.87	2147.4
1026.16	2088.42
1026.449	2083
1026.739	2062.21
1027.029	2070.12
1027.319	2066.27
1027.608	1990.12
1027.898	2032.6
1028.187	1999.16
1028.477	2000.29
1028.766	1974.3
1029.055	1972.94
1029.344	1951.25
1029.634	1911.48
1029.923	1911.7
1030.212	1924.58
1030.501	1904.02
1030.79	1864.24
1031.078	1842.32
1031.367	1845.04
1031.656	1834.19
1031.945	1821.31
1032.233	1787.41
1032.522	1788.09
1032.81	1758.48
1033.099	1755.1
1033.387	1770.46
1033.675	1765.72
1033.963	1722.55
1034.251	1718.71
1034.54	1754.19
1034.828	1678.71
1035.116	1679.39
1035.403	1681.2
1035.691	1666.51
1035.979	1653.18
1036.267	1657.47
1036.554	1631.93
1036.842	1606.85
1037.129	1614.31
1037.417	1596.68
1037.704	1594.65
1037.992	1578.38
1038.279	1579.73
1038.566	1519.62
1038.853	1519.62
1039.14	1519.62
