Data from 1797_FLMS001491_005.txt Node
Date: Thu Apr 19 16:33:57 BST 2018
User: hsy
Spectrometer: FLMS00149
Trigger mode: 0
Integration Time (sec): 1.000000E-2
Scans to average: 10
Electric dark correction enabled: true
Nonlinearity correction enabled: false
Boxcar width: 0
XAxis mode: Wavelengths
Number of Pixels in Spectrum: 2048
>>>>>Begin Spectral Data<<<<<
341.393	-19.67
341.776	-19.67
342.16	-19.67
342.543	-61.26
342.927	-80.24
343.31	-76.62
343.693	-71.88
344.077	-75.94
344.46	-64.65
344.843	-60.8
345.226	-52.67
345.61	-27.13
345.993	-14.48
346.376	-9.28
346.759	21.45
347.142	45.18
347.525	47.67
347.908	62.36
348.291	83.6
348.674	92.86
349.057	100.32
349.44	124.95
349.823	155.69
350.206	176.48
350.588	232.97
350.971	260.09
351.354	277.72
351.737	282.69
352.119	300.99
352.502	301.45
352.884	316.81
353.267	323.59
353.65	342.58
354.032	352.74
354.414	354.33
354.797	370.37
355.179	361.11
355.562	381.67
355.944	364.5
356.326	397.72
356.709	377.6
357.091	400.2
357.473	400.2
357.855	385.51
358.238	402.01
358.62	412.18
359.002	410.6
359.384	420.54
359.766	410.6
360.148	394.33
360.53	390.94
360.912	399.52
361.294	376.02
361.676	401.56
362.057	406.08
362.439	414.89
362.821	404.72
363.203	379.18
363.584	379.18
363.966	391.39
364.348	411.5
364.729	377.6
365.111	388
365.493	372.18
365.874	403.14
366.256	385.96
366.637	373.99
367.019	376.02
367.4	386.87
367.781	384.83
368.163	395.91
368.544	377.6
368.925	377.38
369.306	395
369.688	410.37
370.069	385.96
370.45	409.47
370.831	416.47
371.212	380.31
371.593	408.11
371.974	404.72
372.355	413.53
372.736	405.4
373.117	425.29
373.498	391.84
373.879	403.37
374.26	405.4
374.641	401.78
375.021	403.37
375.402	416.92
375.783	431.39
376.163	429.58
376.544	423.7
376.925	443.82
377.305	436.58
377.686	420.99
378.066	433.42
378.447	434.55
378.827	453.53
379.208	446.08
379.588	443.82
379.968	445.85
380.349	450.82
380.729	450.14
381.109	455.34
381.489	467.77
381.87	450.82
382.25	463.7
382.63	455.79
383.01	461.67
383.39	448.11
383.77	479.97
384.15	466.41
384.53	491.95
384.91	482.46
385.29	473.19
385.67	502.57
386.049	502.35
386.429	490.14
386.809	473.19
387.189	494.21
387.568	483.81
387.948	496.24
388.328	515.45
388.707	536.92
389.087	524.49
389.466	525.4
389.846	526.07
390.225	548.67
390.605	528.33
390.984	553.64
391.363	558.39
391.743	531.5
392.122	563.59
392.501	573.08
392.881	567.43
393.26	556.81
393.639	578.73
394.018	572.17
394.397	572.85
394.776	579.41
395.155	590.03
395.534	566.07
395.913	593.19
396.292	604.94
396.671	603.59
397.05	604.72
397.429	621.44
397.808	608.56
398.186	642.45
398.565	614.21
398.944	608.78
399.323	601.78
399.701	649.01
400.08	631.16
400.458	639.29
400.837	640.87
401.215	645.84
401.594	656.92
401.972	634.55
402.351	687.43
402.729	641.78
403.107	658.5
403.486	680.19
403.864	679.52
404.242	688.33
404.62	712.51
404.999	706.63
405.377	719.51
405.755	707.76
406.133	726.07
406.511	742.57
406.889	726.52
407.267	758.38
407.645	767.65
408.023	750.93
408.401	761.1
408.779	753.19
409.156	778.95
409.534	773.75
409.912	792.06
410.29	826.86
410.667	832.28
411.045	825.27
411.422	834.54
411.8	826.4
412.178	836.57
412.555	869.79
412.933	912.05
413.31	876.12
413.687	889.68
414.065	905.72
414.442	922.22
414.819	895.1
415.197	917.93
415.574	929.23
415.951	945.95
416.328	934.88
416.705	963.35
417.082	955.21
417.46	969.23
417.837	980.98
418.214	975.55
418.591	1001.32
418.967	986.17
419.344	994.31
419.721	1032.5
420.098	1005.38
420.475	1016.23
420.852	1037.02
421.228	1051.26
421.605	1062.56
421.982	1067.75
422.358	1069.11
422.735	1070.92
423.111	1056.46
423.488	1114.76
423.864	1114.08
424.241	1132.16
424.617	1149.79
424.994	1141.65
425.37	1152.95
425.746	1164.02
426.123	1191.59
426.499	1202.89
426.875	1175.32
427.251	1229.78
427.627	1227.07
428.003	1218.26
428.379	1260.52
428.756	1244.25
429.132	1291.93
429.507	1293.51
429.883	1292.16
430.259	1298.71
430.635	1343.23
431.011	1344.13
431.387	1410.34
431.763	1376.45
432.138	1405.15
432.514	1431.36
432.89	1443.11
433.265	1470.91
433.641	1476.33
434.016	1472.94
434.392	1508.65
434.767	1551.13
435.143	1520.17
435.518	1569.21
435.894	1561.53
436.269	1581.64
436.644	1597.01
437.02	1611.47
437.395	1622.77
437.77	1637.68
438.145	1623.67
438.52	1686.5
438.895	1737.57
439.271	1667.96
439.646	1705.93
440.021	1732.82
440.395	1762.88
440.77	1715.2
441.145	1763.56
441.52	1801.97
441.895	1766.27
442.27	1803.55
442.645	1813.72
443.019	1846.72
443.394	1859.82
443.769	1831.12
444.143	1874.51
444.518	1885.36
444.892	1882.42
445.267	1896.43
445.641	1912.93
446.016	1911.57
446.39	1930.1
446.764	1959.48
447.139	1971.69
447.513	1982.53
447.887	1991.12
448.262	1961.52
448.636	2015.07
449.01	1999.48
449.384	2049.88
449.758	2057.33
450.132	2084.68
450.506	2086.71
450.88	2103.21
451.254	2132.13
451.628	2180.72
452.002	2163.54
452.376	2173.94
452.75	2206.48
453.123	2220.94
453.497	2270.66
453.871	2263.2
454.244	2328.51
454.618	2344.78
454.992	2364.9
455.365	2363.99
455.739	2443.99
456.112	2477.43
456.486	2453.71
456.859	2512.69
457.232	2553.14
457.606	2595.17
457.979	2592.46
458.352	2645.79
458.725	2680.59
459.099	2678.79
459.472	2715.62
459.845	2794.26
460.218	2810.76
460.591	2815.28
460.964	2840.36
461.337	2884.2
461.71	2920.36
462.083	3004.2
462.456	2981.38
462.829	3000.36
463.201	3074.93
463.574	3025.9
463.947	3140.24
464.32	3159.9
464.692	3207.59
465.065	3202.39
465.438	3284.87
465.81	3265.66
466.183	3312.44
466.555	3378.65
466.928	3413.91
467.3	3416.62
467.672	3480.57
468.045	3527.58
468.417	3528.71
468.789	3566.9
469.161	3649.83
469.534	3669.04
469.906	3763.95
470.278	3746.78
470.65	3822.94
471.022	3893.89
471.394	3939.32
471.766	3937.06
472.138	4039.2
472.51	4074.23
472.882	4142.93
473.253	4196.03
473.625	4234.45
473.997	4351.06
474.369	4361.45
474.74	4422.02
475.112	4449.81
475.484	4553.99
475.855	4607.77
476.227	4702.69
476.598	4790.14
476.97	4862.91
477.341	4957.14
477.713	5051.6
478.084	5060.42
478.455	5189
478.827	5271.71
479.198	5452.05
479.569	5421.99
479.94	5541.54
480.311	5641.87
480.682	5751.25
481.053	5858.81
481.424	5964.35
481.795	6039.15
482.166	6124.12
482.537	6245.47
482.908	6353.49
483.279	6455.86
483.65	6607.95
484.021	6724.1
484.391	6855.4
484.762	6903.31
485.133	6986.92
485.503	7025.56
485.874	7198.44
486.244	7268.27
486.615	7473.01
486.985	7521.37
487.356	7743.96
487.726	7725.43
488.097	7945.77
488.467	8039.77
488.837	8219.43
489.207	8288.36
489.578	8394.79
489.948	8545.52
490.318	8649.93
490.688	8769.7
491.058	8944.38
491.428	9030.48
491.798	9138.05
492.168	9319.29
492.538	9467.99
492.908	9523.8
493.278	9634.08
493.648	9669.34
494.017	9834.98
494.387	9977.12
494.757	9992.27
495.126	10147.06
495.496	10266.38
495.866	10341.41
496.235	10440.62
496.605	10538.92
496.974	10584.79
497.344	10724
497.713	10791.11
498.082	10815.07
498.452	11003.31
498.821	11189.75
499.19	11094.84
499.559	11221.16
499.928	11345.9
500.298	11468.61
500.667	11526.69
501.036	11547.25
501.405	11683.75
501.774	11698.21
502.143	11846
502.512	11919.45
502.88	12096.84
503.249	12034.47
503.618	12195.15
503.987	12150.17
504.356	12310.17
504.724	12363.28
505.093	12391.07
505.462	12420.22
505.83	12542.71
506.199	12683.49
506.567	12784.51
506.936	12790.38
507.304	13032.19
507.672	13083.26
508.041	13037.84
508.409	13207.1
508.777	13281.67
509.145	13382.68
509.514	13316.47
509.882	13487.09
510.25	13602.57
510.618	13711.72
510.986	13690.25
511.354	13921.65
511.722	13995.78
512.09	14101.54
512.458	14021.99
512.826	14195.54
513.193	14197.8
513.561	14379.27
513.929	14434.18
514.297	14614.97
514.664	14727.96
515.032	14822.87
515.4	14931.12
515.767	14908.29
516.135	15093.37
516.502	14982.42
516.869	15212.47
517.237	15372.91
517.604	15327.72
517.972	15534.94
518.339	15568.39
518.706	15707.6
519.073	15811.55
519.44	15790.08
519.808	16092.22
520.175	16020.13
520.542	16255.6
520.909	16322.49
521.276	16477.07
521.643	16635.48
522.009	16661.92
522.376	16938.07
522.743	17014.68
523.11	17150.04
523.477	17350.04
523.843	17509.36
524.21	17672.29
524.577	17755.9
524.943	17848.33
525.31	18040.64
525.676	18223.01
526.043	18332.61
526.409	18509.78
526.776	18618.25
527.142	18713.39
527.508	18778.25
527.874	18979.15
528.241	19100.05
528.607	19210.1
528.973	19549.3
529.339	19441.51
529.705	19782.97
530.071	19891.67
530.437	19961.27
530.803	20087.82
531.169	20250.53
531.535	20347.47
531.901	20415.27
532.267	20565.32
532.632	20642.83
532.998	20824.07
533.364	20948.36
533.73	21087.34
534.095	21306.09
534.461	21231.74
534.826	21414.56
535.192	21499.53
535.557	21663.37
535.923	21705.63
536.288	21816.36
536.653	21962.8
537.019	21937.04
537.384	21968.67
537.749	22097.48
538.114	22165.73
538.479	22189.46
538.845	22346.97
539.21	22363.47
539.575	22417.48
539.94	22484.37
540.305	22759.16
540.67	22669.22
541.034	22901.53
541.399	22944.02
541.764	22953.05
542.129	23048.42
542.494	23089.77
542.858	23194.18
543.223	23298.13
543.587	23402.53
543.952	23401.18
544.316	23473.49
544.681	23508.52
545.045	23765.91
545.41	23811.56
545.774	23736.08
546.138	23761.85
546.503	23912.13
546.867	23971.56
547.231	24228.5
547.595	24202.74
547.959	24282.96
548.324	24393.92
548.688	24351.21
549.052	24566.35
549.416	24459.68
549.779	24612.9
550.143	24527.48
550.507	24875.26
550.871	24865.77
551.235	24942.15
551.599	25112.32
551.962	25133.56
552.326	25388.02
552.689	25350.73
553.053	25274.12
553.417	25378.08
553.78	25607
554.143	25644.28
554.507	25785.07
554.87	25923.6
555.234	26264.15
555.597	25999.98
555.96	26076.81
556.323	26272.52
556.686	26314.77
557.05	26585.28
557.413	26599.06
557.776	26603.81
558.139	26778.72
558.502	27009.45
558.865	27000.41
559.228	27226.84
559.59	27303.67
559.953	27374.63
560.316	27800.84
560.679	27657.11
561.041	27788.41
561.404	28133.26
561.767	28169.87
562.129	28197.44
562.492	28516.3
562.854	28497.32
563.217	28790.19
563.579	28790.19
563.941	28943.63
564.304	29147.69
564.666	29349.27
565.028	29369.84
565.39	29534.58
565.753	29753.33
566.115	29826.77
566.477	30031.51
566.839	30274.9
567.201	30532.52
567.563	30516.47
567.925	30812.06
568.287	30858.16
568.648	30924.14
569.01	31229
569.372	31408.88
569.734	31528.65
570.095	31710.11
570.457	31856.78
570.819	31891.12
571.18	32154.62
571.542	32394.84
571.903	32436.2
572.265	32694.95
572.626	32808.84
572.987	32901.49
573.349	33061.04
573.71	33263.97
574.071	33503.06
574.432	33542.61
574.794	33917.06
575.155	33869.38
575.516	34005.19
575.877	34224.62
576.238	34317.73
576.599	34581.9
576.96	34512.52
577.32	34762.91
577.681	35039.06
578.042	35221.66
578.403	35169.46
578.763	35239.06
579.124	35387.08
579.485	35601.31
579.845	35772.38
580.206	35882.43
580.566	36052.15
580.927	36110.67
581.287	36475.64
581.648	36401.97
582.008	36717.89
582.368	36826.59
582.728	37052.34
583.089	37147.48
583.449	37405.1
583.809	37532.56
584.169	37968.03
584.529	37800.35
584.889	38429.94
585.249	38379.32
585.609	38455.92
585.969	38937.95
586.329	39024.5
586.688	39465.16
587.048	39566.18
587.408	40026.5
587.768	40112.15
588.127	40559.15
588.487	40716.66
588.846	41289.3
589.206	41294.27
589.565	41731.54
589.925	42379.44
590.284	42513.22
590.643	42916.6
591.003	43303.71
591.362	43951.15
591.721	44107.3
592.08	44431.81
592.44	44997.67
592.799	45089.42
593.158	45664.55
593.517	45843.3
593.876	46378.65
594.235	46755.82
594.593	47097.73
594.952	47484.16
595.311	47738.17
595.67	48251.82
596.029	48745.6
596.387	49210.22
596.746	49605.46
597.104	49594.61
597.463	49879.35
597.822	50457.64
598.18	50717.97
598.538	50899.21
598.897	51471.85
599.255	51508.69
599.613	52137.37
599.972	52110.93
600.33	52561.77
600.688	52727.41
601.046	53036.33
601.404	53506.6
601.762	53576.88
602.12	53940.26
602.478	54084.44
602.836	54399.69
603.194	54412.57
603.552	54671.99
603.91	54855.72
604.268	55074.02
604.625	55224.52
604.983	55603.95
605.341	55612.08
605.698	56016.14
606.056	56268.34
606.413	56200.09
606.771	56605.73
607.128	56743.35
607.485	56807.08
607.843	56955.55
608.2	57238.48
608.557	57454.75
608.914	57516.67
609.272	57730.9
609.629	58011.12
609.986	58246.82
610.343	58238.45
610.7	58528.16
611.057	58583.98
611.414	58617.43
611.771	58880.47
612.127	59027.13
612.484	59066.91
612.841	59252.21
613.198	59306
613.554	59390.51
613.911	59617.63
614.267	59711.64
614.624	59827.11
614.98	59956.15
615.337	60130.16
615.693	60144.17
616.05	60225.29
616.406	60389.58
616.762	60477.94
617.118	60515
617.475	60594.32
617.831	60713.42
618.187	60819.86
618.543	60886.29
618.899	61104.14
619.255	61131.94
619.611	61116.57
619.967	61207.87
620.323	61390.46
620.678	61324.48
621.034	61307.07
621.39	61328.32
621.746	61474.08
622.101	61775.08
622.457	61538.93
622.812	61669.55
623.168	61752.26
623.523	61761.53
623.879	61916.1
624.234	61765.37
624.589	61927.85
624.945	61883.78
625.3	61966.49
625.655	62067.28
626.01	62079.71
626.365	62114.74
626.72	62064.34
627.075	62054.4
627.43	62082.42
627.785	62144.34
628.14	62057.34
628.495	62108.86
628.85	62126.26
629.205	62166.03
629.559	62297.78
629.914	62136.66
630.269	62178.46
630.623	62134.4
630.978	62080.61
631.332	62220.27
631.687	62231.12
632.041	62185.24
632.396	62213.72
632.75	62153.38
633.104	62218.69
633.459	62091.01
633.813	62101.86
634.167	62102.08
634.521	62155.19
634.875	62114.74
635.229	62048.07
635.583	62001.75
635.937	61930.56
636.291	61979.83
636.645	62010.33
636.999	61933.27
637.352	61994.06
637.706	61815.99
638.06	61931.46
638.413	61892.6
638.767	61836.78
639.121	61867.29
639.474	61732.83
639.828	61768.31
640.181	61713.17
640.534	61768.08
640.888	61666.84
641.241	61533.74
641.594	61609.44
641.947	61660.51
642.301	61539.84
642.654	61553.17
643.007	61539.16
643.36	61537.35
643.713	61437.47
644.066	61576.9
644.419	61359.5
644.771	61153.86
645.124	60928.55
645.477	60927.42
645.83	60794.09
646.182	60808.33
646.535	60722.23
646.888	60851.95
647.24	60707.54
647.593	60887.42
647.945	60759.29
648.298	60658.96
648.65	60614.44
649.002	60435.23
649.355	60435.23
649.707	60373.31
650.059	60438.17
650.411	60709.35
650.763	60859.4
651.115	61169
651.467	61063.47
651.819	61151.82
652.171	61072.73
652.523	60957.03
652.875	60980.53
653.227	60913.86
653.578	61107.76
653.93	60996.12
654.282	60894.88
654.633	60815.34
654.985	60930.14
655.337	60935.78
655.688	60936.01
656.039	61018.04
656.391	60760.2
656.742	60842.91
657.094	60801.78
657.445	60833.19
657.796	60921.32
658.147	60764.94
658.498	60864.83
658.849	60832.96
659.2	60738.28
659.551	60684.72
659.902	60846.52
660.253	60693.08
660.604	60776.01
660.955	60689.46
661.306	60780.31
661.656	60692.63
662.007	60710.48
662.358	60722.68
662.708	60738.05
663.059	60696.7
663.409	60654.89
663.76	60792.06
664.11	60714.77
664.461	60795
664.811	60753.19
665.161	60742.8
665.511	60753.64
665.862	60715.23
666.212	60756.58
666.562	60815.11
666.912	60727.65
667.262	60653.31
667.612	60659.41
667.962	60673.42
668.312	60672.97
668.662	60833.64
669.011	60729.46
669.361	60627.54
669.711	60702.12
670.06	60593.65
670.41	60613.53
670.76	60617.15
671.109	60639.07
671.459	60625.74
671.808	60632.74
672.157	60610.14
672.507	60517.49
672.856	60537.38
673.205	60547.55
673.554	60657.6
673.904	60568.34
674.253	60677.03
674.602	60541.22
674.951	60220.32
675.3	60155.24
675.649	60540.09
675.998	60493.31
676.346	60572.4
676.695	60507.1
677.044	60383.93
677.393	60428.45
677.741	60481.11
678.09	60438.4
678.438	60337.61
678.787	60406.99
679.135	60371.96
679.484	60215.35
679.832	60281.11
680.181	60279.08
680.529	60284.28
680.877	60151.62
681.225	60215.13
681.573	60362.24
681.922	60111.4
682.27	60083.83
682.618	60020.33
682.966	59985.3
683.314	60054.45
683.661	60036.6
684.009	59929.03
684.357	59887.45
684.705	59792.54
685.053	59853.78
685.4	59729.04
685.748	59686.1
686.095	59642.49
686.443	59561.13
686.79	59511.42
687.138	59547.35
687.485	59500.34
687.832	59381.02
688.18	59406.79
688.527	59310.97
688.874	59291.08
689.221	59306.9
689.568	59190.52
689.915	59093.12
690.262	59101.26
690.609	58971.32
690.956	58961.83
691.303	58946.01
691.65	58821.04
691.997	58813.81
692.344	58677.09
692.69	58567.49
693.037	58640.7
693.383	58366.36
693.73	58487.94
694.077	58240.71
694.423	58261.05
694.769	58249.75
695.116	58167.04
695.462	58045.47
695.808	58020.83
696.155	58078.23
696.501	57820.61
696.847	57939.48
697.193	57669.88
697.539	57747.39
697.885	57510.11
698.231	57511.02
698.577	57543.78
698.923	57393.73
699.269	57344.01
699.614	57208.43
699.96	57112.83
700.306	57131.37
700.651	56989.45
700.997	56934.53
701.342	56756.23
701.688	56839.85
702.033	56700.64
702.379	56632.4
702.724	56569.57
703.069	56555.56
703.415	56318.96
703.76	56264.72
704.105	56255.23
704.45	56183.59
704.795	56048.68
705.14	55955.8
705.485	56056.59
705.83	55810.04
706.175	55960.1
706.52	55723.27
706.865	55701.57
707.209	55536.83
707.554	55610.73
707.899	55535.7
708.243	55442.6
708.588	55382.94
708.932	55152.66
709.277	55284.63
709.621	55096.39
709.966	54944.3
710.31	54947.47
710.654	54856.17
710.998	54869.5
711.342	54932.33
711.687	54729.39
712.031	54615.5
712.375	54451.21
712.719	54446.01
713.063	54455.73
713.407	54543.41
713.75	54456.86
714.094	54368.73
714.438	54228.84
714.782	54260.71
715.125	54145.23
715.469	54265.9
715.812	53970.09
716.156	53878.57
716.499	53923.09
716.843	53839.02
717.186	53723.09
717.53	53946.82
717.873	53849.19
718.216	53665.47
718.559	53620.27
718.902	53375.76
719.246	53487.39
719.589	53378.24
719.932	53243.78
720.275	53363.78
720.617	53385.7
720.96	53253.5
721.303	53245.82
721.646	53282.2
721.989	53060.06
722.331	53086.27
722.674	53039.5
723.016	53089.89
723.359	53000.85
723.701	52999.95
724.044	52886.28
724.386	52693.52
724.729	52960.18
725.071	52764.25
725.413	52739.39
725.755	52683.8
726.097	52612.84
726.439	52482.67
726.782	52386.18
727.124	52559.51
727.465	52440.41
727.807	52385.05
728.149	52404.48
728.491	52260.76
728.833	52312.51
729.175	52231.15
729.516	52138.95
729.858	52126.75
730.199	52206.75
730.541	52186.41
730.882	52072.97
731.224	52093.98
731.565	51986.42
731.906	52025.06
732.248	51991.16
732.589	51746.65
732.93	51728.8
733.271	51768.57
733.612	51795.01
733.953	51836.14
734.294	51693.09
734.635	51516.15
734.976	51788.91
735.317	51545.75
735.658	51601.57
735.999	51490.16
736.339	51507.33
736.68	51564.28
737.021	51522.25
737.361	51304.17
737.702	51605.63
738.042	51383.72
738.383	51428.01
738.723	51399.76
739.063	51249.71
739.404	51373.32
739.744	51345.53
740.084	51225.76
740.424	51205.42
740.764	51091.52
741.104	51306.89
741.444	51128.13
741.784	50978.76
742.124	51122.48
742.464	51063.05
742.804	51063.73
743.143	50984.18
743.483	51053.33
743.823	50840.91
744.162	50856.95
744.502	50887.91
744.841	50793.23
745.181	50861.93
745.52	50677.98
745.86	50752.32
746.199	50688.82
746.538	50687.47
746.877	50786.22
747.216	50714.36
747.556	50632.55
747.895	50706
748.234	50625.32
748.573	50474.14
748.911	50493.35
749.25	50497.19
749.589	50295.84
749.928	50421.94
750.267	50501.03
750.605	50367.7
750.944	50249.51
751.283	50265.56
751.621	50355.27
751.96	50173.81
752.298	50166.8
752.636	49996.64
752.975	50067.82
753.313	49896.53
753.651	50100.59
753.989	49823.99
754.327	50026.02
754.666	49671.45
755.004	49763.2
755.342	49694.5
755.679	49635.06
756.017	49485.69
756.355	49706.7
756.693	49472.58
757.031	49498.8
757.368	49240.5
757.706	49345.58
758.044	49205.25
758.381	49160.73
758.719	48911.47
759.056	48960.51
759.394	48975.42
759.731	48669.89
760.068	48729.1
760.405	48597.58
760.743	48453.18
761.08	48567.07
761.417	48369.34
761.754	48210.7
762.091	48273.07
762.428	48059.74
762.765	47888.44
763.102	47914.21
763.438	47713.76
763.775	47513.54
764.112	47627.21
764.449	47609.81
764.785	47270.16
765.122	47214.79
765.458	47078.07
765.795	46930.73
766.131	46921.24
766.467	46788.36
766.804	46497.52
767.14	46379.78
767.476	46321.25
767.812	46239.9
768.148	46234.25
768.485	46041.26
768.821	45843.98
769.157	45618.22
769.492	45502.52
769.828	45516.3
770.164	45074.73
770.5	45097.78
770.836	45115.64
771.171	44952.93
771.507	44713.61
771.842	44445.14
772.178	44561.07
772.513	44378.03
772.849	44103.23
773.184	44177.58
773.519	44054.42
773.855	43609.01
774.19	43592.96
774.525	43509.12
774.86	43362.46
775.195	43319.75
775.53	43113.65
775.865	42874.79
776.2	42747.56
776.535	42541.47
776.87	42403.62
777.205	42238.2
777.539	42132.21
777.874	42242.04
778.209	41736.74
778.543	41833.01
778.878	41633.92
779.212	41527.03
779.547	41243.42
779.881	41241.84
780.215	40966.14
780.55	41095.85
780.884	40587.17
781.218	40640.73
781.552	40723.43
781.886	40422.43
782.22	40101.53
782.554	40070.34
782.888	39720.3
783.222	39609.11
783.556	39429.23
783.889	39343.81
784.223	39128.9
784.557	39142.23
784.89	39133.87
785.224	38973.88
785.557	38589.71
785.891	38752.64
786.224	38656.6
786.558	38494.57
786.891	38175.71
787.224	37927.12
787.557	37824.3
787.891	37865.2
788.224	37732.33
788.557	37639.45
788.89	37659.33
789.223	37462.05
789.556	37285.11
789.888	37189.29
790.221	37015.51
790.554	36787.72
790.887	36758.79
791.219	36604.9
791.552	36526.94
791.884	36336.88
792.217	36110.67
792.549	36009.21
792.882	35723.34
793.214	35768.08
793.546	35857.35
793.879	35545.27
794.211	35389.79
794.543	35573.51
794.875	35457.81
795.207	35207.42
795.539	35060.98
795.871	35095.79
796.203	34937.82
796.535	34724.72
796.867	34618.51
797.198	34474.79
797.53	34388.46
797.862	34158.18
798.193	34159.09
798.525	33930.39
798.856	34151.18
799.188	33585.54
799.519	33701.7
799.85	33459.45
800.182	33467.13
800.513	33550.52
800.844	33011.77
801.175	33342.16
801.506	33313.23
801.837	32899.23
802.168	32930.19
802.499	33006.12
802.83	32826.02
803.161	32626.25
803.491	32422.18
803.822	32678.22
804.153	32357.78
804.483	32216.99
804.814	31979.03
805.145	32050.22
805.475	31973.38
805.805	32005.47
806.136	31820.62
806.466	31826.72
806.796	31650
807.126	31451.81
807.457	31554.64
807.787	31493.85
808.117	31337.02
808.447	31270.12
808.777	31321.42
809.107	31008.21
809.436	30829.46
809.766	30894.99
810.096	30960.3
810.426	30617.03
810.755	30691.83
811.085	30539.97
811.414	30614.1
811.744	30282.35
812.073	30421.11
812.403	30232.86
812.732	30091.17
813.061	30239.19
813.39	29962.81
813.719	29897.5
814.049	29948.12
814.378	29920.78
814.707	29714.23
815.036	29749.26
815.365	29636.04
815.693	29410.74
816.022	29431.98
816.351	29257.07
816.68	29213.46
817.008	29277.86
817.337	29000.58
817.665	29047.13
817.994	29002.16
818.322	29092.33
818.651	28862.96
818.979	28864.54
819.307	28995.61
819.636	28700.7
819.964	28693.69
820.292	28712
820.62	28537.54
820.948	28837.19
821.276	28864.09
821.604	28674.71
821.932	28751.77
822.259	28530.08
822.587	28582.06
822.915	28584.55
823.243	28606.92
823.57	28449.41
823.898	28653.7
824.225	28539.57
824.553	28359.92
824.88	28506.13
825.207	28700.02
825.535	28493.93
825.862	28548.39
826.189	28465.23
826.516	28756.52
826.843	28669.29
827.17	28638.55
827.497	28795.16
827.824	28643.98
828.151	28754.03
828.478	28634.71
828.805	28750.42
829.131	28572.57
829.458	28713.13
829.785	28519.69
830.111	28598.33
830.438	28729.4
830.764	28443.08
831.09	28596.97
831.417	28439.69
831.743	28567.6
832.069	28535.28
832.395	28520.14
832.722	28477.43
833.048	28428.16
833.374	28554.26
833.7	28408.5
834.026	28507.26
834.351	28411.44
834.677	28502.74
835.003	28312.69
835.329	28443.08
835.654	28326.7
835.98	28079.25
836.306	28289.41
836.631	28041.73
836.956	28412.8
837.282	28356.53
837.607	28136.87
837.932	28015.52
838.258	28112.47
838.583	27905.92
838.908	28039.93
839.233	27989.76
839.558	27885.13
839.883	27807.16
840.208	27754.06
840.533	27763.32
840.858	27808.52
841.182	27687.62
841.507	27709.77
841.832	27422.09
842.156	27551.35
842.481	27475.65
842.805	27268.42
843.13	27278.36
843.454	27317.01
843.778	27183.45
844.103	27090.12
844.427	27169.89
844.751	26992.72
845.075	26964.02
845.399	26963.12
845.723	26804.03
846.047	26754.31
846.371	26545.28
846.695	26549.12
847.019	26457.37
847.343	26257.83
847.666	26218.51
847.99	26211.95
848.313	25955.24
848.637	25992.52
848.96	25886.54
849.284	25879.53
849.607	25645.19
849.931	25603.61
850.254	25355.03
850.577	25239.77
850.9	25117.74
851.223	25071.42
851.546	25004.53
851.869	24702.39
852.192	24941.48
852.515	24713.46
852.838	24489.29
853.161	24495.39
853.483	24303.53
853.806	24275.73
854.129	24294.26
854.451	24160.03
854.774	24053.14
855.096	23981.95
855.419	23940.6
855.741	23869.87
856.063	23853.14
856.385	23591.23
856.708	23643.21
857.03	23560.72
857.352	23475.53
857.674	23461.29
857.996	23322.54
858.318	23188.53
858.64	23223.33
858.961	23051.36
859.283	23124.35
859.605	23012.04
859.926	22947.63
860.248	22932.49
860.57	22698.37
860.891	22766.84
861.212	22662.21
861.534	22598.71
861.855	22525.04
862.176	22534.76
862.498	22495.21
862.819	22545.83
863.14	22375.67
863.461	22300.19
863.782	22287.31
864.103	22346.74
864.424	22228.78
864.745	22252.96
865.065	22124.83
865.386	21996.02
865.707	22178.39
866.027	21986.98
866.348	22046.19
866.668	22044.6
866.989	21856.13
867.309	21857.04
867.63	21818.85
867.95	21785.4
868.27	21643.94
868.59	21878.28
868.91	21633.09
869.23	21519.65
869.55	21644.39
869.87	21686.42
870.19	21512.87
870.51	21483.26
870.83	21420.67
871.15	21421.12
871.469	21325.75
871.789	21426.54
872.109	21365.98
872.428	21224.51
872.748	21295.92
873.067	21308.58
873.386	21212.31
873.706	21104.29
874.025	21153.33
874.344	20941.81
874.663	20987.91
874.982	21083.27
875.301	21008.7
875.62	20903.39
875.939	20776.16
876.258	20851.19
876.577	20746.11
876.896	20768.03
877.214	20735.49
877.533	20852.77
877.852	20780.23
878.17	20807.8
878.489	20708.14
878.807	20666.79
879.125	20551.08
879.444	20516.28
879.762	20486.45
880.08	20551.99
880.398	20270.41
880.716	20401.03
881.034	20272
881.352	20379.11
881.67	20283.29
881.988	20152.45
882.306	20106.8
882.624	20192.22
882.941	20125.11
883.259	19994.04
883.577	20037.65
883.894	19945.9
884.212	19805.79
884.529	19869.97
884.846	19846.02
885.164	19752.01
885.481	19639.92
885.798	19623.65
886.115	19550.88
886.432	19641.96
886.75	19520.15
887.067	19552.69
887.383	19457.33
887.7	19372.81
888.017	19253.72
888.334	19297.56
888.651	19209.88
888.967	19208.97
889.284	19079.71
889.6	19129.43
889.917	19053.5
890.233	19102.76
890.55	19014.4
890.866	18940.05
891.182	18953.16
891.498	18791.58
891.815	18679.95
892.131	18592.27
892.447	18669.55
892.763	18620.74
893.079	18529.44
893.395	18424.36
893.71	18350.46
894.026	18236.57
894.342	18211.94
894.657	18197.7
894.973	18101.2
895.289	18130.13
895.604	18154.08
895.92	17978.04
896.235	17957.71
896.55	17865.96
896.865	17833.42
897.181	17726.3
897.496	17777.15
897.811	17614.66
898.126	17544.16
898.441	17469.58
898.756	17436.82
899.071	17403.37
899.386	17446.08
899.7	17287.89
900.015	17186.65
900.33	17120.89
900.644	17113.89
900.959	17050.16
901.273	16959.77
901.588	16971.97
901.902	16771.07
902.216	16701.24
902.531	16708.7
902.845	16607.46
903.159	16620.11
903.473	16503.05
903.787	16458.54
904.101	16390.29
904.415	16402.27
904.729	16347.8
905.042	16216.73
905.356	16274.36
905.67	16200.24
905.984	16154.59
906.297	16131.77
906.611	15974.26
906.924	15839.57
907.237	15777.2
907.551	15738.1
907.864	15739.01
908.177	15714.83
908.491	15630.99
908.804	15567.03
909.117	15477.32
909.43	15282.75
909.743	15339.47
910.056	15354.16
910.368	15204.78
910.681	15193.71
910.994	15098.35
911.307	14986.48
911.619	14841.4
911.932	14941.74
912.244	14787.62
912.557	14828.07
912.869	14702.42
913.181	14644.57
913.494	14655.65
913.806	14530.9
914.118	14492.26
914.43	14507.63
914.742	14300.63
915.054	14341.08
915.366	14293.62
915.678	14289.33
915.99	14096.79
916.302	14077.36
916.613	14094.98
916.925	13975.66
917.236	13935.89
917.548	13870.36
917.859	13868.32
918.171	13744.48
918.482	13632.17
918.794	13682.79
919.105	13546.52
919.416	13423.81
919.727	13398.05
920.038	13445.51
920.349	13300.43
920.66	13259.75
920.971	13241.45
921.282	13093.43
921.593	13092.52
921.903	13045.97
922.214	12934.34
922.525	12882.13
922.835	12862.02
923.146	12724.62
923.456	12771.85
923.767	12703.15
924.077	12758.75
924.387	12629.03
924.697	12544.74
925.008	12500.9
925.318	12420.68
925.628	12356.72
925.938	12365.99
926.248	12300.91
926.558	12173.45
926.867	12146.56
927.177	12146.33
927.487	11997.18
927.796	11957.64
928.106	11980.01
928.416	11910.86
928.725	11796.74
929.034	11779.34
929.344	11761.48
929.653	11657.31
929.962	11683.52
930.271	11621.15
930.581	11595.16
930.89	11546.8
931.199	11432.23
931.508	11389.06
931.817	11397.2
932.125	11330.54
932.434	11266.36
932.743	11141.84
933.051	11119.92
933.36	11000.83
933.669	10981.39
933.977	10963.99
934.286	11020.49
934.594	10920.15
934.902	10883.09
935.21	10793.6
935.519	10788.18
935.827	10716.31
936.135	10665.47
936.443	10565.58
936.751	10564.91
937.059	10538.01
937.367	10440.84
937.674	10467.51
937.982	10368.75
938.29	10358.36
938.597	10376.89
938.905	10196.1
939.213	10137.57
939.52	10104.8
939.827	10100.29
940.135	10052.15
940.442	10041.08
940.749	9971.02
941.056	9987.07
941.363	9888.99
941.67	9850.8
941.977	9759.05
942.284	9748.66
942.591	9715.21
942.898	9703.23
943.205	9642.22
943.511	9582.33
943.818	9644.25
944.125	9487.87
944.431	9522.9
944.738	9439.74
945.044	9430.7
945.35	9336.69
945.657	9226.18
945.963	9259.86
946.269	9185.96
946.575	9168.78
946.881	9108.67
947.187	9041.33
947.493	9020.09
947.799	9049.92
948.105	8991.39
948.41	8916.59
948.716	8910.94
949.022	8859.87
949.327	8821.22
949.633	8680.44
949.938	8786.65
950.244	8741.22
950.549	8650.15
950.854	8620.78
951.16	8564.73
951.465	8519.54
951.77	8526.77
952.075	8438.41
952.38	8436.37
952.685	8449.71
952.99	8232.09
953.294	8373.33
953.599	8243.84
953.904	8224.63
954.209	8119.77
954.513	8173.1
954.818	8131.3
955.122	8100.79
955.426	8091.07
955.731	8024.86
956.035	7938.08
956.339	7979.21
956.643	7948.03
956.948	7775.83
957.252	7811.98
957.556	7760.91
957.86	7763.4
958.163	7737.86
958.467	7675.04
958.771	7752.1
959.075	7665.1
959.378	7524.31
959.682	7582.61
959.985	7583.52
960.289	7455.16
960.592	7428.94
960.896	7376.74
961.199	7399.57
961.502	7377.87
961.805	7331.54
962.108	7267.14
962.411	7268.95
962.714	7190.53
963.017	7132.45
963.32	7156.63
963.623	7188.72
963.926	7111.44
964.228	7076.64
964.531	7050.65
964.833	7043.19
965.136	6927.94
965.438	6919.35
965.741	6902.63
966.043	6891.1
966.345	6808.62
966.648	6771.33
966.95	6808.62
967.252	6743.09
967.554	6704.89
967.856	6699.24
968.158	6611.56
968.46	6658.12
968.761	6642.3
969.063	6539.25
969.365	6544.67
969.666	6508.52
969.968	6460.83
970.269	6477.78
970.571	6427.84
970.872	6371.57
971.174	6359.59
971.475	6366.15
971.776	6315.53
972.077	6219.94
972.378	6250.89
972.679	6254.28
972.98	6169.99
973.281	6156.21
973.582	6145.81
973.883	6142.88
974.183	6030.79
974.484	6052.93
974.785	6000.51
975.085	6033.27
975.386	6011.81
975.686	5922.77
975.986	5914.18
976.287	5963.9
976.587	5821.3
976.887	5827.86
977.187	5847.06
977.487	5758.48
977.787	5737.24
978.087	5677.12
978.387	5723.9
978.687	5675.99
978.987	5663.34
979.286	5608.43
979.586	5640.06
979.885	5543.79
980.185	5524.13
980.484	5513.74
980.784	5498.6
981.083	5422.22
981.382	5413.4
981.682	5460.63
981.981	5423.8
982.28	5371.37
982.579	5358.94
982.878	5337.92
983.177	5292.05
983.475	5259.73
983.774	5198.04
984.073	5231.71
984.372	5192.62
984.67	5200.08
984.969	5163.69
985.267	5096.35
985.566	5123.92
985.864	5059.29
986.162	5090.02
986.461	5029.46
986.759	5005.5
987.057	4955.34
987.355	4870.59
987.653	4956.24
987.951	4885.96
988.249	4841.21
988.547	4858.16
988.844	4828.56
989.142	4815.45
989.44	4792.85
989.737	4771.84
990.035	4727.55
990.332	4718.51
990.63	4695
990.927	4675.57
991.224	4663.37
991.521	4628.11
991.819	4621.11
992.116	4614.1
992.413	4523.03
992.71	4491.39
993.006	4543.82
993.303	4491.39
993.6	4448.91
993.897	4392.64
994.193	4433.09
994.49	4383.15
994.787	4391.06
995.083	4362.13
995.379	4341.34
995.676	4290.72
995.972	4280.1
996.268	4244.39
996.565	4217.73
996.861	4194.68
997.157	4189.93
997.453	4185.41
997.749	4136.15
998.044	4136.15
998.34	4092.08
998.636	4123.95
998.932	4063.16
999.227	4033.1
999.523	4033.33
999.818	3976.15
1000.114	3991.97
1000.409	3971.86
1000.704	3977.51
1001	3866.55
1001.295	3904.06
1001.59	3835.59
1001.885	3882.82
1002.18	3806.21
1002.475	3811.86
1002.77	3808.25
1003.065	3740
1003.359	3751.07
1003.654	3744.97
1003.949	3712.88
1004.243	3661.81
1004.538	3601.93
1004.832	3586.78
1005.127	3604.18
1005.421	3547.92
1005.715	3547.46
1006.009	3519.89
1006.304	3521.25
1006.598	3473.11
1006.892	3460.46
1007.186	3458.2
1007.48	3433.12
1007.773	3429.27
1008.067	3403.51
1008.361	3354.25
1008.655	3350.41
1008.948	3329.16
1009.242	3323.97
1009.535	3296.62
1009.829	3282.61
1010.122	3262.5
1010.415	3202.39
1010.708	3225.66
1011.001	3183.63
1011.295	3188.38
1011.588	3093.69
1011.881	3109.96
1012.173	3122.84
1012.466	3128.94
1012.759	3090.75
1013.052	3064.31
1013.344	3042.17
1013.637	2994.71
1013.93	2986.57
1014.222	2980.47
1014.514	2963.3
1014.807	2954.03
1015.099	2924.2
1015.391	2896.18
1015.683	2853.47
1015.976	2887.82
1016.268	2833.58
1016.56	2831.32
1016.851	2771.89
1017.143	2775.73
1017.435	2747.03
1017.727	2721.95
1018.018	2734.15
1018.31	2704.77
1018.602	2674.04
1018.893	2684.44
1019.185	2623.65
1019.476	2634.49
1019.767	2626.13
1020.058	2562.63
1020.35	2585.45
1020.641	2540.94
1020.932	2521.95
1021.223	2510.88
1021.514	2496.64
1021.804	2452.35
1022.095	2490.32
1022.386	2427.04
1022.677	2429.3
1022.967	2428.17
1023.258	2411.67
1023.548	2396.53
1023.839	2346.14
1024.129	2306.82
1024.419	2298.91
1024.709	2330.77
1025	2289.42
1025.29	2288.97
1025.58	2274.73
1025.87	2239.48
1026.16	2224.79
1026.449	2206.26
1026.739	2215.52
1027.029	2178.46
1027.319	2136.65
1027.608	2169.65
1027.898	2146.6
1028.187	2100.5
1028.477	2073.6
1028.766	2071.12
1029.055	2100.04
1029.344	2052.81
1029.634	2025.47
1029.923	2043.32
1030.212	2004.45
1030.501	1997.45
1030.79	1978.01
1031.078	1964.91
1031.367	1932.14
1031.656	1967.17
1031.945	1916.09
1032.233	1919.94
1032.522	1920.61
1032.81	1895.98
1033.099	1854.17
1033.387	1870.22
1033.675	1874.06
1033.963	1853.04
1034.251	1811.01
1034.54	1843.33
1034.828	1806.04
1035.116	1805.81
1035.403	1779.6
1035.691	1747.96
1035.979	1754.29
1036.267	1735.53
1036.554	1718.13
1036.842	1700.51
1037.129	1702.54
1037.417	1665.48
1037.704	1651.02
1037.992	1672.03
1038.279	1639.04
1038.566	1615.54
1038.853	1615.54
1039.14	1615.54
