Data from 1797_FLMS001491_003.txt Node
Date: Thu Apr 19 16:33:49 BST 2018
User: hsy
Spectrometer: FLMS00149
Trigger mode: 0
Integration Time (sec): 1.000000E-2
Scans to average: 10
Electric dark correction enabled: true
Nonlinearity correction enabled: false
Boxcar width: 0
XAxis mode: Wavelengths
Number of Pixels in Spectrum: 2048
>>>>>Begin Spectral Data<<<<<
341.393	-5.01
341.776	-5.01
342.16	-5.01
342.543	-47.72
342.927	-81.62
343.31	-49.76
343.693	-68.06
344.077	-62.19
344.46	-70.1
344.843	-49.76
345.226	-36.65
345.61	-21.51
345.993	-5.47
346.376	-15.86
346.759	14.65
347.142	15.55
347.525	32.27
347.908	45.61
348.291	54.87
348.674	89.45
349.057	126.96
349.44	127.41
349.823	153.4
350.206	174.87
350.588	254.41
350.971	239.27
351.354	282.66
351.737	286.73
352.119	265.26
352.502	314.07
352.884	314.07
353.267	328.31
353.65	336.45
354.032	353.62
354.414	351.13
354.797	362.89
355.179	382.77
355.562	373.06
355.944	401.08
356.326	373.51
356.709	399.5
357.091	377.12
357.473	412.15
357.855	378.48
358.238	395.65
358.62	386.39
359.002	404.47
359.384	390.46
359.766	414.18
360.148	387.52
360.53	405.6
360.912	396.11
361.294	397.46
361.676	405.6
362.057	386.61
362.439	389.78
362.821	396.56
363.203	379.83
363.584	385.71
363.966	377.12
364.348	378.03
364.729	374.86
365.111	391.13
365.493	379.61
365.874	393.39
366.256	364.47
366.637	385.48
367.019	385.94
367.4	384.81
367.781	383.45
368.163	378.93
368.544	380.74
368.925	389.33
369.306	389.1
369.688	383.22
370.069	379.61
370.45	374.64
370.831	389.55
371.212	404.01
371.593	403.11
371.974	385.94
372.355	386.39
372.736	381.87
373.117	407.63
373.498	385.48
373.879	393.85
374.26	391.36
374.641	394.07
375.021	399.95
375.402	415.09
375.783	403.56
376.163	429.1
376.544	411.92
376.925	416.67
377.305	420.74
377.686	411.02
378.066	385.26
378.447	419.61
378.827	423.45
379.208	437.91
379.588	431.13
379.968	415.77
380.349	427.52
380.729	435.2
381.109	436.56
381.489	454.63
381.87	444.24
382.25	432.26
382.63	431.13
383.01	444.24
383.39	428.19
383.77	453.05
384.15	462.32
384.53	472.49
384.91	457.8
385.29	457.35
385.67	475.2
386.049	474.97
386.429	477.46
386.809	481.53
387.189	481.98
387.568	464.35
387.948	473.84
388.328	495.31
388.707	507.51
389.087	494.41
389.466	517.91
389.846	504.8
390.225	515.2
390.605	505.48
390.984	497.12
391.363	521.98
391.743	503
392.122	524.92
392.501	532.82
392.881	533.28
393.26	544.8
393.639	519.72
394.018	531.47
394.397	543.22
394.776	559.72
395.155	544.12
395.534	542.09
395.913	561.3
396.292	570.34
396.671	581.86
397.05	556.1
397.429	580.06
397.808	573.95
398.186	568.53
398.565	582.09
398.944	569.66
399.323	574.86
399.701	590.68
400.08	593.16
400.458	609.43
400.837	611.02
401.215	601.52
401.594	599.26
401.972	600.62
402.351	628.19
402.729	638.81
403.107	658.7
403.486	617.79
403.864	642.88
404.242	638.36
404.62	637.23
404.999	671.13
405.377	651.47
405.755	665.93
406.133	665.93
406.511	660.51
406.889	679.04
407.267	677.23
407.645	693.72
408.023	667.06
408.401	712.26
408.779	690.33
409.156	719.94
409.534	719.26
409.912	731.46
410.29	776.89
410.667	758.81
411.045	759.03
411.422	786.6
411.8	764.68
412.178	793.61
412.555	776.43
412.933	793.61
413.31	833.16
413.687	826.15
414.065	794.29
414.442	800.61
414.819	838.35
415.197	831.12
415.574	847.84
415.951	839.48
416.328	874.28
416.705	863.89
417.082	850.33
417.46	875.87
417.837	888.3
418.214	907.05
418.591	901.63
418.967	919.93
419.344	930.55
419.721	896.43
420.098	917
420.475	916.32
420.852	927.16
421.228	939.14
421.605	948.86
421.982	969.88
422.358	995.41
422.735	975.75
423.111	964
423.488	1014.85
423.864	984.56
424.241	1026.6
424.617	1002.19
424.994	1019.82
425.37	1034.96
425.746	1048.29
426.123	1046.71
426.499	1039.25
426.875	1063.43
427.251	1069.76
427.627	1107.27
428.003	1141.85
428.379	1117.44
428.756	1142.3
429.132	1116.76
429.507	1173.26
429.883	1148.4
430.259	1209.64
430.635	1198.34
431.011	1200.15
431.387	1222.07
431.763	1225.69
432.138	1242.64
432.514	1271.56
432.89	1277.66
433.265	1303.43
433.641	1291.9
434.016	1307.49
434.392	1338.91
434.767	1363.76
435.143	1369.64
435.518	1376.19
435.894	1390.88
436.269	1384.55
436.644	1422.97
437.02	1422.97
437.395	1437.89
437.77	1455.96
438.145	1446.47
438.52	1474.04
438.895	1506.13
439.271	1463.65
439.646	1556.75
440.021	1521.95
440.395	1531.67
440.77	1505.68
441.145	1583.19
441.52	1593.81
441.895	1604.44
442.27	1606.7
442.645	1578.9
443.019	1622.06
443.394	1624.55
443.769	1638.11
444.143	1625.23
444.518	1634.72
444.892	1649.86
445.267	1636.52
445.641	1659.58
446.016	1673.13
446.39	1705.22
446.764	1735.05
447.139	1727.37
447.513	1740.93
447.887	1740.93
448.262	1734.6
448.636	1755.62
449.01	1751.32
449.384	1778.67
449.758	1784.09
450.132	1827.48
450.506	1847.59
450.88	1860.7
451.254	1867.93
451.628	1874.48
452.002	1886.01
452.376	1908.16
452.75	1967.59
453.123	1948.38
453.497	2007.59
453.871	1988.61
454.244	2049.4
454.618	2065.44
454.992	2116.96
455.365	2070.86
455.739	2114.7
456.112	2158.09
456.486	2161.71
456.859	2211.65
457.232	2211.88
457.606	2221.59
457.979	2269.73
458.352	2332.78
458.725	2354.02
459.099	2337.3
459.472	2389.27
459.845	2424.07
460.218	2425.2
460.591	2468.14
460.964	2474.02
461.337	2559.44
461.71	2588.36
462.083	2598.99
462.456	2618.87
462.829	2613.22
463.201	2693.67
463.574	2675.37
463.947	2723.5
464.32	2780.45
464.692	2794.46
465.065	2799.66
465.438	2834.69
465.81	2873.78
466.183	2899.09
466.555	2985.42
466.928	2968.02
467.3	2982.7
467.672	3035.81
468.045	3106.77
468.417	3087.56
468.789	3092.98
469.161	3174.34
469.534	3196.71
469.906	3249.59
470.278	3286.88
470.65	3337.05
471.022	3420.43
471.394	3466.76
471.766	3467.44
472.138	3539.75
472.51	3599.41
472.882	3636.7
473.253	3652.52
473.625	3764.38
473.997	3819.29
474.369	3854.32
474.74	3864.04
475.112	3921.44
475.484	4020.19
475.855	4035.78
476.227	4118.72
476.598	4224.93
476.97	4259.05
477.341	4337.24
477.713	4420.86
478.084	4446.62
478.455	4590.57
478.827	4618.37
479.198	4742.88
479.569	4764.58
479.94	4847.97
480.311	4947.62
480.682	5036.89
481.053	5163.44
481.424	5234.85
481.795	5302.87
482.166	5400.95
482.537	5459.48
482.908	5600.94
483.279	5668.51
483.65	5779.69
484.021	5890.42
484.391	5938.11
484.762	6032.79
485.133	6117.31
485.503	6203.41
485.874	6348.94
486.244	6432.33
486.615	6550.52
486.985	6622.16
487.356	6752.55
487.726	6847.69
488.097	6948.48
488.467	7057.85
488.837	7185.98
489.207	7292.87
489.578	7367.67
489.948	7500.1
490.318	7594.56
490.688	7717.27
491.058	7819.64
491.428	7977.15
491.798	8060.99
492.168	8164.49
492.538	8305.95
492.908	8410.58
493.278	8538.94
493.648	8561.99
494.017	8671.59
494.387	8815.09
494.757	8868.88
495.126	9057.12
495.496	9053.96
495.866	9166.5
496.235	9264.8
496.605	9377.56
496.974	9479.71
497.344	9560.38
497.713	9677.67
498.082	9741.17
498.452	9806.48
498.821	9942.97
499.19	9935.52
499.559	10087.15
499.928	10139.58
500.298	10193.14
500.667	10255.28
501.036	10263.42
501.405	10471.77
501.774	10441.49
502.143	10554.93
502.512	10724.2
502.88	10763.52
503.249	10887.81
503.618	10931.42
503.987	10954.02
504.356	10991.53
504.724	11104.3
505.093	11163.51
505.462	11262.03
505.83	11271.53
506.199	11451.63
506.567	11592.2
506.936	11553.1
507.304	11734.34
507.672	11751.51
508.041	11874.45
508.409	11888.01
508.777	12001
509.145	12089.58
509.514	12140.88
509.882	12178.17
510.25	12298.84
510.618	12400.31
510.986	12456.35
511.354	12549.91
511.722	12734.31
512.09	12807.53
512.458	12802.56
512.826	12908.77
513.193	12933.18
513.561	13025.83
513.929	13116.9
514.297	13288.87
514.664	13275.31
515.032	13340.62
515.4	13608.41
515.767	13579.49
516.135	13703.1
516.502	13611.8
516.869	13901.96
517.237	13910.55
517.604	13871.91
517.972	14161.39
518.339	14175.4
518.706	14240.04
519.073	14389.86
519.44	14450.43
519.808	14673.02
520.175	14697.42
520.542	14869.62
520.909	14971.32
521.276	15037.3
521.643	15183.29
522.009	15303.74
522.376	15389.84
522.743	15576.05
523.11	15658.3
523.477	15826.43
523.843	15892.42
524.21	16105.3
524.577	16225.29
524.943	16320.21
525.31	16409.47
525.676	16607.2
526.043	16792.28
526.409	16851.49
526.776	17075.44
527.142	17112.5
527.508	17243.12
527.874	17470.23
528.241	17589.33
528.607	17724.92
528.973	17811.92
529.339	17999.94
529.705	18149.99
530.071	18274.96
530.437	18332.13
530.803	18527.83
531.169	18669.52
531.535	18686.02
531.901	18848.73
532.267	18917.88
532.632	19140.47
532.998	19085.33
533.364	19288.49
533.73	19385.21
534.095	19474.47
534.461	19531.2
534.826	19719.67
535.192	19743.85
535.557	19933.67
535.923	19902.94
536.288	19997.62
536.653	20204.62
537.019	20258.41
537.384	20245.53
537.749	20429.93
538.114	20493.66
538.479	20511.51
538.845	20559.42
539.21	20658.85
539.575	20660.66
539.94	20886.64
540.305	20967.32
540.67	21083.92
541.034	21112.4
541.399	21248.66
541.764	21229.91
542.129	21319.62
542.494	21506.28
542.858	21494.53
543.223	21510.8
543.587	21652.95
543.952	21624.47
544.316	21669.22
544.681	21871.25
545.045	21939.49
545.41	22017.23
545.774	22002.32
546.138	22085.93
546.503	22240.95
546.867	22231.46
547.231	22374.28
547.595	22492.47
547.959	22552.13
548.324	22574.05
548.688	22770.66
549.052	22735.41
549.416	22798.68
549.779	22960.26
550.143	22887.72
550.507	23175.85
550.871	23119.12
551.235	23173.13
551.599	23373.58
551.962	23495.61
552.326	23550.3
552.689	23567.7
553.053	23402.73
553.417	23622.39
553.78	23820.8
554.143	23989.84
554.507	24012.43
554.87	24122.71
555.234	24288.13
555.597	24342.14
555.96	24300.11
556.323	24538.97
556.686	24571.74
557.05	24785.97
557.413	24820.1
557.776	24872.75
558.139	25045.63
558.502	25196.36
558.865	25129.47
559.228	25553.41
559.59	25538.5
559.953	25540.53
560.316	25947.52
560.679	25926.73
561.041	26068.2
561.404	26253.96
561.767	26441.3
562.129	26372.6
562.492	26730.55
562.854	26819.14
563.217	26809.65
563.579	26995.63
563.941	27227.04
564.304	27413.02
564.666	27645.78
565.028	27637.65
565.39	27600.14
565.753	27985.21
566.115	28093.46
566.477	28086.22
566.839	28319.21
567.201	28632.2
567.563	28676.72
567.925	28845.98
568.287	28843.04
568.648	29102.92
569.01	29364.38
569.372	29434.21
569.734	29439.86
570.095	29814.09
570.457	29972.28
570.819	30125.72
571.18	30096.34
571.542	30560.74
571.903	30449.1
572.265	30724.12
572.626	31060.16
572.987	31019.93
573.349	31222.19
573.71	31442.29
574.071	31661.72
574.432	31682.97
574.794	31977.87
575.155	31981.94
575.516	32039.57
575.877	32124.54
576.238	32259.67
576.599	32568.59
576.96	32595.26
577.32	32726.78
577.681	32870.28
578.042	33017.39
578.403	33169.48
578.763	33229.14
579.124	33361.57
579.485	33689.92
579.845	34023.24
580.206	33954.77
580.566	34074.09
580.927	34064.15
581.287	34316.8
581.648	34336.46
582.008	34685.6
582.368	34841.3
582.728	35037.23
583.089	35142.76
583.449	35287.17
583.809	35332.14
584.169	35742.07
584.529	35818.45
584.889	36183.64
585.249	36332.79
585.609	36306.12
585.969	36793.57
586.329	36810.97
586.688	37217.51
587.048	37382.25
587.408	37625.41
587.768	37801.45
588.127	38293.41
588.487	38625.38
588.846	39124.58
589.206	39084.13
589.565	39447.28
589.925	39961.39
590.284	40125.23
590.643	40555.95
591.003	41030.97
591.362	41495.14
591.721	41727.45
592.08	42129.47
592.44	42594.32
592.799	42854.42
593.158	43259.84
593.517	43693.72
593.876	44078.12
594.235	44456.19
594.593	44712.23
594.952	45107.7
595.311	45470.4
595.67	45953.1
596.029	46494.55
596.387	46850.93
596.746	47287.53
597.104	47358.94
597.463	47613.39
597.822	48229.88
598.18	48328.86
598.538	48732.24
598.897	49355.72
599.255	49260.58
599.613	50078.64
599.972	50081.58
600.33	50438.86
600.688	50721.56
601.046	51033.64
601.404	51555.89
601.762	51664.81
602.12	52027.52
602.478	52294.85
602.836	52508.41
603.194	52497.11
603.552	52984.55
603.91	53129.18
604.268	53416.63
604.625	53475.84
604.983	53928.71
605.341	53952.44
605.698	54339.77
606.056	54606.43
606.413	54629.71
606.771	54975.69
607.128	55149.47
607.485	55238.28
607.843	55439.4
608.2	55727.31
608.557	55903.8
608.914	55947.19
609.272	56253.17
609.629	56470.34
609.986	56678.24
610.343	56646.6
610.7	57041.85
611.057	57101.73
611.414	57140.6
611.771	57358.68
612.127	57476.19
612.484	57696.97
612.841	57778.78
613.198	57760.92
613.554	57844.99
613.911	58149.62
614.267	58286.56
614.624	58253.34
614.98	58422.6
615.337	58634.12
615.693	58603.61
616.05	58767.9
616.406	58922.48
616.762	58926.09
617.118	59038.63
617.475	59102.36
617.831	59207.67
618.187	59327.44
618.543	59390.71
618.899	59576.7
619.255	59597.94
619.611	59598.39
619.967	59797.03
620.323	59847.42
620.678	59830.93
621.034	59848.33
621.39	59909.57
621.746	59912.28
622.101	60270.01
622.457	60015.33
622.812	60236.57
623.168	60286.73
623.523	60349.11
623.879	60420.97
624.234	60291.25
624.589	60460.97
624.945	60472.04
625.3	60568.76
625.655	60555.65
626.01	60557.01
626.365	60611.25
626.72	60612.83
627.075	60565.82
627.43	60633.62
627.785	60649.89
628.14	60679.04
628.495	60787.29
628.85	60767.85
629.205	60723.11
629.559	60815.99
629.914	60756.78
630.269	60799.71
630.623	60633.17
630.978	60604.47
631.332	60832.48
631.687	60793.84
632.041	60749.55
632.396	60761.52
632.75	60689.89
633.104	60754.52
633.459	60589.32
633.813	60673.16
634.167	60608.08
634.521	60724.01
634.875	60660.74
635.229	60610.12
635.583	60515.88
635.937	60538.25
636.291	60555.2
636.645	60555.2
636.999	60482.66
637.352	60537.8
637.706	60405.83
638.06	60536.44
638.413	60446.96
638.767	60385.26
639.121	60440.18
639.474	60299.16
639.828	60353.17
640.181	60248.32
640.534	60318.82
640.888	60266.85
641.241	60150.69
641.594	60229.79
641.947	60209.9
642.301	60114.99
642.654	60191.14
643.007	60120.18
643.36	60219.62
643.713	60151.6
644.066	60213.29
644.419	60025.5
644.771	59829.8
645.124	59587.77
645.477	59578.73
645.83	59461.9
646.182	59447.43
646.535	59293.09
646.888	59427.55
647.24	59375.57
647.593	59512.52
647.945	59395.68
648.298	59243.82
648.65	59196.59
649.002	59090.38
649.355	59008.58
649.707	58967.9
650.059	58985.53
650.411	59283.6
650.763	59432.75
651.115	59739.18
651.467	59651.5
651.819	59692.85
652.171	59573.31
652.523	59508.45
652.875	59563.59
653.227	59464.83
653.578	59673.42
653.93	59556.58
654.282	59419.41
654.633	59484.5
654.985	59491.73
655.337	59487.43
655.688	59438.17
656.039	59528.56
656.391	59259.42
656.742	59322.47
657.094	59367.21
657.445	59372.86
657.796	59405.4
658.147	59299.42
658.498	59385.74
658.849	59405.18
659.2	59317.72
659.551	59200.89
659.902	59430.26
660.253	59256.03
660.604	59345.74
660.955	59188.46
661.306	59400.88
661.656	59239.76
662.007	59215.8
662.358	59301.45
662.708	59322.92
663.059	59277.72
663.409	59196.37
663.76	59261.9
664.11	59234.78
664.461	59286.08
664.811	59247.21
665.161	59283.37
665.511	59172.41
665.862	59195.24
666.212	59258.29
666.562	59229.36
666.912	59193.66
667.262	59149.59
667.612	59206.31
667.962	59205.86
668.312	59171.06
668.662	59304.61
669.011	59191.4
669.361	59219.87
669.711	59172.87
670.06	59202.02
670.41	59111.17
670.76	59184.84
671.109	59209.02
671.459	59169.93
671.808	59143.71
672.157	59251.06
672.507	59066.65
672.856	59093.32
673.205	59069.82
673.554	59159.08
673.904	59083.83
674.253	59300.55
674.602	59115.92
674.951	58772.42
675.3	58698.53
675.649	59090.83
675.998	59082.92
676.346	59101.45
676.695	59095.8
677.044	58969.25
677.393	59030.95
677.741	59069.82
678.09	59025.98
678.438	58924.74
678.787	58976.71
679.135	58963.83
679.484	58779.88
679.832	58913.21
680.181	58833.44
680.529	58834.34
680.877	58769.49
681.225	58750.28
681.573	58919.09
681.922	58738.07
682.27	58694.69
682.618	58693.1
682.966	58566.55
683.314	58649.94
683.661	58569.72
684.009	58499.89
684.357	58384.41
684.705	58399.55
685.053	58408.82
685.4	58202.95
685.748	58188.48
686.095	58233
686.443	58065.32
686.79	58062.39
687.138	58084.98
687.485	58039.34
687.832	57971.99
688.18	57950.3
688.527	57801.38
688.874	57877.31
689.221	57776.74
689.568	57626.69
689.915	57607.93
690.262	57635.5
690.609	57561.16
690.956	57426.7
691.303	57386.02
691.65	57274.61
691.997	57301.73
692.344	57132.24
692.69	57158
693.037	57091.11
693.383	56899.25
693.73	56976.54
694.077	56832.59
694.423	56751.46
694.769	56688.41
695.116	56608.41
695.462	56528.19
695.808	56467.17
696.155	56531.13
696.501	56309.66
696.847	56381.75
697.193	56119.84
697.539	56212.26
697.885	55942.67
698.231	55876
698.577	55920.3
698.923	55806.4
699.269	55604.82
699.614	55652.05
699.96	55490.25
700.306	55484.6
700.651	55435.34
700.997	55362.8
701.342	55310.82
701.688	55213.42
702.033	55011.84
702.379	55070.37
702.724	55034.89
703.069	54981.56
703.415	54676.26
703.76	54611.4
704.105	54677.62
704.45	54621.8
704.795	54504.74
705.14	54303.39
705.485	54358.98
705.83	54150.17
706.175	54254.8
706.52	54152.43
706.865	54063.62
707.209	53991.53
707.554	53963.06
707.899	53881.48
708.243	53785.44
708.588	53659.56
708.932	53510.19
709.277	53573.24
709.621	53476.29
709.966	53279.46
710.31	53341.83
710.654	53067.49
710.998	53136.64
711.342	53190.42
711.687	53012.58
712.031	53049.64
712.375	52916.53
712.719	52801.28
713.063	52724.67
713.407	52806.03
713.75	52638.8
714.094	52706.37
714.438	52478.35
714.782	52471.57
715.125	52275.65
715.469	52404
715.812	52169.43
716.156	52124.91
716.499	52128.98
716.843	52099.15
717.186	51996.56
717.53	52053.96
717.873	52033.84
718.216	51958.14
718.559	51878.82
718.902	51646.51
719.246	51615.1
719.589	51487.19
719.932	51340.53
720.275	51545.04
720.617	51436.8
720.96	51277.93
721.303	51388.21
721.646	51451.03
721.989	51243.36
722.331	51244.71
722.674	51092.4
723.016	51171.27
723.359	51057.82
723.701	51064.6
724.044	50931.27
724.386	50748.23
724.729	50876.81
725.071	50893.99
725.413	50811.95
725.755	50764.27
726.097	50661
726.439	50526.54
726.782	50523.37
727.124	50671.39
727.465	50484.96
727.807	50410.38
728.149	50494.68
728.491	50306.66
728.833	50418.97
729.175	50272.31
729.516	50242.48
729.858	50147.11
730.199	50242.03
730.541	50172.88
730.882	50101.47
731.224	50084.74
731.565	49909.15
731.906	50038.42
732.248	50002.94
732.589	49734.47
732.93	49728.37
733.271	49797.07
733.612	49777.41
733.953	49870.51
734.294	49683.17
734.635	49623.96
734.976	49725.2
735.317	49601.82
735.658	49638.88
735.999	49441.6
736.339	49544.87
736.68	49498.32
737.021	49471.2
737.361	49407.25
737.702	49626.22
738.042	49286.8
738.383	49416.06
738.723	49334.25
739.063	49280.24
739.404	49345.78
739.744	49214.93
740.084	49003.64
740.424	49221.71
740.764	49041.61
741.104	49176.97
741.444	48965.22
741.784	48880.03
742.124	49156.86
742.464	48924.09
742.804	48913.02
743.143	48800.48
743.483	48907.37
743.823	48735.85
744.162	48788.73
744.502	48802.06
744.841	48668.28
745.181	48899.46
745.52	48569.98
745.86	48768.17
746.199	48666.25
746.538	48572.01
746.877	48755.96
747.216	48742.18
747.556	48474.16
747.895	48646.14
748.234	48493.37
748.573	48486.59
748.911	48369.08
749.25	48374.05
749.589	48196.43
749.928	48146.94
750.267	48240.95
750.605	48189.65
750.944	48232.36
751.283	48035.3
751.621	48126.6
751.96	47972.48
752.298	47862.43
752.636	48014.97
752.975	47819.49
753.313	47742.88
753.651	47765.03
753.989	47746.27
754.327	47694.97
754.666	47460.86
755.004	47551.93
755.342	47581.98
755.679	47406.39
756.017	47249.56
756.355	47384.93
756.693	47181.09
757.031	47368.66
757.368	47177.25
757.706	46963.02
758.044	46819.52
758.381	46975.9
758.719	46811.83
759.056	46844.6
759.394	46792.85
759.731	46355.12
760.068	46502.69
760.405	46457.72
760.743	46261.11
761.08	46316.03
761.417	46031.29
761.754	46020.89
762.091	45935.47
762.428	45677.4
762.765	45569.83
763.102	45527.57
763.438	45493.45
763.775	45275.15
764.112	45264.08
764.449	45259.11
764.785	45034.93
765.122	44988.83
765.458	44780.7
765.795	44789.51
766.131	44745.67
766.467	44613.7
766.804	44343.65
767.14	44179.36
767.476	44003.55
767.812	43891.91
768.148	43858.69
768.485	43748.86
768.821	43386.61
769.157	43398.36
769.492	43350.23
769.828	43206.05
770.164	42966.06
770.5	42872.73
770.836	42929.9
771.171	42643.81
771.507	42478.39
771.842	42200.66
772.178	42266.19
772.513	42044.95
772.849	41957.5
773.184	41831.63
773.519	41752.98
773.855	41493.33
774.19	41411.52
774.525	41315.03
774.86	41170.4
775.195	41069.84
775.53	40815.38
775.865	40650.87
776.2	40535.39
776.535	40280.25
776.87	40244.32
777.205	40161.84
777.539	40011.79
777.874	40068.73
778.209	39599.37
778.543	39552.36
778.878	39432.37
779.212	39501.07
779.547	39080.29
779.881	39130.68
780.215	38755.55
780.55	38881.87
780.884	38529.57
781.218	38403.02
781.552	38549.68
781.886	38224.94
782.22	38118.5
782.554	37860.21
782.888	37696.82
783.222	37479.42
783.556	37307.68
783.889	37250.05
784.223	37090.73
784.557	37003.96
784.89	37187.68
785.224	36788.82
785.557	36676.73
785.891	36659.56
786.224	36570.3
786.558	36541.14
786.891	36106.8
787.224	35971.22
787.557	35754.72
787.891	35736.42
788.224	35639.7
788.557	35716.53
788.89	35631.56
789.223	35633.82
789.556	35218.69
789.888	35079.49
790.221	34848.08
790.554	34806.27
790.887	34718.37
791.219	34533.06
791.552	34436.57
791.884	34328.09
792.217	34241.77
792.549	34198.83
792.882	33820.09
793.214	33756.58
793.546	33728.11
793.879	33581
794.211	33379.42
794.543	33561.79
794.875	33338.74
795.207	33305.07
795.539	33249.93
795.871	33102.59
796.203	32988.92
796.535	32771.07
796.867	32701.24
797.198	32510.06
797.53	32504.19
797.862	32226.68
798.193	32271.65
798.525	32103.97
798.856	32078.21
799.188	31793.25
799.519	31626.92
799.85	31584.21
800.182	31636.64
800.513	31683.42
800.844	31165.01
801.175	31451.33
801.506	31335.4
801.837	31154.39
802.168	31141.74
802.499	31152.36
802.83	30856.1
803.161	30685.93
803.491	30878.02
803.822	30729.32
804.153	30443.45
804.483	30294.98
804.814	30266.96
805.145	30202.55
805.475	30253.4
805.805	30065.83
806.136	30139.96
806.466	29989.45
806.796	29949.23
807.126	29774.09
807.457	29652.29
807.787	29688.22
808.117	29548.33
808.447	29551.72
808.777	29584.72
809.107	29292.97
809.436	29281.9
809.766	29260.21
810.096	29221.79
810.426	29048.91
810.755	29028.35
811.085	28939.08
811.414	28965.75
811.744	28766.66
812.073	28725.98
812.403	28583.16
812.732	28497.74
813.061	28522.15
813.39	28299.55
813.719	28313.34
814.049	28427.68
814.378	28324.86
814.707	28164.64
815.036	28050.52
815.365	28093.91
815.693	27835.38
816.022	27869.06
816.351	27803.97
816.68	27623.19
817.008	27646.69
817.337	27466.58
817.665	27497.77
817.994	27498.9
818.322	27391.1
818.651	27289.18
818.979	27338
819.307	27251.9
819.636	27231.56
819.964	27090.32
820.292	27109.75
820.62	27086.93
820.948	27102.97
821.276	27242.18
821.604	27082.64
821.932	27232.69
822.259	27101.84
822.587	27051.45
822.915	26968.51
823.243	27086.48
823.57	26927.39
823.898	26984.33
824.225	27049.19
824.553	26995.18
824.88	26978.46
825.207	27009.42
825.535	26789.76
825.862	27094.16
826.189	26820.04
826.516	27227.26
826.843	27058
827.17	27196.98
827.497	27160.15
827.824	27127.38
828.151	27173.93
828.478	27004.45
828.805	27276.75
829.131	27122.41
829.458	27099.58
829.785	26901.85
830.111	27054.39
830.438	27079.92
830.764	27060.72
831.09	27130.09
831.417	26874.51
831.743	27079.92
832.069	26985.91
832.395	26839.48
832.722	26961.73
833.048	26863.88
833.374	26963.32
833.7	26804.22
834.026	26896.43
834.351	26781.17
834.677	26823.43
835.003	26850.1
835.329	26840.83
835.654	26898.01
835.98	26667.51
836.306	26827.27
836.631	26688.75
836.956	26852.36
837.282	26823.89
837.607	26635.42
837.932	26528.3
838.258	26514.29
838.583	26489.43
838.908	26295.54
839.233	26436.78
839.558	26347.51
839.883	26283.79
840.208	26239.72
840.533	26267.29
840.858	26183.45
841.182	26286.27
841.507	26241.98
841.832	25967.41
842.156	25953.4
842.481	25897.13
842.805	25804.02
843.13	25813.52
843.454	25683.8
843.778	25644.03
844.103	25651.71
844.427	25489.23
844.751	25554.54
845.075	25649
845.399	25526.97
845.723	25401.32
846.047	25446.52
846.371	25100.99
846.695	25187.09
847.019	25015.35
847.343	24895.57
847.666	24902.58
847.99	24727.9
848.313	24602.7
848.637	24652.42
848.96	24473.89
849.284	24401.35
849.607	24281.35
849.931	24161.81
850.254	24124.75
850.577	23870.52
850.9	23687.92
851.223	23844.75
851.546	23621.71
851.869	23524.76
852.192	23649.96
852.515	23433.69
852.838	23382.39
853.161	23325.9
853.483	23163.42
853.806	23093.59
854.129	22980.14
854.451	23030.09
854.774	22879.58
855.096	22805.23
855.419	22609.98
855.741	22554.62
856.063	22493.38
856.385	22313.72
856.708	22373.15
857.03	22308.3
857.352	22305.81
857.674	22139.94
857.996	22131.58
858.318	21984.69
858.64	22036.67
858.961	21954.63
859.283	21864.69
859.605	21725.94
859.926	21788.76
860.248	21719.61
860.57	21643.23
860.891	21551.03
861.212	21441.65
861.534	21556.45
861.855	21299.51
862.176	21342.22
862.498	21346.06
862.819	21309.68
863.14	21322.33
863.461	21187.88
863.782	21091.61
864.103	21163.47
864.424	21078.95
864.745	21143.36
865.065	20874.44
865.386	20866.98
865.707	20928.45
866.027	20928.9
866.348	20873.76
866.668	20789.69
866.989	20728.9
867.309	20612.3
867.63	20684.16
867.95	20619.98
868.27	20503.37
868.59	20599.64
868.91	20450.27
869.23	20524.16
869.55	20437.61
869.87	20437.16
870.19	20346.54
870.51	20324.39
870.83	20368.01
871.15	20285.75
871.469	20176.15
871.789	20241.46
872.109	20208.92
872.428	20078.98
872.748	20199.88
873.067	20229.26
873.386	20103.84
873.706	20052.31
874.025	19953.11
874.344	19803.05
874.663	19986.55
874.982	19909.94
875.301	19805.54
875.62	19829.49
875.939	19666.11
876.258	19791.98
876.577	19799.44
876.896	19659.1
877.214	19625.66
877.533	19634.02
877.852	19620.23
878.17	19597.86
878.489	19613.45
878.807	19420.01
879.125	19500.91
879.444	19481.93
879.762	19384.76
880.08	19485.55
880.398	19367.13
880.716	19364.19
881.034	19318.77
881.352	19303.18
881.67	19185.67
881.988	19176.18
882.306	19099.34
882.624	19074.48
882.941	19048.27
883.259	18919.23
883.577	19011.66
883.894	18881.5
884.212	18897.54
884.529	18807.6
884.846	18754.72
885.164	18631.11
885.481	18582.29
885.798	18673.82
886.115	18545.68
886.432	18550.88
886.75	18597.89
887.067	18496.65
887.383	18510.66
887.7	18480.15
888.017	18266.6
888.334	18324.22
888.651	18211.46
888.967	18229.76
889.284	18135.98
889.6	18175.75
889.917	18060.05
890.233	18022.31
890.55	17902.31
890.866	17948.41
891.182	17976.89
891.498	17872.71
891.815	17634.07
892.131	17611.47
892.447	17615.99
892.763	17545.71
893.079	17548.87
893.395	17481.76
893.71	17439.5
894.026	17376
894.342	17320.18
894.657	17157.25
894.973	17195.44
895.289	17138.72
895.604	17114.31
895.92	17006.74
896.235	16984.6
896.55	17006.52
896.865	16961.09
897.181	16833.19
897.496	16756.13
897.811	16723.59
898.126	16668.67
898.441	16584.15
898.756	16520.43
899.071	16523.59
899.386	16556.36
899.7	16447.21
900.015	16256.48
900.33	16110.27
900.644	16147.78
900.959	16126.77
901.273	16010.61
901.588	16034.11
901.902	15964.51
902.216	15904.85
902.531	15880.22
902.845	15785.98
903.159	15588.25
903.473	15596.61
903.787	15594.58
904.101	15444.07
904.415	15507.8
904.729	15418.54
905.042	15324.75
905.356	15391.42
905.67	15334.02
905.984	15259.22
906.297	15154.59
906.611	15111.42
906.924	15043.18
907.237	14963.63
907.551	14927.25
907.864	14905.78
908.177	14851.32
908.491	14852.67
908.804	14609.29
909.117	14659.46
909.43	14514.6
909.743	14496.75
910.056	14501.95
910.368	14483.42
910.681	14354.61
910.994	14385.57
911.307	14357.32
911.619	14143.54
911.932	14192.13
912.244	13992.58
912.557	13970.21
912.869	13894.73
913.181	13900.16
913.494	13829.42
913.806	13793.04
914.118	13684.8
914.43	13657.68
914.742	13612.26
915.054	13570
915.366	13468.53
915.678	13486.16
915.99	13412.71
916.302	13262.43
916.613	13189.67
916.925	13238.71
917.236	13259.27
917.548	13127.52
917.859	13122.1
918.171	13087.98
918.482	12939.28
918.794	12842.56
919.105	12848.89
919.416	12790.36
919.727	12805.04
920.038	12704.48
920.349	12632.17
920.66	12529.8
920.971	12501.1
921.282	12469.69
921.593	12432.17
921.903	12304.27
922.214	12250.26
922.525	12176.36
922.835	12212.07
923.146	12163.71
923.456	12037.16
923.767	12021.79
924.077	12005.52
924.387	11915.35
924.697	11932.75
925.008	11859.98
925.318	11788.35
925.628	11782.92
925.938	11750.16
926.248	11628.8
926.558	11520.56
926.867	11558.3
927.177	11439.66
927.487	11355.14
927.796	11417.96
928.106	11412.31
928.416	11275.59
928.725	11192.21
929.034	11157.4
929.344	11193.79
929.653	11076.73
929.962	11027.69
930.271	10996.73
930.581	10991.31
930.89	10934.36
931.199	10835.15
931.508	10768.49
931.817	10740.01
932.125	10740.92
932.434	10662.5
932.743	10629.73
933.051	10570.08
933.36	10519.68
933.669	10412.57
933.977	10389.97
934.286	10348.16
934.594	10392.68
934.902	10282.85
935.21	10236.52
935.519	10133.25
935.827	10184.1
936.135	10167.37
936.443	10019.81
936.751	9987.94
937.059	9994.27
937.367	9912.47
937.674	9920.83
937.982	9912.24
938.29	9807.61
938.597	9814.84
938.905	9680.83
939.213	9657.78
939.52	9667.05
939.827	9658.46
940.135	9596.54
940.442	9529.88
940.749	9492.36
941.056	9447.17
941.363	9426.15
941.67	9428.41
941.977	9383.21
942.284	9332.59
942.591	9239.71
942.898	9197.46
943.205	9177.57
943.511	9091.24
943.818	9145.93
944.125	8988.42
944.431	8979.38
944.738	8972.15
945.044	8928.54
945.35	8886.73
945.657	8845.37
945.963	8791.36
946.269	8801.08
946.575	8718.6
946.881	8677.92
947.187	8660.75
947.493	8569.45
947.799	8593.86
948.105	8525.61
948.41	8446.52
948.716	8482.22
949.022	8436.8
949.327	8415.78
949.633	8330.13
949.938	8306.63
950.244	8352.51
950.549	8231.15
950.854	8195.22
951.16	8171.72
951.465	8081.33
951.77	7982.8
952.075	8017.83
952.38	8011.72
952.685	8059.18
952.99	7909.58
953.294	7907.32
953.599	7837.94
953.904	7849.92
954.209	7733.99
954.513	7717.72
954.818	7777.83
955.122	7668.46
955.426	7647.67
955.731	7623.49
956.035	7601.57
956.339	7549.82
956.643	7555.01
956.948	7437.5
957.252	7394.57
957.556	7369.48
957.86	7341.23
958.163	7422.36
958.467	7330.39
958.771	7291.74
959.075	7249.94
959.378	7103.05
959.682	7250.16
959.985	7211.97
960.289	7151.63
960.592	7065.99
960.896	7087
961.199	7022.6
961.502	7044.07
961.805	6966.1
962.108	6891.98
962.411	6912.09
962.714	6826.9
963.017	6856.95
963.32	6843.85
963.623	6805.65
963.926	6762.94
964.228	6690.18
964.531	6704.41
964.833	6708.71
965.136	6568.15
965.438	6589.39
965.741	6508.04
966.043	6509.17
966.345	6487.02
966.648	6495.15
966.95	6503.97
967.252	6442.95
967.554	6445.21
967.856	6436.17
968.158	6311.43
968.46	6301.94
968.761	6253.35
969.063	6225.33
969.365	6208.16
969.666	6165.45
969.968	6126.35
970.269	6087.48
970.571	6090.64
970.872	6092.9
971.174	6020.14
971.475	6046.35
971.776	5980.82
972.077	5951.67
972.378	5940.14
972.679	5918.22
972.98	5854.04
973.281	5890.2
973.582	5846.36
973.883	5817.43
974.183	5841.39
974.484	5809.52
974.785	5697.43
975.085	5731.33
975.386	5705.8
975.686	5627.15
975.986	5591.45
976.287	5615.86
976.587	5542.86
976.887	5574.5
977.187	5575.63
977.487	5510.32
977.787	5466.48
978.087	5497.67
978.387	5426.26
978.687	5418.35
978.987	5363.43
979.286	5414.28
979.586	5378.35
979.885	5278.69
980.185	5262.19
980.484	5237.79
980.784	5212.93
981.083	5205.47
981.382	5181.06
981.682	5156.21
981.981	5115.08
982.28	5083.44
982.579	5043.67
982.878	5071.01
983.177	5011.13
983.475	5040.05
983.774	4951.24
984.073	4976.1
984.372	4964.8
984.67	4907.63
984.969	4927.29
985.267	4890.45
985.566	4893.84
985.864	4855.2
986.162	4826.27
986.461	4796.44
986.759	4797.35
987.057	4736.56
987.355	4714.18
987.653	4681.64
987.951	4670.8
988.249	4683.9
988.547	4644.81
988.844	4621.76
989.142	4579.72
989.44	4532.04
989.737	4532.72
990.035	4500.18
990.332	4494.75
990.63	4521.65
990.927	4453.85
991.224	4447.98
991.521	4453.63
991.819	4358.94
992.116	4335.89
992.413	4353.06
992.71	4335.21
993.006	4375.21
993.303	4273.74
993.6	4243.69
993.897	4236.23
994.193	4222.22
994.49	4213.41
994.787	4143.58
995.083	4152.84
995.379	4137.48
995.676	4114.43
995.972	4072.39
996.268	4089.79
996.565	4023.81
996.861	4013.19
997.157	4010.47
997.453	3946.75
997.749	3987.42
998.044	3911.95
998.34	3927.99
998.636	3876.92
998.932	3912.85
999.227	3841.44
999.523	3862.91
999.818	3801.67
1000.114	3783.59
1000.409	3756.47
1000.704	3755.34
1001	3729.58
1001.295	3739.52
1001.59	3707.2
1001.885	3659.97
1002.18	3680.09
1002.475	3607.55
1002.77	3621.78
1003.065	3559.41
1003.359	3528.9
1003.654	3514.67
1003.949	3529.58
1004.243	3523.48
1004.538	3433.09
1004.832	3491.17
1005.127	3403.03
1005.421	3436.25
1005.715	3388.12
1006.009	3388.8
1006.304	3357.16
1006.598	3339.53
1006.892	3321.23
1007.186	3269.7
1007.48	3277.39
1007.773	3294.11
1008.067	3235.35
1008.361	3238.74
1008.655	3188.8
1008.948	3139.08
1009.242	3229.48
1009.535	3131.17
1009.829	3136.15
1010.122	3165.98
1010.415	3132.08
1010.708	3057.5
1011.001	3031.06
1011.295	3032.65
1011.588	3028.8
1011.881	2999.65
1012.173	2965.3
1012.466	2987.68
1012.759	2964.85
1013.052	2955.59
1013.344	2942.93
1013.637	2870.62
1013.93	2891.41
1014.222	2855.48
1014.514	2825.65
1014.807	2857.06
1015.099	2820.22
1015.391	2808.02
1015.683	2718.3
1015.976	2725.99
1016.268	2727.34
1016.56	2730.06
1016.851	2680.57
1017.143	2690.06
1017.435	2678.08
1017.727	2624.97
1018.018	2621.13
1018.31	2602.15
1018.602	2621.36
1018.893	2587.91
1019.185	2564.41
1019.476	2517.18
1019.767	2528.25
1020.058	2524.86
1020.35	2479.44
1020.641	2414.13
1020.932	2461.14
1021.223	2445.09
1021.514	2411.19
1021.804	2374.58
1022.095	2362.38
1022.386	2368.93
1022.677	2356.73
1022.967	2337.52
1023.258	2320.12
1023.548	2276.28
1023.839	2295.94
1024.129	2281.93
1024.419	2230.18
1024.709	2181.6
1025	2216.85
1025.29	2183.63
1025.58	2180.92
1025.87	2155.61
1026.16	2157.64
1026.449	2135.27
1026.739	2103.63
1027.029	2093.24
1027.319	2075.38
1027.608	2052.79
1027.898	2073.35
1028.187	2051.66
1028.477	2011.66
1028.766	1996.06
1029.055	1977.98
1029.344	1973.69
1029.634	1948.38
1029.923	1949.74
1030.212	1935.73
1030.501	1936.86
1030.79	1894.6
1031.078	1895.05
1031.367	1882.39
1031.656	1862.96
1031.945	1846.01
1032.233	1854.15
1032.522	1791.32
1032.81	1827.71
1033.099	1779.8
1033.387	1770.08
1033.675	1773.7
1033.963	1771.44
1034.251	1754.49
1034.54	1739.8
1034.828	1704.77
1035.116	1686.69
1035.403	1708.39
1035.691	1663.64
1035.979	1680.14
1036.267	1661.16
1036.554	1643.3
1036.842	1648.95
1037.129	1620.71
1037.417	1576.41
1037.704	1585.23
1037.992	1598.11
1038.279	1561.72
1038.566	1554.04
1038.853	1554.04
1039.14	1554.04
