Data from 1797_FLMS001491_009.txt Node
Date: Thu Apr 19 16:34:08 BST 2018
User: hsy
Spectrometer: FLMS00149
Trigger mode: 0
Integration Time (sec): 1.000000E-2
Scans to average: 10
Electric dark correction enabled: true
Nonlinearity correction enabled: false
Boxcar width: 0
XAxis mode: Wavelengths
Number of Pixels in Spectrum: 2048
>>>>>Begin Spectral Data<<<<<
341.393	8.26
341.776	8.26
342.16	8.26
342.543	-61.34
342.927	-45.3
343.31	-90.04
343.693	-68.8
344.077	-78.74
344.46	-64.73
344.843	-51.4
345.226	-45.75
345.61	-39.87
345.993	-13.66
346.376	5.78
346.759	19.79
347.142	16.17
347.525	53.91
347.908	65.66
348.291	87.58
348.674	97.98
349.057	106.11
349.44	133.46
349.823	126.23
350.206	169.84
350.588	251.19
350.971	248.93
351.354	279.67
351.737	305.43
352.119	302.04
352.502	318.99
352.884	334.81
353.267	320.12
353.65	343.39
354.032	356.95
354.414	355.37
354.797	372.32
355.179	382.26
355.562	397.63
355.944	384.75
356.326	397.86
356.709	369.16
357.091	412.32
357.473	399.66
357.855	406.44
358.238	421.36
358.62	412.09
359.002	408.7
359.384	388.37
359.766	404.41
360.148	406.67
360.53	402.38
360.912	400.34
361.294	398.53
361.676	400.79
362.057	392.21
362.439	408.93
362.821	379.1
363.203	409.83
363.584	402.15
363.966	379.78
364.348	387.91
364.729	400.57
365.111	398.53
365.493	374.58
365.874	385.88
366.256	407.8
366.637	394.47
367.019	410.51
367.4	395.82
367.781	388.59
368.163	389.95
368.544	393.34
368.925	377.29
369.306	402.15
369.688	389.04
370.069	392.89
370.45	401.7
370.831	389.95
371.212	401.25
371.593	393.11
371.974	398.99
372.355	400.57
372.736	390.63
373.117	430.85
373.498	413.22
373.879	406.44
374.26	422.71
374.641	397.86
375.021	403.51
375.402	417.29
375.783	412.77
376.163	425.65
376.544	429.95
376.925	415.94
377.305	445.09
377.686	421.13
378.066	431.75
378.447	409.61
378.827	441.92
379.208	431.53
379.588	441.25
379.968	444.64
380.349	451.41
380.729	449.38
381.109	455.71
381.489	448.48
381.87	457.74
382.25	466.78
382.63	462.26
383.01	466.78
383.39	473.79
383.77	472.21
384.15	474.92
384.53	485.31
384.91	474.92
385.29	465.43
385.67	472.21
386.049	481.02
386.429	515.59
386.809	483.28
387.189	499.77
387.568	478.76
387.948	493
388.328	508.81
388.707	501.58
389.087	523.73
389.466	522.15
389.846	518.08
390.225	535.71
390.605	543.84
390.984	542.03
391.363	538.19
391.743	548.36
392.122	525.54
392.501	577.06
392.881	563.28
393.26	564.86
393.639	566.67
394.018	565.76
394.397	557.4
394.776	592.88
395.155	584.07
395.534	585.87
395.913	599.89
396.292	594.01
396.671	583.39
397.05	586.33
397.429	582.94
397.808	598.98
398.186	602.6
398.565	609.38
398.944	592.43
399.323	618.19
399.701	608.02
400.08	641.69
400.458	598.53
400.837	623.16
401.215	635.82
401.594	643.95
401.972	637.62
402.351	646.44
402.729	652.77
403.107	669.71
403.486	665.42
403.864	662.48
404.242	654.12
404.62	690.05
404.999	664.52
405.377	691.41
405.755	697.06
406.133	714.23
406.511	701.8
406.889	709.26
407.267	752.65
407.645	726.44
408.023	729.83
408.401	771.86
408.779	746.32
409.156	763.04
409.534	768.24
409.912	797.39
410.29	796.26
410.667	798.3
411.045	814.12
411.422	814.79
411.8	835.59
412.178	843.49
412.555	850.27
412.933	817.28
413.31	862.93
413.687	855.7
414.065	864.29
414.442	903.83
414.819	883.49
415.197	873.55
415.574	907.45
415.951	922.14
416.328	943.38
416.705	926.66
417.082	916.49
417.46	952.87
417.837	925.07
418.214	959.88
418.591	967.33
418.967	965.53
419.344	999.2
419.721	986.54
420.098	989.93
420.475	993.32
420.852	1029.7
421.228	1008.91
421.605	1018.63
421.982	1028.57
422.358	1048.01
422.735	1051.4
423.111	1057.73
423.488	1076.71
423.864	1071.96
424.241	1086.65
424.617	1074.45
424.994	1106.09
425.37	1115.13
425.746	1116.71
426.123	1146.31
426.499	1122.13
426.875	1148.8
427.251	1153.09
427.627	1178.63
428.003	1204.62
428.379	1200.77
428.756	1235.12
429.132	1241.22
429.507	1243.71
429.883	1260.88
430.259	1289.58
430.635	1297.72
431.011	1283.26
431.387	1319.87
431.763	1347.44
432.138	1343.37
432.514	1366.64
432.89	1378.4
433.265	1370.49
433.641	1417.72
434.016	1432.86
434.392	1475.57
434.767	1490.71
435.143	1492.74
435.518	1463.37
435.894	1521.22
436.269	1520.99
436.644	1559.41
437.02	1537.94
437.395	1598.96
437.77	1560.54
438.145	1612.51
438.52	1620.65
438.895	1648.9
439.271	1642.12
439.646	1637.82
440.021	1657.71
440.395	1655.9
440.77	1666.52
441.145	1666.98
441.52	1752.17
441.895	1733.64
442.27	1740.65
442.645	1720.31
443.019	1752.4
443.394	1772.28
443.769	1780.19
444.143	1792.62
444.518	1795.79
444.892	1804.83
445.267	1813.19
445.641	1847.31
446.016	1845.05
446.39	1849.8
446.764	1809.12
447.139	1875.78
447.513	1863.13
447.887	1889.12
448.262	1873.52
448.636	1920.08
449.01	1960.75
449.384	1959.4
449.758	1987.65
450.132	1989.68
450.506	1976.8
450.88	2007.76
451.254	2016.8
451.628	2026.97
452.002	2063.35
452.376	2095.67
452.75	2118.26
453.123	2127.98
453.497	2162.78
453.871	2140.41
454.244	2186.96
454.618	2225.83
454.992	2246.85
455.365	2279.16
455.739	2327.75
456.112	2318.94
456.486	2372.72
456.859	2378.6
457.232	2439.39
457.606	2465.82
457.979	2496.78
458.352	2501.98
458.725	2543.79
459.099	2557.8
459.472	2617.23
459.845	2667.4
460.218	2663.79
460.591	2678.02
460.964	2680.06
461.337	2717.12
461.71	2805.03
462.083	2818.36
462.456	2836.21
462.829	2806.83
463.201	2894.51
463.574	2904.23
463.947	2939.71
464.32	2993.04
464.692	3015.87
465.065	3071.68
465.438	3072.59
465.81	3086.83
466.183	3111.91
466.555	3219.03
466.928	3223.09
467.3	3212.92
467.672	3257.22
468.045	3358.68
468.417	3365.46
468.789	3363.2
469.161	3434.39
469.534	3446.59
469.906	3567.26
470.278	3581.28
470.65	3620.37
471.022	3678.9
471.394	3727.49
471.766	3794.83
472.138	3812.68
472.51	3880.93
472.882	3890.42
473.253	3997.54
473.625	3981.27
473.997	4115.95
474.369	4185.1
474.74	4200.02
475.112	4258.55
475.484	4318.66
475.855	4428.03
476.227	4409.28
476.598	4519.78
476.97	4564.07
477.341	4648.14
477.713	4768.82
478.084	4774.24
478.455	4958.41
478.827	4938.3
479.198	5084.51
479.569	5104.17
479.94	5269.37
480.311	5322.25
480.682	5474.33
481.053	5556.14
481.424	5649.92
481.795	5753.87
482.166	5779.64
482.537	5885.4
482.908	6008.78
483.279	6066.86
483.65	6226.4
484.021	6309.11
484.391	6386.4
484.762	6501.88
485.133	6561.54
485.503	6623.23
485.874	6762.21
486.244	6881.53
486.615	7048.08
486.985	7095.76
487.356	7208.07
487.726	7325.58
488.097	7464.34
488.467	7559.93
488.837	7744.78
489.207	7882.41
489.578	7998.33
489.948	8118.33
490.318	8185.22
490.688	8230.19
491.058	8368.95
491.428	8513.35
491.798	8615.49
492.168	8824.3
492.538	8905.88
492.908	8978.42
493.278	9113.56
493.648	9099.77
494.017	9376.83
494.387	9383.16
494.757	9579.76
495.126	9552.19
495.496	9668.57
495.866	9809.81
496.235	9872.86
496.605	10016.59
496.974	10039.64
497.344	10180.42
497.713	10228.33
498.082	10347.88
498.452	10429.91
498.821	10573.63
499.19	10570.24
499.559	10643.69
499.928	10772.73
500.298	10840.52
500.667	10926.85
501.036	10967.3
501.405	11043.23
501.774	11158.48
502.143	11189.44
502.512	11256.33
502.88	11299.94
503.249	11380.39
503.618	11520.28
503.987	11585.59
504.356	11598.92
504.724	11666.94
505.093	11795.07
505.462	11799.14
505.83	11926.59
506.199	12035.29
506.567	12092.69
506.936	12111.67
507.304	12301.95
507.672	12403.64
508.041	12410.65
508.409	12495.39
508.777	12638.44
509.145	12717.53
509.514	12744.2
509.882	12801.15
510.25	12785.78
510.618	12953.91
510.986	12958.66
511.354	13131.53
511.722	13252.43
512.09	13369.04
512.458	13302.83
512.826	13491.75
513.193	13516.16
513.561	13591.41
513.929	13688.35
514.297	13836.6
514.664	13960.89
515.032	13915.69
515.4	14160.88
515.767	14116.14
516.135	14253.31
516.502	14226.42
516.869	14450.37
517.237	14550.03
517.604	14460.76
517.972	14716.35
518.339	14763.35
518.706	14943.24
519.073	14975.55
519.44	15004.7
519.808	15217.35
520.175	15179.61
520.542	15448.53
520.909	15540.06
521.276	15595.65
521.643	15825.25
522.009	15926.71
522.376	16080.38
522.743	16087.39
523.11	16255.74
523.477	16373.93
523.843	16554.27
524.21	16748.39
524.577	16881.27
524.943	16999.91
525.31	17150.86
525.676	17329.39
526.043	17352.89
526.409	17543.39
526.776	17845.08
527.142	17665.2
527.508	17892.76
527.874	18175.92
528.241	18288.91
528.607	18335.24
528.973	18536.36
529.339	18596.25
529.705	18754.44
530.071	18899.97
530.437	19004.83
530.803	19086.4
531.169	19250.92
531.535	19381.76
531.901	19404.59
532.267	19542.89
532.632	19741.08
532.998	19901.3
533.364	19951.24
533.73	20010.9
534.095	20233.95
534.461	20253.61
534.826	20402.08
535.192	20472.13
535.557	20584.22
535.923	20602.3
536.288	20692.24
536.653	20877.54
537.019	20954.6
537.384	20976.07
537.749	21049.97
538.114	21123.64
538.479	21252.22
538.845	21300.36
539.21	21279.57
539.575	21428.04
539.94	21535.61
540.305	21723.62
540.67	21655.83
541.034	21901.25
541.399	21948.93
541.764	21908.03
542.129	22093.78
542.494	22144.4
542.858	22200.22
543.223	22239.32
543.587	22379.2
543.952	22355.92
544.316	22439.54
544.681	22481.12
545.045	22674.79
545.41	22745.52
545.774	22749.36
546.138	22866.19
546.503	22923.59
546.867	22928.11
547.231	23037.04
547.595	23060.09
547.959	23214.43
548.324	23368.1
548.688	23362.9
549.052	23463.24
549.416	23476.12
549.779	23546.85
550.143	23606.96
550.507	23784.81
550.871	23833.62
551.235	23832.95
551.599	24179.38
551.962	24114.75
552.326	24253.73
552.689	24362.88
553.053	24224.12
553.417	24306.15
553.78	24553.15
554.143	24726.26
554.507	24745.47
554.87	24778.23
555.234	25063.65
555.597	24876.08
555.96	25028.17
556.323	25133.48
556.686	25277.88
557.05	25443.07
557.413	25606.46
557.776	25700.47
558.139	25792.67
558.502	25862.72
558.865	25871.54
559.228	26172.32
559.59	26124.41
559.953	26219.78
560.316	26550.16
560.679	26552.42
561.041	26715.58
561.404	26903.6
561.767	27123.26
562.129	26996.25
562.492	27293.65
562.854	27449.57
563.217	27467.88
563.579	27669.23
563.941	27800.3
564.304	27895.44
564.666	28199.84
565.028	28154.19
565.39	28445.03
565.753	28649.54
566.115	28676.89
566.477	29023.32
566.839	28916.43
567.201	29256.98
567.563	29347.38
567.925	29537.88
568.287	29563.87
568.648	29712.57
569.01	29887.93
569.372	30358.88
569.734	30323.62
570.095	30536.5
570.457	30678.87
570.819	30905.76
571.18	30870.28
571.542	31157.5
571.903	31219.87
572.265	31408.34
572.626	31599.97
572.987	31764.94
573.349	31934.88
573.71	31989.57
574.071	32091.94
574.432	32345.94
574.794	32710.68
575.155	32660.51
575.516	32735.31
575.877	32851.92
576.238	33019.6
576.599	33202.19
576.96	33234.51
577.32	33452.13
577.681	33599.92
578.042	33933.47
578.403	33953.81
578.763	33942.96
579.124	34189.51
579.485	34293.24
579.845	34694.13
580.206	34474.7
580.566	34777.29
580.927	34781.36
581.287	35160.11
581.648	35058.41
582.008	35463.15
582.368	35553.54
582.728	35811.61
583.089	35720.54
583.449	36012.74
583.809	36206.18
584.169	36500.86
584.529	36459.96
584.889	36937.46
585.249	36919.16
585.609	37108.08
585.969	37532.25
586.329	37723.2
586.688	38094.72
587.048	38245.45
587.408	38496.52
587.768	38721.14
588.127	39087.23
588.487	39249.49
588.846	40026.87
589.206	39942.58
589.565	40292.63
589.925	41018.71
590.284	41131.7
590.643	41477.91
591.003	41905.92
591.362	42362.63
591.721	42772.56
592.08	43086
592.44	43572.77
592.799	43888.46
593.158	44365.97
593.517	44662.23
593.876	45041.88
594.235	45340.18
594.593	45724.8
594.952	46233.26
595.311	46451.11
595.67	47068.04
596.029	47480.46
596.387	47883.84
596.746	48198.41
597.104	48404.28
597.463	48697.38
597.822	49335.33
598.18	49449.9
598.538	49818.03
598.897	50372.81
599.255	50396.54
599.613	51083.53
599.972	51161.49
600.33	51433.35
600.688	51714.7
601.046	52046.44
601.404	52390.16
601.762	52696.37
602.12	53013.87
602.478	53204.83
602.836	53419.51
603.194	53483.69
603.552	53849.78
603.91	54012.72
604.268	54300.85
604.625	54411.13
604.983	54776.77
605.341	54779.03
605.698	55233.93
606.056	55492.45
606.413	55465.34
606.771	55860.81
607.128	56001.37
607.485	56138.99
607.843	56249.27
608.2	56508.7
608.557	56743.49
608.914	56748.69
609.272	57022.13
609.629	57213.76
609.986	57366.3
610.343	57477.03
610.7	57766.07
611.057	57791.15
611.414	57889.45
611.771	58147.75
612.127	58259.16
612.484	58435.43
612.841	58529.21
613.198	58570.56
613.554	58620.51
613.911	58876.77
614.267	59043.09
614.624	59091.68
614.98	59165.35
615.337	59356.76
615.693	59457.55
616.05	59517.21
616.406	59726.92
616.762	59686.92
617.118	59801.72
617.475	59834.49
617.831	60014.37
618.187	60075.38
618.543	60189.96
618.899	60334.59
619.255	60371.42
619.611	60373.23
619.967	60568.93
620.323	60657.29
620.678	60557.4
621.034	60605.77
621.39	60692.32
621.746	60768.47
622.101	61074.68
622.457	60826.55
622.812	61013.21
623.168	61044.17
623.523	61045.75
623.879	61122.59
624.234	61103.38
624.589	61192.19
624.945	61232.42
625.3	61282.81
625.655	61362.58
626.01	61388.34
626.365	61419.98
626.72	61377.04
627.075	61346.99
627.43	61441.68
627.785	61413.2
628.14	61437.61
628.495	61445.29
628.85	61547.89
629.205	61528.9
629.559	61543.14
629.914	61522.13
630.269	61494.33
630.623	61399.64
630.978	61391.06
631.332	61558.06
631.687	61574.78
632.041	61501.56
632.396	61506.98
632.75	61496.59
633.104	61576.59
633.459	61453.2
633.813	61442.81
634.167	61410.49
634.521	61391.73
634.875	61446.65
635.229	61365.07
635.583	61303.15
635.937	61275.8
636.291	61279.19
636.645	61304.5
636.999	61185.64
637.352	61311.06
637.706	61151.29
638.06	61301.57
638.413	61160.55
638.767	61110.61
639.121	61190.61
639.474	61120.33
639.828	61076.04
640.181	61062.25
640.534	61128.69
640.888	60950.61
641.241	60900.45
641.594	60923.5
641.947	61010.5
642.301	60847.57
642.654	60891.63
643.007	60869.94
643.36	60889.15
643.713	60904.06
644.066	60961.46
644.419	60748.13
644.771	60550.4
645.124	60296.85
645.477	60283.51
645.83	60180.69
646.182	60137.98
646.535	60145.66
646.888	60199.22
647.24	60021.83
647.593	60249.39
647.945	60154.25
648.298	60084.87
648.65	59900.92
649.002	59805.33
649.355	59813.92
649.707	59706.13
650.059	59692.34
650.411	60031.54
650.763	60180.01
651.115	60500.91
651.467	60407.58
651.819	60406.67
652.171	60354.47
652.523	60263.85
652.875	60298.65
653.227	60259.56
653.578	60379.33
653.93	60293.23
654.282	60211.2
654.633	60122.61
654.985	60247.36
655.337	60248.49
655.688	60171.2
656.039	60318.09
656.391	60011.88
656.742	60073.8
657.094	60041.49
657.445	60102.28
657.796	60120.81
658.147	60038.32
658.498	60100.69
658.849	60142.05
659.2	60037.64
659.551	59966.46
659.902	60101.37
660.253	59954.48
660.604	60119
660.955	59949.96
661.306	60081.26
661.656	59991.09
662.007	60004.65
662.358	60082.39
662.708	60058.21
663.059	60034.71
663.409	59848.05
663.76	60023.86
664.11	60016.18
664.461	60041.94
664.811	60010.98
665.161	60069.73
665.511	60000.58
665.862	60035.38
666.212	60017.08
666.562	60060.69
666.912	60035.61
667.262	59934.6
667.612	59929.62
667.962	60006.91
668.312	59981.83
668.662	60096.85
669.011	60028.38
669.361	60029.06
669.711	60082.84
670.06	59918.1
670.41	59848.05
670.76	59907.7
671.109	60075.84
671.459	59937.76
671.808	59875.84
672.157	59974.37
672.507	59806.92
672.856	59844.43
673.205	59824.99
673.554	59947.25
673.904	59796.07
674.253	60023.18
674.602	59829.97
674.951	59562.85
675.3	59340.26
675.649	59868.84
675.998	59747.71
676.346	59817.54
676.695	59839.46
677.044	59698.9
677.393	59789.06
677.741	59817.54
678.09	59708.84
678.438	59665.45
678.787	59714.94
679.135	59679.46
679.484	59534.83
679.832	59613.02
680.181	59572.8
680.529	59616.64
680.877	59448.06
681.225	59489.64
681.573	59648.05
681.922	59486.92
682.27	59407.38
682.618	59391.33
682.966	59357.89
683.314	59383.2
683.661	59314.05
684.009	59231.34
684.357	59127.84
684.705	59123.77
685.053	59170.32
685.4	59108.63
685.748	58955.64
686.095	58987.5
686.443	58844
686.79	58807.39
687.138	58847.62
687.485	58791.8
687.832	58665.03
688.18	58652.37
688.527	58578.25
688.874	58529.89
689.221	58501.64
689.568	58438.14
689.915	58284.92
690.262	58406.5
690.609	58300.97
690.956	58174.87
691.303	58158.37
691.65	58063.01
691.997	57990.69
692.344	57927.87
692.69	57802.22
693.037	57858.04
693.383	57587.54
693.73	57693.53
694.077	57454.44
694.423	57579.86
694.769	57411.95
695.116	57376.7
695.462	57229.58
695.808	57169.02
696.155	57237.49
696.501	56960.21
696.847	57068.46
697.193	56889.7
697.539	56952.08
697.885	56779.2
698.231	56745.75
698.577	56701.46
698.923	56632.54
699.269	56461.02
699.614	56399.1
699.96	56318.42
700.306	56329.72
700.651	56171.76
700.997	56084.3
701.342	56018.99
701.688	55994.81
702.033	55882.73
702.379	55925.66
702.724	55747.14
703.069	55779.68
703.415	55508.72
703.76	55534.26
704.105	55499.46
704.45	55381.27
704.795	55347.37
705.14	55210.2
705.485	55164.1
705.83	55035.06
706.175	55137.21
706.52	54954.16
706.865	54906.93
707.209	54931.79
707.554	54813.83
707.899	54832.13
708.243	54589.2
708.588	54619.03
708.932	54473.72
709.277	54478.24
709.621	54332.94
709.966	54132.04
710.31	54230.34
710.654	54048.65
710.998	54045.71
711.342	54071.25
711.687	53898.14
712.031	53881.42
712.375	53743.35
712.719	53726.85
713.063	53657.93
713.407	53811.82
713.75	53562.11
714.094	53508.32
714.438	53333.41
714.782	53346.07
715.125	53300.42
715.469	53358.72
715.812	53085.06
716.156	53117.6
716.499	53118.5
716.843	53109.69
717.186	52839.19
717.53	53111.72
717.873	53045.51
718.216	52842.81
718.559	52779.08
718.902	52581.57
719.246	52570.72
719.589	52539.31
719.932	52453.44
720.275	52473.55
720.617	52445.75
720.96	52339.99
721.303	52443.04
721.646	52372.76
721.989	52119.89
722.331	52209.15
722.674	52062.71
723.016	52095.25
723.359	51933.22
723.701	51985.65
724.044	51883.51
724.386	51737.07
724.729	51855.71
725.071	51830.85
725.413	51801.02
725.755	51727.81
726.097	51551.99
726.439	51488.04
726.782	51383.41
727.124	51573.91
727.465	51495.72
727.807	51330.53
728.149	51372.11
728.491	51238.78
728.833	51325.33
729.175	51226.8
729.516	51182.28
729.858	51149.97
730.199	51258.21
730.541	51140.93
730.882	51063.64
731.224	51054.15
731.565	50886.92
731.906	50936.87
732.248	50980.03
732.589	50783.42
732.93	50711.56
733.271	50744.78
733.612	50771.9
733.953	50744.56
734.294	50588.4
734.635	50607.16
734.976	50670.21
735.317	50551.34
735.658	50480.16
735.999	50396.54
736.339	50343.66
736.68	50401.06
737.021	50357
737.361	50247.17
737.702	50326.04
738.042	50232.93
738.383	50245.81
738.723	50302.99
739.063	50113.39
739.404	50207.62
739.744	50169.43
740.084	50045.14
740.424	50158.81
740.764	50055.31
741.104	50223.44
741.444	49941.64
741.784	49918.59
742.124	50013.28
742.464	49789.1
742.804	49890.57
743.143	49773.96
743.483	49815.31
743.823	49631.36
744.162	49637.47
744.502	49822.55
744.841	49565.38
745.181	49827.74
745.52	49585.72
745.86	49681.31
746.199	49663.68
746.538	49584.81
746.877	49682.44
747.216	49534.64
747.556	49481.09
747.895	49439.05
748.234	49549.11
748.573	49480.41
748.911	49303.69
749.25	49330.36
749.589	49299.85
749.928	49244.48
750.267	49364.48
750.605	49284.25
750.944	49109.57
751.283	49035.22
751.621	49233.86
751.96	48959.07
752.298	48855.11
752.636	48898.95
752.975	48771.05
753.313	48801.56
753.651	48938.73
753.989	48704.61
754.327	48771.73
754.666	48455.8
755.004	48735.12
755.342	48628
755.679	48696.47
756.017	48288.12
756.355	48472.98
756.693	48409.93
757.031	48453.54
757.368	48237.28
757.706	48251.97
758.044	48089.26
758.381	48097.85
758.719	47935.14
759.056	47914.35
759.394	47800.68
759.731	47522.04
760.068	47440.01
760.405	47482.04
760.743	47252.22
761.08	47291.76
761.417	47226.23
761.754	47089.28
762.091	47109.4
762.428	46789.86
762.765	46717.32
763.102	46777.65
763.438	46570.43
763.775	46330.43
764.112	46332.69
764.449	46391
764.785	46246.14
765.122	46012.02
765.458	45813.39
765.795	45755.31
766.131	45797.12
766.467	45638.93
766.804	45305.6
767.14	45271.93
767.476	45179.96
767.812	45022.45
768.148	45080.75
768.485	44847.54
768.821	44571.38
769.157	44510.6
769.492	44530.48
769.828	44352.41
770.164	44070.15
770.5	43854.12
770.836	43986.32
771.171	43683.72
771.507	43465.2
771.842	43354.24
772.178	43305.66
772.513	43185.43
772.849	42919
773.184	42933.01
773.519	42918.77
773.855	42643.75
774.19	42535.73
774.525	42396.53
774.86	42276.53
775.195	42189.3
775.53	41912.47
775.865	41787.05
776.2	41431.13
776.535	41376.67
776.87	41288.53
777.205	41021.42
777.539	40917.47
777.874	41053.06
778.209	40543.92
778.543	40762.22
778.878	40541.89
779.212	40408.56
779.547	40106.64
779.881	40104.61
780.215	39771.96
780.55	39958.4
780.884	39455.13
781.218	39448.36
781.552	39508.92
781.886	39270.51
782.22	39083.39
782.554	38822.16
782.888	38656.06
783.222	38547.59
783.556	38453.81
783.889	38287.48
784.223	37866.48
784.557	37935.85
784.89	38134.04
785.224	37724.11
785.557	37624.9
785.891	37524.11
786.224	37386.94
786.558	37429.65
786.891	37023.79
787.224	36897.69
787.557	36847.97
787.891	36852.27
788.224	36593.74
788.557	36590.13
788.89	36522.56
789.223	36431.26
789.556	36066.52
789.888	35990.14
790.221	35780.88
790.554	35739.75
790.887	35590.38
791.219	35389.48
791.552	35280.33
791.884	35322.81
792.217	35100.22
792.549	34929.6
792.882	34724.41
793.214	34626.56
793.546	34618.2
793.879	34533.23
794.211	34175.27
794.543	34317.87
794.875	34145.9
795.207	34163.75
795.539	34137.53
795.871	34001.04
796.203	33725.79
796.535	33524.22
796.867	33516.53
797.198	33336.88
797.53	33354.96
797.862	33186.37
798.193	33052.82
798.525	33023.67
798.856	32989.54
799.188	32525.6
799.519	32540.51
799.85	32407.64
800.182	32449.22
800.513	32507.97
800.844	32034.31
801.175	32282.89
801.506	32302.1
801.837	32057.14
802.168	31704.83
802.499	31971.72
802.83	31644.27
803.161	31599.75
803.491	31473.88
803.822	31501.45
804.153	31387.55
804.483	31053.32
804.814	30915.47
805.145	31019.42
805.475	31051.06
805.805	30820.33
806.136	30847.23
806.466	30747.34
806.796	30561.81
807.126	30557.52
807.457	30461.93
807.787	30409.05
808.117	30342.15
808.447	30149.62
808.777	30219.9
809.107	29939.23
809.436	29892.45
809.766	29885.67
810.096	29891.32
810.426	29633.7
810.755	29753.47
811.085	29681.83
811.414	29778.33
811.744	29367.04
812.073	29429.86
812.403	29358.45
812.732	29321.16
813.061	29452.01
813.39	29091.57
813.719	29030.55
814.049	29139.47
814.378	29096.54
814.707	28746.49
815.036	28950.1
815.365	28704.46
815.693	28598.47
816.022	28548.98
816.351	28363.22
816.68	28235.99
817.008	28466.27
817.337	28136.56
817.665	28106.96
817.994	28175.21
818.322	28224.92
818.651	28035.32
818.979	27945.83
819.307	27949.67
819.636	27910.58
819.964	27729.12
820.292	27776.8
820.62	27701.55
820.948	27815.67
821.276	27876
821.604	27741.54
821.932	28024.25
822.259	27751.04
822.587	27786.52
822.915	27658.61
823.243	27681.21
823.57	27640.3
823.898	27740.64
824.225	27720.75
824.553	27672.62
824.88	27688.44
825.207	27771.83
825.535	27556.01
825.862	27689.79
826.189	27590.36
826.516	27804.37
826.843	27749.23
827.17	27804.59
827.497	27826.74
827.824	27680.3
828.151	27791.49
828.478	27710.58
828.805	27815.44
829.131	27741.77
829.458	27786.06
829.785	27546.07
830.111	27657.93
830.438	27828.55
830.764	27654.54
831.09	27657.25
831.417	27427.2
831.743	27668.1
832.069	27576.35
832.395	27533.19
832.722	27685.5
833.048	27593.3
833.374	27691.6
833.7	27453.87
834.026	27592.17
834.351	27483.92
834.677	27569.12
835.003	27414.1
835.329	27513.3
835.654	27494.32
835.98	27316.25
836.306	27450.48
836.631	27354.21
836.956	27447.32
837.282	27432.17
837.607	27221.33
837.932	27236.25
838.258	27144.27
838.583	27112.86
838.908	27131.39
839.233	27057.27
839.558	26833.32
839.883	26855.47
840.208	26795.35
840.533	26883.49
840.858	26789.93
841.182	26910.15
841.507	26674.23
841.832	26647.79
842.156	26715.58
842.481	26636.94
842.805	26520.11
843.13	26334.35
843.454	26484.18
843.778	26349.94
844.103	26326.44
844.427	26164.86
844.751	26220.23
845.075	26067.01
845.399	26053
845.723	25950.41
846.047	26040.8
846.371	25656.4
846.695	25704.76
847.019	25631.54
847.343	25442.17
847.666	25351.1
847.99	25197.88
848.313	25100.26
848.637	25113.82
848.96	25036.76
849.284	24914.27
849.607	24774.62
849.931	24711.79
850.254	24474.06
850.577	24361.75
850.9	24204.24
851.223	24198.36
851.546	24165.37
851.869	23981.19
852.192	24052.6
852.515	23741.88
852.838	23700.07
853.161	23687.41
853.483	23657.36
853.806	23495.1
854.129	23538.94
854.451	23481.32
854.774	23334.65
855.096	23229.35
855.419	23090.14
855.741	23025.28
856.063	23020.09
856.385	22849.24
856.708	22805.4
857.03	22797.49
857.352	22740.09
857.674	22780.55
857.996	22553.88
858.318	22389.37
858.64	22412.65
858.961	22328.58
859.283	22350.27
859.605	22103.27
859.926	22134.01
860.248	22070.73
860.57	22036.38
860.891	21984.18
861.212	22007.68
861.534	21886.56
861.855	21952.32
862.176	21915.26
862.498	21788.03
862.819	21839.1
863.14	21843.85
863.461	21748.93
863.782	21576.96
864.103	21691.31
864.424	21514.14
864.745	21621.93
865.065	21453.35
865.386	21307.82
865.707	21360.7
866.027	21413.35
866.348	21358.21
866.668	21396.63
866.989	21270.08
867.309	21050.87
867.63	21200.7
867.95	21221.72
868.27	21013.81
868.59	21131.32
868.91	20973.59
869.23	20958.22
869.55	20887.49
869.87	21018.78
870.19	20849.97
870.51	20823.53
870.83	20876.64
871.15	20702.41
871.469	20691.11
871.789	20711.45
872.109	20677.1
872.428	20553.26
872.748	20529.53
873.067	20710.54
873.386	20684.78
873.706	20564.11
874.025	20457.67
874.344	20416.54
874.663	20369.76
874.982	20343.77
875.301	20360.5
875.62	20281.63
875.939	20208.64
876.258	20229.88
876.577	20162.31
876.896	20198.69
877.214	20139.71
877.533	20103.55
877.852	20057
878.17	20226.94
878.489	20101.97
878.807	20041.63
879.125	20037.79
879.444	19949.21
879.762	19855.88
880.08	19997.57
880.398	19777.01
880.716	19864.92
881.034	19720.74
881.352	19818.82
881.67	19744.01
881.988	19697.01
882.306	19663.11
882.624	19588.99
882.941	19480.52
883.259	19356.23
883.577	19429.9
883.894	19356.68
884.212	19318.49
884.529	19333.63
884.846	19251.15
885.164	19178.15
885.481	19131.38
885.798	19143.8
886.115	19124.6
886.432	18968.44
886.75	18981.1
887.067	18915.56
887.383	18903.81
887.7	18870.37
888.017	18815.9
888.334	18780.65
888.651	18803.7
888.967	18632.41
889.284	18509.47
889.6	18420.66
889.917	18411.62
890.233	18360.1
890.55	18299.98
890.866	18317.61
891.182	18315.13
891.498	18226.31
891.815	18215.69
892.131	18099.09
892.447	18133.44
892.763	18011.4
893.079	17994.68
893.395	17926.89
893.71	17887.79
894.026	17718.98
894.342	17782.94
894.657	17679.44
894.973	17626.78
895.289	17595.14
895.604	17506.56
895.92	17377.52
896.235	17396.51
896.55	17294.14
896.865	17284.64
897.181	17258.43
897.496	17242.84
897.811	17142.5
898.126	17041.94
898.441	17026.8
898.756	16969.17
899.071	16854.15
899.386	16866.58
899.7	16677.88
900.015	16706.35
900.33	16509.3
900.644	16467.94
900.959	16465.91
901.273	16456.64
901.588	16350.66
901.902	16281.51
902.216	16178.23
902.531	16249.64
902.845	16148.4
903.159	16073.83
903.473	16063.66
903.787	15846.04
904.101	15917.45
904.415	15804.46
904.729	15780.96
905.042	15622.54
905.356	15607.63
905.67	15658.02
905.984	15648.53
906.297	15589.32
906.611	15474.97
906.924	15391.13
907.237	15306.39
907.551	15266.17
907.864	15229.78
908.177	15152.27
908.491	15168.09
908.804	15123.57
909.117	14997.47
909.43	14860.3
909.743	14806.97
910.056	14759.74
910.368	14736.46
910.681	14624.6
910.994	14581.21
911.307	14668.67
911.619	14457.83
911.932	14553.42
912.244	14364.04
912.557	14348
912.869	14232.52
913.181	14185.97
913.494	14158.62
913.806	14090.15
914.118	14010.38
914.43	13925.86
914.742	13918.63
915.054	13877.05
915.366	13830.95
915.678	13774.45
915.99	13745.3
916.302	13658.75
916.613	13593.44
916.925	13586.89
917.236	13534.46
917.548	13386.44
917.859	13437.29
918.171	13321.13
918.482	13164.3
918.794	13202.04
919.105	13136.28
919.416	12993.01
919.727	13112.78
920.038	13040.91
920.349	12834.82
920.66	12876.4
920.971	12836.85
921.282	12810.41
921.593	12713.47
921.903	12616.52
922.214	12520.25
922.525	12527.93
922.835	12483.87
923.146	12435.28
923.456	12297.2
923.767	12293.14
924.077	12275.28
924.387	12240.94
924.697	12178.11
925.008	12089.98
925.318	12022.86
925.628	11983.99
925.938	11953.49
926.248	11847.27
926.558	11818.12
926.867	11825.13
927.177	11672.36
927.487	11677.33
927.796	11546.49
928.106	11504.23
928.416	11560.05
928.725	11458.81
929.034	11439.6
929.344	11434.85
929.653	11407.28
929.962	11271.92
930.271	11264.46
930.581	11220.4
930.89	11157.57
931.199	11087.75
931.508	11052.04
931.817	11063.11
932.125	11055.2
932.434	10873.06
932.743	10813.18
933.051	10786.74
933.36	10755.78
933.669	10679.85
933.977	10695.67
934.286	10512.85
934.594	10528.21
934.902	10552.39
935.21	10457.25
935.519	10449.34
935.827	10407.76
936.135	10373.87
936.443	10256.35
936.751	10238.28
937.059	10204.38
937.367	10173.42
937.674	10195.34
937.982	10081.9
938.29	10112.4
938.597	10015.01
938.905	9886.19
939.213	9841
939.52	9801.68
939.827	9868.57
940.135	9764.84
940.442	9756.48
940.749	9740.89
941.056	9767.1
941.363	9565.98
941.67	9623.15
941.977	9561.68
942.284	9490.05
942.591	9451.4
942.898	9441.23
943.205	9344.74
943.511	9353.78
943.818	9327.57
944.125	9228.36
944.431	9187.46
944.738	9140
945.044	9130.06
945.35	8994.01
945.657	8998.08
945.963	8986.11
946.269	8931.64
946.575	8949.27
946.881	8854.13
947.187	8826.34
947.493	8760.12
947.799	8738.65
948.105	8695.49
948.41	8646.23
948.716	8635.83
949.022	8637.87
949.327	8579.56
949.633	8467.25
949.938	8464.09
950.244	8455.27
950.549	8423.86
950.854	8356.97
951.16	8312.9
951.465	8202.62
951.77	8245.33
952.075	8155.62
952.38	8110.42
952.685	8123.3
952.99	8091.89
953.294	8091.89
953.599	8001.95
953.904	7970.31
954.209	7979.58
954.513	7942.07
954.818	7870.2
955.122	7895.74
955.426	7848.96
955.731	7763.09
956.035	7735.97
956.339	7731.22
956.643	7695.29
956.948	7579.36
957.252	7565.35
957.556	7616.88
957.86	7552.7
958.163	7558.8
958.467	7505.69
958.771	7448.29
959.075	7390.89
959.378	7315.87
959.682	7358.35
959.985	7304.57
960.289	7323.78
960.592	7214.17
960.896	7187.73
961.199	7151.13
961.502	7121.3
961.805	7081.97
962.108	7011.69
962.411	7065.48
962.714	6997.46
963.017	6946.39
963.32	6928.98
963.623	6919.27
963.926	6872.94
964.228	6858.7
964.531	6744.13
964.833	6809.89
965.136	6715.66
965.438	6773.06
965.741	6663
966.043	6670.46
966.345	6606.28
966.648	6624.36
966.95	6606.96
967.252	6570.12
967.554	6523.35
967.856	6527.19
968.158	6469.56
968.46	6457.58
968.761	6402.22
969.063	6393.63
969.365	6393.41
969.666	6333.52
969.968	6271.83
970.269	6213.07
970.571	6230.92
970.872	6267.53
971.174	6177.14
971.475	6165.84
971.776	6122
972.077	6061.66
972.378	6062.11
972.679	6042.68
972.98	5998.39
973.281	5997.71
973.582	5948.45
973.883	5986.18
974.183	5907.32
974.484	5960.65
974.785	5853.08
975.085	5852.18
975.386	5829.13
975.686	5778.28
975.986	5754.78
976.287	5732.63
976.587	5688.11
976.887	5626.87
977.187	5696.47
977.487	5632.97
977.787	5570.6
978.087	5586.19
978.387	5503.03
978.687	5541.68
978.987	5478.4
979.286	5416.93
979.586	5411.74
979.885	5433.66
980.185	5400.21
980.484	5334.9
980.784	5359.31
981.083	5323.6
981.382	5291.29
981.682	5227.33
981.981	5219.2
982.28	5203.61
982.579	5204.51
982.878	5201.35
983.177	5151.18
983.475	5150.5
983.774	5094.46
984.073	5050.62
984.372	4994.35
984.67	5026.21
984.969	4985.76
985.267	5004.06
985.566	4960
985.864	4922.94
986.162	4861.47
986.461	4853.11
986.759	4816.5
987.057	4812.88
987.355	4738.08
987.653	4763.84
987.951	4755.71
988.249	4727.91
988.547	4706.67
988.844	4696.73
989.142	4704.18
989.44	4668.03
989.737	4647.46
990.035	4615.6
990.332	4568.59
990.63	4573.57
990.927	4535.15
991.224	4535.38
991.521	4513.91
991.819	4454.25
992.116	4471.42
992.413	4468.48
992.71	4395.49
993.006	4382.38
993.303	4382.38
993.6	4379.67
993.897	4361.14
994.193	4296.51
994.49	4282.95
994.787	4272.56
995.083	4223.29
995.379	4209.73
995.676	4150.53
995.972	4164.54
996.268	4152.11
996.565	4151.66
996.861	4101.49
997.157	4095.84
997.453	4063.98
997.749	4096.74
998.044	3983.98
998.34	4005.22
998.636	3982.85
998.932	3959.8
999.227	3956.41
999.523	3918.44
999.818	3889.74
1000.114	3890.87
1000.409	3852.46
1000.704	3845.22
1001	3792.34
1001.295	3746.7
1001.59	3767.94
1001.885	3718.67
1002.18	3719.13
1002.475	3698.33
1002.77	3652.01
1003.065	3648.84
1003.359	3646.13
1003.654	3618.11
1003.949	3586.7
1004.243	3558.9
1004.538	3531.33
1004.832	3522.52
1005.127	3513.93
1005.421	3496.08
1005.715	3508.96
1006.009	3437.78
1006.304	3444.78
1006.598	3404.56
1006.892	3352.58
1007.186	3348.74
1007.48	3290.66
1007.773	3333.15
1008.067	3346.71
1008.361	3274.84
1008.655	3273.94
1008.948	3257.67
1009.242	3241.17
1009.535	3194.62
1009.829	3167.5
1010.122	3141.51
1010.415	3139.93
1010.708	3102.19
1011.001	3104
1011.295	3100.84
1011.588	3072.59
1011.881	3024.45
1012.173	3071.01
1012.466	3035.98
1012.759	2985.36
1013.052	2964.79
1013.344	2943.78
1013.637	2915.76
1013.93	2907.4
1014.222	2899.71
1014.514	2914.85
1014.807	2839.6
1015.099	2847.74
1015.391	2854.52
1015.683	2790.56
1015.976	2759.38
1016.268	2785.14
1016.56	2734.07
1016.851	2709.89
1017.143	2697.01
1017.435	2689.1
1017.727	2670.34
1018.018	2680.73
1018.31	2644.35
1018.602	2612.71
1018.893	2617.23
1019.185	2585.82
1019.476	2544.47
1019.767	2510.57
1020.058	2502.43
1020.35	2508.76
1020.641	2501.76
1020.932	2484.36
1021.223	2456.79
1021.514	2481.64
1021.804	2423.11
1022.095	2386.96
1022.386	2398.71
1022.677	2384.25
1022.967	2336.11
1023.258	2362.1
1023.548	2319.84
1023.839	2293.4
1024.129	2280.75
1024.419	2307.64
1024.709	2279.62
1025	2246.4
1025.29	2192.16
1025.58	2204.36
1025.87	2227.64
1026.16	2191.93
1026.449	2166.85
1026.739	2159.84
1027.029	2127.98
1027.319	2118.26
1027.608	2108.32
1027.898	2076.46
1028.187	2094.08
1028.477	2042.11
1028.766	2054.31
1029.055	2036.91
1029.344	2005.05
1029.634	1992.62
1029.923	1995.1
1030.212	1969.79
1030.501	1949.23
1030.79	1979.96
1031.078	1918.27
1031.367	1914.43
1031.656	1897.03
1031.945	1888.89
1032.233	1880.3
1032.522	1869
1032.81	1844.82
1033.099	1823.58
1033.387	1807.99
1033.675	1805.28
1033.963	1821.77
1034.251	1746.75
1034.54	1734.77
1034.828	1713.53
1035.116	1735.9
1035.403	1715.79
1035.691	1731.83
1035.979	1684.6
1036.267	1700.87
1036.554	1682.57
1036.842	1686.18
1037.129	1628.56
1037.417	1643.7
1037.704	1632.85
1037.992	1636.24
1038.279	1615.68
1038.566	1581.1
1038.853	1581.1
1039.14	1581.1
