Data from 1797_FLMS001491_001.txt Node
Date: Thu Apr 19 16:33:42 BST 2018
User: hsy
Spectrometer: FLMS00149
Trigger mode: 0
Integration Time (sec): 1.000000E-2
Scans to average: 10
Electric dark correction enabled: true
Nonlinearity correction enabled: false
Boxcar width: 0
XAxis mode: Wavelengths
Number of Pixels in Spectrum: 2048
>>>>>Begin Spectral Data<<<<<
341.393	-4.12
341.776	-4.12
342.16	-4.12
342.543	-64.24
342.927	-78.7
343.31	-60.62
343.693	-84.57
344.077	-62.88
344.46	-67.63
344.843	-65.59
345.226	-57.68
345.61	-31.24
345.993	-12.71
346.376	-15.42
346.759	9.89
347.142	25.48
347.525	60.73
347.908	70.9
348.291	68.64
348.674	108.19
349.057	114.52
349.44	135.53
349.823	135.99
350.206	172.59
350.588	241.52
350.971	248.3
351.354	267.06
351.737	284.23
352.119	279.94
352.502	321.97
352.884	312.7
353.267	319.26
353.65	332.59
354.032	338.92
354.414	354.51
354.797	365.13
355.179	358.13
355.562	366.04
355.944	373.72
356.326	381.18
356.709	376.88
357.091	371.69
357.473	391.8
357.855	397.45
358.238	385.02
358.62	380.5
359.002	399.48
359.384	384.57
359.766	382.08
360.148	363.78
360.53	381.63
360.912	384.57
361.294	401.06
361.676	395.64
362.057	393.61
362.439	387.5
362.821	370.33
363.203	382.08
363.584	396.77
363.966	383.21
364.348	396.09
364.729	393.38
365.111	382.53
365.493	383.66
365.874	374.62
366.256	379.14
366.637	373.72
367.019	375.75
367.4	371.01
367.781	369.88
368.163	367.39
368.544	398.8
368.925	362.87
369.306	392.7
369.688	377.33
370.069	366.26
370.45	392.93
370.831	382.53
371.212	366.26
371.593	388.18
371.974	382.31
372.355	394.51
372.736	405.13
373.117	386.37
373.498	393.15
373.879	400.84
374.26	402.19
374.641	370.56
375.021	395.19
375.402	401.74
375.783	414.62
376.163	428.86
376.544	424.79
376.925	418.01
377.305	398.58
377.686	414.17
378.066	430.21
378.447	412.14
378.827	401.74
379.208	394.96
379.588	430.89
379.968	435.19
380.349	447.39
380.729	440.61
381.109	438.8
381.489	443.1
381.87	423.66
382.25	444.68
382.63	443.1
383.01	463.43
383.39	459.59
383.77	467.05
384.15	450.1
384.53	446.94
384.91	453.49
385.29	464.11
385.67	454.85
386.049	468.63
386.429	468.41
386.809	470.67
387.189	474.51
387.568	480.61
387.948	471.34
388.328	475.19
388.707	497.33
389.087	504.34
389.466	503.21
389.846	487.61
390.225	512.47
390.605	519.03
390.984	493.72
391.363	517.67
391.743	509.99
392.122	534.84
392.501	519.25
392.881	523.55
393.26	518.57
393.639	547.5
394.018	529.2
394.397	531
394.776	538.69
395.155	540.27
395.534	537.56
395.913	557.89
396.292	555.41
396.671	559.48
397.05	561.51
397.429	566.03
397.808	573.26
398.186	576.2
398.565	566.48
398.944	575.07
399.323	586.59
399.701	580.72
400.08	601.28
400.458	579.59
400.837	587.95
401.215	596.76
401.594	604.45
401.972	621.85
402.351	615.07
402.729	630.89
403.107	622.75
403.486	616.88
403.864	627.72
404.242	631.79
404.62	627.27
404.999	640.38
405.377	639.7
405.755	656.2
406.133	672.02
406.511	668.85
406.889	672.69
407.267	680.38
407.645	709.3
408.023	683.32
408.401	703.43
408.779	711.79
409.156	717.44
409.534	712.92
409.912	739.59
410.29	736.42
410.667	739.36
411.045	756.99
411.422	754.95
411.8	761.28
412.178	787.04
412.555	792.47
412.933	789.3
413.31	805.57
413.687	830.2
414.065	818.68
414.442	827.27
414.819	822.52
415.197	834.27
415.574	866.81
415.951	854.16
416.328	847.38
416.705	858
417.082	880.82
417.46	851.9
417.837	880.6
418.214	874.95
418.591	888.28
418.967	916.98
419.344	941.39
419.721	922.63
420.098	931.44
420.475	930.54
420.852	938.9
421.228	936.64
421.605	963.76
421.982	974.83
422.358	959.24
422.735	963.76
423.111	951.1
423.488	952.23
423.864	983.87
424.241	1011.67
424.617	1021.61
424.994	1019.13
425.37	1030.65
425.746	1051.44
426.123	1061.38
426.499	1024.78
426.875	1079.24
427.251	1098.67
427.627	1088.05
428.003	1117.88
428.379	1118.78
428.756	1117.43
429.132	1149.52
429.507	1166.47
429.883	1156.07
430.259	1158.33
430.635	1179.8
431.011	1192
431.387	1217.99
431.763	1257.76
432.138	1227.48
432.514	1271.55
432.89	1255.96
433.265	1305.45
433.641	1303.64
434.016	1314.03
434.392	1319.23
434.767	1341.6
435.143	1349.51
435.518	1361.26
435.894	1399.45
436.269	1405.1
436.644	1400.13
437.02	1451.88
437.395	1475.84
437.77	1457.98
438.145	1486.01
438.52	1480.13
438.895	1507.7
439.271	1494.59
439.646	1517.87
440.021	1545.67
440.395	1530.3
440.77	1556.06
441.145	1561.71
441.52	1572.78
441.895	1568.94
442.27	1586.79
442.645	1604.87
443.019	1587.47
443.394	1632.44
443.769	1646.23
444.143	1613.69
444.518	1668.37
444.892	1612.33
445.267	1660.69
445.641	1675.83
446.016	1674.7
446.39	1702.05
446.764	1698.43
447.139	1695.49
447.513	1751.99
447.887	1749.5
448.262	1737.52
448.636	1735.72
449.01	1770.29
449.384	1800.57
449.758	1790.4
450.132	1827.69
450.506	1871.53
450.88	1819.78
451.254	1871.76
451.628	1891.65
452.002	1886
452.376	1917.41
452.75	1937.07
453.123	1947.24
453.497	2004.18
453.871	1985.88
454.244	2046.22
454.618	2053.22
454.992	2120.79
455.365	2100.91
455.739	2145.88
456.112	2118.08
456.486	2168.7
456.859	2169.15
457.232	2247.34
457.606	2235.82
457.979	2280.34
458.352	2280.34
458.725	2353.55
459.099	2353.1
459.472	2409.37
459.845	2432.42
460.218	2404.85
460.591	2470.16
460.964	2504.74
461.337	2532.76
461.71	2583.6
462.083	2593.1
462.456	2598.07
462.829	2568.92
463.201	2674.22
463.574	2679.42
463.947	2670.38
464.32	2752.64
464.692	2774.79
465.065	2796.71
465.438	2829.93
465.81	2906.53
466.183	2864.73
466.555	2927.1
466.928	2932.75
467.3	2923.93
467.672	2979.3
468.045	3082.35
468.417	3049.81
468.789	3067.89
469.161	3116.92
469.534	3117.83
469.906	3239.41
470.278	3247.77
470.65	3298.84
471.022	3361.21
471.394	3365.28
471.766	3414.32
472.138	3456.12
472.51	3545.16
472.882	3592.84
473.253	3594.88
473.625	3692.73
473.997	3771.14
474.369	3777.02
474.74	3831.03
475.112	3883.46
475.484	3876.68
475.855	3993.51
476.227	4040.29
476.598	4121.87
476.97	4185.82
477.341	4272.83
477.713	4314.41
478.084	4417.45
478.455	4463.1
478.827	4513.72
479.198	4614.06
479.569	4625.13
479.94	4776.77
480.311	4857.89
480.682	4909.42
481.053	5070.32
481.424	5131.33
481.795	5216.98
482.166	5254.49
482.537	5366.81
482.908	5466.24
483.279	5482.29
483.65	5598.44
484.021	5733.13
484.391	5830.07
484.762	5900.35
485.133	5991.65
485.503	6055.38
485.874	6143.28
486.244	6222.6
486.615	6346.22
486.985	6486.33
487.356	6623.72
487.726	6652.88
488.097	6827.11
488.467	6853.55
488.837	6973.09
489.207	7070.94
489.578	7226.65
489.948	7374.21
490.318	7454.66
490.688	7520.42
491.058	7649.46
491.428	7728.78
491.798	7786.41
492.168	8049.9
492.538	8078.83
492.908	8177.13
493.278	8287.86
493.648	8304.36
494.017	8485.14
494.387	8568.08
494.757	8640.62
495.126	8789.99
495.496	8807.4
495.866	8911.8
496.235	8983.44
496.605	9083.55
496.974	9125.58
497.344	9241.28
497.713	9360.6
498.082	9380.49
498.452	9504.55
498.821	9608.5
499.19	9599.92
499.559	9662.51
499.928	9817.09
500.298	9806.01
500.667	9916.97
501.036	9932.79
501.405	10067.93
501.774	10120.13
502.143	10122.62
502.512	10282.39
502.88	10325.32
503.249	10390.18
503.618	10544.3
503.987	10542.27
504.356	10659.32
504.724	10699.55
505.093	10728.47
505.462	10770.28
505.83	10850.96
506.199	10934.12
506.567	11050.95
506.936	11020.67
507.304	11222.7
507.672	11224.96
508.041	11323.04
508.409	11321.91
508.777	11485.52
509.145	11535.69
509.514	11571.62
509.882	11646.64
510.25	11675.34
510.618	11788.11
510.986	11814.1
511.354	11852.97
511.722	12010.93
512.09	12218.15
512.458	12084.15
512.826	12276.68
513.193	12294.08
513.561	12494.98
513.929	12455.44
514.297	12577.92
514.664	12700.85
515.032	12731.81
515.4	12821.3
515.767	12824.24
516.135	12943.11
516.502	12902.2
516.869	13199.6
517.237	13228.07
517.604	13186.49
517.972	13414.73
518.339	13443.43
518.706	13594.39
519.073	13613.6
519.44	13665.35
519.808	13907.15
520.175	13828.05
520.542	14124.32
520.909	14175.16
521.276	14277.76
521.643	14383.52
522.009	14445.21
522.376	14562.5
522.743	14557.75
523.11	14861.02
523.477	14984.86
523.843	15011.75
524.21	15245.19
524.577	15431.18
524.943	15532.64
525.31	15551.17
525.676	15772.41
526.043	15832.52
526.409	15984.16
526.776	16237.71
527.142	16238.39
527.508	16336.92
527.874	16500.53
528.241	16650.81
528.607	16760.18
528.973	16965.6
529.339	17036.11
529.705	17212.6
530.071	17296.21
530.437	17406.27
530.803	17694.39
531.169	17688.74
531.535	17775.3
531.901	17761.28
532.267	17836.54
532.632	18147.71
532.998	18206.02
533.364	18241.95
533.73	18377.54
534.095	18496.63
534.461	18529.4
534.826	18677.87
535.192	18678.55
535.557	18830.18
535.923	18799
536.288	19037.18
536.653	19213.9
537.019	19165.77
537.384	19260.45
537.749	19402.15
538.114	19522.59
538.479	19546.77
538.845	19651.63
539.21	19666.32
539.575	19785.64
539.94	19803.94
540.305	19975.24
540.67	20001.45
541.034	20095.46
541.399	20164.16
541.764	20126.42
542.129	20278.96
542.494	20331.39
542.858	20426.53
543.223	20409.35
543.587	20650.25
543.952	20590.81
544.316	20699.96
544.681	20702
545.045	20878.04
545.41	20999.84
545.774	20958.94
546.138	21153.29
546.503	21106.28
546.867	21211.82
547.231	21259.27
547.595	21392.83
547.959	21467.18
548.324	21384.24
548.688	21517.12
549.052	21714.85
549.416	21657.45
549.779	21761.18
550.143	21802.99
550.507	21943.55
550.871	22091.79
551.235	22092.92
551.599	22154.39
551.962	22286.36
552.326	22271.22
552.689	22455.4
553.053	22357.77
553.417	22543.98
553.78	22791.66
554.143	22744.43
554.507	22963.86
554.87	22989.17
555.234	23267.58
555.597	23087.47
555.96	23175.61
556.323	23302.38
556.686	23414.24
557.05	23585.54
557.413	23608.36
557.776	23773.56
558.139	23952.99
558.502	23970.16
558.865	24071.63
559.228	24239.31
559.59	24304.84
559.953	24428.23
560.316	24726.52
560.679	24684.27
561.041	24877.26
561.404	25002.22
561.767	25124.93
562.129	25132.39
562.492	25435.43
562.854	25472.95
563.217	25451.03
563.579	25644.47
563.941	25849.21
564.304	26119.71
564.666	26284.68
565.028	26335.75
565.39	26345.69
565.753	26574.84
566.115	26715.4
566.477	26773.02
566.839	27045.11
567.201	27278.32
567.563	27236.74
567.925	27514.47
568.287	27589.05
568.648	27784.52
569.01	27996.95
569.372	28310.39
569.734	28253.44
570.095	28629.7
570.457	28714.67
570.819	28811.62
571.18	28796.7
571.542	29228.1
571.903	29179.74
572.265	29376.8
572.626	29694.98
572.987	29680.52
573.349	29908.99
573.71	30046.84
574.071	30201.41
574.432	30401.4
574.794	30631.45
575.155	30760.72
575.516	30746.93
575.877	30875.52
576.238	31017.43
576.599	31247.71
576.96	31330.65
577.32	31468.72
577.681	31734.25
578.042	31970.85
578.403	31992.77
578.763	32112.77
579.124	32281.13
579.485	32524.96
579.845	32715.02
580.206	32784.17
580.566	32853.09
580.927	32922.24
581.287	33196.36
581.648	33216.7
582.008	33546.18
582.368	33716.12
582.728	33757.25
583.089	33999.05
583.449	34190.23
583.809	34359.49
584.169	34694.4
584.529	34774.4
584.889	35180.71
585.249	35104.56
585.609	35311.11
585.969	35806.46
586.329	35751.77
586.688	36256.17
587.048	36406.67
587.408	36718.07
587.768	36907
588.127	37301.79
588.487	37599.18
588.846	38120.52
589.206	38060.64
589.565	38435.09
589.925	39057.9
590.284	39322.07
590.643	39594.61
591.003	39939.46
591.362	40470.97
591.721	40899.21
592.08	41118.41
592.44	41730.82
592.799	42037.93
593.158	42193.18
593.517	42781.64
593.876	43257.11
594.235	43391.12
594.593	43849.41
594.952	44331.21
595.311	44584.31
595.67	45017.29
596.029	45706.31
596.387	46086.42
596.746	46568.89
597.104	46634.88
597.463	47035.09
597.822	47571.35
598.18	47775.64
598.538	48187.15
598.897	48664.88
599.255	48815.16
599.613	49467.12
599.972	49544.86
600.33	49914.56
600.688	50135.57
601.046	50461.22
601.404	50902.79
601.762	51093.74
602.12	51521.3
602.478	51713.84
602.836	51889.65
603.194	51930.56
603.552	52363.09
603.91	52497.55
604.268	52948.16
604.625	53007.14
604.983	53353.12
605.341	53424.3
605.698	53766.44
606.056	54048.01
606.413	54123.94
606.771	54361.45
607.128	54669.01
607.485	54712.4
607.843	54841.67
608.2	55156.01
608.557	55420.63
608.914	55447.53
609.272	55785.6
609.629	55993.27
609.986	56140.39
610.343	56158.47
610.7	56495.86
611.057	56547.16
611.414	56648.85
611.771	56872.8
612.127	56974.72
612.484	57126.8
612.841	57339.68
613.198	57320.47
613.554	57443.63
613.911	57638.2
614.267	57757.75
614.624	57861.02
614.98	58010.4
615.337	58240.9
615.693	58288.13
616.05	58427.79
616.406	58534.22
616.762	58512.76
617.118	58566.31
617.475	58634.56
617.831	58830.71
618.187	58854.22
618.543	59016.47
618.899	59086.53
619.255	59195
619.611	59216.24
619.967	59364.03
620.323	59469.11
620.678	59402.45
621.034	59417.82
621.39	59496.01
621.746	59581.2
622.101	59884.92
622.457	59671.14
622.812	59818.48
623.168	59920.4
623.523	59872.49
623.879	60037.69
624.234	59887.41
624.589	60036.11
624.945	60054.86
625.3	60132.37
625.655	60105.48
626.01	60181.19
626.365	60203.78
626.72	60192.94
627.075	60159.04
627.43	60267.51
627.785	60211.47
628.14	60321.97
628.495	60259.83
628.85	60371.46
629.205	60253.27
629.559	60369.43
629.914	60237
630.269	60330.56
630.623	60201.07
630.978	60163.79
631.332	60330.56
631.687	60382.31
632.041	60268.42
632.396	60301.41
632.75	60244.01
633.104	60306.83
633.459	60207.63
633.813	60222.09
634.167	60235.87
634.521	60201.75
634.875	60224.57
635.229	60145.03
635.583	60112.04
635.937	60132.15
636.291	60074.97
636.645	60062.32
636.999	59938.03
637.352	60072.94
637.706	59908.88
638.06	60031.13
638.413	59891.7
638.767	59863
639.121	59921.31
639.474	59781.65
639.828	59792.27
640.181	59856.9
640.534	59854.87
640.888	59708.43
641.241	59641.77
641.594	59693.74
641.947	59727.86
642.301	59695.32
642.654	59764.25
643.007	59596.34
643.36	59696.9
643.713	59598.38
644.066	59713.4
644.419	59557.47
644.771	59287.88
645.124	59094.43
645.477	59059.18
645.83	58966.75
646.182	58930.6
646.535	58860.77
646.888	58931.5
647.24	58840.88
647.593	59058.73
647.945	58816.93
648.298	58806.31
648.65	58665.07
649.002	58587.56
649.355	58543.04
649.707	58441.12
650.059	58444.96
650.411	58747.1
650.763	58849.7
651.115	59284.26
651.467	59123.59
651.819	59183.25
652.171	59059.63
652.523	59063.48
652.875	59030.26
653.227	58894.67
653.578	59089.01
653.93	59052.4
654.282	58939.18
654.633	58876.81
654.985	58966.53
655.337	58993.87
655.688	58932.18
656.039	59025.74
656.391	58797.72
656.742	58839.07
657.094	58820.54
657.445	58872.52
657.796	58922.69
658.147	58793.43
658.498	58872.29
658.849	58959.52
659.2	58881.33
659.551	58857.38
659.902	58894.44
660.253	58839.75
660.604	58887.43
660.955	58791.39
661.306	58893.76
661.656	58720.43
662.007	58774.9
662.358	58780.77
662.708	58793.65
663.059	58785.97
663.409	58637.5
663.76	58779.19
664.11	58865.97
664.461	58799.08
664.811	58791.39
665.161	58726.08
665.511	58747.55
665.862	58709.59
666.212	58799.75
666.562	58779.41
666.912	58769.02
667.262	58730.38
667.612	58739.42
667.962	58820.32
668.312	58649.7
668.662	58816.25
669.011	58768.12
669.361	58668.68
669.711	58651.06
670.06	58699.64
670.41	58591.62
670.76	58610.83
671.109	58745.74
671.459	58649.93
671.808	58606.54
672.157	58712.07
672.507	58548.69
672.856	58546.65
673.205	58595.24
673.554	58632.3
673.904	58497.16
674.253	58689.93
674.602	58550.27
674.951	58232.54
675.3	58077.06
675.649	58526.77
675.998	58488.8
676.346	58498.97
676.695	58566.09
677.044	58461.91
677.393	58409.26
677.741	58534
678.09	58469.37
678.438	58464.17
678.787	58506.65
679.135	58428.92
679.484	58298.98
679.832	58358.64
680.181	58323.16
680.529	58298.07
680.877	58195.48
681.225	58286.55
681.573	58398.41
681.922	58218.98
682.27	58162.93
682.618	58121.81
682.966	58011.75
683.314	58079.09
683.661	58071.86
684.009	57944.63
684.357	57901.92
684.705	57822.15
685.053	57964.97
685.4	57722.49
685.748	57742.15
686.095	57652.66
686.443	57560.92
686.79	57564.53
687.138	57658.99
687.485	57560.46
687.832	57449.96
688.18	57436.85
688.527	57342.39
688.874	57339.68
689.221	57286.8
689.568	57188.27
689.915	57142.4
690.262	57154.37
690.609	57063.3
690.956	56904.66
691.303	56935.4
691.65	56863.99
691.997	56825.79
692.344	56685.01
692.69	56624.67
693.037	56650.43
693.383	56377.44
693.73	56503.54
694.077	56275.53
694.423	56228.3
694.769	56151.91
695.116	56166.38
695.462	56045.02
695.808	55999.38
696.155	55988.53
696.501	55797.57
696.847	55862.66
697.193	55661.98
697.539	55635.09
697.885	55458.6
698.231	55400.52
698.577	55424.25
698.923	55279.85
699.269	55126.4
699.614	55063.35
699.96	54952.85
700.306	55019.06
700.651	54881.89
700.997	54717.6
701.342	54625.17
701.688	54624.04
702.033	54440.32
702.379	54545.63
702.724	54452.75
703.069	54365.52
703.415	54154.45
703.76	54048.69
704.105	54036.04
704.45	53947.45
704.795	53893.67
705.14	53753.56
705.485	53763.73
705.83	53514.02
706.175	53649.15
706.52	53448.03
706.865	53368.48
707.209	53296.62
707.554	53253.68
707.899	53310.63
708.243	53146.57
708.588	53091.88
708.932	52871.32
709.277	52965.78
709.621	52883.52
709.966	52547.04
710.31	52675.85
710.654	52446.93
710.998	52503.42
711.342	52514.95
711.687	52326.93
712.031	52342.3
712.375	52127.16
712.719	52145.24
713.063	52036.54
713.407	52185.01
713.75	51945.02
714.094	51934.4
714.438	51619.15
714.782	51695.53
715.125	51636.78
715.469	51860.95
715.812	51423.45
716.156	51461.87
716.499	51437.46
716.843	51429.33
717.186	51256.22
717.53	51486.95
717.873	51472.49
718.216	51226.39
718.559	51071.59
718.902	50816.46
719.246	50869.57
719.589	50847.42
719.932	50759.96
720.275	50798.38
720.617	50780.08
720.96	50612.62
721.303	50667.76
721.646	50656.92
721.989	50588.22
722.331	50583.25
722.674	50451.05
723.016	50435.45
723.359	50317.94
723.701	50326.53
724.044	50228.91
724.386	50094.22
724.729	50138.51
725.071	50056.48
725.413	50054.67
725.755	49974.9
726.097	49905.3
726.439	49693.1
726.782	49697.62
727.124	49757.51
727.465	49698.3
727.807	49635.7
728.149	49719.54
728.491	49666.66
728.833	49608.36
729.175	49559.77
729.516	49518.42
729.858	49434.35
730.199	49557.96
730.541	49384.18
730.882	49298.76
731.224	49322.94
731.565	49315.93
731.906	49283.39
732.248	49173.57
732.589	49064.87
732.93	48911.2
733.271	49067.35
733.612	48922.5
733.953	49132.89
734.294	48936.51
734.635	48797.08
734.976	48896.74
735.317	48812.45
735.658	48850.86
735.999	48730.19
736.339	48751.2
736.68	48706.46
737.021	48702.17
737.361	48560.7
737.702	48760.47
738.042	48461.72
738.383	48603.64
738.723	48592.34
739.063	48410.2
739.404	48477.99
739.744	48461.49
740.084	48383.3
740.424	48378.78
740.764	48228.96
741.104	48529.97
741.444	48157.77
741.784	48146.93
742.124	48327.26
742.464	48176.76
742.804	48056.53
743.143	48031
743.483	48160.94
743.823	47986.93
744.162	47997.33
744.502	48061.28
744.841	47982.86
745.181	48087.72
745.52	47962.3
745.86	47898.12
746.199	47850.66
746.538	47744.9
746.877	47900.38
747.216	47846.37
747.556	47833.71
747.895	47764.56
748.234	47652.48
748.573	47643.44
748.911	47493.16
749.25	47531.35
749.589	47430.11
749.928	47442.54
750.267	47442.99
750.605	47346.04
750.944	47329.09
751.283	47232.83
751.621	47337.46
751.96	47145.37
752.298	47039.84
752.636	47146.5
752.975	47090
753.313	46976.79
753.651	47159.83
753.989	46966.62
754.327	46913.29
754.666	46645.95
755.004	46734.53
755.342	46876
755.679	46697.25
756.017	46518.72
756.355	46543.35
756.693	46422
757.031	46599.17
757.368	46363.24
757.706	46258.61
758.044	46024.72
758.381	46116.47
758.719	45988.56
759.056	45943.82
759.394	45806.2
759.731	45417.28
760.068	45544.06
760.405	45483.04
760.743	45367.34
761.08	45511.52
761.417	45238.3
761.754	45039.66
762.091	45114.46
762.428	44765.77
762.765	44773
763.102	44764.42
763.438	44810.52
763.775	44455.05
764.112	44520.13
764.449	44450.07
764.785	44178.22
765.122	44048.5
765.458	43837.66
765.795	43804.22
766.131	43853.71
766.467	43693.94
766.804	43314.06
767.14	43380.72
767.476	43139.6
767.812	43169.2
768.148	43129.66
768.485	42849.21
768.821	42576
769.157	42619.61
769.492	42483.35
769.828	42352.28
770.164	42006.75
770.5	41967.2
770.836	41945.28
771.171	41883.59
771.507	41546.42
771.842	41446.09
772.178	41477.72
772.513	41376.48
772.849	41151.63
773.184	41106.21
773.519	41082.48
773.855	40670.74
774.19	40702.15
774.525	40451.76
774.86	40399.79
775.195	40286.34
775.53	40161.6
775.865	39870.99
776.2	39681.16
776.535	39379.25
776.87	39433.93
777.205	39259.25
777.539	39084.34
777.874	39067.62
778.209	38684.58
778.543	38954.4
778.878	38511.25
779.212	38550.34
779.547	38217.47
779.881	38228.77
780.215	37978.61
780.55	38061.09
780.884	37642.34
781.218	37596.47
781.552	37738.39
781.886	37416.36
782.22	37321.9
782.554	37031.06
782.888	36685.31
783.222	36788.35
783.556	36620.22
783.889	36376.61
784.223	36173.23
784.557	36271.08
784.89	36258.88
785.224	35907.7
785.557	35817.76
785.891	35762.17
786.224	35631.32
786.558	35586.13
786.891	35472.01
787.224	35220.94
787.557	35076.76
787.891	34997.22
788.224	34904.34
788.557	34704.57
788.89	34664.12
789.223	34646.49
789.556	34342.54
789.888	34279.04
790.221	34189.33
790.554	33936.23
790.887	33965.38
791.219	33923.8
791.552	33888.54
791.884	33676.8
792.217	33578.27
792.549	33411.49
792.882	33068.23
793.214	32979.64
793.546	33044.05
793.879	32848.35
794.211	32502.82
794.543	32810.15
794.875	32714.34
795.207	32617.39
795.539	32409.49
795.871	32438.41
796.203	32234.8
796.535	32056.05
796.867	32078.42
797.198	31805.89
797.53	31668.72
797.862	31380.59
798.193	31616.06
798.525	31368.61
798.856	31518.21
799.188	31097.88
799.519	30994.38
799.85	30800.04
800.182	30882.75
800.513	31060.37
800.844	30454.96
801.175	30809.98
801.506	30700.83
801.837	30480.95
802.168	30435.3
802.499	30391.01
802.83	30212.93
803.161	30075.99
803.491	30052.94
803.822	30123.22
804.153	29869.44
804.483	29793.74
804.814	29605.72
805.145	29549.68
805.475	29593.06
805.805	29434.88
806.136	29569.34
806.466	29225.84
806.796	29228.78
807.126	29166.86
807.457	28943.14
807.787	28925.96
808.117	28954.66
808.447	28761.9
808.777	28775.23
809.107	28658.17
809.436	28566.2
809.766	28587.21
810.096	28368.24
810.426	28356.94
810.755	28416.6
811.085	28231.07
811.414	28297.28
811.744	28064.29
812.073	28055.03
812.403	27889.83
812.732	27826.78
813.061	27980.45
813.39	27769.16
813.719	27749.27
814.049	27818.2
814.378	27814.81
814.707	27578.88
815.036	27605.77
815.365	27321.26
815.693	27276.74
816.022	27196.06
816.351	27095.5
816.68	26979.35
817.008	27167.36
817.337	26861.16
817.665	26845.11
817.994	26714.72
818.322	26848.05
818.651	26786.81
818.979	26644.21
819.307	26712.91
819.636	26620.71
819.964	26475.63
820.292	26582.97
820.62	26472.69
820.948	26501.85
821.276	26705.46
821.604	26511.56
821.932	26608.74
822.259	26569.41
822.587	26398.12
822.915	26455.29
823.243	26445.8
823.57	26332.81
823.898	26424.33
824.225	26311.57
824.553	26236.99
824.88	26377.33
825.207	26481.96
825.535	26341.17
825.862	26517.44
826.189	26338.01
826.516	26580.71
826.843	26453.03
827.17	26468.63
827.497	26510.43
827.824	26441.28
828.151	26487.61
828.478	26343.43
828.805	26568.51
829.131	26421.85
829.458	26457.33
829.785	26316.77
830.111	26415.07
830.438	26528.51
830.764	26433.15
831.09	26558.79
831.417	26304.56
831.743	26532.81
832.069	26353.83
832.395	26554.05
832.722	26386.59
833.048	26255.75
833.374	26325.58
833.7	26191.12
834.026	26289.87
834.351	26248.97
834.677	26215.3
835.003	26305.01
835.329	26313.6
835.654	26122.65
835.98	26032.25
836.306	26109.09
836.631	25886.49
836.956	26119.71
837.282	26038.35
837.607	26072.93
837.932	25842.88
838.258	25851.69
838.583	25848.3
838.908	25774.63
839.233	25870
839.558	25641.08
839.883	25632.26
840.208	25448.99
840.533	25629.55
840.858	25538.26
841.182	25572.6
841.507	25594.3
841.832	25423
842.156	25380.52
842.481	25367.64
842.805	25291.71
843.13	25121.09
843.454	25110.24
843.778	25109.34
844.103	25189.34
844.427	24838.16
844.751	25055.1
845.075	24966.97
845.399	24855.56
845.723	24674.32
846.047	24739.41
846.371	24493.76
846.695	24426.42
847.019	24361.56
847.343	24193.21
847.666	24191.4
847.99	24037.5
848.313	23917.51
848.637	24059.2
848.96	23880.22
849.284	23741.92
849.607	23591.19
849.931	23501.7
850.254	23440.91
850.577	23295.6
850.9	23190.29
851.223	23130.86
851.546	23099.68
851.869	22933.8
852.192	23156.62
852.515	22870.3
852.838	22671.89
853.161	22762.28
853.483	22548.05
853.806	22546.24
854.129	22457.43
854.451	22419.47
854.774	22348.06
855.096	22322.75
855.419	22114.84
855.741	22148.97
856.063	21915.07
856.385	21904
856.708	21891.35
857.03	21741.74
857.352	21702.65
857.674	21710.79
857.996	21651.13
858.318	21467.18
858.64	21496.33
858.961	21390.12
859.283	21386.27
859.605	21264.92
859.926	21219.72
860.248	21230.12
860.57	21084.36
860.891	21068.09
861.212	20997.36
861.534	20982.44
861.855	20849.56
862.176	20834.42
862.498	20856.12
862.819	20881.2
863.14	20744.03
863.461	20715.78
863.782	20629.68
864.103	20679.17
864.424	20555.79
864.745	20609.57
865.065	20519.63
865.386	20446.64
865.707	20478.05
866.027	20441.44
866.348	20347.21
866.668	20374.78
866.989	20231.95
867.309	20158.06
867.63	20111.51
867.95	20277.83
868.27	20060.21
868.59	20092.52
868.91	20024.28
869.23	20083.03
869.55	19995.8
869.87	20025.41
870.19	19967.55
870.51	19969.59
870.83	19871.96
871.15	19688.92
871.469	19748.35
871.789	19895.47
872.109	19800.33
872.428	19688.01
872.748	19776.37
873.067	19634.46
873.386	19644.85
873.706	19647.34
874.025	19489.15
874.344	19478.75
874.663	19459.32
874.982	19485.98
875.301	19470.62
875.62	19318.98
875.939	19215.94
876.258	19382.94
876.577	19284.63
876.896	19194.02
877.214	19202.6
877.533	19139.55
877.852	19170.06
878.17	19237.86
878.489	19119.89
878.807	18982.72
879.125	19144.75
879.444	19009.16
879.762	18989.73
880.08	19055.94
880.398	18836.06
880.716	18971.2
881.034	18828.83
881.352	18820.24
881.67	18818.21
881.988	18814.14
882.306	18700.69
882.624	18730.3
882.941	18497.08
883.259	18520.36
883.577	18612.11
883.894	18483.98
884.212	18513.58
884.529	18459.35
884.846	18282.17
885.164	18228.84
885.481	18253.93
885.798	18308.16
886.115	18122.63
886.432	18189.07
886.75	18010.77
887.067	18095.74
887.383	18016.42
887.7	17955.86
888.017	17800.61
888.334	17833.37
888.651	17764.9
888.967	17735.07
889.284	17775.75
889.6	17611.68
889.917	17625.24
890.233	17577.56
890.55	17516.77
890.866	17531.91
891.182	17465.02
891.498	17356.1
891.815	17222.99
892.131	17198.81
892.447	17290.34
892.763	17173.28
893.079	17175.31
893.395	17086.05
893.71	17077.69
894.026	16884.92
894.342	16960.18
894.657	16822.55
894.973	16821.42
895.289	16853.96
895.604	16695.1
895.92	16633.4
896.235	16655.32
896.55	16582.78
896.865	16511.37
897.181	16552.73
897.496	16434.54
897.811	16369.68
898.126	16312.51
898.441	16242.68
898.756	16185.28
899.071	16145.73
899.386	16166.3
899.7	15991.61
900.015	15854.67
900.33	15808.12
900.644	15792.97
900.959	15826.42
901.273	15677.27
901.588	15692.19
901.902	15590.95
902.216	15583.04
902.531	15526.54
902.845	15470.5
903.159	15325.64
903.473	15367.68
903.787	15293.78
904.101	15137.85
904.415	15257.62
904.729	15192.76
905.042	15052.2
905.356	15062.15
905.67	14975.59
905.984	15023.05
906.297	14910.51
906.611	14706
906.924	14732.89
907.237	14746.22
907.551	14659.9
907.864	14560.01
908.177	14591.2
908.491	14472.11
908.804	14364.99
909.117	14381.49
909.43	14212
909.743	14178.1
910.056	14148.72
910.368	14143.75
910.681	14147.14
910.994	14057.43
911.307	13931.33
911.619	13729.3
911.932	13884.78
912.244	13647.04
912.557	13708.06
912.869	13685.91
913.181	13593.26
913.494	13587.38
913.806	13501.28
914.118	13454.96
914.43	13301.97
914.742	13402.53
915.054	13248.18
915.366	13246.6
915.678	13199.14
915.99	13097.23
916.302	13047.28
916.613	12941.98
916.925	12951.69
917.236	12868.98
917.548	12824.92
917.859	12841.41
918.171	12713.06
918.482	12627.41
918.794	12645.71
919.105	12619.05
919.416	12467.64
919.727	12526.39
920.038	12472.16
920.349	12348.32
920.66	12269.9
920.971	12304.48
921.282	12277.13
921.593	12135.67
921.903	11984.26
922.214	12113.07
922.525	11955.56
922.835	11976.8
923.146	11912.17
923.456	11801.44
923.767	11808.67
924.077	11752.4
924.387	11710.6
924.697	11628.79
925.008	11660.88
925.318	11540.21
925.628	11545.63
925.938	11513.09
926.248	11357.38
926.558	11315.13
926.867	11274
927.177	11195.81
927.487	11184.73
927.796	11232.42
928.106	11091.63
928.416	11027.22
928.725	10968.24
929.034	10925.53
929.344	11041.46
929.653	10930.28
929.962	10843.95
930.271	10770.06
930.581	10705.42
930.89	10705.65
931.199	10584.3
931.508	10579.33
931.817	10509.5
932.125	10485.32
932.434	10412.55
932.743	10248.04
933.051	10326.45
933.36	10309.5
933.669	10233.12
933.977	10202.61
934.286	10179.11
934.594	10107.93
934.902	10020.92
935.21	9997.42
935.519	9951.77
935.827	9988.38
936.135	9847.82
936.443	9782.51
936.751	9780.93
937.059	9715.85
937.367	9756.07
937.674	9655.96
937.982	9645.11
938.29	9647.37
938.597	9542.52
938.905	9474.72
939.213	9408.28
939.52	9376.87
939.827	9499.81
940.135	9373.48
940.442	9274.05
940.749	9242.41
941.056	9292.35
941.363	9158.8
941.67	9067.95
941.977	9041.29
942.284	9113.83
942.591	9088.74
942.898	8992.02
943.205	8957
943.511	8935.08
943.818	8850.56
944.125	8793.38
944.431	8775.31
944.738	8717.45
945.044	8702.99
945.35	8662.54
945.657	8629.1
945.963	8580.28
946.269	8541.19
946.575	8615.76
946.881	8521.08
947.187	8385.71
947.493	8410.12
947.799	8377.58
948.105	8367.86
948.41	8293.74
948.716	8328.31
949.022	8280.86
949.327	8192.95
949.633	8058.26
949.938	8125.15
950.244	8100.3
950.549	8064.14
950.854	7937.59
951.16	7967.19
951.465	7980.75
951.77	7930.81
952.075	7833.41
952.38	7800.42
952.685	7803.58
952.99	7769.68
953.294	7725.84
953.599	7683.58
953.904	7636.58
954.209	7514.55
954.513	7601.1
954.818	7534.66
955.122	7581.21
955.426	7538.95
955.731	7475.45
956.035	7432.29
956.339	7383.7
956.643	7329.02
956.948	7312.97
957.252	7275.46
957.556	7285.4
957.86	7186.65
958.163	7230.49
958.467	7166.99
958.771	7168.34
959.075	7061.68
959.378	7027.1
959.682	7071.17
959.985	6945.52
960.289	6981.91
960.592	6949.82
960.896	6903.26
961.199	6810.16
961.502	6896.94
961.805	6824.17
962.108	6755.02
962.411	6756.15
962.714	6656.49
963.017	6670.05
963.32	6681.58
963.623	6583.5
963.926	6557.06
964.228	6583.73
964.531	6554.35
964.833	6542.14
965.136	6490.39
965.438	6444.52
965.741	6392.54
966.043	6402.04
966.345	6367.46
966.648	6318.2
966.95	6324.52
967.252	6264.64
967.554	6296.73
967.856	6284.75
968.158	6219.22
968.46	6157.75
968.761	6149.16
969.063	6108.71
969.365	6150.97
969.666	6075.49
969.968	6033.91
970.269	6013.8
970.571	6009.5
970.872	5984.42
971.174	5917.53
971.475	5908.71
971.776	5885.44
972.077	5835.5
972.378	5816.97
972.679	5816.29
972.98	5799.11
973.281	5739.91
973.582	5680.25
973.883	5691.55
974.183	5699.23
974.484	5628.5
974.785	5639.57
975.085	5580.81
975.386	5637.08
975.686	5562.74
975.986	5495.17
976.287	5487.93
976.587	5451.55
976.887	5435.73
977.187	5410.65
977.487	5418.11
977.787	5380.37
978.087	5330.65
978.387	5282.74
978.687	5302.85
978.987	5317.09
979.286	5243.42
979.586	5239.58
979.885	5192.58
980.185	5205
980.484	5139.02
980.784	5097.44
981.083	5111.22
981.382	5098.34
981.682	5068.06
981.981	5016.53
982.28	5004.78
982.579	4939.02
982.878	4957.78
983.177	4954.62
983.475	4878.46
983.774	4874.17
984.073	4873.26
984.372	4827.39
984.67	4824
984.969	4818.8
985.267	4777.22
985.566	4757.56
985.864	4725.02
986.162	4671.23
986.461	4676.88
986.759	4640.05
987.057	4619.03
987.355	4572.48
987.653	4564.8
987.951	4574.06
988.249	4563.21
988.547	4504.68
988.844	4486.38
989.142	4521.86
989.44	4476.44
989.737	4455.19
990.035	4425.36
990.332	4416.32
990.63	4417.23
990.927	4354.41
991.224	4370.68
991.521	4337
991.819	4278.02
992.116	4262.66
992.413	4226.27
992.71	4232.6
993.006	4190.12
993.303	4248.19
993.6	4192.38
993.897	4183.11
994.193	4167.07
994.49	4075.77
994.787	4091.14
995.083	4066.05
995.379	4054.75
995.676	4057.24
995.972	4068.54
996.268	3981.99
996.565	3970.46
996.861	3915.09
997.157	3942.66
997.453	3906.51
997.749	3855.89
998.044	3876.45
998.34	3816.11
998.636	3812.95
998.932	3779.05
999.227	3743.57
999.523	3724.59
999.818	3718.72
1000.114	3708.55
1000.409	3694.76
1000.704	3698.38
1001	3661.54
1001.295	3650.02
1001.59	3601.2
1001.885	3634.65
1002.18	3600.98
1002.475	3558.72
1002.77	3549.91
1003.065	3507.42
1003.359	3518.04
1003.654	3490.7
1003.949	3430.81
1004.243	3422.9
1004.538	3403.7
1004.832	3363.24
1005.127	3378.61
1005.421	3346.75
1005.715	3338.16
1006.009	3306.52
1006.304	3279.41
1006.598	3295.22
1006.892	3276.47
1007.186	3217.26
1007.48	3241.21
1007.773	3149.01
1008.067	3152.63
1008.361	3128.9
1008.655	3145.62
1008.948	3109.24
1009.242	3125.74
1009.535	3086.64
1009.829	3083.48
1010.122	3046.42
1010.415	3054.78
1010.708	3006.42
1011.001	2960.32
1011.295	2940.88
1011.588	2931.17
1011.881	2942.92
1012.173	2898.85
1012.466	2882.58
1012.759	2888.23
1013.052	2891.84
1013.344	2869.92
1013.637	2828.34
1013.93	2828.8
1014.222	2814.11
1014.514	2764.84
1014.807	2730.27
1015.099	2712.64
1015.391	2734.11
1015.683	2697.95
1015.976	2711.74
1016.268	2704.28
1016.56	2605.07
1016.851	2620.89
1017.143	2617.28
1017.435	2600.55
1017.727	2585.86
1018.018	2574.79
1018.31	2529.14
1018.602	2522.59
1018.893	2528.24
1019.185	2471.06
1019.476	2463.61
1019.767	2440.33
1020.058	2419.31
1020.35	2431.52
1020.641	2411.63
1020.932	2404.85
1021.223	2399.2
1021.514	2385.87
1021.804	2309.71
1022.095	2313.55
1022.386	2305.65
1022.677	2282.14
1022.967	2260.22
1023.258	2255.93
1023.548	2243.95
1023.839	2244.63
1024.129	2178.87
1024.419	2211.64
1024.709	2198.08
1025	2206.21
1025.29	2152.88
1025.58	2136.38
1025.87	2109.27
1026.16	2089.38
1026.449	2087.57
1026.739	2076.95
1027.029	2050.06
1027.319	2033.11
1027.608	2007.57
1027.898	2013.68
1028.187	2027.01
1028.477	1986.78
1028.766	1979.1
1029.055	1950.85
1029.344	1949.95
1029.634	1940.01
1029.923	1931.19
1030.212	1917.63
1030.501	1884.64
1030.79	1866.11
1031.078	1851.42
1031.367	1832.66
1031.656	1814.81
1031.945	1812.78
1032.233	1801.03
1032.522	1766.68
1032.81	1796.73
1033.099	1762.61
1033.387	1747.02
1033.675	1745.43
1033.963	1725.55
1034.251	1715.6
1034.54	1682.61
1034.828	1696.85
1035.116	1665.44
1035.403	1679.9
1035.691	1655.04
1035.979	1623.86
1036.267	1641.93
1036.554	1615.72
1036.842	1617.53
1037.129	1607.81
1037.417	1580.92
1037.704	1593.35
1037.992	1549.73
1038.279	1568.72
1038.566	1539.11
1038.853	1539.11
1039.14	1539.11
