Data from 18-1248_FLMS001491_010.txt Node
Date: Thu Apr 19 16:24:46 BST 2018
User: hsy
Spectrometer: FLMS00149
Trigger mode: 0
Integration Time (sec): 1.000000E-2
Scans to average: 10
Electric dark correction enabled: true
Nonlinearity correction enabled: false
Boxcar width: 0
XAxis mode: Wavelengths
Number of Pixels in Spectrum: 2048
>>>>>Begin Spectral Data<<<<<
341.393	-4.87
341.776	-4.87
342.16	-4.87
342.543	-60.24
342.927	-54.59
343.31	-72.44
343.693	-70.18
344.077	-95.72
344.46	-48.04
344.843	-52.78
345.226	-30.41
345.61	-42.61
345.993	-32.67
346.376	-2.16
346.759	12.08
347.142	21.79
347.525	56.82
347.908	62.24
348.291	84.16
348.674	96.14
349.057	113.77
349.44	139.3
349.823	139.08
350.206	167.55
350.588	210.26
350.971	210.49
351.354	227.66
351.737	262.69
352.119	258.62
352.502	274.44
352.884	302.46
353.267	287.77
353.65	307.21
354.032	324.16
354.414	331.62
354.797	331.62
355.179	326.87
355.562	331.16
355.944	343.82
356.326	348.11
356.709	358.06
357.091	355.34
357.473	365.74
357.855	339.98
358.238	363.48
358.62	349.02
359.002	361.22
359.384	349.92
359.766	352.18
360.148	351.28
360.53	359.19
360.912	353.31
361.294	352.18
361.676	354.21
362.057	337.94
362.439	347.66
362.821	364.84
363.203	345.85
363.584	347.21
363.966	363.93
364.348	348.56
364.729	343.14
365.111	332.52
365.493	346.08
365.874	331.84
366.256	336.81
366.637	331.39
367.019	335.91
367.4	345.4
367.781	323.25
368.163	334.55
368.544	332.29
368.925	325.29
369.306	339.75
369.688	339.07
370.069	337.27
370.45	321.45
370.831	320.99
371.212	324.38
371.593	327.55
371.974	344.95
372.355	343.59
372.736	344.04
373.117	335.01
373.498	325.29
373.879	314.44
374.26	352.63
374.641	328
375.021	324.84
375.402	335.46
375.783	346.76
376.163	345.4
376.544	367.09
376.925	350.37
377.305	346.53
377.686	350.6
378.066	345.4
378.447	356.93
378.827	360.09
379.208	361.67
379.588	345.63
379.968	349.69
380.349	342.69
380.729	364.16
381.109	372.74
381.489	361.22
381.87	353.76
382.25	359.64
382.63	370.26
383.01	370.71
383.39	365.29
383.77	353.54
384.15	379.98
384.53	361.45
384.91	383.37
385.29	392.86
385.67	339.75
386.049	382.24
386.429	374.33
386.809	397.83
387.189	377.94
387.568	380.65
387.948	387.89
388.328	380.65
388.707	384.72
389.087	380.65
389.466	396.02
389.846	395.12
390.225	400.09
390.605	385.63
390.984	405.06
391.363	386.3
391.743	384.04
392.122	402.35
392.501	416.13
392.881	418.84
393.26	405.06
393.639	398.96
394.018	410.48
394.397	419.75
394.776	415.91
395.155	405.74
395.534	406.19
395.913	438.51
396.292	411.84
396.671	416.36
397.05	429.01
397.429	414.1
397.808	427.66
398.186	413.2
398.565	429.92
398.944	434.44
399.323	437.15
399.701	451.39
400.08	405.74
400.458	451.16
400.837	432.63
401.215	425.85
401.594	446.64
401.972	457.49
402.351	447.32
402.729	456.36
403.107	442.8
403.486	463.14
403.864	441.22
404.242	441.67
404.62	442.8
404.999	433.76
405.377	441.67
405.755	445.28
406.133	474.66
406.511	456.58
406.889	470.59
407.267	483.25
407.645	479.63
408.023	479.86
408.401	468.56
408.779	451.61
409.156	462.69
409.534	478.96
409.912	501.33
410.29	479.18
410.667	502.01
411.045	512.85
411.422	503.36
411.8	503.59
412.178	512.4
412.555	511.05
412.933	520.31
413.31	534.55
413.687	519.41
414.065	530.03
414.442	548.56
414.819	541.55
415.197	549.24
415.574	539.29
415.951	554.21
416.328	535
416.705	572.51
417.082	555.56
417.46	560.08
417.837	577.26
418.214	575
418.591	569.8
418.967	570.03
419.344	579.29
419.721	575.22
420.098	580.65
420.475	584.49
420.852	607.54
421.228	579.97
421.605	577.71
421.982	592.4
422.358	596.92
422.735	594.43
423.111	587.2
423.488	605.05
423.864	608.67
424.241	633.3
424.617	625.39
424.994	618.16
425.37	629.69
425.746	629.01
426.123	644.83
426.499	650.48
426.875	650.7
427.251	652.29
427.627	652.51
428.003	665.39
428.379	652.06
428.756	693.19
429.132	670.14
429.507	688.67
429.883	681.66
430.259	685.96
430.635	690.48
431.011	690.25
431.387	685.96
431.763	708.33
432.138	721.21
432.514	751.72
432.89	749.46
433.265	748.55
433.641	748.55
434.016	729.12
434.392	740.87
434.767	757.14
435.143	773.41
435.518	784.49
435.894	793.07
436.269	794.43
436.644	804.82
437.02	783.81
437.395	783.13
437.77	782
438.145	824.71
438.52	801.43
438.895	811.83
439.271	849.79
439.646	843.47
440.021	847.76
440.395	838.72
440.77	806.18
441.145	830.36
441.52	847.76
441.895	847.99
442.27	858.83
442.645	864.26
443.019	873.3
443.394	874.65
443.769	873.97
444.143	861.32
444.518	876.69
444.892	863.8
445.267	882.11
445.641	882.34
446.016	897.93
446.39	925.5
446.764	939.51
447.139	897.25
447.513	920.53
447.887	903.58
448.262	901.09
448.636	932.28
449.01	934.99
449.384	930.92
449.758	942
450.132	964.82
450.506	965.5
450.88	961.66
451.254	977.7
451.628	974.08
452.002	980.64
452.376	985.16
452.75	1009.11
453.123	1003.24
453.497	1020.19
453.871	1022.67
454.244	1039.39
454.618	1038.26
454.992	1069.22
455.365	1059.73
455.739	1073.97
456.112	1038.49
456.486	1093.18
456.859	1114.19
457.232	1125.72
457.606	1130.46
457.979	1138.37
458.352	1144.48
458.725	1163.68
459.099	1137.02
459.472	1144.25
459.845	1186.06
460.218	1193.74
460.591	1195.77
460.964	1217.47
461.337	1244.36
461.71	1262.21
462.083	1290.01
462.456	1247.52
462.829	1261.08
463.201	1285.04
463.574	1255.66
463.947	1296.79
464.32	1332.95
464.692	1354.64
465.065	1333.4
465.438	1370.01
465.81	1357.58
466.183	1354.41
466.555	1388.76
466.928	1419.5
467.3	1395.32
467.672	1417.69
468.045	1439.38
468.417	1440.29
468.789	1465.37
469.161	1480.06
469.534	1508.76
469.906	1468.08
470.278	1514.86
470.65	1545.82
471.022	1541.98
471.394	1586.05
471.766	1590.11
472.138	1607.29
472.51	1660.62
472.882	1653.39
473.253	1654.29
473.625	1682.31
473.997	1705.14
474.369	1714.63
474.74	1734.97
475.112	1749.21
475.484	1801.41
475.855	1817.9
476.227	1802.09
476.598	1851.12
476.97	1867.39
477.341	1948.07
477.713	1946.49
478.084	1986.49
478.455	1981.97
478.827	2034.85
479.198	2076.65
479.569	2074.85
479.94	2075.52
480.311	2124.11
480.682	2201.17
481.053	2216.09
481.424	2242.3
481.795	2304.67
482.166	2302.19
482.537	2362.75
482.908	2404.33
483.279	2416.53
483.65	2441.16
484.021	2488.4
484.391	2522.07
484.762	2592.12
485.133	2572.91
485.503	2635.06
485.874	2698.33
486.244	2705.79
486.615	2762.06
486.985	2788.05
487.356	2845
487.726	2888.38
488.097	2935.16
488.467	2974.48
488.837	3014.93
489.207	3077.53
489.578	3122.95
489.948	3156.63
490.318	3227.81
490.688	3231.88
491.058	3315.94
491.428	3313.01
491.798	3333.57
492.168	3424.19
492.538	3479.56
492.908	3509.16
493.278	3531.31
493.648	3595.48
494.017	3663.28
494.387	3685.88
494.757	3701.24
495.126	3763.84
495.496	3802.03
495.866	3852.88
496.235	3925.19
496.605	3961.8
496.974	3952.99
497.344	4014.91
497.713	4055.81
498.082	4097.84
498.452	4135.36
498.821	4203.38
499.19	4192.76
499.559	4265.07
499.928	4279.31
500.298	4330.15
500.667	4379.87
501.036	4413.77
501.405	4463.26
501.774	4436.37
502.143	4552.75
502.512	4573.99
502.88	4611.96
503.249	4650.15
503.618	4680.65
503.987	4742.35
504.356	4773.31
504.724	4797.03
505.093	4813.76
505.462	4850.37
505.83	4876.35
506.199	4920.42
506.567	5000.42
506.936	5020.31
507.304	5109.57
507.672	5107.76
508.041	5136.24
508.409	5190.47
508.777	5242.9
509.145	5272.05
509.514	5289.23
509.882	5325.61
510.25	5347.08
510.618	5401.09
510.986	5385.04
511.354	5430.24
511.722	5518.6
512.09	5530.12
512.458	5595.21
512.826	5613.74
513.193	5682.66
513.561	5660.74
513.929	5761.08
514.297	5792.49
514.664	5815.54
515.032	5838.36
515.4	5883.56
515.767	5944.12
516.135	5948.19
516.502	5935.31
516.869	6008.08
517.237	6053.05
517.604	6082.88
517.972	6152.25
518.339	6222.31
518.706	6246.94
519.073	6281.74
519.44	6325.81
519.808	6355.64
520.175	6426.14
520.542	6459.59
520.909	6515.86
521.276	6484.67
521.643	6516.09
522.009	6637.66
522.376	6684.67
522.743	6708.85
523.11	6810.77
523.477	6882.4
523.843	6928.5
524.21	7008.73
524.577	7024.32
524.943	7060.48
525.31	7129.4
525.676	7190.19
526.043	7241.04
526.409	7247.14
526.776	7413.24
527.142	7416.18
527.508	7490.52
527.874	7542.73
528.241	7554.48
528.607	7599.9
528.973	7676.06
529.339	7688.71
529.705	7826.33
530.071	7849.61
530.437	7909.27
530.803	7981.13
531.169	8021.58
531.535	8041.7
531.901	8065.42
532.267	8108.81
532.632	8165.76
532.998	8220.45
533.364	8290.5
533.73	8320.33
534.095	8381.12
534.461	8404.62
534.826	8476.49
535.192	8497.73
535.557	8555.13
535.923	8536.6
536.288	8614.11
536.653	8632.19
537.019	8676.03
537.384	8704.95
537.749	8779.53
538.114	8743.37
538.479	8749.7
538.845	8791.51
539.21	8844.84
539.575	8913.76
539.94	8923.48
540.305	8997.83
540.67	9011.16
541.034	9037.6
541.399	9066.98
541.764	9061.1
542.129	9148.11
542.494	9165.28
542.858	9200.99
543.223	9193.98
543.587	9167.32
543.952	9272.17
544.316	9305.84
544.681	9319.4
545.045	9382.68
545.41	9343.13
545.774	9400.98
546.138	9466.52
546.503	9473.3
546.867	9497.02
547.231	9617.25
547.595	9553.75
547.959	9596.23
548.324	9635.78
548.688	9693.18
549.052	9679.62
549.416	9653.18
549.779	9706.28
550.143	9763.68
550.507	9821.08
550.871	9827.41
551.235	9794.87
551.599	9895.21
551.962	9900.18
552.326	9964.36
552.689	9980.18
553.053	9953.96
553.417	10046.16
553.78	10083.68
554.143	10146.5
554.507	10158.02
554.87	10143.33
555.234	10280.28
555.597	10259.72
555.96	10242.77
556.323	10323.9
556.686	10385.59
557.05	10407.28
557.413	10537.9
557.776	10513.72
558.139	10524.12
558.502	10621.51
558.865	10625.36
559.228	10653.38
559.59	10746.93
559.953	10689.99
560.316	10828.74
560.679	10858.12
561.041	10905.57
561.404	11008.17
561.767	11060.6
562.129	11071.9
562.492	11176.53
562.854	11206.58
563.217	11155.51
563.579	11253.14
563.941	11297.43
564.304	11464.43
564.666	11510.08
565.028	11511.66
565.39	11573.35
565.753	11664.2
566.115	11702.16
566.477	11784.2
566.839	11844.76
567.201	11924.31
567.563	11972.89
567.925	12015.15
568.287	12106
568.648	12107.35
569.01	12258.76
569.372	12326.55
569.734	12358.64
570.095	12486.55
570.457	12555.02
570.819	12616.26
571.18	12618.07
571.542	12663.95
571.903	12750.05
572.265	12836.6
572.626	12955.01
572.987	13026.65
573.349	13067.78
573.71	13130.6
574.071	13148.45
574.432	13224.38
574.794	13385.28
575.155	13472.96
575.516	13430.03
575.877	13507.99
576.238	13519.29
576.599	13629.8
576.96	13749.34
577.32	13760.64
577.681	13879.06
578.042	13892.61
578.403	13921.31
578.763	14008.77
579.124	14036.34
579.485	14237.46
579.845	14356.33
580.206	14170.8
580.566	14284.02
580.927	14422.77
581.287	14447.4
581.648	14507.06
582.008	14543.22
582.368	14638.58
582.728	14793.16
583.089	14757.22
583.449	14903.21
583.809	14974.39
584.169	15020.04
584.529	15091.68
584.889	15301.39
585.249	15235.86
585.609	15221.17
585.969	15402.63
586.329	15437.66
586.688	15579.35
587.048	15728.5
587.408	15802.85
587.768	15863.64
588.127	16004.88
588.487	16108.15
588.846	16368.03
589.206	16257.3
589.565	16417.97
589.925	16668.36
590.284	16749.04
590.643	16890.5
591.003	17020.44
591.362	17233.77
591.721	17454.1
592.08	17489.13
592.44	17720.31
592.799	17863.81
593.158	18058.61
593.517	18158.04
593.876	18436.68
594.235	18537.24
594.593	18578.37
594.952	18824.01
595.311	19023.78
595.67	19077.11
596.029	19398.68
596.387	19561.39
596.746	19721.61
597.104	19753.93
597.463	19974.94
597.822	20183.75
598.18	20376.96
598.538	20521.82
598.897	20792.77
599.255	20731.08
599.613	21199.54
599.972	21129.94
600.33	21315.47
600.688	21429.82
601.046	21679.08
601.404	22034.55
601.762	22145.73
602.12	22263.47
602.478	22463.24
602.836	22636.34
603.194	22613.06
603.552	22790.69
603.91	22985.48
604.268	23189.77
604.625	23355.87
604.983	23639.7
605.341	23603.09
605.698	23869.98
606.056	24216.64
606.413	24139.58
606.771	24486.01
607.128	24543.86
607.485	24738.66
607.843	24877.64
608.2	25108.14
608.557	25299.09
608.914	25351.3
609.272	25590.39
609.629	25774.79
609.986	25948.8
610.343	26052.97
610.7	26316.47
611.057	26371.61
611.414	26439.4
611.771	26666.29
612.127	26895.66
612.484	26892.73
612.841	27097.92
613.198	27162.55
613.554	27209.55
613.911	27470.34
614.267	27620.62
614.624	27628.3
614.98	27815.86
615.337	28193.48
615.693	28138.34
616.05	28285.68
616.406	28351.44
616.762	28522.29
617.118	28515.96
617.475	28601.15
617.831	28824.2
618.187	28815.39
618.543	29013.35
618.899	29334.69
619.255	29225.09
619.611	29327.69
619.967	29479.32
620.323	29614.24
620.678	29538.31
621.034	29612.2
621.39	29690.17
621.746	29869.6
622.101	30217.38
622.457	29966.54
622.812	30169.48
623.168	30298.29
623.523	30240.89
623.879	30291.05
624.234	30314.1
624.589	30391.39
624.945	30491.27
625.3	30581.22
625.655	30669.12
626.01	30616.02
626.365	30768.56
626.72	30777.37
627.075	30657.6
627.43	30735.34
627.785	30793.41
628.14	30772.62
628.495	30910.02
628.85	30946.63
629.205	30787.99
629.559	30933.97
629.914	30925.39
630.269	30841.55
630.623	30839.74
630.978	30776.24
631.332	30968.32
631.687	30927.65
632.041	30976.01
632.396	31002.22
632.75	30893.3
633.104	30990.47
633.459	30783.24
633.813	30885.16
634.167	30877.25
634.521	30764.26
634.875	30956.57
635.229	30921.09
635.583	30775.11
635.937	30833.86
636.291	30709.12
636.645	30778.5
636.999	30693.08
637.352	30800.64
637.706	30608.56
638.06	30827.99
638.413	30639.52
638.767	30487.43
639.121	30608.79
639.474	30502.57
639.828	30595.45
640.181	30506.42
640.534	30685.85
640.888	30360.88
641.241	30379.64
641.594	30393.88
641.947	30500.77
642.301	30451.73
642.654	30426.87
643.007	30259.19
643.36	30413.76
643.713	30261.22
644.066	30576.47
644.419	30337.61
644.771	30007.67
645.124	29732.88
645.477	29791.86
645.83	29467.57
646.182	29627.12
646.535	29572.65
646.888	29734.01
647.24	29551.41
647.593	29825.3
647.945	29621.69
648.298	29382.6
648.65	29366.56
649.002	29174.7
649.355	29061.48
649.707	29105.55
650.059	28922.05
650.411	29445.2
650.763	29722.03
651.115	30032.3
651.467	29993.21
651.819	29902.59
652.171	29857.62
652.523	29872.76
652.875	29862.14
653.227	29869.82
653.578	30017.39
653.93	29911.63
654.282	29801.35
654.633	29762.25
654.985	29983.27
655.337	29777.4
655.688	29801.58
656.039	29834.57
656.391	29692.43
656.742	29886.77
657.094	29792.54
657.445	29772.65
657.796	29747.11
658.147	29855.13
658.498	29837.96
658.849	29991.4
659.2	29842.25
659.551	29696.72
659.902	29904.17
660.253	29805.19
660.604	29902.36
660.955	29809.48
661.306	30012.87
661.656	29710.73
662.007	29882.48
662.358	29928.13
662.708	29844.51
663.059	29875.92
663.409	29703.27
663.76	29916.15
664.11	29874.57
664.461	29816.04
664.811	29851.97
665.161	29807.45
665.511	29828.92
665.862	29814.68
666.212	29852.65
666.562	29872.53
666.912	29795.7
667.262	29701.24
667.612	29793.21
667.962	29715.48
668.312	29681.13
668.662	29996.37
669.011	29840.44
669.361	29776.49
669.711	29801.58
670.06	29789.37
670.41	29650.39
670.76	29691.75
671.109	29758.64
671.459	29736.94
671.808	29639.09
672.157	29910.05
672.507	29640.45
672.856	29643.39
673.205	29630.73
673.554	29765.42
673.904	29571.3
674.253	29783.95
674.602	29658.53
674.951	29243.62
675.3	29109.16
675.649	29640.22
675.998	29568.81
676.346	29631.64
676.695	29616.72
677.044	29481.36
677.393	29588.93
677.741	29654.46
678.09	29531.53
678.438	29434.35
678.787	29387.8
679.135	29478.42
679.484	29178.31
679.832	29253.12
680.181	29217.18
680.529	29257.41
680.877	29127.92
681.225	29209.95
681.573	29450.85
681.922	29210.18
682.27	29082.95
682.618	29043.85
682.966	28951.65
683.314	29104.64
683.661	28985.78
684.009	28939
684.357	28866.68
684.705	28709.63
685.053	28871.43
685.4	28752.11
685.748	28732
686.095	28711.66
686.443	28475.28
686.79	28527.48
687.138	28592.12
687.485	28510.08
687.832	28280.94
688.18	28449.07
688.527	28303.08
688.874	28358.68
689.221	28242.97
689.568	28186.48
689.915	27956.43
690.262	28118.46
690.609	28028.74
690.956	28004.79
691.303	27975.18
691.65	27723.21
691.997	27636.21
692.344	27584.91
692.69	27461.3
693.037	27485.7
693.383	27299.95
693.73	27327.97
694.077	27222.21
694.423	27186.05
694.769	27103.79
695.116	27008.2
695.462	26944.7
695.808	26842.1
696.155	26784.48
696.501	26648.44
696.847	26656.57
697.193	26534.99
697.539	26590.59
697.885	26362.12
698.231	26251.16
698.577	26246.64
698.923	26142.24
699.269	26023.37
699.614	25970.72
699.96	25856.82
700.306	25862.7
700.651	25798.29
700.997	25646.66
701.342	25621.12
701.688	25528.92
702.033	25469.71
702.379	25399.66
702.724	25276.95
703.069	25166.89
703.415	24878.99
703.76	25039.44
704.105	25008.03
704.45	24948.37
704.795	24639.9
705.14	24725.78
705.485	24760.35
705.83	24595.61
706.175	24705.89
706.52	24560.58
706.865	24376.86
707.209	24290.76
707.554	24279.46
707.899	24302.51
708.243	24256.86
708.588	24044.21
708.932	23951.79
709.277	23970.54
709.621	23898.91
709.966	23686.26
710.31	23771.9
710.654	23565.13
710.998	23669.08
711.342	23677.44
711.687	23435.19
712.031	23489.42
712.375	23392.48
712.719	23277
713.063	23240.17
713.407	23380.28
713.75	23252.82
714.094	23211.24
714.438	23111.81
714.782	23150.9
715.125	22968.99
715.469	23128.76
715.812	22899.38
716.156	22732.38
716.499	22880.85
716.843	22950.23
717.186	22731.93
717.53	22836.33
717.873	22750.91
718.216	22783.91
718.559	22730.8
718.902	22598.83
719.246	22659.62
719.589	22574.65
719.932	22499.62
720.275	22471.82
720.617	22496.46
720.96	22432.05
721.303	22460.75
721.646	22550.47
721.989	22206.97
722.331	22476.57
722.674	22416.68
723.016	22340.08
723.359	22301.66
723.701	22350.47
724.044	22313.41
724.386	22083.81
724.729	22301.43
725.071	22290.36
725.413	22262.11
725.755	22280.64
726.097	22280.87
726.439	22141.21
726.782	22136.47
727.124	22174.21
727.465	22203.58
727.807	22110.48
728.149	22199.29
728.491	22086.98
728.833	22201.77
729.175	22150.7
729.516	22106.64
729.858	22058.28
730.199	22159.52
730.541	22110.93
730.882	22140.08
731.224	22124.94
731.565	22067.77
731.906	22172.17
732.248	22148.44
732.589	22137.82
732.93	22049.01
733.271	22136.47
733.612	22112.96
733.953	22192.74
734.294	22112.96
734.635	22047.43
734.976	22170.36
735.317	22272.73
735.658	22079.74
735.999	22044.27
736.339	22126.07
736.68	22125.84
737.021	22222.57
737.361	22176.92
737.702	22384.37
738.042	22278.16
738.383	22283.81
738.723	22381.21
739.063	22234.77
739.404	22423.46
739.744	22391.83
740.084	22419.4
740.424	22482.45
740.764	22377.14
741.104	22484.93
741.444	22616.91
741.784	22449.23
742.124	22587.08
742.464	22587.3
742.804	22666.85
743.143	22721.54
743.483	22742.1
743.823	22581.88
744.162	22796.79
744.502	22844.47
744.841	22831.81
745.181	22948.2
745.52	22917.91
745.86	22916.78
746.199	23004.69
746.538	23138.93
746.877	23120.39
747.216	23249.88
747.556	23155.42
747.895	23343.89
748.234	23381.4
748.573	23358.13
748.911	23425.25
749.25	23507.05
749.589	23571.46
749.928	23738.01
750.267	23898.91
750.605	23827.04
750.944	23947.72
751.283	23929.41
751.621	24125.79
751.96	24022.29
752.298	24137.32
752.636	24211.44
752.975	24335.96
753.313	24322.17
753.651	24511.09
753.989	24554.03
754.327	24590.41
754.666	24548.38
755.004	24821.37
755.342	24848.03
755.679	24914.25
756.017	24793.35
756.355	25145.65
756.693	24992.89
757.031	25217.97
757.368	25169.15
757.706	25194.46
758.044	25295.93
758.381	25348.58
758.719	25441.92
759.056	25449.37
759.394	25467.45
759.731	25418.64
760.068	25529.15
760.405	25612.98
760.743	25579.09
761.08	25759.87
761.417	25719.87
761.754	25667.45
762.091	25773.21
762.428	25761.46
762.765	25760.78
763.102	25855.92
763.438	25875.58
763.775	25743.83
764.112	25918.06
764.449	25824.73
764.785	25847.1
765.122	25875.12
765.458	25834.67
765.795	25863.83
766.131	25893.88
766.467	25871.28
766.804	25816.37
767.14	25810.72
767.476	25765.07
767.812	25725.07
768.148	25836.71
768.485	25733.89
768.821	25713.1
769.157	25648.01
769.492	25705.86
769.828	25614.34
770.164	25443.72
770.5	25588.58
770.836	25608.69
771.171	25498.41
771.507	25588.35
771.842	25320.79
772.178	25411.18
772.513	25241.47
772.849	25258.19
773.184	25253.67
773.519	25254.8
773.855	25196.72
774.19	25140.68
774.525	24974.81
774.86	24998.31
775.195	24968.03
775.53	24974.13
775.865	24836.06
776.2	24735.49
776.535	24576.4
776.87	24695.95
777.205	24521.71
777.539	24500.25
777.874	24387.93
778.209	24263.19
778.543	24251.66
778.878	24141.61
779.212	24220.03
779.547	24007.15
779.881	24075.62
780.215	23870.88
780.55	23967.15
780.884	23775.97
781.218	23609.87
781.552	23834.5
781.886	23631.79
782.22	23524.9
782.554	23404.23
782.888	23319.94
783.222	23222.99
783.556	23017.57
783.889	23081.07
784.223	23038.59
784.557	22878.59
784.89	23054.63
785.224	22876.11
785.557	22723.12
785.891	22769.67
786.224	22710.46
786.558	22596.79
786.891	22444.25
787.224	22386.4
787.557	22434.99
787.891	22277.25
788.224	22173.98
788.557	22137.6
788.89	22146.18
789.223	22159.06
789.556	21921.33
789.888	21838.62
790.221	21869.35
790.554	21728.79
790.887	21723.6
791.219	21537.39
791.552	21641.11
791.884	21559.53
792.217	21465.07
792.549	21349.37
792.882	21314.79
793.214	21162.25
793.546	21238.64
793.879	21106.66
794.211	20869.61
794.543	20915.26
794.875	20948.25
795.207	20975.14
795.539	20893.11
795.871	20895.82
796.203	20683.85
796.535	20500.35
796.867	20581.03
797.198	20407.02
797.53	20419.9
797.862	20296.97
798.193	20282.28
798.525	20141.26
798.856	20324.99
799.188	19972.46
799.519	20005.45
799.85	19960.03
800.182	19984.43
800.513	20026.24
800.844	19770.88
801.175	19866.92
801.506	19874.15
801.837	19701.5
802.168	19640.03
802.499	19710.54
802.83	19568.4
803.161	19444.11
803.491	19395.97
803.822	19446.82
804.153	19375.63
804.483	19217.9
804.814	19045.02
805.145	19152.36
805.475	19086.15
805.805	19209.76
806.136	19156.21
806.466	18957.11
806.796	19021.75
807.126	18881.18
807.457	18884.8
807.787	18871.92
808.117	18789.89
808.447	18842.99
808.777	18854.07
809.107	18606.84
809.436	18513.06
809.766	18674.86
810.096	18681.87
810.426	18506.05
810.755	18506.28
811.085	18401.42
811.414	18413.4
811.744	18315.1
812.073	18342.22
812.403	18258.15
812.732	18126.85
813.061	18252.95
813.39	18082.56
813.719	17992.62
814.049	18063.35
814.378	18024.71
814.707	17942.68
815.036	17970.47
815.365	17958.95
815.693	17673.08
816.022	17859.74
816.351	17760.99
816.68	17624.04
817.008	17751.27
817.337	17520.09
817.665	17539.75
817.994	17580.2
818.322	17564.61
818.651	17429.7
818.979	17461.33
819.307	17500.2
819.636	17404.16
819.964	17255.01
820.292	17438.51
820.62	17365.74
820.948	17432.41
821.276	17448.91
821.604	17368.68
821.932	17471.5
822.259	17302.92
822.587	17358.06
822.915	17265.41
823.243	17396.25
823.57	17300.89
823.898	17376.59
824.225	17338.85
824.553	17307.67
824.88	17389.25
825.207	17381.11
825.535	17341.34
825.862	17373.88
826.189	17265.63
826.516	17439.41
826.843	17471.05
827.17	17350.38
827.497	17396.48
827.824	17420.21
828.151	17331.39
828.478	17302.24
828.805	17548.34
829.131	17417.27
829.458	17444.61
829.785	17358.51
830.111	17317.16
830.438	17498.17
830.764	17388.79
831.09	17462.24
831.417	17327.1
831.743	17526.87
832.069	17397.61
832.395	17400.55
832.722	17430.38
833.048	17391.73
833.374	17431.73
833.7	17345.63
834.026	17377.72
834.351	17303.82
834.677	17233.54
835.003	17400.55
835.329	17313.99
835.654	17339.53
835.98	17180.44
836.306	17281.45
836.631	17229.93
836.956	17276.03
837.282	17278.06
837.607	17278.51
837.932	17172.53
838.258	17223.15
838.583	17155.13
838.908	17139.31
839.233	17061.35
839.558	16987.9
839.883	16980.67
840.208	16879.66
840.533	16946.55
840.858	16906.55
841.182	16941.57
841.507	16823.16
841.832	16782.03
842.156	16823.84
842.481	16831.07
842.805	16761.92
843.13	16782.03
843.454	16656.38
843.778	16631.75
844.103	16632.2
844.427	16579.78
844.751	16634.46
845.075	16522.15
845.399	16521.02
845.723	16460.23
846.047	16450.97
846.371	16338.65
846.695	16237.41
847.019	16200.8
847.343	16179.56
847.666	16118.77
847.99	15946.35
848.313	15988.38
848.637	15911.09
848.96	15925.78
849.284	15820.93
849.607	15699.8
849.931	15735.96
850.254	15606.69
850.577	15506.36
850.9	15356.08
851.223	15390.65
851.546	15349.07
851.869	15227.72
852.192	15394.72
852.515	15135.07
852.838	15078.35
853.161	15095.97
853.483	14987.05
853.806	14953.38
854.129	14943.21
854.451	14922.64
854.774	14855.98
855.096	14725.59
855.419	14771.69
855.741	14717.68
856.063	14634.06
856.385	14632.26
856.708	14531.02
857.03	14570.11
857.352	14465.26
857.674	14499.6
857.996	14314.98
858.318	14287.18
858.64	14292.6
858.961	14265.03
859.283	14189.56
859.605	14168.99
859.926	14168.09
860.248	14159.27
860.57	14037.92
860.891	14115.21
861.212	14001.99
861.534	13951.14
861.855	13976.91
862.176	13959.73
862.498	13907.98
862.819	13879.06
863.14	13863.46
863.461	13854.42
863.782	13838.83
864.103	13784.37
864.424	13691.26
864.745	13759.51
865.065	13632.06
865.386	13615.56
865.707	13624.6
866.027	13611.27
866.348	13564.04
866.668	13612.17
866.989	13614.88
867.309	13413.98
867.63	13475
867.95	13427.54
868.27	13417.6
868.59	13540.99
868.91	13442.01
869.23	13374.44
869.55	13322.01
869.87	13405.17
870.19	13234.1
870.51	13290.82
870.83	13306.87
871.15	13261.67
871.469	13170.37
871.789	13237.49
872.109	13177.15
872.428	13235.23
872.748	13150.71
873.067	13168.11
873.386	13178.51
873.706	13086.99
874.025	12966.54
874.344	13041.11
874.663	13062.58
874.982	13101
875.301	12977.84
875.62	13012.64
875.939	12917.73
876.258	12915.69
876.577	12879.53
876.896	12889.93
877.214	12917.05
877.533	12891.06
877.852	12844.28
878.17	12814.23
878.489	12823.04
878.807	12820.33
879.125	12732.42
879.444	12716.37
879.762	12702.59
880.08	12694.45
880.398	12651.29
880.716	12669.14
881.034	12625.76
881.352	12614.91
881.67	12601.8
881.988	12510.73
882.306	12562.48
882.624	12480.45
882.941	12461.47
883.259	12413.11
883.577	12379.66
883.894	12334.92
884.212	12454.01
884.529	12358.42
884.846	12344.18
885.164	12222.83
885.481	12273.45
885.798	12240.68
886.115	12146.67
886.432	12183.28
886.75	12155.03
887.067	12089.27
887.383	12081.14
887.7	12051.76
888.017	12035.49
888.334	12054.7
888.651	11998.43
888.967	12015.38
889.284	11920.69
889.6	11863.52
889.917	11827.58
890.233	11753.24
890.55	11777.42
890.866	11783.74
891.182	11695.38
891.498	11709.17
891.815	11616.29
892.131	11559.79
892.447	11513.02
892.763	11583.98
893.079	11539.91
893.395	11464.88
893.71	11451.32
894.026	11416.3
894.342	11400.03
894.657	11251.55
894.973	11326.35
895.289	11318.9
895.604	11203.42
895.92	11195.06
896.235	11218.56
896.55	11159.81
896.865	11114.61
897.181	11096.08
897.496	11087.49
897.811	11049.75
898.126	10918.23
898.441	10926.37
898.756	10909.87
899.071	10818.8
899.386	10896.54
899.7	10749.42
900.015	10711.23
900.33	10624.23
900.644	10605.24
900.959	10583.1
901.273	10568.18
901.588	10540.39
901.902	10510.11
902.216	10506.72
902.531	10504.91
902.845	10395.53
903.159	10327.06
903.473	10274.4
903.787	10246.16
904.101	10191.02
904.415	10233.05
904.729	10176.33
905.042	10076.9
905.356	10083.22
905.67	10054.75
905.984	10030.57
906.297	10010.23
906.611	9911.7
906.924	9900.4
907.237	9912.83
907.551	9784.25
907.864	9756.45
908.177	9772.05
908.491	9769.11
908.804	9677.36
909.117	9650.01
909.43	9628.55
909.743	9605.04
910.056	9582.9
910.368	9494.54
910.681	9445.95
910.994	9437.14
911.307	9351.49
911.619	9304.49
911.932	9349.68
912.244	9216.35
912.557	9265.84
912.869	9144.04
913.181	9124.15
913.494	9097.03
913.806	9109.46
914.118	9022.91
914.43	8964.83
914.742	8906.31
915.054	8906.76
915.366	8863.82
915.678	8836.93
915.99	8759.19
916.302	8766.42
916.613	8739.3
916.925	8739.98
917.236	8664.96
917.548	8613.21
917.859	8575.01
918.171	8518.97
918.482	8526.43
918.794	8419.99
919.105	8467.67
919.416	8384.74
919.727	8429.26
920.038	8336.6
920.349	8301.12
920.66	8251.41
920.971	8273.33
921.282	8214.8
921.593	8206.21
921.903	8182.93
922.214	8148.36
922.525	8089.6
922.835	8064.75
923.146	7973.9
923.456	7987.69
923.767	7936.39
924.077	7934.58
924.387	7876.05
924.697	7810.51
925.008	7817.75
925.318	7746.79
925.628	7742.27
925.938	7679.22
926.248	7693.23
926.558	7629.05
926.867	7622.05
927.177	7561.93
927.487	7535.95
927.796	7529.84
928.106	7474.25
928.416	7484.2
928.725	7434.03
929.034	7365.78
929.344	7406.91
929.653	7356.06
929.962	7325.56
930.271	7331.66
930.581	7314.71
930.89	7178.67
931.199	7205.79
931.508	7181.15
931.817	7149.97
932.125	7135.28
932.434	7062.96
932.743	7020.25
933.051	7008.95
933.36	6982.74
933.669	6923.98
933.977	6951.55
934.286	6911.56
934.594	6856.42
934.902	6836.08
935.21	6789.3
935.519	6766.47
935.827	6748.4
936.135	6726.25
936.443	6720.15
936.751	6641.28
937.059	6641.51
937.367	6596.31
937.674	6587.5
937.982	6553.82
938.29	6535.29
938.597	6533.49
938.905	6425.69
939.213	6398.8
939.52	6404.45
939.827	6414.17
940.135	6406.48
940.442	6363.77
940.749	6298.24
941.056	6319.71
941.363	6269.09
941.67	6231.57
941.977	6204.46
942.284	6144.12
942.591	6215.98
942.898	6146.6
943.205	6119.03
943.511	6040.62
943.818	6065.7
944.125	6010.79
944.431	5994.52
944.738	5964.24
945.044	5927.17
945.35	5936.44
945.657	5885.37
945.963	5880.62
946.269	5876.33
946.575	5847.85
946.881	5795.2
947.187	5774.86
947.493	5728.54
947.799	5721.53
948.105	5691.93
948.41	5667.97
948.716	5707.97
949.022	5636.79
949.327	5648.09
949.633	5515.43
949.938	5548.2
950.244	5586.84
950.549	5501.88
950.854	5488.99
951.16	5431.82
951.465	5418.04
951.77	5449.45
952.075	5426.17
952.38	5372.39
952.685	5391.14
952.99	5322.9
953.294	5298.04
953.599	5252.39
953.904	5248.1
954.209	5228.89
954.513	5241.09
954.818	5199.28
955.122	5219.85
955.426	5166.52
955.731	5154.31
956.035	5146.18
956.339	5049.46
956.643	5106.86
956.948	4989.57
957.252	4984.37
957.556	4969.01
957.86	4925.17
958.163	4985.96
958.467	4972.4
958.771	4921.78
959.075	4870.48
959.378	4880.87
959.682	4883.81
959.985	4866.64
960.289	4799.07
960.592	4761.33
960.896	4818.05
961.199	4743.93
961.502	4785.06
961.805	4696.92
962.108	4704.61
962.411	4645.17
962.714	4622.35
963.017	4573.54
963.32	4588
963.623	4585.97
963.926	4548.23
964.228	4551.84
964.531	4514.56
964.833	4504.16
965.136	4533.09
965.438	4472.07
965.741	4458.06
966.043	4419.19
966.345	4390.04
966.648	4369.48
966.95	4319.99
967.252	4344.84
967.554	4338.29
967.856	4290.16
968.158	4284.51
968.46	4288.35
968.761	4232.3
969.063	4235.24
969.365	4198.86
969.666	4196.6
969.968	4163.38
970.269	4114.57
970.571	4111.63
970.872	4107.56
971.174	4123.38
971.475	4119.09
971.776	4047.68
972.077	4016.72
972.378	4031.63
972.679	3979.66
972.98	3966.32
973.281	3985.08
973.582	3953.22
973.883	3947.11
974.183	3924.06
974.484	3900.11
974.785	3898.53
975.085	3860.11
975.386	3870.73
975.686	3857.17
975.986	3791.19
976.287	3812.43
976.587	3755.48
976.887	3778.76
977.187	3760
977.487	3782.82
977.787	3683.84
978.087	3669.83
978.387	3667.12
978.687	3680.91
978.987	3646.78
979.286	3581.25
979.586	3632.32
979.885	3584.19
980.185	3593.9
980.484	3568.59
980.784	3540.8
981.083	3564.07
981.382	3550.97
981.682	3506.22
981.981	3501.93
982.28	3471.42
982.579	3454.25
982.878	3465.77
983.177	3440.91
983.475	3423.06
983.774	3416.51
984.073	3347.13
984.372	3342.38
984.67	3356.62
984.969	3342.38
985.267	3322.72
985.566	3330.18
985.864	3317.07
986.162	3300.58
986.461	3263.06
986.759	3259.22
987.057	3207.25
987.355	3254.7
987.653	3206.79
987.951	3216.74
988.249	3176.29
988.547	3133.35
988.844	3153.91
989.142	3145.33
989.44	3133.58
989.737	3108.49
990.035	3110.53
990.332	3120.47
990.63	3073.69
990.927	3029.4
991.224	3053.35
991.521	3015.84
991.819	3036.18
992.116	2962.05
992.413	2956.86
992.71	2937.87
993.006	2962.96
993.303	2911.21
993.6	2908.72
993.897	2924.54
994.193	2879.57
994.49	2909.4
994.787	2859.01
995.083	2843.64
995.379	2808.16
995.676	2836.41
995.972	2807.48
996.268	2780.82
996.565	2771.1
996.861	2762.06
997.157	2755.28
997.453	2756.41
997.749	2717.54
998.044	2680.25
998.34	2701.04
998.636	2687.03
998.932	2677.32
999.227	2642.97
999.523	2668.05
999.818	2628.73
1000.114	2642.97
1000.409	2613.82
1000.704	2602.97
1001	2569.3
1001.295	2602.52
1001.59	2561.16
1001.885	2574.04
1002.18	2513.93
1002.475	2523.87
1002.77	2515.06
1003.065	2469.86
1003.359	2473.48
1003.654	2446.81
1003.949	2422.86
1004.243	2442.75
1004.538	2397.78
1004.832	2423.76
1005.127	2386.25
1005.421	2362.75
1005.715	2331.56
1006.009	2310.09
1006.304	2337.44
1006.598	2328.63
1006.892	2297.89
1007.186	2321.39
1007.48	2303.77
1007.773	2290.21
1008.067	2232.13
1008.361	2236.65
1008.655	2247.27
1008.948	2218.12
1009.242	2235.29
1009.535	2206.82
1009.829	2183.77
1010.122	2179.93
1010.415	2174.96
1010.708	2148.74
1011.001	2150.78
1011.295	2127.05
1011.588	2095.86
1011.881	2069.42
1012.173	2060.16
1012.466	2090.21
1012.759	2072.36
1013.052	2055.86
1013.344	2005.02
1013.637	2029.65
1013.93	2009.54
1014.222	2006.83
1014.514	1985.36
1014.807	1944.68
1015.099	1950.78
1015.391	1966.6
1015.683	1949.43
1015.976	1948.75
1016.268	1930.9
1016.56	1899.03
1016.851	1909.88
1017.143	1894.51
1017.435	1858.36
1017.727	1846.38
1018.018	1859.94
1018.31	1821.97
1018.602	1825.59
1018.893	1821.75
1019.185	1793.72
1019.476	1775.19
1019.767	1770.67
1020.058	1774.74
1020.35	1748.98
1020.641	1739.71
1020.932	1742.88
1021.223	1723.67
1021.514	1737
1021.804	1688.87
1022.095	1684.35
1022.386	1645.03
1022.677	1664.24
1022.967	1612.49
1023.258	1674.63
1023.548	1618.81
1023.839	1615.88
1024.129	1598.93
1024.419	1588.08
1024.709	1594.86
1025	1551.7
1025.29	1579.94
1025.58	1541.08
1025.87	1537.91
1026.16	1548.98
1026.449	1517.8
1026.739	1502.43
1027.029	1519.83
1027.319	1490.91
1027.608	1474.86
1027.898	1494.3
1028.187	1453.85
1028.477	1452.72
1028.766	1442.09
1029.055	1465.6
1029.344	1404.81
1029.634	1428.99
1029.923	1430.8
1030.212	1397.35
1030.501	1387.86
1030.79	1383.57
1031.078	1407.75
1031.367	1339.5
1031.656	1345.15
1031.945	1348.76
1032.233	1331.82
1032.522	1333.17
1032.81	1321.87
1033.099	1325.94
1033.387	1305.6
1033.675	1290.69
1033.963	1260.18
1034.251	1277.13
1034.54	1266.05
1034.828	1266.05
1035.116	1244.59
1035.403	1246.17
1035.691	1256.11
1035.979	1231.7
1036.267	1205.04
1036.554	1220.18
1036.842	1203.23
1037.129	1192.16
1037.417	1187.41
1037.704	1173.85
1037.992	1185.6
1038.279	1169.56
1038.566	1139.5
1038.853	1139.5
1039.14	1139.5
