Data from 18-1248_FLMS001491_004.txt Node
Date: Thu Apr 19 16:24:31 BST 2018
User: hsy
Spectrometer: FLMS00149
Trigger mode: 0
Integration Time (sec): 1.000000E-2
Scans to average: 10
Electric dark correction enabled: true
Nonlinearity correction enabled: false
Boxcar width: 0
XAxis mode: Wavelengths
Number of Pixels in Spectrum: 2048
>>>>>Begin Spectral Data<<<<<
341.393	-17.51
341.776	-17.51
342.16	-17.51
342.543	-37.17
342.927	-75.59
343.31	-85.08
343.693	-96.16
344.077	-68.36
344.46	-57.29
344.843	-46.67
345.226	-44.63
345.61	-22.49
345.993	-12.77
346.376	3.28
346.759	12.32
347.142	32.65
347.525	39.43
347.908	67
348.291	83.95
348.674	85.99
349.057	108.81
349.44	116.72
349.823	151.52
350.206	179.09
350.588	241.01
350.971	249.82
351.354	276.26
351.737	292.08
352.119	308.13
352.502	311.97
352.884	323.95
353.267	322.14
353.65	331.63
354.032	335.92
354.414	360.33
354.797	352.65
355.179	382.93
355.562	363.27
355.944	399.65
356.326	387
356.709	358.75
357.091	383.83
357.473	412.08
357.855	411.18
358.238	408.69
358.62	400.33
359.002	394.68
359.384	402.59
359.766	393.32
360.148	382.93
360.53	386.09
360.912	382.02
361.294	398.97
361.676	389.71
362.057	392.65
362.439	403.49
362.821	365.53
363.203	403.49
363.584	403.72
363.966	379.99
364.348	372.08
364.729	380.22
365.111	396.03
365.493	379.31
365.874	363.72
366.256	378.86
366.637	377.05
367.019	374.79
367.4	397.16
367.781	382.7
368.163	358.3
368.544	384.28
368.925	380.89
369.306	382.48
369.688	407.56
370.069	396.49
370.45	381.8
370.831	381.12
371.212	397.62
371.593	401.46
371.974	387.22
372.355	399.65
372.736	401.23
373.117	393.32
373.498	397.16
373.879	399.2
374.26	391.29
374.641	397.39
375.021	398.75
375.402	424.28
375.783	413.89
376.163	439.65
376.544	432.87
376.925	406.2
377.305	433.55
377.686	417.5
378.066	428.8
378.447	433.32
378.827	409.37
379.208	398.07
379.588	417.96
379.968	415.7
380.349	441.01
380.729	438.29
381.109	445.98
381.489	464.96
381.87	440.1
382.25	458.18
382.63	465.86
383.01	462.25
383.39	443.04
383.77	471.96
384.15	457.28
384.53	477.16
384.91	452.98
385.29	471.96
385.67	474.45
386.049	471.06
386.429	473.77
386.809	496.6
387.189	494.56
387.568	495.92
387.948	493.66
388.328	506.77
388.707	489.14
389.087	504.05
389.466	510.83
389.846	518.07
390.225	519.87
390.605	532.08
390.984	493.66
391.363	566.43
391.743	523.26
392.122	536.37
392.501	540.66
392.881	550.83
393.26	546.54
393.639	532.75
394.018	577.27
394.397	551.96
394.776	545.64
395.155	559.65
395.534	529.36
395.913	577.72
396.292	575.69
396.671	581.79
397.05	587.22
397.429	600.32
397.808	597.61
398.186	597.16
398.565	593.54
398.944	616.59
399.323	622.47
399.701	600.32
400.08	608.23
400.458	605.07
400.837	612.53
401.215	645.07
401.594	630.83
401.972	649.36
402.351	635.8
402.729	646.88
403.107	661.56
403.486	673.54
403.864	673.99
404.242	665.41
404.62	676.48
404.999	682.58
405.377	650.49
405.755	675.58
406.133	695.24
406.511	712.41
406.889	697.5
407.267	720.55
407.645	727.78
408.023	709.25
408.401	739.75
408.779	760.09
409.156	766.19
409.534	756.03
409.912	795.57
410.29	788.57
410.667	803.03
411.045	799.87
411.422	819.98
411.8	830.15
412.178	829.02
412.555	830.6
412.933	829.7
413.31	853.88
413.687	848.9
414.065	879.64
414.442	864.27
414.819	896.36
415.197	900.2
415.574	904.95
415.951	895.46
416.328	924.83
416.705	896.59
417.082	939.07
417.46	957.38
417.837	950.6
418.214	931.39
418.591	944.04
418.967	959.64
419.344	968
419.721	967.55
420.098	974.1
420.475	997.83
420.852	1007.32
421.228	994.89
421.605	1013.87
421.982	1006.41
422.358	1041.22
422.735	1056.36
423.111	1034.21
423.488	1065.17
423.864	1081.67
424.241	1075.79
424.617	1098.62
424.994	1071.95
425.37	1103.59
425.746	1089.35
426.123	1108.11
426.499	1144.49
426.875	1175.45
427.251	1177.48
427.627	1179.74
428.003	1197.37
428.379	1189.23
428.756	1220.42
429.132	1219.97
429.507	1237.14
429.883	1255.45
430.259	1280.98
430.635	1299.29
431.011	1300.87
431.387	1324.15
431.763	1338.83
432.138	1365.95
432.514	1346.97
432.89	1372.28
433.265	1398.27
433.641	1428.55
434.016	1437.59
434.392	1486.18
434.767	1491.37
435.143	1452.5
435.518	1469.68
435.894	1497.02
436.269	1520.75
436.644	1532.28
437.02	1557.59
437.395	1532.28
437.77	1581.09
438.145	1606.62
438.52	1611.37
438.895	1643.69
439.271	1620.64
439.646	1632.84
440.021	1676.68
440.395	1679.62
440.77	1644.14
441.145	1675.1
441.52	1711.48
441.895	1717.81
442.27	1724.59
442.645	1706.06
443.019	1732.5
443.394	1740.18
443.769	1757.13
444.143	1720.52
444.518	1770.46
444.892	1789.67
445.267	1775.89
445.641	1820.4
446.016	1831.03
446.39	1824.02
446.764	1840.97
447.139	1845.71
447.513	1853.62
447.887	1880.97
448.262	1862.66
448.636	1880.06
449.01	1918.25
449.384	1943.79
449.758	1942.89
450.132	1969.78
450.506	1957.8
450.88	1976.56
451.254	1975.43
451.628	2012.94
452.002	2061.98
452.376	2050.45
452.75	2075.54
453.123	2071.92
453.497	2140.4
453.871	2169.32
454.244	2173.39
454.618	2202.31
454.992	2251.13
455.365	2217.68
455.739	2245.25
456.112	2283.22
456.486	2322.54
456.859	2354.18
457.232	2408.86
457.606	2388.52
457.979	2435.3
458.352	2455.19
458.725	2472.82
459.099	2487.96
459.472	2570.67
459.845	2615.19
460.218	2630.55
460.591	2633.26
460.964	2649.76
461.337	2720.49
461.71	2736.76
462.083	2760.49
462.456	2788.06
462.829	2793.26
463.201	2848.4
463.574	2871.45
463.947	2856.54
464.32	2954.61
464.692	2975.85
465.065	2995.29
465.438	3024.21
465.81	3056.3
466.183	3032.12
466.555	3122.97
466.928	3183.53
467.3	3121.16
467.672	3204.32
468.045	3288.16
468.417	3266.69
468.789	3283.87
469.161	3342.17
469.534	3381.27
469.906	3431.89
470.278	3459.91
470.65	3526.12
471.022	3582.39
471.394	3651.32
471.766	3616.06
472.138	3689.06
472.51	3753.69
472.882	3803.4
473.253	3868.94
473.625	3896.51
473.997	4003.62
474.369	3997.07
474.74	4074.81
475.112	4124.07
475.484	4193.45
475.855	4229.15
476.227	4285.42
476.598	4395.48
476.97	4463.27
477.341	4562.93
477.713	4624.85
478.084	4671.85
478.455	4796.15
478.827	4814.68
479.198	4940.55
479.569	4957.95
479.94	5064.84
480.311	5140.32
480.682	5252.18
481.053	5326.3
481.424	5437.71
481.795	5533.07
482.166	5593.19
482.537	5633.19
482.908	5771.03
483.279	5853.74
483.65	6007.86
484.021	6125.38
484.391	6167.63
484.762	6241.76
485.133	6270.23
485.503	6418.48
485.874	6535.76
486.244	6701.18
486.615	6819.37
486.985	6839.26
487.356	6982.3
487.726	7033.15
488.097	7245.35
488.467	7349.98
488.837	7446.7
489.207	7537.77
489.578	7668.61
489.948	7790.87
490.318	7940.02
490.688	7981.6
491.058	8099.56
491.428	8254.59
491.798	8303.17
492.168	8520.57
492.538	8558.76
492.908	8694.8
493.278	8841.69
493.648	8919.65
494.017	8972.76
494.387	9154.45
494.757	9257.27
495.126	9345.63
495.496	9438.96
495.866	9514.89
496.235	9630.37
496.605	9789.01
496.974	9871.94
497.344	9919.85
497.713	9996.23
498.082	10117.14
498.452	10235.32
498.821	10392.38
499.19	10455.43
499.559	10535.88
499.928	10617.91
500.298	10647.74
500.667	10802.09
501.036	10916.66
501.405	10997.56
501.774	11140.39
502.143	11183.1
502.512	11280.72
502.88	11363.88
503.249	11368.4
503.618	11530.43
503.987	11624.21
504.356	11688.85
504.724	11799.35
505.093	11841.61
505.462	11921.83
505.83	11994.6
506.199	12143.75
506.567	12280.92
506.936	12345.78
507.304	12429.39
507.672	12513.68
508.041	12544.42
508.409	12751.19
508.777	12858.98
509.145	12961.13
509.514	12972.88
509.882	13128.13
510.25	13080.67
510.618	13269.59
510.986	13252.42
511.354	13402.7
511.722	13653.77
512.09	13649.47
512.458	13699.19
512.826	13770.15
513.193	13903.02
513.561	13914.1
513.929	14042.68
514.297	14234.09
514.664	14301.88
515.032	14361.77
515.4	14580.97
515.767	14645.15
516.135	14722.66
516.502	14637.47
516.869	14929.89
517.237	15046.5
517.604	14947.74
517.972	15255.53
518.339	15258.69
518.706	15365.81
519.073	15522.42
519.44	15520.83
519.808	15796.76
520.175	15668.18
520.542	15940.03
520.909	16040.14
521.276	16100.93
521.643	16261.15
522.009	16337.31
522.376	16526.01
522.743	16645.55
523.11	16850.29
523.477	17024.07
523.843	17020.91
524.21	17292.99
524.577	17380.9
524.943	17534.12
525.31	17652.76
525.676	17868.8
526.043	17929.81
526.409	17996.25
526.776	18207.09
527.142	18342.91
527.508	18442.11
527.874	18678.72
528.241	18771.82
528.607	18848.66
528.973	19033.51
529.339	19085.49
529.705	19241.41
530.071	19480.05
530.437	19525.25
530.803	19577.68
531.169	19802.98
531.535	19828.29
531.901	19956.42
532.267	20023.77
532.632	20197.77
532.998	20274.16
533.364	20505.79
533.73	20591.44
534.095	20722.96
534.461	20803.63
534.826	20743.3
535.192	20888.6
535.557	21089.95
535.923	21196.17
536.288	21291.3
536.653	21338.08
537.019	21303.96
537.384	21466.22
537.749	21536.72
538.114	21558.87
538.479	21686.77
538.845	21844.96
539.21	21760.67
539.575	21898.07
539.94	21899.2
540.305	22142.13
540.67	22142.13
541.034	22239.53
541.399	22219.87
541.764	22403.14
542.129	22458.28
542.494	22571.27
542.858	22492.63
543.223	22569.69
543.587	22704.37
543.952	22740.31
544.316	22831.6
544.681	22857.37
545.045	23074.99
545.41	23091.94
545.774	23111.14
546.138	23204.47
546.503	23302.1
546.867	23299.84
547.231	23402.66
547.595	23503.45
547.959	23580.06
548.324	23590.45
548.688	23707.96
549.052	23810.56
549.416	23769.43
549.779	23843.33
550.143	23972.36
550.507	24033.15
550.871	24133.26
551.235	24165.13
551.599	24274.5
551.962	24366.48
552.326	24394.73
552.689	24410.54
553.053	24359.47
553.417	24526.93
553.78	24753.59
554.143	24885.11
554.507	24997.87
554.87	24879.23
555.234	25195.16
555.597	25055.5
555.96	25109.96
556.323	25249.39
556.686	25338.43
557.05	25583.17
557.413	25600.34
557.776	25678.31
558.139	25814.12
558.502	25871.75
558.865	25870.39
559.228	26150.16
559.59	26185.19
559.953	26328.46
560.316	26652.07
560.679	26549.02
561.041	26738.17
561.404	26842.57
561.767	27111.72
562.129	27171.83
562.492	27378.38
562.854	27341.77
563.217	27454.76
563.579	27586.96
563.941	27826.95
564.304	27898.59
564.666	28140.39
565.028	28097.91
565.39	28225.13
565.753	28518.23
566.115	28455.86
566.477	28686.14
566.839	28723.88
567.201	29099.23
567.563	28955.51
567.925	29314.82
568.287	29340.58
568.648	29439.34
569.01	29696.73
569.372	29931.76
569.734	29909.84
570.095	30160.9
570.457	30506.2
570.819	30595.47
571.18	30607.22
571.542	30820.77
571.903	30898.51
572.265	30983.71
572.626	31275.9
572.987	31326.07
573.349	31570.58
573.71	31474.09
574.071	31815.77
574.432	32003.34
574.794	32284.01
575.155	32262.09
575.516	32279.04
575.877	32442.42
576.238	32525.81
576.599	32688.75
576.96	32861.62
577.32	32894.62
577.681	33151.78
578.042	33385
578.403	33392.23
578.763	33441.95
579.124	33699.79
579.485	33914.25
579.845	34100.23
580.206	33997.41
580.566	34057.52
580.927	34240.12
581.287	34580.67
581.648	34361.92
582.008	34736.6
582.368	34792.64
582.728	35038.74
583.089	35071.96
583.449	35123.71
583.809	35328.22
584.169	35575.45
584.529	35473.3
584.889	35987.19
585.249	35909.23
585.609	36043.23
585.969	36471.92
586.329	36358.48
586.688	36679.37
587.048	36709.88
587.408	36899.48
587.768	37074.62
588.127	37309.64
588.487	37489.3
588.846	37885.9
589.206	37835.73
589.565	38137.64
589.925	38572.43
590.284	38674.8
590.643	38990.95
591.003	39211.74
591.362	39591.16
591.721	39658.05
592.08	39957.48
592.44	40209.9
592.799	40446.51
593.158	40800.17
593.517	40940.05
593.876	41315.86
594.235	41462.53
594.593	41846.47
594.952	42063.41
595.311	42263.86
595.67	42635.6
596.029	43169.6
596.387	43289.37
596.746	43572.75
597.104	43603.49
597.463	44062.01
597.822	44414.31
598.18	44571.82
598.538	44971.59
598.897	45365.47
599.255	45301.75
599.613	45983.99
599.972	45948.28
600.33	46272.79
600.688	46477.76
601.046	46785.55
601.404	47234.8
601.762	47270.96
602.12	47752.3
602.478	47873.43
602.836	48248.34
603.194	48131.28
603.552	48465.28
603.91	48677.03
604.268	48970.12
604.625	49074.75
604.983	49464.58
605.341	49508.64
605.698	49883.55
606.056	50171.22
606.413	50228.62
606.771	50586.58
607.128	50628.84
607.485	50792
607.843	50958.55
608.2	51200.8
608.557	51477.4
608.914	51559.21
609.272	51714.23
609.629	52044.39
609.986	52112.19
610.343	52201.68
610.7	52571.16
611.057	52676.02
611.414	52615.9
611.771	52939.51
612.127	53130.47
612.484	53139.73
612.841	53342.21
613.198	53250.01
613.554	53377.47
613.911	53639.61
614.267	53718.47
614.624	53739.04
614.98	53929.32
615.337	54192.36
615.693	54204.34
616.05	54261.51
616.406	54368.17
616.762	54387.38
617.118	54515.29
617.475	54591.45
617.831	54727.94
618.187	54900.14
618.543	54893.36
618.899	55189.4
619.255	55146.46
619.611	55110.98
619.967	55286.12
620.323	55370.41
620.678	55331.99
621.034	55384.65
621.39	55442.27
621.746	55436.85
622.101	55752.55
622.457	55463.51
622.812	55719.78
623.168	55769.27
623.523	55737.18
623.879	55880.68
624.234	55824.63
624.589	55899.21
624.945	55898.98
625.3	55977.85
625.655	56020.11
626.01	55967.23
626.365	56031.18
626.72	56028.02
627.075	55985.08
627.43	56063.95
627.785	56159.99
628.14	56124.96
628.495	56143.72
628.85	56225.53
629.205	56181.69
629.559	56281.12
629.914	56150.05
630.269	56211.97
630.623	56016.72
630.978	56069.6
631.332	56216.26
631.687	56239.99
632.041	56116.83
632.396	56154.79
632.75	56206.77
633.104	56168.58
633.459	56045.87
633.813	56060.56
634.167	56083.16
634.521	56089.26
634.875	56082.48
635.229	55992.99
635.583	55948.02
635.937	55957.29
636.291	55960.45
636.645	55902.37
636.999	55790.51
637.352	55942.6
637.706	55790.74
638.06	55794.35
638.413	55731.08
638.767	55665.99
639.121	55781.47
639.474	55662.38
639.828	55671.64
640.181	55623.51
640.534	55697.41
640.888	55522.04
641.241	55515.49
641.594	55527.01
641.947	55576.96
642.301	55469.39
642.654	55520.24
643.007	55510.74
643.36	55517.98
643.713	55456.73
644.066	55567.01
644.419	55341.93
644.771	55061.26
645.124	54862.63
645.477	54852
645.83	54771.78
646.182	54735.4
646.535	54700.14
646.888	54746.02
647.24	54617.89
647.593	54816.07
647.945	54680.94
648.298	54608.17
648.65	54414.5
649.002	54343.54
649.355	54257.67
649.707	54243.88
650.059	54178.12
650.411	54647.72
650.763	54781.27
651.115	55136.06
651.467	55089.96
651.819	55019.91
652.171	54997.31
652.523	54927.03
652.875	54955.28
653.227	54849.74
653.578	55035.28
653.93	55009.51
654.282	54786.02
654.633	54853.81
654.985	54911.21
655.337	54971.1
655.688	54982.17
656.039	54957.99
656.391	54774.04
656.742	54820.59
657.094	54751.44
657.445	54836.41
657.796	54863.3
658.147	54776.53
658.498	54817.2
658.849	54920.02
659.2	54756.41
659.551	54740.37
659.902	54928.39
660.253	54837.32
660.604	54862.4
660.955	54662.86
661.306	54848.61
661.656	54688.39
662.007	54721.84
662.358	54752.35
662.708	54782.18
663.059	54676.42
663.409	54538.79
663.76	54764.1
664.11	54799.58
664.461	54836.86
664.811	54798.22
665.161	54728.62
665.511	54717.09
665.862	54776.75
666.212	54936.75
666.562	54825.56
666.912	54774.04
667.262	54704.21
667.612	54700.82
667.962	54766.58
668.312	54751.22
668.662	54826.47
669.011	54774.72
669.361	54823.98
669.711	54802.97
670.06	54652.69
670.41	54663.31
670.76	54595.06
671.109	54805.23
671.459	54642.29
671.808	54670.99
672.157	54701.27
672.507	54488.85
672.856	54503.99
673.205	54597.1
673.554	54647.94
673.904	54444.56
674.253	54710.54
674.602	54527.04
674.951	54098.8
675.3	53903.78
675.649	54496.99
675.998	54505.35
676.346	54467.38
676.695	54512.13
677.044	54361.17
677.393	54416.76
677.741	54479.13
678.09	54337.89
678.438	54306.48
678.787	54377.21
679.135	54283.21
679.484	54181.29
679.832	54267.61
680.181	54156.2
680.529	54120.05
680.877	54050.9
681.225	54107.62
681.573	54276.43
681.922	53946.27
682.27	53993.04
682.618	53890.67
682.966	53779.04
683.314	53956.43
683.661	53808.64
684.009	53752.82
684.357	53637.8
684.705	53504.24
685.053	53666.5
685.4	53509.21
685.748	53499.5
686.095	53444.13
686.443	53234.65
686.79	53298.6
687.138	53271.03
687.485	53217.47
687.832	53047.76
688.18	53061.54
688.527	52993.75
688.874	52974.77
689.221	52956.91
689.568	52922.79
689.915	52759.18
690.262	52772.28
690.609	52592.63
690.956	52473.76
691.303	52502.46
691.65	52367.1
691.997	52359.41
692.344	52199.19
692.69	52031.74
693.037	52158.06
693.383	52032.87
693.73	52001.91
694.077	51797.85
694.423	51824.51
694.769	51649.83
695.116	51517.4
695.462	51463.17
695.808	51376.16
696.155	51394.47
696.501	51066.57
696.847	51165.1
697.193	50877.42
697.539	51002.16
697.885	50686.01
698.231	50752
698.577	50585.22
698.923	50643.75
699.269	50341.84
699.614	50293.93
699.96	49992.02
700.306	49999.7
700.651	49873.38
700.997	49752.03
701.342	49663.89
701.688	49535.08
702.033	49274.75
702.379	49369.66
702.724	49090.57
703.069	49272.72
703.415	48958.6
703.76	48822.78
704.105	48720.41
704.45	48725.16
704.795	48516.35
705.14	48328.56
705.485	48357.26
705.83	47972.86
706.175	48282.01
706.52	48009.47
706.865	47844.5
707.209	47827.78
707.554	47627.34
707.899	47669.37
708.243	47399.32
708.588	47381.01
708.932	47127.91
709.277	47261.47
709.621	47209.72
709.966	46720.24
710.31	46692.44
710.654	46491.77
710.998	46574.93
711.342	46641.37
711.687	46348.27
712.031	46437.08
712.375	46134.95
712.719	46035.51
713.063	46021.5
713.407	46201.16
713.75	45913.48
714.094	45915.97
714.438	45569.99
714.782	45781.96
715.125	45449.99
715.469	45588.29
715.812	45400.5
716.156	45333.61
716.499	45219.71
716.843	45405.02
717.186	45058.36
717.53	45354.4
717.873	45316.44
718.216	45246.15
718.559	44913.06
718.902	44641.65
719.246	44833.51
719.589	44819.27
719.932	44522.11
720.275	44818.37
720.617	44645.49
720.96	44415.44
721.303	44576.12
721.646	44518.94
721.989	44388.78
722.331	44313.98
722.674	44288.67
723.016	44235.11
723.359	44243.92
723.701	44248.67
724.044	44055.68
724.386	43881.9
724.729	44049.58
725.071	43999.41
725.413	43980.43
725.755	44057.49
726.097	43888
726.439	43738.17
726.782	43656.37
727.124	44011.39
727.465	43869.02
727.807	43660.66
728.149	43896.59
728.491	43712.86
728.833	43698.4
729.175	43711.05
729.516	43653.2
729.858	43665.86
730.199	43708.57
730.541	43650.04
730.882	43504.96
731.224	43615.01
731.565	43523.04
731.906	43555.58
732.248	43638.97
732.589	43445.52
732.93	43410.95
733.271	43396.71
733.612	43488.91
733.953	43612.53
734.294	43402.14
734.635	43300.22
734.976	43462.7
735.317	43391.29
735.658	43307.45
735.999	43253.44
736.339	43406.66
736.68	43314
737.021	43302.03
737.361	43260.44
737.702	43567.56
738.042	43477.39
738.383	43396.49
738.723	43579.08
739.063	43428.58
739.404	43527.1
739.744	43463.83
740.084	43332.53
740.424	43578.18
740.764	43513.55
741.104	43722.35
741.444	43447.56
741.784	43366.66
742.124	43637.61
742.464	43800.32
742.804	43758.51
743.143	43765.29
743.483	43821.33
743.823	43706.99
744.162	43872.63
744.502	43897.94
744.841	43844.16
745.181	44022.91
745.52	43946.53
745.86	44158.5
746.199	44104.04
746.538	44287.76
746.877	44371.83
747.216	44420.64
747.556	44442.56
747.895	44622.22
748.234	44454.09
748.573	44614.31
748.911	44589.22
749.25	44676.45
749.589	44689.79
749.928	44861.08
750.267	45103.56
750.605	45040.51
750.944	45133.16
751.283	45210.68
751.621	45378.58
751.96	45181.98
752.298	45299.49
752.636	45470.33
752.975	45522.76
753.313	45515.98
753.651	45799.36
753.989	45669.42
754.327	45847.04
754.666	45626.26
755.004	45943.54
755.342	46033.7
755.679	46153.93
756.017	46030.99
756.355	46299.46
756.693	46198.22
757.031	46505.1
757.368	46245
757.706	46336.07
758.044	46385.33
758.381	46566.57
758.719	46444.54
759.056	46591.88
759.394	46487.48
759.731	46404.09
760.068	46610.41
760.405	46583.29
760.743	46623.52
761.08	46692.67
761.417	46669.85
761.754	46545.56
762.091	46603.18
762.428	46645.89
762.765	46562.5
763.102	46676.17
763.438	46633.24
763.775	46488.38
764.112	46640.24
764.449	46736.96
764.785	46607.02
765.122	46563.86
765.458	46536.74
765.795	46489.96
766.131	46665.55
766.467	46466.69
766.804	46233.02
767.14	46245
767.476	46152.57
767.812	46313.47
768.148	46263.08
768.485	46081.16
768.821	45922.75
769.157	45993.25
769.492	46010.65
769.828	45841.62
770.164	45506.49
770.5	45632.13
770.836	45754.39
771.171	45569.08
771.507	45502.87
771.842	45283.67
772.178	45243.44
772.513	45110.79
772.849	45075.99
773.184	44960.74
773.519	44812.95
773.855	44706.73
774.19	44681.65
774.525	44578.6
774.86	44553.07
775.195	44356.91
775.53	44383.13
775.865	44247.99
776.2	43917.83
776.535	43757.15
776.87	43669.47
777.205	43580.66
777.539	43618.4
777.874	43511.96
778.209	43321.46
778.543	43196.04
778.878	42940
779.212	42923.05
779.547	42683.06
779.881	42707.01
780.215	42495.49
780.55	42581.82
780.884	42216.4
781.218	42256.18
781.552	42232.9
781.886	42158.33
782.22	41857.09
782.554	41692.35
782.888	41465.92
783.222	41331
783.556	41196.09
783.889	41106.38
784.223	40762.43
784.557	40890.79
784.89	41040.84
785.224	40579.16
785.557	40518.6
785.891	40392.05
786.224	40340.97
786.558	40216.68
786.891	40023.92
787.224	39715.9
787.557	39649.69
787.891	39504.61
788.224	39377.38
788.557	39375.12
788.89	39104.17
789.223	39174.9
789.556	39046.77
789.888	38837.06
790.221	38745.76
790.554	38615.14
790.887	38464.64
791.219	38321.59
791.552	38319.11
791.884	38010.19
792.217	38019.9
792.549	37868.27
792.882	37628.73
793.214	37570.88
793.546	37578.79
793.879	37445.91
794.211	37067.39
794.543	37316.19
794.875	37155.07
795.207	36891.35
795.539	36850.67
795.871	36883.89
796.203	36713.27
796.535	36475.99
796.867	36501.53
797.198	36325.49
797.53	36271.93
797.862	35977.47
798.193	36100.41
798.525	35809.11
798.856	35871.71
799.188	35579.52
799.519	35419.97
799.85	35265.4
800.182	35224.05
800.513	35272.63
800.844	34948.12
801.175	35069.7
801.506	35043.71
801.837	34915.81
802.168	34687.79
802.499	34774.11
802.83	34475.59
803.161	34467
803.491	34403.73
803.822	34404.63
804.153	34118.54
804.483	33893.46
804.814	33854.36
805.145	33862.5
805.475	33883.06
805.805	33821.6
806.136	33821.6
806.466	33584.09
806.796	33440.59
807.126	33408.27
807.457	33324.66
807.787	33330.76
808.117	33083.08
808.447	32975.74
808.777	33239.24
809.107	32842.87
809.436	32686.26
809.766	32760.61
810.096	32781.17
810.426	32414.4
810.755	32529.65
811.085	32481.52
811.414	32434.06
811.744	32351.35
812.073	32264.8
812.403	32186.16
812.732	32172.37
813.061	32160.4
813.39	31736.91
813.719	31794.76
814.049	32011.47
814.378	31822.33
814.707	31557.7
815.036	31747.53
815.365	31457.59
815.693	31279.74
816.022	31266.41
816.351	31102.35
816.68	31049.47
817.008	31207.88
817.337	30869.58
817.665	30780.09
817.994	30929.02
818.322	30885.63
818.651	30811.28
818.979	30671.17
819.307	30684.28
819.636	30535.13
819.964	30641.12
820.292	30624.39
820.62	30502.81
820.948	30549.59
821.276	30694.22
821.604	30477.96
821.932	30653.54
822.259	30505.07
822.587	30460.78
822.915	30543.04
823.243	30534.23
823.57	30425.53
823.898	30621
824.225	30549.14
824.553	30401.57
824.88	30462.59
825.207	30587.33
825.535	30355.7
825.862	30618.52
826.189	30491.29
826.516	30818.06
826.843	30712.07
827.17	30757.04
827.497	30558.18
827.824	30606.99
828.151	30720.44
828.478	30595.69
828.805	30674.11
829.131	30677.27
829.458	30573.09
829.785	30426.88
830.111	30526.99
830.438	30681.57
830.764	30471.63
831.09	30644.5
831.417	30448.13
831.743	30601.79
832.069	30570.38
832.395	30492.19
832.722	30533.32
833.048	30472.08
833.374	30406.77
833.7	30410.16
834.026	30526.77
834.351	30524.96
834.677	30530.38
835.003	30272.99
835.329	30407.9
835.654	30310.28
835.98	30150.96
836.306	30318.19
836.631	30106.44
836.956	30201.8
837.282	30289.71
837.607	30192.31
837.932	30118.64
838.258	30130.39
838.583	30037.06
838.908	29864.64
839.233	29905.32
839.558	29944.86
839.883	29850.4
840.208	29616.74
840.533	29779.22
840.858	29567.92
841.182	29658.99
841.507	29707.58
841.832	29595.72
842.156	29554.82
842.481	29468.72
842.805	29220.14
843.13	29160.93
843.454	29372.67
843.778	29212
844.103	29126.8
844.427	29075.51
844.751	29251.77
845.075	28950.76
845.399	28984.89
845.723	28770.66
846.047	28801.62
846.371	28536.76
846.695	28550.32
847.019	28564.56
847.343	28234.62
847.666	28135.64
847.99	28106.49
848.313	27889.78
848.637	27929.55
848.96	27889.32
849.284	27741.98
849.607	27532.72
849.931	27489.11
850.254	27265.16
850.577	27067.65
850.9	27030.36
851.223	26871.5
851.546	26868.33
851.869	26699.52
852.192	26939.29
852.515	26422.7
852.838	26466.54
853.161	26478.06
853.483	26271.74
853.806	26292.98
854.129	26115.81
854.451	26170.05
854.774	25928.24
855.096	25798.98
855.419	25764.41
855.741	25638.76
856.063	25589.72
856.385	25619.33
856.708	25448.94
857.03	25312.67
857.352	25308.83
857.674	25375.72
857.996	25056.63
858.318	25043.07
858.64	25100.02
858.961	24868.16
859.283	24801.72
859.605	24710.42
859.926	24749.97
860.248	24679.92
860.57	24561.28
860.891	24621.84
861.212	24604.89
861.534	24357.44
861.855	24363.31
862.176	24372.81
862.498	24392.92
862.819	24346.37
863.14	24176.65
863.461	24193.83
863.782	24112.02
864.103	24022.98
864.424	23985.02
864.745	23966.49
865.065	23909.77
865.386	23718.36
865.707	23895.98
866.027	23835.42
866.348	23787.06
866.668	23705.25
866.989	23555.43
867.309	23526.95
867.63	23570.11
867.95	23532.38
868.27	23387.97
868.59	23463
868.91	23404.24
869.23	23320.4
869.55	23138.71
869.87	23320.86
870.19	23217.58
870.51	23215.55
870.83	23120.18
871.15	23002.9
871.469	23032.73
871.789	23091.03
872.109	23027.98
872.428	22988.44
872.748	23044.93
873.067	22909.12
873.386	22878.61
873.706	22915.67
874.025	22760.42
874.344	22625.73
874.663	22837.93
874.982	22772.4
875.301	22664.6
875.62	22564.94
875.939	22498.73
876.258	22549.35
876.577	22450.37
876.896	22473.42
877.214	22372.18
877.533	22377.83
877.852	22382.8
878.17	22357.49
878.489	22397.94
878.807	22209.02
879.125	22311.62
879.444	22141.9
879.762	22138.29
880.08	22093.09
880.398	21985.52
880.716	22010.83
881.034	22019.87
881.352	21912.98
881.67	21851.29
881.988	21888.13
882.306	21765.42
882.624	21740.56
882.941	21616.04
883.259	21627.57
883.577	21580.34
883.894	21496.95
884.212	21467.57
884.529	21399.55
884.846	21439.78
885.164	21338.08
885.481	21263.51
885.798	21291.53
886.115	21079.56
886.432	21140.12
886.75	21076.39
887.067	21066
887.383	20950.52
887.7	20927.92
888.017	20767.93
888.334	20816.51
888.651	20798.21
888.967	20675.05
889.284	20701.26
889.6	20540.59
889.917	20395.96
890.233	20457.88
890.55	20553.47
890.866	20390.31
891.182	20513.92
891.498	20408.62
891.815	20220.82
892.131	20271.9
892.447	20163.65
892.763	20013.6
893.079	20015.86
893.395	19915.07
893.71	19869.42
894.026	19875.75
894.342	19793.26
894.657	19740.38
894.973	19643.66
895.289	19593.95
895.604	19595.53
895.92	19377.46
896.235	19310.34
896.55	19290
896.865	19196.22
897.181	19273.5
897.496	19187.18
897.811	19067.41
898.126	18924.81
898.441	18839.17
898.756	18875.55
899.071	18831.93
899.386	18805.49
899.7	18674.65
900.015	18476.69
900.33	18339.07
900.644	18457.48
900.959	18447.09
901.273	18354.21
901.588	18225.85
901.902	18252.51
902.216	18105.4
902.531	18066.76
902.845	17939.98
903.159	17885.52
903.473	17784.05
903.787	17694.56
904.101	17610.72
904.415	17599.88
904.729	17637.16
905.042	17485.08
905.356	17539.09
905.67	17328.7
905.984	17353.1
906.297	17274.01
906.611	17203.95
906.924	17168.48
907.237	17114.24
907.551	17055.71
907.864	16967.12
908.177	16964.41
908.491	16736.17
908.804	16771.88
909.117	16643.97
909.43	16598.09
909.743	16576.17
910.056	16545.44
910.368	16446.91
910.681	16349.51
910.994	16308.38
911.307	16207.82
911.619	16080.14
911.932	16175.96
912.244	15917.21
912.557	15978.22
912.869	15856.87
913.181	15837.66
913.494	15786.82
913.806	15616.2
914.118	15633.83
914.43	15524.68
914.742	15468.86
915.054	15436.77
915.366	15393.15
915.678	15374.62
915.99	15300.05
916.302	15114.97
916.613	15063.22
916.925	15084.01
917.236	15010.57
917.548	14839.72
917.859	14892.15
918.171	14825.94
918.482	14764.92
918.794	14603.57
919.105	14639.28
919.416	14548.66
919.727	14512.27
920.038	14514.08
920.349	14408.55
920.66	14292.84
920.971	14245.16
921.282	14244.71
921.593	14084.71
921.903	14030.03
922.214	14033.19
922.525	13862.12
922.835	13938.96
923.146	13771.28
923.456	13776.47
923.767	13658.06
924.077	13639.98
924.387	13520.44
924.697	13471.62
925.008	13504.62
925.318	13331.97
925.628	13339.65
925.938	13390.5
926.248	13226.21
926.558	13140.11
926.867	13058.3
927.177	13105.31
927.487	12983.05
927.796	12948.02
928.106	12882.71
928.416	12884.97
928.725	12779.44
929.034	12720.68
929.344	12731.3
929.653	12642.27
929.962	12563.62
930.271	12558.65
930.581	12495.83
930.89	12346.23
931.199	12337.64
931.508	12289.28
931.817	12267.59
932.125	12242.05
932.434	12142.17
932.743	12031.66
933.051	11951.44
933.36	11983.75
933.669	11920.25
933.977	11873.93
934.286	11821.95
934.594	11727.71
934.902	11689.52
935.21	11636.42
935.519	11645.91
935.827	11643.42
936.135	11500.38
936.443	11355.07
936.751	11398.01
937.059	11379.7
937.367	11245.47
937.674	11340.83
937.982	11252.25
938.29	11214.28
938.597	11121.18
938.905	11015.64
939.213	11005.25
939.52	10897.45
939.827	10962.08
940.135	10875.53
940.442	10836.21
940.749	10808.19
941.056	10843.22
941.363	10658.36
941.67	10626.27
941.977	10593.05
942.284	10539.95
942.591	10496.11
942.898	10450.01
943.205	10397.81
943.511	10337.02
943.818	10331.14
944.125	10221.99
944.431	10158.26
944.738	10143.12
945.044	10112.84
945.35	10070.36
945.657	9986.52
945.963	9995.56
946.269	9875.56
946.575	9984.26
946.881	9946.97
947.187	9795.79
947.493	9717.6
947.799	9765.96
948.105	9688.22
948.41	9559.41
948.716	9630.37
949.022	9586.75
949.327	9545.17
949.633	9375.91
949.938	9441.45
950.244	9430.37
950.549	9336.82
950.854	9259.98
951.16	9246.65
951.465	9229.7
951.77	9143.6
952.075	9111.51
952.38	9167.56
952.685	9089.82
952.99	8986.09
953.294	8992.87
953.599	8903.16
953.904	8911.74
954.209	8805.76
954.513	8812.76
954.818	8762.37
955.122	8797.62
955.426	8712.65
955.731	8643.73
956.035	8636.04
956.339	8558.53
956.643	8584.07
956.948	8527.35
957.252	8504.52
957.556	8405.09
957.86	8373
958.163	8390.4
958.467	8345.43
958.771	8372.77
959.075	8259.1
959.378	8178.43
959.682	8207.58
959.985	8095.49
960.289	8079
960.592	8043.07
960.896	8011.2
961.199	7951.09
961.502	7913.35
961.805	7877.42
962.108	7869.06
962.411	7800.81
962.714	7775.5
963.017	7767.59
963.32	7735.95
963.623	7703.19
963.926	7628.61
964.228	7628.84
964.531	7592
964.833	7613.25
965.136	7546.58
965.438	7461.39
965.741	7393.14
966.043	7407.15
966.345	7355.63
966.648	7363.08
966.95	7299.81
967.252	7278.11
967.554	7224.56
967.856	7203.54
968.158	7151.56
968.46	7144.78
968.761	7129.64
969.063	7075.18
969.365	7062.75
969.666	7032.47
969.968	6933.04
970.269	6905.69
970.571	6933.49
970.872	6931.46
971.174	6846.03
971.475	6846.94
971.776	6810.78
972.077	6765.58
972.378	6726.26
972.679	6672.25
972.98	6702.31
973.281	6650.11
973.582	6594.97
973.883	6597.68
974.183	6497.8
974.484	6533.27
974.785	6463.67
975.085	6477
975.386	6407.4
975.686	6383.22
975.986	6321.53
976.287	6284.24
976.587	6305.71
976.887	6270.46
977.187	6253.51
977.487	6184.13
977.787	6183.45
978.087	6180.97
978.387	6120.63
978.687	6066.85
978.987	6047.86
979.286	6042.67
979.586	6032.04
979.885	5947.3
980.185	5953.4
980.484	5928.77
980.784	5856.68
981.083	5860.52
981.382	5813.07
981.682	5810.13
981.981	5789.57
982.28	5780.3
982.579	5707.99
982.878	5685.16
983.177	5648.55
983.475	5635.67
983.774	5596.8
984.073	5612.17
984.372	5532.4
984.67	5546.41
984.969	5490.82
985.267	5479.74
985.566	5485.84
985.864	5443.36
986.162	5432.29
986.461	5403.59
986.759	5343.02
987.057	5283.82
987.355	5328.11
987.653	5286.53
987.951	5278.17
988.249	5254.66
988.547	5243.82
988.844	5247.66
989.142	5129.02
989.44	5132.18
989.737	5124.27
990.035	5106.42
990.332	5115.68
990.63	5066.87
990.927	5037.49
991.224	4997.72
991.521	5003.6
991.819	4921.79
992.116	4894.45
992.413	4913.88
992.71	4849.25
993.006	4841.12
993.303	4802.25
993.6	4798.86
993.897	4778.74
994.193	4763.83
994.49	4704.4
994.787	4699.42
995.083	4699.42
995.379	4659.2
995.676	4673.89
995.972	4580.33
996.268	4556.83
996.565	4521.12
996.861	4507.79
997.157	4476.38
997.453	4435.02
997.749	4422.14
998.044	4448.36
998.34	4407.68
998.636	4392.09
998.932	4369.49
999.227	4375.82
999.523	4300.11
999.818	4301.02
1000.114	4251.07
1000.409	4225.54
1000.704	4175.37
1001	4200.23
1001.295	4177.86
1001.59	4146.22
1001.885	4107.58
1002.18	4051.31
1002.475	4089.72
1002.77	4013.79
1003.065	4008.14
1003.359	4018.76
1003.654	4009.05
1003.949	3962.72
1004.243	3956.85
1004.538	3921.37
1004.832	3929.28
1005.127	3897.19
1005.421	3854.7
1005.715	3814.93
1006.009	3784.65
1006.304	3769.28
1006.598	3775.38
1006.892	3735.16
1007.186	3694.48
1007.48	3679.79
1007.773	3631.43
1008.067	3715.04
1008.361	3625.78
1008.655	3622.16
1008.948	3604.54
1009.242	3550.53
1009.535	3531.09
1009.829	3520.92
1010.122	3440.7
1010.415	3495.84
1010.708	3479.8
1011.001	3387.14
1011.295	3382.17
1011.588	3378.1
1011.881	3332.68
1012.173	3286.81
1012.466	3346.47
1012.759	3272.8
1013.052	3292
1013.344	3255.85
1013.637	3216.53
1013.93	3205.68
1014.222	3172.68
1014.514	3154.61
1014.807	3100.82
1015.099	3111.22
1015.391	3090.43
1015.683	3088.17
1015.976	3019.02
1016.268	3024.67
1016.56	3017.89
1016.851	2991.22
1017.143	2948.28
1017.435	2946.25
1017.727	2948.51
1018.018	2911.22
1018.31	2916.42
1018.602	2870.09
1018.893	2874.16
1019.185	2825.12
1019.476	2803.88
1019.767	2822.41
1020.058	2746.93
1020.35	2749.42
1020.641	2711.45
1020.932	2686.14
1021.223	2702.87
1021.514	2681.17
1021.804	2659.48
1022.095	2637.78
1022.386	2620.16
1022.677	2629.87
1022.967	2586.03
1023.258	2563.44
1023.548	2546.49
1023.839	2548.07
1024.129	2509.2
1024.419	2507.17
1024.709	2460.16
1025	2449.54
1025.29	2418.13
1025.58	2400.05
1025.87	2390.33
1026.16	2384.46
1026.449	2356.21
1026.739	2341.52
1027.029	2326.15
1027.319	2277.34
1027.608	2321.41
1027.898	2260.39
1028.187	2256.78
1028.477	2255.42
1028.766	2229.21
1029.055	2223.11
1029.344	2202.77
1029.634	2195.99
1029.923	2160.73
1030.212	2131.58
1030.501	2108.08
1030.79	2097.68
1031.078	2090.23
1031.367	2057.46
1031.656	2071.02
1031.945	2049.78
1032.233	2019.49
1032.522	2035.09
1032.81	2004.58
1033.099	2016.78
1033.387	1975.2
1033.675	1968.65
1033.963	1941.08
1034.251	1950.57
1034.54	1911.7
1034.828	1901.53
1035.116	1901.08
1035.403	1882.78
1035.691	1859.73
1035.979	1830.8
1036.267	1839.16
1036.554	1805.04
1036.842	1828.54
1037.129	1788.77
1037.417	1746.73
1037.704	1742.44
1037.992	1776.79
1038.279	1741.76
1038.566	1723.91
1038.853	1723.91
1039.14	1723.91
