Data from 18-1248_FLMS001491_006.txt Node
Date: Thu Apr 19 16:24:35 BST 2018
User: hsy
Spectrometer: FLMS00149
Trigger mode: 0
Integration Time (sec): 1.000000E-2
Scans to average: 10
Electric dark correction enabled: true
Nonlinearity correction enabled: false
Boxcar width: 0
XAxis mode: Wavelengths
Number of Pixels in Spectrum: 2048
>>>>>Begin Spectral Data<<<<<
341.393	-2.54
341.776	-2.54
342.16	-2.54
342.543	-45.48
342.927	-57.91
343.31	-59.72
343.693	-60.17
344.077	-64.46
344.46	-62.43
344.843	-57.23
345.226	-51.81
345.61	-33.95
345.993	-15.42
346.376	12.6
346.759	10.11
347.142	38.81
347.525	37
347.908	35.87
348.291	59.15
348.674	99.83
349.057	111.8
349.44	116.1
349.823	140.28
350.206	171.24
350.588	236.77
350.971	245.13
351.354	258.02
351.737	295.3
352.119	312.25
352.502	303.21
352.884	320.16
353.267	328.07
353.65	357.22
354.032	340.5
354.414	358.35
354.797	365.13
355.179	370.56
355.562	367.17
355.944	364.91
356.326	373.49
356.709	391.12
357.091	390.22
357.473	392.48
357.855	416.88
358.238	397.67
358.62	383.21
359.002	378.01
359.384	390.67
359.766	381.18
360.148	400.84
360.53	376.88
360.912	401.51
361.294	383.44
361.676	375.75
362.057	381.85
362.439	392.02
362.821	380.72
363.203	389.54
363.584	403.55
363.966	382.76
364.348	392.7
364.729	399.48
365.111	384.79
365.493	364.45
365.874	365.36
366.256	364.91
366.637	365.58
367.019	383.66
367.4	366.71
367.781	392.25
368.163	391.35
368.544	383.66
368.925	370.1
369.306	380.72
369.688	390.89
370.069	394.96
370.45	375.53
370.831	390.22
371.212	395.64
371.593	356.77
371.974	407.16
372.355	404.45
372.736	391.57
373.117	400.61
373.498	395.87
373.879	397.67
374.26	408.52
374.641	406.49
375.021	403.55
375.402	417.11
375.783	404.23
376.163	435.86
376.544	416.43
376.925	418.92
377.305	415.07
377.686	420.72
378.066	424.57
378.447	424.57
378.827	422.53
379.208	420.27
379.588	445.58
379.968	443.77
380.349	437.45
380.729	431.12
381.109	464.34
381.489	440.16
381.87	452.59
382.25	440.16
382.63	451.46
383.01	441.06
383.39	458.01
383.77	467.05
384.15	455.3
384.53	451.91
384.91	456.43
385.29	483.09
385.67	479.7
386.049	490.78
386.429	457.33
386.809	500.95
387.189	471.57
387.568	488.07
387.948	471.34
388.328	501.4
388.707	476.54
389.087	500.04
389.466	513.38
389.846	504.56
390.225	516.09
390.605	520.61
390.984	527.61
391.363	505.69
391.743	521.96
392.122	529.65
392.501	519.7
392.881	520.16
393.26	548.18
393.639	535.07
394.018	546.37
394.397	532.58
394.776	565.13
395.155	587.72
395.534	565.8
395.913	566.03
396.292	586.14
396.671	563.77
397.05	603.77
397.429	583.88
397.808	582.53
398.186	591.79
398.565	610.1
398.944	596.76
399.323	588.63
399.701	608.52
400.08	593.15
400.458	633.15
400.837	610.32
401.215	630.21
401.594	641.96
401.972	631.57
402.351	613.49
402.729	625.01
403.107	636.76
403.486	642.64
403.864	663.43
404.242	665.91
404.62	642.19
404.999	671.11
405.377	681.96
405.755	684.45
406.133	696.87
406.511	693.26
406.889	710.21
407.267	705.01
407.645	729.64
408.023	705.46
408.401	733.26
408.779	742.07
409.156	760.38
409.534	754.95
409.912	773.71
410.29	774.39
410.667	788.4
411.045	799.47
411.422	817.55
411.8	810.32
412.178	834.95
412.555	808.06
412.933	841.28
413.31	835.4
413.687	842.41
414.065	846.47
414.442	864.78
414.819	866.14
415.197	890.09
415.574	907.72
415.951	898
416.328	899.35
416.705	917.43
417.082	899.81
417.46	921.05
417.837	935.74
418.214	922.63
418.591	944.33
418.967	969.18
419.344	974.16
419.721	960.37
420.098	970.31
420.475	972.12
420.852	990.43
421.228	1010.99
421.605	998.56
421.982	999.92
422.358	1024.55
422.735	1021.61
423.111	1040.82
423.488	1043.08
423.864	1061.84
424.241	1075.62
424.617	1086.47
424.994	1103.64
425.37	1141.38
425.746	1091.67
426.123	1089.18
426.499	1134.38
426.875	1144.32
427.251	1149.52
427.627	1169.86
428.003	1185.9
428.379	1170.53
428.756	1186.35
429.132	1227.03
429.507	1222.74
429.883	1242.4
430.259	1250.31
430.635	1294.15
431.011	1300.47
431.387	1311.55
431.763	1317.65
432.138	1333.02
432.514	1355.61
432.89	1347.48
433.265	1397.42
433.641	1403.3
434.016	1411.88
434.392	1438.32
434.767	1450.3
435.143	1448.49
435.518	1450.75
435.894	1485.55
436.269	1527.81
436.644	1521.26
437.02	1526.23
437.395	1508.38
437.77	1533.91
438.145	1590.64
438.52	1591.31
438.895	1593.35
439.271	1587.7
439.646	1623.86
440.021	1618.66
440.395	1674.7
440.77	1617.53
441.145	1653.01
441.52	1687.58
441.895	1680.8
442.27	1745.89
442.645	1716.06
443.019	1708.6
443.394	1723.06
443.769	1751.31
444.143	1743.4
444.518	1708.83
444.892	1760.58
445.267	1753.8
445.641	1784.08
446.016	1794.47
446.39	1829.05
446.764	1838.99
447.139	1784.76
447.513	1835.38
447.887	1828.37
448.262	1905.2
448.636	1886
449.01	1870.85
449.384	1912.89
449.758	1935.26
450.132	1951.76
450.506	1960.57
450.88	1976.61
451.254	1969.16
451.628	2014.35
452.002	2026.78
452.376	2020.46
452.75	2054.13
453.123	2097.97
453.497	2084.63
453.871	2152.2
454.244	2161.47
454.618	2173.9
454.992	2201.02
455.365	2233.56
455.739	2255.03
456.112	2296.38
456.486	2321.69
456.859	2335.48
457.232	2334.57
457.606	2392.87
457.979	2415.47
458.352	2468.81
458.725	2474.45
459.099	2492.53
459.472	2526.43
459.845	2576.37
460.218	2598.52
460.591	2641.23
460.964	2658.18
461.337	2708.12
461.71	2760.77
462.083	2732.3
462.456	2773.2
462.829	2756.93
463.201	2823.6
463.574	2807.1
463.947	2855.01
464.32	2917.15
464.692	3000.77
465.065	2970.03
465.438	2999.64
465.81	3037.15
466.183	3059.07
466.555	3164.38
466.928	3131.61
467.3	3134.32
467.672	3150.14
468.045	3281.67
468.417	3254.55
468.789	3301.33
469.161	3330.7
469.534	3383.36
469.906	3449.8
470.278	3445.5
470.65	3485.73
471.022	3570.47
471.394	3610.47
471.766	3624.48
472.138	3677.81
472.51	3770.92
472.882	3783.35
473.253	3866.96
473.625	3901.76
473.997	3954.19
474.369	4020.4
474.74	4054.07
475.112	4115.77
475.484	4188.76
475.855	4283.67
476.227	4244.58
476.598	4409.55
476.97	4427.4
477.341	4515.53
477.713	4599.82
478.084	4629.43
478.455	4728.63
478.827	4775.41
479.198	4952.81
479.569	4972.69
479.94	5087.95
480.311	5150.09
480.682	5215.4
481.053	5395.06
481.424	5481.83
481.795	5494.94
482.166	5650.19
482.537	5653.58
482.908	5783.07
483.279	5866.46
483.65	5978.09
484.021	6121.59
484.391	6188.93
484.762	6252.89
485.133	6316.39
485.503	6454.01
485.874	6571.75
486.244	6612.88
486.615	6731.97
486.985	6936.71
487.356	7016.26
487.726	7086.08
488.097	7239.98
488.467	7327.21
488.837	7471.16
489.207	7587.09
489.578	7718.38
489.948	7819.85
490.318	7970.81
490.688	7930.81
491.058	8203.57
491.428	8263.23
491.798	8325.83
492.168	8519.27
492.538	8669.55
492.908	8737.57
493.278	8960.39
493.648	8914.06
494.017	9078.12
494.387	9183.66
494.757	9264.11
495.126	9367.83
495.496	9455.06
495.866	9568.05
496.235	9690.31
496.605	9764.43
496.974	9915.39
497.344	9964.65
497.713	10013.69
498.082	10203.97
498.452	10316.73
498.821	10400.35
499.19	10450.52
499.559	10565.32
499.928	10622.26
500.298	10745.88
500.667	10848.25
501.036	10895.7
501.405	11030.39
501.774	11067
502.143	11136.37
502.512	11273.55
502.88	11393.09
503.249	11417.27
503.618	11583.37
503.987	11628.11
504.356	11600.09
504.724	11775
505.093	11830.14
505.462	12003.92
505.83	12013.64
506.199	12198.94
506.567	12382.67
506.936	12309.68
507.304	12511.25
507.672	12514.64
508.041	12632.61
508.409	12744.47
508.777	12878.02
509.145	13000.51
509.514	13001.64
509.882	13072.37
510.25	13081.18
510.618	13234.17
510.986	13284.11
511.354	13394.39
511.722	13492.02
512.09	13695.18
512.458	13661.05
512.826	13805.91
513.193	13878.22
513.561	13958.45
513.929	14000.71
514.297	14199.57
514.664	14355.5
515.032	14375.38
515.4	14509.62
515.767	14488.38
516.135	14677.07
516.502	14576.96
516.869	14974.24
517.237	14950.74
517.604	14893.34
517.972	15153.67
518.339	15300.78
518.706	15323.83
519.073	15273.21
519.44	15411.74
519.808	15625.75
520.175	15687.21
520.542	15968.11
520.909	15979.18
521.276	16044.95
521.643	16244.71
522.009	16300.76
522.376	16516.35
522.743	16654.87
523.11	16763.12
523.477	16949.33
523.843	17002.21
524.21	17301.64
524.577	17335.31
524.943	17510.67
525.31	17562.42
525.676	17808.51
526.043	18003.31
526.409	17929.42
526.776	18213.7
527.142	18243.98
527.508	18479.46
527.874	18588.16
528.241	18640.13
528.607	18812.78
528.973	19132.32
529.339	18984.3
529.705	19294.58
530.071	19448.02
530.437	19559.43
530.803	19623.38
531.169	19720.33
531.535	19841
531.901	19904.5
532.267	20055.91
532.632	20285.74
532.998	20241.9
533.364	20327.77
533.73	20461.55
534.095	20556.01
534.461	20723.69
534.826	20728.44
535.192	20795.78
535.557	20973.18
535.923	21078.26
536.288	21131.14
536.653	21283.9
537.019	21206.39
537.384	21340.4
537.749	21424.69
538.114	21571.81
538.479	21570
538.845	21687.51
539.21	21535.65
539.575	21647.51
539.94	21803.44
540.305	21968.18
540.67	21943.55
541.034	21953.72
541.399	22025.13
541.764	22137.89
542.129	22219.7
542.494	22201.62
542.858	22482.06
543.223	22310.32
543.587	22484.1
543.952	22602.51
544.316	22652.23
544.681	22659.69
545.045	22746.01
545.41	22757.54
545.774	22849.96
546.138	22963.86
546.503	22993.01
546.867	23132.44
547.231	23247.92
547.595	23218.77
547.959	23283.85
548.324	23335.6
548.688	23432.77
549.052	23488.59
549.416	23477.97
549.779	23633.45
550.143	23583.96
550.507	23773.78
550.871	23820.33
551.235	23879.99
551.599	24021.23
551.962	24094.23
552.326	24102.81
552.689	24322.47
553.053	24115.92
553.417	24175.81
553.78	24541.45
554.143	24470.49
554.507	24607.88
554.87	24717.26
555.234	24889.23
555.597	24750.03
555.96	24949.12
556.323	25056.23
556.686	25107.98
557.05	25220.75
557.413	25266.4
557.776	25193.63
558.139	25516.79
558.502	25563.57
558.865	25695.99
559.228	25828.64
559.59	25860.05
559.953	26060.5
560.316	26332.58
560.679	26310.66
561.041	26542.3
561.404	26515.4
561.767	26827.71
562.129	26768.51
562.492	27016.86
562.854	26967.14
563.217	27116.52
563.579	27217.76
563.941	27384.31
564.304	27531.42
564.666	27840.79
565.028	27816.84
565.39	27908.14
565.753	28097.74
566.115	28171.63
566.477	28398.74
566.839	28528.01
567.201	28803.03
567.563	28798.51
567.925	28954.66
568.287	29048.9
568.648	29170.48
569.01	29448.89
569.372	29830.57
569.734	29704.7
570.095	29942.66
570.457	30083.22
570.819	30224.23
571.18	30174.74
571.542	30452.02
571.903	30630.78
572.265	30838.23
572.626	31017.43
572.987	31033.03
573.349	31324.77
573.71	31307.59
574.071	31592.56
574.432	31787.58
574.794	32063.06
575.155	31982.15
575.516	32061.02
575.877	32235.71
576.238	32538.07
576.599	32627.56
576.96	32597.96
577.32	32825.75
577.681	32920.43
578.042	33053.99
578.403	33132.86
578.763	33293.98
579.124	33378.05
579.485	33657.14
579.845	33881.09
580.206	33812.16
580.566	33968.99
580.927	34175.09
581.287	34189.33
581.648	34156.11
582.008	34361.75
582.368	34745.47
582.728	34715.41
583.089	34689.88
583.449	34852.59
583.809	35045.58
584.169	35217.77
584.529	35168.28
584.889	35535.28
585.249	35405.11
585.609	35575.73
585.969	35956.74
586.329	36056.85
586.688	36321.25
587.048	36395.6
587.408	36472.43
587.768	36746.32
588.127	37037.61
588.487	37079.42
588.846	37609.8
589.206	37383.37
589.565	37756.01
589.925	38104.03
590.284	38171.14
590.643	38446.84
591.003	38742.2
591.362	38902.2
591.721	39171.34
592.08	39391.68
592.44	39800.48
592.799	39960.93
593.158	40173.35
593.517	40367.24
593.876	40682.72
594.235	40898.08
594.593	41088.13
594.952	41524.5
595.311	41712.29
595.67	41968.56
596.029	42517.24
596.387	42658.93
596.746	43063.22
597.104	43051.24
597.463	43318.35
597.822	43805.35
598.18	43795.63
598.538	44189.06
598.897	44517.87
599.255	44601.71
599.613	45354.46
599.972	45128.47
600.33	45647.1
600.688	45665.41
601.046	46132.52
601.404	46540.87
601.762	46716.23
602.12	46868.32
602.478	47237.8
602.836	47304.91
603.194	47400.73
603.552	47646.37
603.91	47946.71
604.268	48261.73
604.625	48333.81
604.983	48693.8
605.341	48512.79
605.698	49066
606.056	49419.89
606.413	49286.33
606.771	49710.27
607.128	49813.77
607.485	49803.38
607.843	50099.19
608.2	50373.99
608.557	50590.03
608.914	50759.29
609.272	50972.16
609.629	51152.72
609.986	51299.61
610.343	51384.58
610.7	51691.24
611.057	51773.72
611.414	51798.58
611.771	51996.09
612.127	52168.74
612.484	52263.65
612.841	52432.24
613.198	52436.08
613.554	52447.6
613.911	52763.3
614.267	52866.35
614.624	52946.35
614.98	53054.37
615.337	53309.95
615.693	53315.15
616.05	53341.37
616.406	53522.15
616.762	53526.67
617.118	53685.31
617.475	53747.91
617.831	53861.58
618.187	53941.58
618.543	53956.94
618.899	54300.21
619.255	54245.07
619.611	54285.97
619.967	54441.68
620.323	54551.05
620.678	54512.18
621.034	54489.81
621.39	54504.95
621.746	54671.05
622.101	54990.36
622.457	54770.48
622.812	54965.5
623.168	54956.69
623.523	54884.6
623.879	55111.04
624.234	54843.7
624.589	55117.36
624.945	55127.76
625.3	55152.84
625.655	55223.12
626.01	55388.54
626.365	55303.8
626.72	55214.76
627.075	55272.61
627.43	55307.19
627.785	55197.36
628.14	55357.36
628.495	55384.7
628.85	55476.9
629.205	55337.02
629.559	55480.07
629.914	55319.62
630.269	55374.31
630.623	55269.9
630.978	55158.72
631.332	55363.46
631.687	55444.59
632.041	55365.04
632.396	55331.6
632.75	55323.91
633.104	55339.73
633.459	55257.93
633.813	55161.66
634.167	55247.53
634.521	55235.1
634.875	55245.95
635.229	55175.44
635.583	55101.77
635.937	55098.61
636.291	55105.84
636.645	55085.5
636.999	55051.83
637.352	55042.79
637.706	54847.54
638.06	55049.8
638.413	54932.06
638.767	54857.48
639.121	54984.49
639.474	54879.86
639.828	54855
640.181	54833.76
640.534	54864.26
640.888	54699.75
641.241	54628.79
641.594	54660.88
641.947	54768.45
642.301	54587.43
642.654	54650.26
643.007	54510.15
643.36	54618.85
643.713	54510.37
644.066	54681.67
644.419	54455.69
644.771	54236.71
645.124	53932.54
645.477	53903.61
645.83	53801.92
646.182	53797.17
646.535	53694.58
646.888	53757.17
647.24	53796.04
647.593	53873.78
647.945	53765.31
648.298	53692.09
648.65	53505.43
649.002	53348.15
649.355	53303.17
649.707	53161.26
650.059	53216.17
650.411	53749.49
650.763	53831.3
651.115	54208.69
651.467	54132.31
651.819	54167.56
652.171	54144.73
652.523	54017.96
652.875	54084.4
653.227	53876.04
653.578	54128.01
653.93	54090.27
654.282	53862.03
654.633	53958.07
654.985	53917.17
655.337	53945.19
655.688	53945.42
656.039	54087.79
656.391	53716.27
656.742	53912.88
657.094	53882.37
657.445	53878.75
657.796	53906.1
658.147	53806.89
658.498	53851.63
658.849	53821.13
659.2	53811.64
659.551	53723.5
659.902	53948.36
660.253	53735.71
660.604	53916.49
660.955	53683.05
661.306	53888.24
661.656	53708.59
662.007	53792.2
662.358	53765.99
662.708	53904.29
663.059	53775.48
663.409	53632.21
663.76	53790.17
664.11	53854.8
664.461	53817.51
664.811	53913.55
665.161	53779.32
665.511	53790.39
665.862	53798.53
666.212	53838.75
666.562	53873.1
666.912	53864.29
667.262	53697.97
667.612	53769.83
667.962	53872.65
668.312	53744.29
668.662	53924.63
669.011	53877.4
669.361	53803.05
669.711	53853.89
670.06	53650.96
670.41	53610.96
670.76	53689.61
671.109	53873.56
671.459	53661.36
671.808	53774.35
672.157	53736.16
672.507	53591.98
672.856	53621.36
673.205	53636.27
673.554	53681.7
673.904	53595.82
674.253	53846.44
674.602	53646.89
674.951	53109.96
675.3	53081.03
675.649	53553.79
675.998	53489.61
676.346	53490.51
676.695	53620.68
677.044	53403.06
677.393	53403.29
677.741	53570.74
678.09	53409.84
678.438	53322.84
678.787	53500.46
679.135	53411.42
679.484	53199.45
679.832	53328.03
680.181	53278.99
680.529	53245.55
680.877	53134.14
681.225	53110.41
681.573	53348.15
681.922	53068.15
682.27	53025.22
682.618	52949.74
682.966	52846.92
683.314	52946.12
683.661	52856.18
684.009	52714.26
684.357	52695.28
684.705	52644.89
685.053	52655.96
685.4	52557.66
685.748	52495.06
686.095	52459.81
686.443	52353.82
686.79	52238.12
687.138	52268.63
687.485	52384.1
687.832	52140.72
688.18	52086.48
688.527	51941.85
688.874	51966.71
689.221	51845.59
689.568	51715.42
689.915	51547.51
690.262	51647.85
690.609	51505.03
690.956	51550.45
691.303	51454.18
691.65	51164.25
691.997	51329.89
692.344	51156.11
692.69	50991.37
693.037	50950.92
693.383	50711.83
693.73	50811.49
694.077	50521.78
694.423	50572.17
694.769	50395.23
695.116	50397.94
695.462	50272.07
695.808	50061.68
696.155	50254.44
696.501	49798.18
696.847	49936.03
697.193	49690.61
697.539	49696.72
697.885	49482.03
698.231	49332.88
698.577	49220.8
698.923	49280.91
699.269	48938.54
699.614	48847.7
699.96	48744.42
700.306	48762.5
700.651	48545.11
700.997	48440.48
701.342	48288.17
701.688	48139.24
702.033	48026.48
702.379	48043.2
702.724	47798.23
703.069	47960.49
703.415	47399.15
703.76	47512.82
704.105	47496.1
704.45	47256.33
704.795	47118.25
705.14	46935.66
705.485	46976.79
705.83	46717.36
706.175	46967.07
706.52	46657.47
706.865	46448.44
707.209	46306.52
707.554	46267.43
707.899	46286.64
708.243	46048.9
708.588	45948.11
708.932	45685.07
709.277	45886.87
709.621	45586.77
709.966	45373.44
710.31	45410.73
710.654	45212.99
710.998	45292.99
711.342	45234.91
711.687	45146.33
712.031	45018.19
712.375	44770.97
712.719	44813
713.063	44600.35
713.407	44860.91
713.75	44553.8
714.094	44591.31
714.438	44422.96
714.782	44396.52
715.125	44255.73
715.469	44398.1
715.812	44071.33
716.156	43945
716.499	44040.59
716.843	44054.38
717.186	43806.7
717.53	43956.75
717.873	43905.23
718.216	43877.89
718.559	43728.29
718.902	43316.54
719.246	43450.1
719.589	43396.99
719.932	43301.86
720.275	43239.48
720.617	43279.26
720.96	43119.94
721.303	43134.18
721.646	43186.38
721.989	43055.76
722.331	43019.6
722.674	43046.5
723.016	43015.99
723.359	42771.7
723.701	42839.5
724.044	42622.33
724.386	42557.02
724.729	42930.11
725.071	42672.27
725.413	42748.42
725.755	42624.36
726.097	42429.11
726.439	42425.95
726.782	42491.93
727.124	42624.13
727.465	42492.84
727.807	42424.82
728.149	42510.92
728.491	42408.32
728.833	42404.03
729.175	42276.8
729.516	42159.06
729.858	42156.58
730.199	42354.08
730.541	42208.33
730.882	42185.05
731.224	42199.74
731.565	42118.38
731.906	42243.58
732.248	42300.75
732.589	42151.6
732.93	42099.18
733.271	42251.94
733.612	42090.36
733.953	42294.42
734.294	42027.09
734.635	42080.19
734.976	42198.83
735.317	42006.07
735.658	42003.36
735.999	41999.07
736.339	41941.67
736.68	42052.85
737.021	42197.7
737.361	41942.8
737.702	42213.75
738.042	42145.95
738.383	42276.12
738.723	42334.2
739.063	42280.19
739.404	42377.13
739.744	42337.81
740.084	42167.42
740.424	42399.73
740.764	42367.42
741.104	42512.27
741.444	42452.84
741.784	42347.76
742.124	42478.83
742.464	42508.66
742.804	42487.87
743.143	42527.41
743.483	42648.99
743.823	42500.52
744.162	42565.15
744.502	42682.66
744.841	42660.06
745.181	42929.66
745.52	42745.03
745.86	42920.4
746.199	42925.82
746.538	43015.99
746.877	43268.86
747.216	43130.33
747.556	43310.9
747.895	43287.17
748.234	43413.94
748.573	43278.58
748.911	43358.8
749.25	43631.34
749.589	43500.04
749.928	43703.2
750.267	43846.7
750.605	43735.74
750.944	43879.47
751.283	43908.17
751.621	44122.63
751.96	43993.36
752.298	44047.37
752.636	44347.7
752.975	44253.02
753.313	44469.06
753.651	44709.28
753.989	44563.29
754.327	44707.69
754.666	44533.01
755.004	44857.97
755.342	45001.7
755.679	45076.27
756.017	44917.18
756.355	45252.99
756.693	45184.07
757.031	45542.02
757.368	45372.99
757.706	45427.9
758.044	45511.06
758.381	45552.42
758.719	45508.13
759.056	45880.09
759.394	45789.7
759.731	45601.68
760.068	45639.65
760.405	45947.66
760.743	45688.01
761.08	45904.5
761.417	45854.11
761.754	45843.03
762.091	45886.42
762.428	45777.95
762.765	45713.09
763.102	45869.25
763.438	45921.22
763.775	45715.58
764.112	45934.55
764.449	45951.73
764.785	45855.01
765.122	45886.65
765.458	45727.55
765.795	45668.57
766.131	45815.69
766.467	45680.1
766.804	45554.23
767.14	45462.93
767.476	45513.1
767.812	45489.37
768.148	45576.37
768.485	45399.2
768.821	45300.67
769.157	45207.12
769.492	45271.75
769.828	45145.42
770.164	44873.34
770.5	44817.52
770.836	44966.22
771.171	44744.98
771.507	44678.09
771.842	44569.62
772.178	44610.75
772.513	44528.26
772.849	44364.65
773.184	44323.3
773.519	44212.34
773.855	44049.63
774.19	43963.31
774.525	43914.72
774.86	43883.54
775.195	43832.46
775.53	43642.41
775.865	43604.9
776.2	43332.14
776.535	42999.26
776.87	43030
777.205	42987.29
777.539	42791.59
777.874	42792.72
778.209	42539.39
778.543	42409.45
778.878	42298.94
779.212	42343.24
779.547	42013.53
779.881	42209.46
780.215	41770.6
780.55	41908.22
780.884	41701.67
781.218	41580.55
781.552	41564.05
781.886	41421.68
782.22	41157.28
782.554	41056.04
782.888	40669.16
783.222	40641.13
783.556	40559.56
783.889	40519.78
784.223	40122.5
784.557	40175.38
784.89	40301.26
785.224	40005.9
785.557	39734.27
785.891	39856.07
786.224	39600.26
786.558	39560.71
786.891	39392.13
787.224	39134.06
787.557	39135.41
787.891	39008.41
788.224	38854.97
788.557	38814.74
788.89	38894.29
789.223	38677.34
789.556	38398.93
789.888	38493.62
790.221	38114.87
790.554	38107.19
790.887	38022.9
791.219	37812.28
791.552	37769.8
791.884	37646.19
792.217	37649.58
792.549	37414.33
792.882	37147.67
793.214	37050.49
793.546	37078.74
793.879	37008.46
794.211	36748.36
794.543	36820.67
794.875	36779.77
795.207	36519.44
795.539	36430.62
795.871	36479.44
796.203	36147.69
796.535	35936.4
796.867	35993.8
797.198	35594.94
797.53	35747.25
797.862	35482.85
798.193	35461.61
798.525	35363.53
798.856	35500.48
799.188	34954.05
799.519	34884.22
799.85	34846.48
800.182	34845.81
800.513	34932.36
800.844	34348.42
801.175	34645.59
801.506	34538.7
801.837	34398.81
802.168	34297.57
802.499	34235.43
802.83	34104.13
803.161	33889.67
803.491	33983.23
803.822	33924.93
804.153	33731.03
804.483	33442.45
804.814	33396.58
805.145	33424.6
805.475	33487.65
805.805	33424.83
806.136	33485.39
806.466	33113.88
806.796	33173.76
807.126	32889.7
807.457	32856.48
807.787	32975.35
808.117	32778.06
808.447	32644.28
808.777	32693.1
809.107	32565.87
809.436	32261.92
809.766	32328.36
810.096	32371.3
810.426	32164.52
810.755	32258.76
811.085	32075.94
811.414	32083.39
811.744	31907.81
812.073	31833
812.403	31819.9
812.732	31598.43
813.061	31633.01
813.39	31452.22
813.719	31452
814.049	31549.85
814.378	31486.35
814.707	31195.96
815.036	31314.6
815.365	31101.27
815.693	30982.18
816.022	31045.91
816.351	30930.2
816.68	30782.18
817.008	30826.03
817.337	30618.35
817.665	30595.75
817.994	30533.15
818.322	30541.51
818.651	30467.84
818.979	30318.24
819.307	30399.14
819.636	30334.74
819.964	30293.84
820.292	30285.25
820.62	30060.17
820.948	30188.3
821.276	30367.73
821.604	30294.29
821.932	30305.59
822.259	30203.9
822.587	30112.37
822.915	29905.37
823.243	30233.27
823.57	29843.23
823.898	30249.09
824.225	30176.33
824.553	30061.75
824.88	30090.9
825.207	30202.31
825.535	30118.25
825.862	30132.71
826.189	30110.34
826.516	30434.17
826.843	30283.89
827.17	30371.35
827.497	30199.6
827.824	30318.24
828.151	30191.69
828.478	30114.41
828.805	30304.01
829.131	30196.21
829.458	30238.7
829.785	30086.38
830.111	30125.71
830.438	30343.78
830.764	30199.38
831.09	30261.29
831.417	30038.7
831.743	30317.79
832.069	30209.09
832.395	30120.28
832.722	30247.51
833.048	30071.02
833.374	30212.03
833.7	30070.34
834.026	30189.43
834.351	30124.8
834.677	30094.75
835.003	30024.69
835.329	30107.63
835.654	29925.03
835.98	29838.71
836.306	29889.55
836.631	29877.35
836.956	29986.05
837.282	29987.18
837.607	29930
837.932	29847.07
838.258	29800.97
838.583	29736.79
838.908	29612.5
839.233	29724.36
839.558	29510.13
839.883	29497.47
840.208	29288.21
840.533	29407.76
840.858	29334.54
841.182	29342.67
841.507	29286.63
841.832	29060.2
842.156	29128.67
842.481	29049.8
842.805	29056.81
843.13	28934.32
843.454	28956.47
843.778	28740.43
844.103	28747.89
844.427	28601
844.751	28779.3
845.075	28710.6
845.399	28542.24
845.723	28414.11
846.047	28338.86
846.371	28293.89
846.695	28204.85
847.019	28037.17
847.343	27815.48
847.666	27927.8
847.99	27697.75
848.313	27460.01
848.637	27562.38
848.96	27373.46
849.284	27366.46
849.607	27172.34
849.931	27145.9
850.254	26937.77
850.577	26881.04
850.9	26655.29
851.223	26729.64
851.546	26593.14
851.869	26373.71
852.192	26597.66
852.515	26219.59
852.838	26248.97
853.161	26089.2
853.483	25990.22
853.806	25992.71
854.129	25795.42
854.451	25758.36
854.774	25718.36
855.096	25534.41
855.419	25553.17
855.741	25445.15
856.063	25297.36
856.385	25229.79
856.708	25298.94
857.03	25170.81
857.352	25049.23
857.674	25053.75
857.996	24982.34
858.318	24780.76
858.64	24751.61
858.961	24637.71
859.283	24558.62
859.605	24422.35
859.926	24368.34
860.248	24497.15
860.57	24262.36
860.891	24379.19
861.212	24186.65
861.534	24216.48
861.855	24108.01
862.176	24063.94
862.498	24149.14
862.819	24048.58
863.14	23852.42
863.461	23894.91
863.782	23896.26
864.103	23848.58
864.424	23611.98
864.745	23661.69
865.065	23574.24
865.386	23534.92
865.707	23570.4
866.027	23633.22
866.348	23488.59
866.668	23430.74
866.989	23412.44
867.309	23253.8
867.63	23306.68
867.95	23412.44
868.27	23266
868.59	23306.45
868.91	23253.34
869.23	23123.86
869.55	22987.59
869.87	23058.77
870.19	23086.12
870.51	22941.26
870.83	22944.65
871.15	22838.21
871.469	22867.36
871.789	22857.42
872.109	22771.1
872.428	22685.45
872.748	22773.81
873.067	22682.28
873.386	22670.08
873.706	22612
874.025	22561.16
874.344	22418.34
874.663	22542.18
874.982	22441.61
875.301	22389.19
875.62	22348.73
875.939	22216.99
876.258	22374.5
876.577	22161.62
876.896	22231.68
877.214	22196.87
877.533	22302.63
877.852	22106.93
878.17	22180.6
878.489	22156.2
878.807	22087.27
879.125	21989.42
879.444	21865.13
879.762	21917.33
880.08	21951
880.398	21830.1
880.716	21833.72
881.034	21702.65
881.352	21816.55
881.67	21608.41
881.988	21564.57
882.306	21504.01
882.624	21487.51
882.941	21305.37
883.259	21323.22
883.577	21367.29
883.894	21302.89
884.212	21231.25
884.529	21150.8
884.846	21147.18
885.164	21051.82
885.481	20975.44
885.798	21003.69
886.115	20904.03
886.432	20970.47
886.75	20853.41
887.067	20774.76
887.383	20694.99
887.7	20711.04
888.017	20612.73
888.334	20504.94
888.651	20494.77
888.967	20371.84
889.284	20360.54
889.6	20318.96
889.917	20252.07
890.233	20224.27
890.55	20179.98
890.866	20168.9
891.182	19977.72
891.498	19967.55
891.815	19864.28
892.131	19790.38
892.447	19845.52
892.763	19829.03
893.079	19795.81
893.395	19675.13
893.71	19606.21
894.026	19578.41
894.342	19435.82
894.657	19359.21
894.973	19416.38
895.289	19453.9
895.604	19310.17
895.92	19080.8
896.235	19057.97
896.55	19133.68
896.865	18951.08
897.181	18980.24
897.496	18900.24
897.811	18851.2
898.126	18749.28
898.441	18641.49
898.756	18712.45
899.071	18540.47
899.386	18515.84
899.7	18396.52
900.015	18227.49
900.33	18200.37
900.644	18298.45
900.959	18197.66
901.273	18177.54
901.588	18041.5
901.902	17968.28
902.216	17892.58
902.531	17795.18
902.845	17869.3
903.159	17661.63
903.473	17640.61
903.787	17530.1
904.101	17457.79
904.415	17453.95
904.729	17460.05
905.042	17386.38
905.356	17235.2
905.67	17166.72
905.984	17183.45
906.297	17093.51
906.611	16922.21
906.924	16954.98
907.237	16831.82
907.551	16877.01
907.864	16601.77
908.177	16713.63
908.491	16634.08
908.804	16517.48
909.117	16466.86
909.43	16442.68
909.743	16303.47
910.056	16335.11
910.368	16221.66
910.681	16140.08
910.994	16049.92
911.307	15903.03
911.619	15890.83
911.932	15911.62
912.244	15715.01
912.557	15723.15
912.869	15679.31
913.181	15619.42
913.494	15570.38
913.806	15450.38
914.118	15395.02
914.43	15324.06
914.742	15200
915.054	15226.66
915.366	15146.66
915.678	15117.74
915.99	15069.15
916.302	14971.75
916.613	14934.69
916.925	14870.51
917.236	14858.54
917.548	14739.44
917.859	14755.04
918.171	14560.69
918.482	14430.3
918.794	14432.33
919.105	14339.68
919.416	14355.95
919.727	14271.43
920.038	14287.03
920.349	14145.33
920.66	14158.22
920.971	14054.26
921.282	14013.81
921.593	13953.25
921.903	13850.43
922.214	13806.59
922.525	13732.24
922.835	13746.47
923.146	13664.89
923.456	13507.61
923.767	13434.17
924.077	13471.23
924.387	13437.1
924.697	13320.72
925.008	13312.36
925.318	13263.55
925.628	13187.62
925.938	13198.01
926.248	13028.75
926.558	12897.46
926.867	12963.67
927.177	12942.2
927.487	12824.92
927.796	12741.98
928.106	12743.34
928.416	12595.77
928.725	12678.25
929.034	12605.71
929.344	12566.17
929.653	12516.45
929.962	12344.03
930.271	12381.31
930.581	12314.42
930.89	12236.01
931.199	12154.43
931.508	12156.23
931.817	12074.2
932.125	12045.5
932.434	11923.25
932.743	11851.61
933.051	11864.49
933.36	11835.34
933.669	11690.48
933.977	11740.2
934.286	11636.7
934.594	11611.39
934.902	11521.22
935.21	11460.21
935.519	11378.4
935.827	11401.23
936.135	11277.84
936.443	11357.16
936.751	11173.21
937.059	11270.38
937.367	11123.49
937.674	11146.09
937.982	11091.86
938.29	11052.53
938.597	10980.22
938.905	10869.04
939.213	10826.33
939.52	10792.88
939.827	10782.94
940.135	10737.29
940.442	10741.81
940.749	10633.11
941.056	10678.98
941.363	10548.59
941.67	10428.6
941.977	10397.86
942.284	10454.81
942.591	10297.07
942.898	10304.31
943.205	10309.05
943.511	10295.27
943.818	10171.88
944.125	10098.89
944.431	10145.89
944.738	10090.75
945.044	10058.66
945.35	9903.64
945.657	9900.93
945.963	9907.48
946.269	9783.19
946.575	9846.46
946.881	9709.29
947.187	9753.13
947.493	9617.77
947.799	9669.52
948.105	9530.54
948.41	9505.68
948.716	9521.28
949.022	9379.13
949.327	9367.61
949.633	9275.86
949.938	9267.04
950.244	9273.6
950.549	9218.01
950.854	9106.37
951.16	9136.43
951.465	9051.46
951.77	9017.79
952.075	8963.55
952.38	9006.03
952.685	8914.51
952.99	8875.64
953.294	8877.45
953.599	8803.33
953.904	8741.86
954.209	8702.77
954.513	8692.37
954.818	8745.93
955.122	8725.36
955.426	8587.97
955.731	8567.18
956.035	8568.76
956.339	8410.8
956.643	8441.08
956.948	8389.55
957.252	8335.77
957.556	8355.88
957.86	8289.44
958.163	8245.6
958.467	8227.75
958.771	8193.17
959.075	8155.21
959.378	8063.46
959.682	8073.4
959.985	8045.83
960.289	7911.83
960.592	7945.72
960.896	7901.66
961.199	7891.26
961.502	7903.24
961.805	7775.78
962.108	7712.96
962.411	7766.97
962.714	7620.99
963.017	7611.27
963.32	7559.29
963.623	7549.58
963.926	7555.68
964.228	7521.1
964.531	7471.39
964.833	7531.95
965.136	7387.32
965.438	7369.47
965.741	7279.07
966.043	7326.3
966.345	7314.33
966.648	7223.93
966.95	7249.47
967.252	7151.85
967.554	7190.49
967.856	7091.73
968.158	7087.44
968.46	7063.71
968.761	7014.9
969.063	6929.93
969.365	6958.86
969.666	6911.17
969.968	6879.31
970.269	6838.41
970.571	6831.63
970.872	6811.97
971.174	6737.17
971.475	6754.12
971.776	6734.91
972.077	6712.99
972.378	6670.5
972.679	6649.49
972.98	6643.61
973.281	6535.14
973.582	6544.18
973.883	6449.94
974.183	6458.3
974.484	6432.99
974.785	6346.9
975.085	6375.82
975.386	6317.74
975.686	6277.74
975.986	6252.21
976.287	6297.63
976.587	6221.02
976.887	6198.65
977.187	6160.46
977.487	6086.79
977.787	6155.49
978.087	6064.87
978.387	6065.32
978.687	6009.28
978.987	5924.53
979.286	5957.53
979.586	5961.82
979.885	5880.01
980.185	5857.64
980.484	5861.03
980.784	5840.02
981.083	5807.93
981.382	5799.79
981.682	5740.81
981.981	5748.72
982.28	5669.62
982.579	5621.04
982.878	5631.43
983.177	5618.78
983.475	5583.07
983.774	5533.36
984.073	5554.83
984.372	5489.97
984.67	5505.34
984.969	5443.42
985.267	5425.34
985.566	5397.77
985.864	5368.84
986.162	5348.73
986.461	5349.41
986.759	5285.91
987.057	5248.39
987.355	5239.13
987.653	5220.37
987.951	5141.96
988.249	5169.07
988.547	5138.11
988.844	5098.79
989.142	5101.05
989.44	5065.57
989.737	4995.07
990.035	5022.86
990.332	5003.88
990.63	4976.54
990.927	4983.09
991.224	4902.19
991.521	4882.53
991.819	4875.07
992.116	4870.1
992.413	4856.99
992.71	4748.75
993.006	4764.34
993.303	4720.27
993.6	4767.95
993.897	4731.8
994.193	4654.96
994.49	4686.83
994.787	4640.5
995.083	4569.09
995.379	4516.89
995.676	4549.43
995.972	4509.66
996.268	4545.36
996.565	4491.35
996.861	4468.98
997.157	4417.68
997.453	4419.94
997.749	4432.6
998.044	4371.13
998.34	4337.23
998.636	4287.97
998.932	4295.88
999.227	4234.86
999.523	4240.51
999.818	4236.67
1000.114	4209.55
1000.409	4202.09
1000.704	4126.84
1001	4112.83
1001.295	4082.32
1001.59	4065.6
1001.885	4080.51
1002.18	4036.45
1002.475	4005.71
1002.77	3986.05
1003.065	3960.52
1003.359	3917.81
1003.654	3911.71
1003.949	3878.94
1004.243	3875.55
1004.538	3811.14
1004.832	3836.45
1005.127	3829.67
1005.421	3822.22
1005.715	3779.28
1006.009	3776.34
1006.304	3762.33
1006.598	3683.69
1006.892	3660.19
1007.186	3637.14
1007.48	3620.87
1007.773	3550.36
1008.067	3591.71
1008.361	3531.15
1008.655	3505.39
1008.948	3485.05
1009.242	3474.43
1009.535	3463.58
1009.829	3439.85
1010.122	3429.46
1010.415	3404.15
1010.708	3394.2
1011.001	3364.83
1011.295	3395.79
1011.588	3304.26
1011.881	3283.02
1012.173	3290.25
1012.466	3283.7
1012.759	3235.11
1013.052	3222.91
1013.344	3191.95
1013.637	3181.55
1013.93	3156.7
1014.222	3163.02
1014.514	3116.25
1014.807	3095.46
1015.099	3049.81
1015.391	3052.29
1015.683	3073.31
1015.976	3026.3
1016.268	3025.17
1016.56	2984.27
1016.851	2944.5
1017.143	2973.2
1017.435	2910.83
1017.727	2888.46
1018.018	2839.42
1018.31	2825.41
1018.602	2825.18
1018.893	2805.75
1019.185	2803.71
1019.476	2754.9
1019.767	2758.06
1020.058	2764.16
1020.35	2713.09
1020.641	2691.62
1020.932	2670.16
1021.223	2642.59
1021.514	2611.4
1021.804	2591.97
1022.095	2620.21
1022.386	2564.17
1022.677	2542.93
1022.967	2551.51
1023.258	2502.25
1023.548	2521.69
1023.839	2492.53
1024.129	2476.04
1024.419	2481.01
1024.709	2443.04
1025	2421.35
1025.29	2415.25
1025.58	2367.11
1025.87	2364.63
1026.16	2332.09
1026.449	2333.44
1026.739	2328.47
1027.029	2329.15
1027.319	2269.49
1027.608	2244.18
1027.898	2253.9
1028.187	2206.21
1028.477	2190.17
1028.766	2169.38
1029.055	2136.84
1029.344	2162.37
1029.634	2138.87
1029.923	2164.18
1030.212	2107.46
1030.501	2095.48
1030.79	2081.02
1031.078	2066.33
1031.367	2020
1031.656	2037.86
1031.945	2014.58
1032.233	2010.29
1032.522	1992.89
1032.81	1994.02
1033.099	1925.54
1033.387	1955.15
1033.675	1926.22
1033.963	1934.36
1034.251	1929.84
1034.54	1869.05
1034.828	1864.3
1035.116	1844.19
1035.403	1843.96
1035.691	1812.78
1035.979	1843.06
1036.267	1788.37
1036.554	1801.93
1036.842	1773.23
1037.129	1760.58
1037.417	1742.04
1037.704	1723.51
1037.992	1699.33
1038.279	1708.37
1038.566	1692.55
1038.853	1692.55
1039.14	1692.55
