Data from 18-1248_FLMS001491_008.txt Node
Date: Thu Apr 19 16:24:39 BST 2018
User: hsy
Spectrometer: FLMS00149
Trigger mode: 0
Integration Time (sec): 1.000000E-2
Scans to average: 10
Electric dark correction enabled: true
Nonlinearity correction enabled: false
Boxcar width: 0
XAxis mode: Wavelengths
Number of Pixels in Spectrum: 2048
>>>>>Begin Spectral Data<<<<<
341.393	-7.67
341.776	-7.67
342.16	-7.67
342.543	-44.5
342.927	-61.68
343.31	-80.89
343.693	-50.83
344.077	-83.6
344.46	-61
344.843	-42.02
345.226	-48.12
345.61	-34.34
345.993	-23.04
346.376	-19.19
346.759	17.87
347.142	33.01
347.525	43.4
347.908	61.48
348.291	76.4
348.674	93.57
349.057	117.3
349.44	147.35
349.823	142.61
350.206	185.77
350.588	226.22
350.971	249.27
351.354	267.13
351.737	277.07
352.119	283.85
352.502	341.47
352.884	329.5
353.267	334.69
353.65	346.9
354.032	348.48
354.414	350.29
354.797	366.11
355.179	377.63
355.562	366.11
355.944	374.47
356.326	386.22
356.709	390.06
357.091	369.72
357.473	394.35
357.855	390.96
358.238	407.01
358.62	386.22
359.002	399.78
359.384	403.17
359.766	400
360.148	389.83
360.53	406.11
360.912	384.86
361.294	400.91
361.676	394.81
362.057	394.13
362.439	383.73
362.821	400.23
363.203	388.93
363.584	390.74
363.966	396.84
364.348	384.86
364.729	380.57
365.111	383.73
365.493	388.48
365.874	380.57
366.256	386.9
366.637	362.72
367.019	373.79
367.4	384.86
367.781	384.86
368.163	367.24
368.544	392.77
368.925	379.89
369.306	380.34
369.688	355.49
370.069	392.77
370.45	370.4
370.831	404.52
371.212	375.15
371.593	377.18
371.974	388.48
372.355	385.31
372.736	390.96
373.117	390.29
373.498	402.72
373.879	385.99
374.26	405.88
374.641	373.79
375.021	385.54
375.402	406.33
375.783	417.4
376.163	422.6
376.544	405.2
376.925	425.09
377.305	418.08
377.686	414.92
378.066	436.84
378.447	419.21
378.827	439.78
379.208	436.39
379.588	436.16
379.968	446.1
380.349	429.61
380.729	444.97
381.109	440.91
381.489	434.35
381.87	443.62
382.25	456.5
382.63	440
383.01	466.89
383.39	433.45
383.77	447.01
384.15	447.69
384.53	471.87
384.91	463.96
385.29	468.25
385.67	450.62
386.049	488.36
386.429	466.89
386.809	500.11
387.189	475.48
387.568	478.19
387.948	469.83
388.328	508.02
388.707	504.86
389.087	506.89
389.466	505.99
389.846	496.5
390.225	500.79
390.605	501.47
390.984	515.03
391.363	521.36
391.743	536.95
392.122	538.53
392.501	524.97
392.881	517.06
393.26	553.9
393.639	553.9
394.018	547.8
394.397	541.92
394.776	572.65
395.155	567.91
395.534	554.8
395.913	570.85
396.292	544.18
396.671	560
397.05	583.95
397.429	563.62
397.808	562.03
398.186	575.14
398.565	577.85
398.944	591.64
399.323	596.61
399.701	593.22
400.08	608.13
400.458	605.2
400.837	603.39
401.215	607
401.594	629.15
401.972	613.33
402.351	630.96
402.729	634.35
403.107	648.36
403.486	655.59
403.864	665.53
404.242	645.42
404.62	666.89
404.999	663.73
405.377	660.34
405.755	663.05
406.133	689.94
406.511	692.2
406.889	704.4
407.267	703.05
407.645	707.11
408.023	715.02
408.401	716.61
408.779	729.94
409.156	736.49
409.534	721.13
409.912	749.82
410.29	743.5
410.667	757.51
411.045	783.95
411.422	780.33
411.8	779.43
412.178	806.77
412.555	824.63
412.933	809.94
413.31	811.29
413.687	851.97
414.065	855.36
414.442	865.53
414.819	836.38
415.197	850.39
415.574	845.19
415.951	868.69
416.328	894.23
416.705	891.29
417.082	906.88
417.46	878.86
417.837	929.26
418.214	910.27
418.591	924.06
418.967	924.96
419.344	944.4
419.721	951.18
420.098	939.88
420.475	964.73
420.852	980.78
421.228	982.36
421.605	953.21
421.982	991.85
422.358	1006.32
422.735	1013.32
423.111	996.37
423.488	1017.39
423.864	1018.29
424.241	1024.39
424.617	1051.74
424.994	1049.03
425.37	1087.67
425.746	1061.68
426.123	1076.14
426.499	1077.27
426.875	1088.35
427.251	1136.03
427.627	1153.2
428.003	1125.41
428.379	1158.4
428.756	1154.33
429.132	1175.35
429.507	1189.59
429.883	1202.47
430.259	1209.25
430.635	1245.63
431.011	1227.55
431.387	1251.05
431.763	1275.69
432.138	1278.17
432.514	1282.69
432.89	1348.68
433.265	1357.72
433.641	1359.98
434.016	1340.09
434.392	1382.12
434.767	1392.52
435.143	1391.62
435.518	1381.45
435.894	1425.97
436.269	1470.26
436.644	1452.86
437.02	1478.17
437.395	1488.11
437.77	1490.14
438.145	1517.94
438.52	1527.66
438.895	1560.65
439.271	1562.68
439.646	1582.57
440.021	1581.67
440.395	1591.38
440.77	1579.18
441.145	1604.72
441.52	1641.55
441.895	1642.46
442.27	1651.95
442.645	1672.29
443.019	1651.95
443.394	1684.49
443.769	1691.95
444.143	1692.62
444.518	1706.18
444.892	1710.25
445.267	1717.26
445.641	1734.88
446.016	1765.62
446.39	1757.71
446.764	1760.19
447.139	1765.84
447.513	1792.96
447.887	1802.68
448.262	1807.65
448.636	1830.7
449.01	1841.1
449.384	1850.36
449.758	1853.98
450.132	1854.43
450.506	1893.07
450.88	1883.81
451.254	1891.94
451.628	1920.42
452.002	1971.71
452.376	1949.79
452.75	1973.3
453.123	2005.16
453.497	2035.44
453.871	2042.22
454.244	2061.2
454.618	2100.98
454.992	2108.89
455.365	2132.61
455.739	2160.41
456.112	2200.18
456.486	2220.29
456.859	2244.25
457.232	2310.01
457.606	2296.68
457.979	2313.4
458.352	2381.19
458.725	2391.59
459.099	2416.67
459.472	2421.19
459.845	2435.43
460.218	2506.39
460.591	2504.81
460.964	2520.63
461.337	2568.08
461.71	2627.97
462.083	2658.7
462.456	2637.68
462.829	2673.39
463.201	2707.97
463.574	2774.18
463.947	2769.88
464.32	2796.78
464.692	2851.01
465.065	2880.16
465.438	2890.79
465.81	2870.45
466.183	2912.03
466.555	2959.71
466.928	3011.01
467.3	3001.29
467.672	3092.59
468.045	3130.33
468.417	3137.33
468.789	3162.42
469.161	3235.41
469.534	3295.07
469.906	3260.27
470.278	3289.65
470.65	3348.63
471.022	3418
471.394	3449.87
471.766	3517.66
472.138	3537.32
472.51	3587.94
472.882	3613.48
473.253	3746.36
473.625	3722.85
473.997	3811.44
474.369	3864.09
474.74	3906.58
475.112	3964.2
475.484	3988.38
475.855	4074.94
476.227	4137.31
476.598	4227.7
476.97	4225.21
477.341	4370.75
477.713	4373.68
478.084	4435.38
478.455	4548.14
478.827	4568.71
479.198	4717.18
479.569	4701.59
479.94	4862.71
480.311	4901.13
480.682	4997.17
481.053	5114.91
481.424	5175.7
481.795	5260.67
482.166	5322.81
482.537	5464.05
482.908	5539.08
483.279	5641
483.65	5711.5
484.021	5858.17
484.391	5915.34
484.762	5918.28
485.133	6044.37
485.503	6139.74
485.874	6302.67
486.244	6352.84
486.615	6537.47
486.985	6580.41
487.356	6714.19
487.726	6749.44
488.097	6967.29
488.467	7003.22
488.837	7138.36
489.207	7269.43
489.578	7346.04
489.948	7479.59
490.318	7567.27
490.688	7694.73
491.058	7812.24
491.428	7905.34
491.798	8015.85
492.168	8146.69
492.538	8228.05
492.908	8399.12
493.278	8486.12
493.648	8553.24
494.017	8737.64
494.387	8800.46
494.757	8877.52
495.126	8925.2
495.496	9067.12
495.866	9223.27
496.235	9284.29
496.605	9456.26
496.974	9485.19
497.344	9602.25
497.713	9607.22
498.082	9758.85
498.452	9910.26
498.821	9993.2
499.19	10013.76
499.559	10100.99
499.928	10171.27
500.298	10310.25
500.667	10453.52
501.036	10521.32
501.405	10546.18
501.774	10627.76
502.143	10748.66
502.512	10864.14
502.88	11005.15
503.249	11013.06
503.618	11198.36
503.987	11164.01
504.356	11246.05
504.724	11368.3
505.093	11406.04
505.462	11524
505.83	11525.59
506.199	11730.1
506.567	11796.99
506.936	11841.06
507.304	11994.28
507.672	12154.27
508.041	12090.54
508.409	12256.42
508.777	12390.2
509.145	12472.68
509.514	12501.83
509.882	12559.01
510.25	12709.74
510.618	12845.1
510.986	12797.87
511.354	12940.69
511.722	13045.32
512.09	13170.06
512.458	13076.05
512.826	13290.06
513.193	13369.83
513.561	13479.89
513.929	13530.96
514.297	13750.61
514.664	13765.53
515.032	13867.22
515.4	14005.75
515.767	14055.01
516.135	14176.36
516.502	14174.1
516.869	14436.7
517.237	14437.83
517.604	14475.11
517.972	14717.14
518.339	14687.31
518.706	14808.89
519.073	14817.93
519.44	15009.79
519.808	15116.45
520.175	15124.36
520.542	15348.09
520.909	15492.71
521.276	15483
521.643	15687.51
522.009	15824.23
522.376	15939.71
522.743	15967.5
523.11	16117.1
523.477	16367.72
523.843	16379.02
524.21	16509.41
524.577	16746.92
524.943	16852.68
525.31	16857.2
525.676	17161.6
526.043	17248.15
526.409	17358.65
526.776	17504.86
527.142	17651.98
527.508	17668.93
527.874	17892.2
528.241	18037.51
528.607	18008.35
528.973	18290.38
529.339	18238.86
529.705	18570.83
530.071	18711.61
530.437	18844.04
530.803	18898.73
531.169	18972.62
531.535	19121.32
531.901	19169.91
532.267	19296.23
532.632	19339.17
532.998	19571.93
533.364	19605.6
533.73	19701.42
534.095	19861.64
534.461	19951.35
534.826	19986.16
535.192	20077.9
535.557	20255.53
535.923	20297.33
536.288	20347.95
536.653	20489.87
537.019	20436.54
537.384	20596.31
537.749	20580.49
538.114	20729.41
538.479	20816.64
538.845	20810.09
539.21	20877.88
539.575	20902.74
539.94	21075.17
540.305	21200.36
540.67	21175.5
541.034	21262.05
541.399	21241.26
541.764	21393.12
542.129	21406
542.494	21590.86
542.858	21737.3
543.223	21592.44
543.587	21857.52
543.952	21650.29
544.316	21852.77
544.681	21731.19
545.045	21978.65
545.41	22105.42
545.774	22082.37
546.138	22094.8
546.503	22132.09
546.867	22148.13
547.231	22310.16
547.595	22377.05
547.959	22481.46
548.324	22519.42
548.688	22574.11
549.052	22636.93
549.416	22556.48
549.779	22652.3
550.143	22793.31
550.507	22952.4
550.871	23033.76
551.235	23084.38
551.599	23236.47
551.962	23146.75
552.326	23178.16
552.689	23323.92
553.053	23206.41
553.417	23371.6
553.78	23644.14
554.143	23608.43
554.507	23606.17
554.87	23831.03
555.234	23871.7
555.597	23824.47
555.96	23937.69
556.323	24047.74
556.686	24151.7
557.05	24308.08
557.413	24392.59
557.776	24510.1
558.139	24649.31
558.502	24715.75
558.865	24713.49
559.228	24958.91
559.59	24917.55
559.953	24921.39
560.316	25265.11
560.679	25306.69
561.041	25375.62
561.404	25639.57
561.767	25707.59
562.129	25676.4
562.492	25974.92
562.854	26039.78
563.217	26104.86
563.579	26100.57
563.941	26363.61
564.304	26509.83
564.666	26683.15
565.028	26692.87
565.39	26841.79
565.753	26987.78
566.115	27070.94
566.477	27246.76
566.839	27465.96
567.201	27693.75
567.563	27670.02
567.925	27891.26
568.287	27954.76
568.648	28140.29
569.01	28288.54
569.372	28614.63
569.734	28531.69
570.095	28773.72
570.457	28860.72
570.819	28985.01
571.18	29029.76
571.542	29254.39
571.903	29400.6
572.265	29564.43
572.626	29802.62
572.987	29834.94
573.349	29920.36
573.71	30166.9
574.071	30335.26
574.432	30650.96
574.794	30815.93
575.155	30694.8
575.516	30830.16
575.877	30937.05
576.238	31067.9
576.599	31380.21
576.96	31297.72
577.32	31546.76
577.681	31718.5
578.042	31915.79
578.403	32033.3
578.763	32002.34
579.124	32185.16
579.485	32519.39
579.845	32575.65
580.206	32660.85
580.566	32708.76
580.927	32767.06
581.287	33006.83
581.648	33070.78
582.008	33289.53
582.368	33322.75
582.728	33453.15
583.089	33445.24
583.449	33665.8
583.809	33835.96
584.169	34061.27
584.529	34018.1
584.889	34624.64
585.249	34425.1
585.609	34589.16
585.969	34853.56
586.329	34905.54
586.688	35149.37
587.048	35396.6
587.408	35533.77
587.768	35654.9
588.127	35998.84
588.487	36064.15
588.846	36634.31
589.206	36392.05
589.565	36644.93
589.925	36988.87
590.284	37206.72
590.643	37447.62
591.003	37664.33
591.362	38099.35
591.721	38259.8
592.08	38406.24
592.44	38966
592.799	39024.98
593.158	39235.14
593.517	39436.04
593.876	39851.85
594.235	40067.21
594.593	40218.84
594.952	40664.03
595.311	40788.55
595.67	41006.62
596.029	41530.9
596.387	41815.19
596.746	42148.06
597.104	42085.24
597.463	42437.32
597.822	42878.66
598.18	42875.95
598.538	43293.34
598.897	43693.55
599.255	43709.6
599.613	44463.48
599.972	44305.97
600.33	44756.13
600.688	44656.92
601.046	45225.04
601.404	45690.11
601.762	45848.98
602.12	46135.75
602.478	46357.21
602.836	46633.36
603.194	46634.72
603.552	46886.46
603.91	47119.23
604.268	47403.74
604.625	47599.44
604.983	47822.71
605.341	47853.45
605.698	48378.63
606.056	48593.31
606.413	48563.71
606.771	49159.85
607.128	49179.96
607.485	49138.16
607.843	49438.71
608.2	49626.51
608.557	49896.56
608.914	49976.78
609.272	50234.4
609.629	50577.89
609.986	50675.29
610.343	50771.11
610.7	51056.07
611.057	51148.5
611.414	51162.51
611.771	51564.76
612.127	51615.15
612.484	51715.04
612.841	51900.34
613.198	51819.67
613.554	52001.81
613.911	52354.34
614.267	52354.57
614.624	52415.59
614.98	52495.81
615.337	52787.33
615.693	52830.72
616.05	52948.23
616.406	53091.05
616.762	53065.96
617.118	53097.38
617.475	53192.97
617.831	53345.28
618.187	53529.68
618.543	53536.69
618.899	53797.47
619.255	53837.69
619.611	53796.79
619.967	54005.6
620.323	54079.72
620.678	53937.8
621.034	54049.89
621.39	54169.21
621.746	54112.72
622.101	54497.79
622.457	54326.95
622.812	54537.79
623.168	54513.16
623.523	54488.3
623.879	54688.29
624.234	54448.3
624.589	54670.44
624.945	54695.07
625.3	54737.78
625.655	54747.05
626.01	54902.3
626.365	54850.78
626.72	54816.88
627.075	54776.65
627.43	54839.93
627.785	54928.51
628.14	54858.91
628.495	54943.65
628.85	54978.91
629.205	54836.99
629.559	55011.9
629.914	54916.54
630.269	54925.58
630.623	54760.38
630.978	54769.2
631.332	54980.26
631.687	55001.51
632.041	54897.33
632.396	55019.58
632.75	54842.41
633.104	54841.74
633.459	54679.03
633.813	54754.05
634.167	54748.41
634.521	54756.31
634.875	54761.51
635.229	54785.92
635.583	54616.88
635.937	54691.01
636.291	54677.22
636.645	54617.56
636.999	54609.88
637.352	54613.72
637.706	54510.22
638.06	54612.36
638.413	54489.65
638.767	54466.83
639.121	54532.82
639.474	54392.03
639.828	54482.88
640.181	54418.92
640.534	54410.33
640.888	54311.81
641.241	54255.99
641.594	54277.23
641.947	54388.87
642.301	54212.37
642.654	54378.02
643.007	54230.45
643.36	54328.3
643.713	54211.47
644.066	54370.79
644.419	54255.08
644.771	53834.3
645.124	53569.45
645.477	53545.05
645.83	53461.89
646.182	53387.76
646.535	53317.93
646.888	53399.29
647.24	53354.54
647.593	53503.92
647.945	53313.41
648.298	53354.32
648.65	53075
649.002	52952.07
649.355	52841.79
649.707	52781.23
650.059	52809.25
650.411	53211.72
650.763	53414.88
651.115	53909.33
651.467	53728.09
651.819	53743.46
652.171	53693.97
652.523	53609.68
652.875	53651.03
653.227	53524.03
653.578	53778.94
653.93	53533.97
654.282	53547.31
654.633	53474.54
654.985	53561.77
655.337	53538.27
655.688	53520.87
656.039	53720.86
656.391	53389.8
656.742	53465.95
657.094	53503.69
657.445	53489.23
657.796	53487.42
658.147	53406.29
658.498	53455.78
658.849	53572.84
659.2	53393.19
659.551	53350.93
659.902	53536.91
660.253	53485.16
660.604	53494.43
660.955	53411.49
661.306	53561.77
661.656	53378.05
662.007	53465.95
662.358	53559.06
662.708	53449.23
663.059	53449.46
663.409	53337.59
663.76	53517.25
664.11	53442.9
664.461	53495.33
664.811	53489
665.161	53434.54
665.511	53350.25
665.862	53374.66
666.212	53475.67
666.562	53550.7
666.912	53472.05
667.262	53237.48
667.612	53347.99
667.962	53406.75
668.312	53432.96
668.662	53536.91
669.011	53499.4
669.361	53428.44
669.711	53463.69
670.06	53317.03
670.41	53252.17
670.76	53147.77
671.109	53360.42
671.459	53296.92
671.808	53303.25
672.157	53375.79
672.507	53066.87
672.856	53109.8
673.205	53210.37
673.554	53262.79
673.904	53142.12
674.253	53344.83
674.602	53261.21
674.951	52812.18
675.3	52535.36
675.649	53158.62
675.998	53162.68
676.346	53123.14
676.695	53177.37
677.044	52958.17
677.393	53014.67
677.741	53137.83
678.09	52949.58
678.438	52880.43
678.787	52976.7
679.135	52949.13
679.484	52761.11
679.832	52839.75
680.181	52812.64
680.529	52881.79
680.877	52678.4
681.225	52747.78
681.573	52894.67
681.922	52687.22
682.27	52497.39
682.618	52578.97
682.966	52538.75
683.314	52521.57
683.661	52513.66
684.009	52367.22
684.357	52282.26
684.705	52164.74
685.053	52265.76
685.4	52175.59
685.748	52015.82
686.095	51985.09
686.443	51828.03
686.79	51827.35
687.138	51938.54
687.485	51911.87
687.832	51692.67
688.18	51667.36
688.527	51527.25
688.874	51587.58
689.221	51445.22
689.568	51328.16
689.915	51160.7
690.262	51292.9
690.609	51161.38
690.956	51060.59
691.303	50996.41
691.65	50933.59
691.997	50857.21
692.344	50684.78
692.69	50572.92
693.037	50625.12
693.383	50193.27
693.73	50396.88
694.077	50247.73
694.423	50292.48
694.769	50008.64
695.116	50040.05
695.462	49774.52
695.808	49688.2
696.155	49755.99
696.501	49488.66
696.847	49555.55
697.193	49213.41
697.539	49319.62
697.885	49025.62
698.231	48990.36
698.577	48859.07
698.923	48808.22
699.269	48522.58
699.614	48551.96
699.96	48224.51
700.306	48264.96
700.651	48212.31
700.997	47944.29
701.342	47958.3
701.688	47765.09
702.033	47731.87
702.379	47684.18
702.724	47354.93
703.069	47521.02
703.415	47138.21
703.76	46892.11
704.105	46990.19
704.45	46780.48
704.795	46813.02
705.14	46594.04
705.485	46644.89
705.83	46378.68
706.175	46567.38
706.52	46346.37
706.865	46141.63
707.209	45979.6
707.554	45941.63
707.899	45872.71
708.243	45442.66
708.588	45584.35
708.932	45291.7
709.277	45450.34
709.621	45202.89
709.966	44984.82
710.31	45003.35
710.654	44648.56
710.998	44828.67
711.342	44850.36
711.687	44663.92
712.031	44506.19
712.375	44422.35
712.719	44241.79
713.063	44171.96
713.407	44372.18
713.75	44136.71
714.094	44092.64
714.438	43986.88
714.782	43863.49
715.125	43619.88
715.469	43936.94
715.812	43340.34
716.156	43472.09
716.499	43616.72
716.843	43544.18
717.186	43290.18
717.53	43529.27
717.873	43502.6
718.216	43330.63
718.559	43058.54
718.902	42862.39
719.246	43002.73
719.589	42994.82
719.932	42817.42
720.275	42810.64
720.617	42755.73
720.96	42636.18
721.303	42697.87
721.646	42822.62
721.989	42642.73
722.331	42594.83
722.674	42377.2
723.016	42560.03
723.359	42358.45
723.701	42480.71
724.044	42242.29
724.386	42042.75
724.729	42367.49
725.071	42238.68
725.413	42246.13
725.755	42159.58
726.097	42050.66
726.439	42094.05
726.782	42035.29
727.124	42299.01
727.465	42118.45
727.807	41861.96
728.149	42008.85
728.491	41917.1
728.833	42020.83
729.175	41870.1
729.516	41741.52
729.858	41838.46
730.199	42010.43
730.541	41861.96
730.882	41800.04
731.224	41853.83
731.565	41657.22
731.906	41692.7
732.248	41689.09
732.589	41516.66
732.93	41615.19
733.271	41560.5
733.612	41592.59
733.953	41596.43
734.294	41586.27
734.635	41743.78
734.976	41860.61
735.317	41629.43
735.658	41640.05
735.999	41616.77
736.339	41592.37
736.68	41684.79
737.021	41719.37
737.361	41598.24
737.702	41923.21
738.042	41746.49
738.383	41954.62
738.723	41912.81
739.063	41654.96
739.404	41807.95
739.744	41947.61
740.084	41786.03
740.424	41835.07
740.764	41920.04
741.104	42162.97
741.444	41904.68
741.784	41880.95
742.124	42155.97
742.464	42042.98
742.804	42169.07
743.143	41961.17
743.483	42172.69
743.823	42032.36
744.162	42204.55
744.502	42322.97
744.841	42333.36
745.181	42463.3
745.52	42452.23
745.86	42506.24
746.199	42493.36
746.538	42480.93
746.877	42817.19
747.216	42773.58
747.556	42882.05
747.895	42939
748.234	42960.24
748.573	42968.38
748.911	42971.99
749.25	43133.57
749.589	43169.73
749.928	43272.55
750.267	43646.55
750.605	43507.12
750.944	43534.69
751.283	43627.12
751.621	43721.12
751.96	43706.66
752.298	43830.27
752.636	43862.14
752.975	43927.45
753.313	43787.56
753.651	44288.79
753.989	44195.69
754.327	44471.16
754.666	44253.77
755.004	44428.45
755.342	44522.46
755.679	44712.96
756.017	44608.11
756.355	44736.92
756.693	44710.93
757.031	45019.17
757.368	44707.09
757.706	44910.92
758.044	44912.96
758.381	45133.74
758.719	45060.07
759.056	45086.96
759.394	45198.15
759.731	44935.56
760.068	45128.77
760.405	45304.36
760.743	45123.12
761.08	45352.04
761.417	45215.32
761.754	45331.48
762.091	45349.56
762.428	45369.67
762.765	45276.34
763.102	45381.87
763.438	45416.9
763.775	45176.91
764.112	45350.46
764.449	45321.99
764.785	45311.37
765.122	45132.16
765.458	45190.69
765.795	45244.93
766.131	45334.42
766.467	45046.97
766.804	44973.52
767.14	44904.82
767.476	44990.7
767.812	44893.75
768.148	45049.23
768.485	44835.9
768.821	44580.99
769.157	44625.28
769.492	44548.67
769.828	44680.65
770.164	44246.99
770.5	44303.26
770.836	44377.38
771.171	44161.11
771.507	44178.97
771.842	43841.12
772.178	44010.38
772.513	43873.21
772.849	43678.19
773.184	43672.54
773.519	43600.9
773.855	43459.21
774.19	43405.65
774.525	43216.73
774.86	43160.24
775.195	43192.32
775.53	43061.71
775.865	42787.36
776.2	42563.87
776.535	42345.12
776.87	42372.46
777.205	42246.36
777.539	42152.58
777.874	42251.11
778.209	41971.79
778.543	41899.03
778.878	41698.8
779.212	41602.31
779.547	41256.56
779.881	41450
780.215	41041.87
780.55	41290
780.884	41007.07
781.218	40846.17
781.552	40960.07
781.886	40667.87
782.22	40410.48
782.554	40318.95
782.888	39997.15
783.222	40074.44
783.556	39976.59
783.889	39770.95
784.223	39419.99
784.557	39557.62
784.89	39468.81
785.224	39223.16
785.557	39158.08
785.891	39086.9
786.224	38987.01
786.558	38972.77
786.891	38647.36
787.224	38511.77
787.557	38469.06
787.891	38320.81
788.224	38212.34
788.557	38201.5
788.89	38007.15
789.223	37925.57
789.556	37725.12
789.888	37677.89
790.221	37472.48
790.554	37335.3
790.887	37254.85
791.219	37192.93
791.552	37104.12
791.884	37011.02
792.217	36795.2
792.549	36640.63
792.882	36549.11
793.214	36340.75
793.546	36466.17
793.879	36107.99
794.211	35990.71
794.543	36150.7
794.875	36074.77
795.207	35866.42
795.539	35689.25
795.871	35899.64
796.203	35553.43
796.535	35397.73
796.867	35348.69
797.198	34935.37
797.53	35003.61
797.862	34688.59
798.193	34900.79
798.525	34705.32
798.856	34726.11
799.188	34421.03
799.519	34387.36
799.85	34308.04
800.182	34172.22
800.513	34209.96
800.844	33772.69
801.175	34082.28
801.506	34096.97
801.837	33722.52
802.168	33742.18
802.499	33707.15
802.83	33332.02
803.161	33350.32
803.491	33311.45
803.822	33385.35
804.153	32993.95
804.483	32938.13
804.814	32818.59
805.145	32831.92
805.475	32903.33
805.805	32697.91
806.136	32628.76
806.466	32419.27
806.796	32437.81
807.126	32260.86
807.457	32261.54
807.787	32285.04
808.117	32179.73
808.447	31978.38
808.777	32154.2
809.107	31848.22
809.436	31737.71
809.766	31687.99
810.096	31618.62
810.426	31488.45
810.755	31572.74
811.085	31423.82
811.414	31492.29
811.744	31298.63
812.073	31165.3
812.403	31192.64
812.732	30939.31
813.061	31073.55
813.39	30809.37
813.719	30730.51
814.049	31056.15
814.378	30839.43
814.707	30522.15
815.036	30667.68
815.365	30478.53
815.693	30171.65
816.022	30351.08
816.351	30197.41
816.68	30092.56
817.008	30243.06
817.337	29889.85
817.665	29899.11
817.994	29991.54
818.322	29940.92
818.651	29734.6
818.979	29691.66
819.307	29595.62
819.636	29616.41
819.964	29667.03
820.292	29635.85
820.62	29512.01
820.948	29605.11
821.276	29556.53
821.604	29594.04
821.932	29688.73
822.259	29530.76
822.587	29535.28
822.915	29447.6
823.243	29584.1
823.57	29362.41
823.898	29593.36
824.225	29388.17
824.553	29411.9
824.88	29538.22
825.207	29539.35
825.535	29346.59
825.862	29655.28
826.189	29518.11
826.516	29758.78
826.843	29577.77
827.17	29638.78
827.497	29461.39
827.824	29527.37
828.151	29586.58
828.478	29409.18
828.805	29758.1
829.131	29628.16
829.458	29589.29
829.785	29326.7
830.111	29552.46
830.438	29629.07
830.764	29498.67
831.09	29545.23
831.417	29508.62
831.743	29649.63
832.069	29578.45
832.395	29519.01
832.722	29490.09
833.048	29278.34
833.374	29403.53
833.7	29337.55
834.026	29318.34
834.351	29354.72
834.677	29565.79
835.003	29314.27
835.329	29331.9
835.654	29256.87
835.98	29075.18
836.306	29188.4
836.631	29070.21
836.956	29370.32
837.282	29375.29
837.607	29078.12
837.932	29123.54
838.258	29070.89
838.583	29044.9
838.908	28978.69
839.233	28910.67
839.558	28841.74
839.883	28807.39
840.208	28632.48
840.533	28759.26
840.858	28775.98
841.182	28620.96
841.507	28610.79
841.832	28551.13
842.156	28362.66
842.481	28530.11
842.805	28408.53
843.13	28346.84
843.454	28389.1
843.778	28212.15
844.103	28267.75
844.427	28007.64
844.751	28164.47
845.075	28108.65
845.399	28025.72
845.723	27841.32
846.047	27835.44
846.371	27715.22
846.695	27638.84
847.019	27435.68
847.343	27440.87
847.666	27284.95
847.99	27004.28
848.313	27073.88
848.637	26919.31
848.96	26917.95
849.284	26857.39
849.607	26688.35
849.931	26625.53
850.254	26499.2
850.577	26232.09
850.9	26100.34
851.223	26083.4
851.546	25988.48
851.869	25810.18
852.192	25980.35
852.515	25760.69
852.838	25552.34
853.161	25632.11
853.483	25490.42
853.806	25496.74
854.129	25340.14
854.451	25376.97
854.774	25165
855.096	25044.55
855.419	25034.38
855.741	24981.5
856.063	24782.64
856.385	24700.38
856.708	24742.87
857.03	24640.27
857.352	24599.37
857.674	24599.82
857.996	24435.53
858.318	24238.02
858.64	24374.97
858.961	24215.42
859.283	24115.99
859.605	23940.18
859.926	23957.58
860.248	23933.62
860.57	23936.11
860.891	23900.85
861.212	23765.72
861.534	23684.36
861.855	23672.16
862.176	23648.66
862.498	23648.66
862.819	23659.96
863.14	23497.48
863.461	23383.35
863.782	23339.06
864.103	23464.26
864.424	23213.19
864.745	23330.7
865.065	23165.05
865.386	22953.76
865.707	23100.65
866.027	23048
866.348	23132.51
866.668	23033.08
866.989	22972.29
867.309	22792.86
867.63	22758.29
867.95	22900.88
868.27	22761.68
868.59	22802.58
868.91	22624.96
869.23	22604.17
869.55	22564.39
869.87	22607.78
870.19	22534.79
870.51	22493.43
870.83	22478.07
871.15	22333.21
871.469	22371.18
871.789	22377.96
872.109	22419.76
872.428	22206.44
872.748	22257.06
873.067	22187.91
873.386	22214.35
873.706	22209.37
874.025	22095.48
874.344	21923.73
874.663	22024.75
874.982	22017.51
875.301	22109.72
875.62	21919.44
875.939	21824.75
876.258	21897.97
876.577	21759.44
876.896	21790.18
877.214	21600.58
877.533	21801.47
877.852	21618.43
878.17	21737.75
878.489	21741.59
878.807	21445.55
879.125	21540.46
879.444	21526
879.762	21404.88
880.08	21550.18
880.398	21245.33
880.716	21340.24
881.034	21194.26
881.352	21297.99
881.67	21201.94
881.988	21097.54
882.306	21168.05
882.624	21161.49
882.941	20966.47
883.259	20863.87
883.577	20889.86
883.894	20798.34
884.212	20800.37
884.529	20780.94
884.846	20615.07
885.164	20649.19
885.481	20674.05
885.798	20601.73
886.115	20401.96
886.432	20478.57
886.75	20398.12
887.067	20516.31
887.383	20349.31
887.7	20372.81
888.017	20123.55
888.334	20096.43
888.651	20192.93
888.967	20072.25
889.284	19998.36
889.6	19988.42
889.917	19872.03
890.233	19917.68
890.55	19744.13
890.866	19725.15
891.182	19651.25
891.498	19654.19
891.815	19578.48
892.131	19444.7
892.447	19521.53
892.763	19371.03
893.079	19288.09
893.395	19324.48
893.71	19139.17
894.026	19250.58
894.342	19062.11
894.657	18979.85
894.973	18985.28
895.289	18888.33
895.604	18919.74
895.92	18737.37
896.235	18683.36
896.55	18689.01
896.865	18651.28
897.181	18525.4
897.496	18509.58
897.811	18533.76
898.126	18221.23
898.441	18295.58
898.756	18279.08
899.071	18183.04
899.386	18266.88
899.7	17981.01
900.015	18016.04
900.33	17792.99
900.644	17795.25
900.959	17854.46
901.273	17633.67
901.588	17623.28
901.902	17592.77
902.216	17597.52
902.531	17554.81
902.845	17386.45
903.159	17260.35
903.473	17298.77
903.787	17227.81
904.101	17164.08
904.415	17171.54
904.729	17042.28
905.042	16966.35
905.356	16925.9
905.67	16836.41
905.984	16727.03
906.297	16779.91
906.611	16706.24
906.924	16552.57
907.237	16521.39
907.551	16546.92
907.864	16442.75
908.177	16358.23
908.491	16305.35
908.804	16148.29
909.117	16121.17
909.43	16003.89
909.743	15891.8
910.056	15989.2
910.368	15837.56
910.681	15830.11
910.994	15704.01
911.307	15697.91
911.619	15550.57
911.932	15621.07
912.244	15460.17
912.557	15487.74
912.869	15311.02
913.181	15337.92
913.494	15306.73
913.806	15285.94
914.118	15156.68
914.43	15064.25
914.742	14980.41
915.054	14861.09
915.366	14882.11
915.678	14773.19
915.99	14718.05
916.302	14691.15
916.613	14562.57
916.925	14647.31
917.236	14590.82
917.548	14501.55
917.859	14455.68
918.171	14276.7
918.482	14157.16
918.794	14174.78
919.105	14171.39
919.416	14015.01
919.727	14060.66
920.038	13985.86
920.349	13827.67
920.66	13796.04
920.971	13750.16
921.282	13716.49
921.593	13629.49
921.903	13528.7
922.214	13529.6
922.525	13508.59
922.835	13391.07
923.146	13375.26
923.456	13293.22
923.767	13202.6
924.077	13250.74
924.387	13182.94
924.697	13138.2
925.008	13048.26
925.318	12971.88
925.628	12995.6
925.938	12887.36
926.248	12738.89
926.558	12666.57
926.867	12684.65
927.177	12604.2
927.487	12601.04
927.796	12585.67
928.106	12467.03
928.416	12402.17
928.725	12434.94
929.034	12350.2
929.344	12363.3
929.653	12179.35
929.962	12187.49
930.271	12145.01
930.581	12063.88
930.89	11988.17
931.199	11950.43
931.508	11867.95
931.817	11900.72
932.125	11836.09
932.434	11740.95
932.743	11634.06
933.051	11641.97
933.36	11582.99
933.669	11496.89
933.977	11462.31
934.286	11387.29
934.594	11331.24
934.902	11337.34
935.21	11295.99
935.519	11168.76
935.827	11211.7
936.135	11181.19
936.443	11053.06
936.751	11033.4
937.059	11070.01
937.367	10902.55
937.674	10976.9
937.982	10937.81
938.29	10844.7
938.597	10771.93
938.905	10670.92
939.213	10656.01
939.52	10581.88
939.827	10642.22
940.135	10519.29
940.442	10437.48
940.749	10484.94
941.056	10453.52
941.363	10378.72
941.67	10338.95
941.977	10279.52
942.284	10196.58
942.591	10138.5
942.898	10137.15
943.205	10063.03
943.511	10070.94
943.818	10031.39
944.125	9884.5
944.431	9818.51
944.738	9856.25
945.044	9870.04
945.35	9717.5
945.657	9619.87
945.963	9661.91
946.269	9658.74
946.575	9599.08
946.881	9517.28
947.187	9524.96
947.493	9492.65
947.799	9396.15
948.105	9363.38
948.41	9309.6
948.716	9304.63
949.022	9246.32
949.327	9198.64
949.633	9117.06
949.938	9177.85
950.244	9092.43
950.549	9061.02
950.854	8958.42
951.16	8965.88
951.465	8894.02
951.77	8899.22
952.075	8721.82
952.38	8806.56
952.685	8709.62
952.99	8638.88
953.294	8675.04
953.599	8581.03
953.904	8496.06
954.209	8524.76
954.513	8568.38
954.818	8458.32
955.122	8455.84
955.426	8488.6
955.731	8374.94
956.035	8302.85
956.339	8306.24
956.643	8220.59
956.948	8229.85
957.252	8187.37
957.556	8162.74
957.86	8062.63
958.163	8057.43
958.467	8033.25
958.771	8017.43
959.075	7961.16
959.378	7881.16
959.682	7898.34
959.985	7857.89
960.289	7817.44
960.592	7812.24
960.896	7707.16
961.199	7690.66
961.502	7710.77
961.805	7666.03
962.108	7614.96
962.411	7522.75
962.714	7547.16
963.017	7484.34
963.32	7480.27
963.623	7467.61
963.926	7366.15
964.228	7363.89
964.531	7325.47
964.833	7255.64
965.136	7297.68
965.438	7287.05
965.741	7160.96
966.043	7153.5
966.345	7167.06
966.648	7131.35
966.95	7033.5
967.252	7058.59
967.554	7013.84
967.856	6941.98
968.158	6903.11
968.46	6894.3
968.761	6872.83
969.063	6799.38
969.365	6790.8
969.666	6747.86
969.968	6732.49
970.269	6723.91
970.571	6715.54
970.872	6663.12
971.174	6608.88
971.475	6579.95
971.776	6579.95
972.077	6497.92
972.378	6565.94
972.679	6458.6
972.98	6438.04
973.281	6386.96
973.582	6316.01
973.883	6357.81
974.183	6307.64
974.484	6245.5
974.785	6186.52
975.085	6247.76
975.386	6220.42
975.686	6224.71
975.986	6165.28
976.287	6089.57
976.587	6052.74
976.887	6004.38
977.187	6009.57
977.487	6007.77
977.787	6028.1
978.087	5911.72
978.387	5899.52
978.687	5964.38
978.987	5831.27
979.286	5838.28
979.586	5832.86
979.885	5763.48
980.185	5791.73
980.484	5723.03
980.784	5667.89
981.083	5633.31
981.382	5659.53
981.682	5664.27
981.981	5629.02
982.28	5596.03
982.579	5569.81
982.878	5572.97
983.177	5494.78
983.475	5514.45
983.774	5396.03
984.073	5417.5
984.372	5378.18
984.67	5406.65
984.969	5372.3
985.267	5345.86
985.566	5290.72
985.864	5285.07
986.162	5257.28
986.461	5253.21
986.759	5232.87
987.057	5149.71
987.355	5183.38
987.653	5164.85
987.951	5086.66
988.249	5074.68
988.547	5109.71
988.844	5041.01
989.142	4951.3
989.44	4947.23
989.737	4945.42
990.035	4898.19
990.332	4867.91
990.63	4918.75
990.927	4855.71
991.224	4859.77
991.521	4789.04
991.819	4749.49
992.116	4804.63
992.413	4743.39
992.71	4733.9
993.006	4712.21
993.303	4673.56
993.6	4608.25
993.897	4618.42
994.193	4597.63
994.49	4558.76
994.787	4548.37
995.083	4507.47
995.379	4511.53
995.676	4494.36
995.972	4450.29
996.268	4432.21
996.565	4438.09
996.861	4399.67
997.157	4343.85
997.453	4294.59
997.749	4333.91
998.044	4293.23
998.34	4265.21
998.636	4265.21
998.932	4177.53
999.227	4170.98
999.523	4170.53
999.818	4164.2
1000.114	4107.02
1000.409	4086.46
1000.704	4078.1
1001	4022.73
1001.295	4019.34
1001.59	4000.59
1001.885	3943.64
1002.18	3934.6
1002.475	3978.89
1002.77	3903.41
1003.065	3871.78
1003.359	3864.77
1003.654	3877.65
1003.949	3841.5
1004.243	3846.92
1004.538	3791.1
1004.832	3778.45
1005.127	3751.78
1005.421	3730.54
1005.715	3720.82
1006.009	3704.1
1006.304	3662.52
1006.598	3651.22
1006.892	3589.52
1007.186	3574.38
1007.48	3540.03
1007.773	3551.33
1008.067	3520.15
1008.361	3530.32
1008.655	3483.54
1008.948	3471.11
1009.242	3429.98
1009.535	3437.21
1009.829	3406.7
1010.122	3358.12
1010.415	3359.93
1010.708	3329.87
1011.001	3315.41
1011.295	3296.88
1011.588	3276.09
1011.881	3240.61
1012.173	3219.14
1012.466	3222.75
1012.759	3217.78
1013.052	3201.74
1013.344	3183.43
1013.637	3098.69
1013.93	3120.84
1014.222	3065.47
1014.514	3056.2
1014.807	3060.95
1015.099	3046.71
1015.391	2986.38
1015.683	3010.1
1015.976	2983.66
1016.268	2962.42
1016.56	2933.72
1016.851	2927.85
1017.143	2859.15
1017.435	2881.52
1017.727	2859.37
1018.018	2818.02
1018.31	2798.81
1018.602	2776.44
1018.893	2773.73
1019.185	2778.02
1019.476	2705.25
1019.767	2760.17
1020.058	2723.33
1020.35	2648.98
1020.641	2670.68
1020.932	2629.1
1021.223	2618.48
1021.514	2624.8
1021.804	2551.59
1022.095	2564.69
1022.386	2543.9
1022.677	2491.7
1022.967	2493.06
1023.258	2486.95
1023.548	2475.66
1023.839	2448.09
1024.129	2440.85
1024.419	2427.97
1024.709	2404.02
1025	2389.33
1025.29	2360.18
1025.58	2345.26
1025.87	2350.91
1026.16	2262.1
1026.449	2288.77
1026.739	2281.31
1027.029	2259.39
1027.319	2240.18
1027.608	2223.01
1027.898	2218.94
1028.187	2203.57
1028.477	2189.34
1028.766	2151.37
1029.055	2166.06
1029.344	2098.72
1029.634	2092.61
1029.923	2142.1
1030.212	2079.28
1030.501	2093.52
1030.79	2063.46
1031.078	2043.12
1031.367	2024.82
1031.656	2022.56
1031.945	2006.74
1032.233	2024.37
1032.522	1977.36
1032.81	1979.62
1033.099	1940.3
1033.387	1924.48
1033.675	1908.89
1033.963	1903.69
1034.251	1899.85
1034.54	1872.96
1034.828	1861.43
1035.116	1842.9
1035.403	1830.93
1035.691	1811.27
1035.979	1801.55
1036.267	1795.67
1036.554	1797.93
1036.842	1777.14
1037.129	1776.24
1037.417	1733.75
1037.704	1726.52
1037.992	1704.6
1038.279	1702.79
1038.566	1690.37
1038.853	1690.37
1039.14	1690.37
