Data from 18-1248_FLMS001491_002.txt Node
Date: Thu Apr 19 16:24:28 BST 2018
User: hsy
Spectrometer: FLMS00149
Trigger mode: 0
Integration Time (sec): 1.000000E-2
Scans to average: 10
Electric dark correction enabled: true
Nonlinearity correction enabled: false
Boxcar width: 0
XAxis mode: Wavelengths
Number of Pixels in Spectrum: 2048
>>>>>Begin Spectral Data<<<<<
341.393	0.82
341.776	0.82
342.16	0.82
342.543	-44.15
342.927	-78.27
343.31	-70.37
343.693	-54.32
344.077	-45.73
344.46	-66.52
344.843	-71.72
345.226	-34.89
345.61	-28.56
345.993	-19.75
346.376	-10.93
346.759	10.76
347.142	30.2
347.525	43.3
347.908	38.78
348.291	81.27
348.674	90.99
349.057	107.48
349.44	141.15
349.823	155.17
350.206	170.98
350.588	234.71
350.971	249.63
351.354	279.91
351.737	272.68
352.119	269.96
352.502	329.4
352.884	331.43
353.267	331.88
353.65	354.71
354.032	374.59
354.414	348.83
354.797	359.68
355.179	344.31
355.562	371.2
355.944	388.15
356.326	387.25
356.709	384.99
357.091	395.61
357.473	403.97
357.855	410.53
358.238	397.19
358.62	402.84
359.002	413.46
359.384	404.42
359.766	408.49
360.148	404.88
360.53	376.85
360.912	403.29
361.294	373.69
361.676	379.57
362.057	397.64
362.439	365.33
362.821	379.79
363.203	394.48
363.584	394.03
363.966	384.31
364.348	387.7
364.729	395.39
365.111	382.05
365.493	377.08
365.874	377.31
366.256	385.22
366.637	370.75
367.019	373.46
367.4	382.05
367.781	368.72
368.163	385.22
368.544	371.43
368.925	396.29
369.306	388.38
369.688	407.14
370.069	374.59
370.45	382.96
370.831	396.51
371.212	393.8
371.593	396.74
371.974	386.57
372.355	401.26
372.736	415.72
373.117	380.02
373.498	387.25
373.879	425.89
374.26	389.06
374.641	395.39
375.021	401.26
375.402	396.06
375.783	402.62
376.163	429.06
376.544	425.21
376.925	429.51
377.305	439.68
377.686	407.59
378.066	432.9
378.447	426.57
378.827	435.61
379.208	418.21
379.588	438.55
379.968	445.33
380.349	427.93
380.729	428.6
381.109	422.05
381.489	437.19
381.87	429.28
382.25	450.3
382.63	463.18
383.01	455.04
383.39	448.49
383.77	460.69
384.15	480.81
384.53	466.12
384.91	472.45
385.29	459.34
385.67	467.93
386.049	487.59
386.429	469.28
386.809	486.23
387.189	483.97
387.568	489.17
387.948	486.46
388.328	479.22
388.707	500.92
389.087	505.21
389.466	505.89
389.846	490.52
390.225	509.51
390.605	516.74
390.984	518.09
391.363	529.62
391.743	539.11
392.122	523.97
392.501	557.19
392.881	551.77
393.26	549.05
393.639	557.41
394.018	532.78
394.397	557.87
394.776	568.04
395.155	561.48
395.534	557.64
395.913	559.9
396.292	562.39
396.671	583.18
397.05	580.69
397.429	581.37
397.808	579.34
398.186	577.98
398.565	594.93
398.944	586.57
399.323	619.56
399.701	602.61
400.08	615.27
400.458	638.09
400.837	631.76
401.215	614.14
401.594	621.59
401.972	621.14
402.351	633.12
402.729	638.77
403.107	628.83
403.486	649.62
403.864	648.26
404.242	654.36
404.62	669.28
404.999	681.71
405.377	683.74
405.755	680.58
406.133	689.39
406.511	687.35
406.889	697.3
407.267	729.39
407.645	732.55
408.023	738.88
408.401	729.16
408.779	747.01
409.156	737.3
409.534	742.72
409.912	758.99
410.29	782.04
410.667	769.16
411.045	776.39
411.422	801.25
411.8	801.48
412.178	814.36
412.555	846.67
412.933	840.35
413.31	828.37
413.687	839.22
414.065	866.33
414.442	864.98
414.819	860.46
415.197	885.77
415.574	897.74
415.951	895.71
416.328	881.7
416.705	924.41
417.082	907.91
417.46	931.64
417.837	927.8
418.214	944.3
418.591	936.84
418.967	944.3
419.344	976.39
419.721	980.45
420.098	988.14
420.475	971.19
420.852	984.07
421.228	1008.25
421.605	1010.96
421.982	1013
422.358	1030.17
422.735	1048.02
423.111	1022.71
423.488	1044.41
423.864	1027.46
424.241	1076.95
424.617	1072.43
424.994	1077.85
425.37	1104.97
425.746	1091.19
426.123	1099.32
426.499	1109.26
426.875	1140.9
427.251	1153.56
427.627	1144.29
428.003	1184.29
428.379	1176.83
428.756	1189.71
429.132	1201.24
429.507	1249.83
429.883	1248.24
430.259	1254.12
430.635	1288.69
431.011	1295.25
431.387	1300.45
431.763	1341.57
432.138	1319.88
432.514	1358.98
432.89	1328.24
433.265	1393.1
433.641	1397.84
434.016	1383.16
434.392	1413.44
434.767	1461.35
435.143	1462.48
435.518	1462.02
435.894	1471.74
436.269	1502.7
436.644	1521.91
437.02	1531.85
437.395	1516.49
437.77	1524.17
438.145	1555.81
438.52	1590.38
438.895	1559.65
439.271	1587.22
439.646	1615.01
440.021	1629.7
440.395	1636.26
440.77	1655.24
441.145	1641.68
441.52	1682.13
441.895	1682.13
442.27	1695.46
442.645	1671.28
443.019	1703.15
443.394	1701.79
443.769	1693.66
444.143	1736.82
444.518	1757.16
444.892	1744.73
445.267	1723.26
445.641	1758.74
446.016	1805.52
446.39	1791.96
446.764	1779.98
447.139	1814.33
447.513	1818.4
447.887	1810.26
448.262	1811.85
448.636	1851.84
449.01	1852.07
449.384	1869.02
449.758	1892.52
450.132	1916.93
450.506	1926.64
450.88	1947.89
451.254	1904.27
451.628	1985.4
452.002	2020.88
452.376	1990.6
452.75	2012.29
453.123	2032.4
453.497	2055.45
453.871	2076.47
454.244	2116.24
454.618	2131.84
454.992	2158.5
455.365	2184.04
455.739	2213.42
456.112	2252.06
456.486	2298.39
456.859	2273.75
457.232	2328.22
457.606	2347.65
457.979	2353.75
458.352	2445.73
458.725	2478.72
459.099	2451.15
459.472	2487.08
459.845	2545.39
460.218	2523.92
460.591	2555.78
460.964	2582.67
461.337	2649.11
461.71	2672.16
462.083	2711.26
462.456	2725.04
462.829	2737.02
463.201	2790.58
463.574	2764.14
463.947	2810.91
464.32	2886.62
464.692	2891.14
465.065	2893.62
465.438	2937.92
465.81	3000.06
466.183	2988.31
466.555	3042.55
466.928	3104.47
467.3	3077.12
467.672	3120.06
468.045	3191.47
468.417	3208.87
468.789	3253.62
469.161	3266.5
469.534	3299.26
469.906	3385.36
470.278	3379.94
470.65	3455.19
471.022	3514.63
471.394	3546.71
471.766	3570.22
472.138	3616.32
472.51	3725.69
472.882	3747.61
473.253	3767.05
473.625	3809.31
473.997	3915.74
474.369	3891.56
474.74	3921.39
475.112	4054.5
475.484	4094.5
475.855	4141.95
476.227	4216.08
476.598	4306.92
476.97	4379.69
477.341	4483.41
477.713	4508.72
478.084	4559.57
478.455	4656.06
478.827	4692.22
479.198	4793.91
479.569	4847.25
479.94	4962.72
480.311	5040.69
480.682	5104.87
481.053	5254.24
481.424	5330.62
481.795	5388.25
482.166	5447
482.537	5577.4
482.908	5681.57
483.279	5732.65
483.65	5861
484.021	5956.37
484.391	5993.66
484.762	6143.03
485.133	6173.31
485.503	6258.51
485.874	6413.98
486.244	6493.3
486.615	6588.22
486.985	6697.59
487.356	6847.42
487.726	6924.03
488.097	7086.96
488.467	7125.15
488.837	7310.91
489.207	7323.56
489.578	7492.83
489.948	7570.79
490.318	7756.77
490.688	7760.62
491.058	7935.07
491.428	8084.67
491.798	8056.88
492.168	8251.9
492.538	8316.31
492.908	8504.55
493.278	8604.89
493.648	8706.58
494.017	8790.87
494.387	8912.68
494.757	8960.81
495.126	9089.17
495.496	9208.49
495.866	9221.82
496.235	9431.31
496.605	9462.49
496.974	9536.39
497.344	9692.99
497.713	9782.48
498.082	9902.48
498.452	9949.71
498.821	10103.38
499.19	10137.95
499.559	10295.92
499.928	10379.98
500.298	10396.93
500.667	10653.87
501.036	10575.23
501.405	10741.78
501.774	10808.9
502.143	10870.36
502.512	10990.81
502.88	11096.8
503.249	11126.4
503.618	11305.61
503.987	11264.48
504.356	11381.76
504.724	11492.04
505.093	11511.48
505.462	11652.94
505.83	11699.49
506.199	11760.51
506.567	11977.45
506.936	11976.55
507.304	12180.39
507.672	12262.19
508.041	12320.04
508.409	12494.05
508.777	12537.44
509.145	12619.24
509.514	12683.88
509.882	12818.11
510.25	12896.3
510.618	12943.76
510.986	13032.34
511.354	13128.38
511.722	13274.82
512.09	13404.31
512.458	13396.17
512.826	13555.94
513.193	13547.81
513.561	13657.86
513.929	13830.06
514.297	13983.73
514.664	14010.85
515.032	14039.32
515.4	14086.32
515.767	14238.64
516.135	14329.03
516.502	14343.94
516.869	14648.57
517.237	14586.2
517.604	14584.84
517.972	14915.23
518.339	14888.56
518.706	15017.37
519.073	15096.02
519.44	15216.92
519.808	15336.24
520.175	15377.14
520.542	15565.83
520.909	15684.47
521.276	15732.16
521.643	15997.23
522.009	16022.32
522.376	16228.42
522.743	16297.34
523.11	16525.58
523.477	16649.42
523.843	16646.26
524.21	16944.1
524.577	17077.88
524.943	17198.11
525.31	17228.39
525.676	17418.21
526.043	17621.15
526.409	17653.69
526.776	17875.15
527.142	17975.04
527.508	18047.58
527.874	18179.1
528.241	18338.87
528.607	18424.74
528.973	18663.61
529.339	18638.3
529.705	18891.4
530.071	18970.94
530.437	19138.4
530.803	19288.9
531.169	19402.57
531.535	19476.69
531.901	19612.96
532.267	19678.49
532.632	19786.97
532.998	19862.9
533.364	20059.05
533.73	20200.06
534.095	20313.51
534.461	20395.31
534.826	20445.48
535.192	20527.74
535.557	20745.81
535.923	20738.58
536.288	20859.93
536.653	20953.26
537.019	20957.1
537.384	21038.23
537.749	21130.89
538.114	21264.44
538.479	21116.87
538.845	21333.82
539.21	21322.74
539.575	21481.61
539.94	21567.26
540.305	21676.86
540.67	21722.96
541.034	21826.23
541.399	21861.94
541.764	21975.38
542.129	22174.7
542.494	21974.48
542.858	22142.61
543.223	22090.63
543.587	22440.68
543.952	22336.73
544.316	22393.45
544.681	22317.97
545.045	22482.26
545.41	22710.5
545.774	22655.59
546.138	22664.63
546.503	22720.67
546.867	22783.05
547.231	22912.31
547.595	23076.37
547.959	23039.08
548.324	23138.06
548.688	23171.74
549.052	23245.86
549.416	23225.29
549.779	23330.15
550.143	23543.25
550.507	23578.96
550.871	23580.76
551.235	23565.4
551.599	23832.73
551.962	23857.14
552.326	23864.15
552.689	23999.96
553.053	23894.88
553.417	24076.34
553.78	24307.07
554.143	24362.44
554.507	24505.71
554.87	24461.64
555.234	24647.4
555.597	24587.74
555.96	24710.45
556.323	24797.68
556.686	24827.74
557.05	25053.49
557.413	25128.29
557.776	25095.98
558.139	25314.5
558.502	25406.93
558.865	25392.47
559.228	25560.37
559.59	25779.8
559.953	25744.55
560.316	26154.71
560.679	26030.87
561.041	26281.03
561.404	26431.54
561.767	26660.68
562.129	26568.93
562.492	26853.9
562.854	26805.09
563.217	26925.99
563.579	27181.35
563.941	27239.65
564.304	27355.81
564.666	27616.36
565.028	27626.76
565.39	27829.47
565.753	28036.01
566.115	28149.01
566.477	28272.39
566.839	28412.28
567.201	28814.07
567.563	28724.58
567.925	28806.39
568.287	28972.26
568.648	29147.85
569.01	29371.35
569.372	29552.81
569.734	29561.4
570.095	29785.35
570.457	30022.85
570.819	30062.63
571.18	30108.95
571.542	30401.15
571.903	30455.39
572.265	30706.9
572.626	30854.47
572.987	30995.48
573.349	31122.26
573.71	31381.91
574.071	31495.36
574.432	31486.54
574.794	31878.17
575.155	31931.05
575.516	32069.35
575.877	32248.11
576.238	32378.72
576.599	32498.72
576.96	32693.74
577.32	32701.2
577.681	33051.7
578.042	33127.18
578.403	33146.61
578.763	33272.71
579.124	33275.42
579.485	33719.25
579.845	33741.85
580.206	33720.61
580.566	33879.25
580.927	33986.37
581.287	34157.21
581.648	34251.67
582.008	34457.31
582.368	34592.9
582.728	34684.2
583.089	34820.24
583.449	34890.52
583.809	35176.17
584.169	35262.49
584.529	35405.99
584.889	35677.17
585.249	35619.54
585.609	35614.57
585.969	35848.01
586.329	36098.18
586.688	36468.56
587.048	36560.76
587.408	36571.16
587.768	36907.42
588.127	36983.35
588.487	37082.33
588.846	37564.58
589.206	37317.35
589.565	37619.27
589.925	38235.29
590.284	38190.55
590.643	38365.91
591.003	38609.07
591.362	39036.85
591.721	39117.3
592.08	39313.91
592.44	39753.67
592.799	39998.64
593.158	40167.9
593.517	40357.5
593.876	40763.14
594.235	40938.5
594.593	41209
594.952	41548.2
595.311	41760.4
595.67	41992.48
596.029	42365.35
596.387	42722.41
596.746	42971.89
597.104	43132.79
597.463	43360.13
597.822	43684.19
598.18	43833.34
598.538	44113.11
598.897	44762.58
599.255	44611.85
599.613	45394.2
599.972	45372.96
600.33	45701.31
600.688	45758.71
601.046	46001.64
601.404	46611.12
601.762	46585.58
602.12	47092.46
602.478	47180.6
602.836	47464.43
603.194	47412.23
603.552	47712.33
603.91	47787.59
604.268	48126.33
604.625	48361.58
604.983	48669.82
605.341	48641.8
605.698	49077.95
606.056	49416.47
606.413	49270.94
606.771	49748.66
607.128	49793.63
607.485	49952.27
607.843	50069.33
608.2	50423.67
608.557	50585.93
608.914	50615.99
609.272	50932.36
609.629	51167.16
609.986	51334.38
610.343	51325.12
610.7	51723.53
611.057	51727.14
611.414	51780.93
611.771	52051.88
612.127	52174.36
612.484	52269.95
612.841	52405.32
613.198	52375.26
613.554	52427.01
613.911	52786.78
614.267	52914.68
614.624	52949.94
614.98	53033.32
615.337	53299.98
615.693	53345.18
616.05	53429.02
616.406	53616.13
616.762	53589.69
617.118	53670.59
617.475	53706.07
617.831	53898.39
618.187	54133.63
618.543	54091.6
618.899	54395.77
619.255	54320.52
619.611	54344.48
619.967	54598.48
620.323	54577.46
620.678	54557.58
621.034	54551.48
621.39	54527.97
621.746	54573.4
622.101	54996.66
622.457	54838.25
622.812	54927.96
623.168	54962.31
623.523	55000.28
623.879	55087.51
624.234	55003.44
624.589	55123.89
624.945	55135.87
625.3	55289.31
625.655	55246.37
626.01	55332.92
626.365	55393.71
626.72	55284.56
627.075	55287.28
627.43	55410.66
627.785	55305.35
628.14	55371.34
628.495	55355.97
628.85	55449.3
629.205	55365.92
629.559	55545.12
629.914	55447.04
630.269	55438.68
630.623	55284.56
630.978	55268.52
631.332	55511.9
631.687	55518.46
632.041	55416.76
632.396	55413.83
632.75	55376.54
633.104	55478.91
633.459	55292.47
633.813	55217.9
634.167	55251.8
634.521	55297.22
634.875	55307.84
635.229	55288.63
635.583	55174.51
635.937	55110.33
636.291	55146.94
636.645	55111.01
636.999	55073.27
637.352	55098.35
637.706	54934.06
638.06	54946.27
638.413	54857
638.767	54884.8
639.121	55019.49
639.474	54777.01
639.828	54786.27
640.181	54750.57
640.534	54926.83
640.888	54677.57
641.241	54591.25
641.594	54664.24
641.947	54833.5
642.301	54606.62
642.654	54738.81
643.007	54617.46
643.36	54667.18
643.713	54628.08
644.066	54732.26
644.419	54407.75
644.771	54245.27
645.124	53938.61
645.477	53890.7
645.83	53829.46
646.182	53784.72
646.535	53735.9
646.888	53880.08
647.24	53821.78
647.593	54061.77
647.945	53836.24
648.298	53654.78
648.65	53590.6
649.002	53432.41
649.355	53311.51
649.707	53240.1
650.059	53374.78
650.411	53746.3
650.763	53833.08
651.115	54373.17
651.467	54215.89
651.819	54177.93
652.171	54131.37
652.523	54107.87
652.875	54204.59
653.227	54058.61
653.578	54229.45
653.93	54087.76
654.282	53969.34
654.633	53967.31
654.985	54164.82
655.337	54082.11
655.688	54076.69
656.039	54198.04
656.391	53850.93
656.742	53946.75
657.094	53875.33
657.445	53958.5
657.796	54000.08
658.147	53953.3
658.498	53919.4
658.849	54062.67
659.2	54003.02
659.551	53894.09
659.902	53994.88
660.253	53909.01
660.604	54043.69
660.955	53744.49
661.306	53971.38
661.656	53807.99
662.007	53827.88
662.358	53905.39
662.708	53895.22
663.059	53871.72
663.409	53753.08
663.76	53899.74
664.11	53929.12
664.461	54030.36
664.811	53941.1
665.161	53949.68
665.511	53839.86
665.862	53910.59
666.212	53909.68
666.562	53988.33
666.912	53895.9
667.262	53830.82
667.612	53850.7
667.962	53901.77
668.312	53835.79
668.662	53992.17
669.011	53917.59
669.361	53872.62
669.711	53911.04
670.06	53838.05
670.41	53835.79
670.76	53785.17
671.109	53967.76
671.459	53870.59
671.808	53879.18
672.157	53847.31
672.507	53690.03
672.856	53706.75
673.205	53744.26
673.554	53785.39
673.904	53699.52
674.253	53901.1
674.602	53693.64
674.951	53335.24
675.3	53218.63
675.649	53731.84
675.998	53619.3
676.346	53602.12
676.695	53721.89
677.044	53572.07
677.393	53611.84
677.741	53627.88
678.09	53554.89
678.438	53511.05
678.787	53480.09
679.135	53470.6
679.484	53293.43
679.832	53458.62
680.181	53246.2
680.529	53365.97
680.877	53204.39
681.225	53150.16
681.573	53437.61
681.922	53156.48
682.27	53102.7
682.618	53013.66
682.966	53122.59
683.314	53059.54
683.661	53007.11
684.009	52879.2
684.357	52790.84
684.705	52778.87
685.053	52789.26
685.4	52549.49
685.748	52574.35
686.095	52617.74
686.443	52481.25
686.79	52363.96
687.138	52419.55
687.485	52495.03
687.832	52274.02
688.18	52283.06
688.527	52013.69
688.874	52023.63
689.221	52015.5
689.568	51942.96
689.915	51769.85
690.262	51870.64
690.609	51773.02
690.956	51614.15
691.303	51570.76
691.65	51493.48
691.997	51438.34
692.344	51213.03
692.69	51194.95
693.037	51125.8
693.383	50853.04
693.73	51022.08
694.077	50819.37
694.423	50773.5
694.769	50704.34
695.116	50672.71
695.462	50454.18
695.808	50319.5
696.155	50449.66
696.501	49963.35
696.847	50210.12
697.193	49881.32
697.539	49888.1
697.885	49728.55
698.231	49506.86
698.577	49515.68
698.923	49421.67
699.269	49179.41
699.614	49082.47
699.96	48891.06
700.306	49023.94
700.651	48768.58
700.997	48655.13
701.342	48567
701.688	48440.22
702.033	48298.31
702.379	48258.99
702.724	47971.31
703.069	48202.72
703.415	47751.65
703.76	47686.57
704.105	47697.19
704.45	47609.51
704.795	47427.14
705.14	47269.86
705.485	47133.82
705.83	46906.03
706.175	47078.45
706.52	46951.9
706.865	46811.57
707.209	46636.66
707.554	46489.09
707.899	46447.96
708.243	46293.61
708.588	46264.91
708.932	46009.1
709.277	45969.1
709.621	45846.62
709.966	45387.87
710.31	45750.35
710.654	45380.19
710.998	45454.31
711.342	45506.97
711.687	45132.97
712.031	45077.37
712.375	44885.51
712.719	44891.62
713.063	44809.81
713.407	45055.91
713.75	44754.22
714.094	44631.28
714.438	44443.94
714.782	44628.57
715.125	44253.21
715.469	44537.73
715.812	44157.85
716.156	44132.09
716.499	44118.53
716.843	44202.59
717.186	43996.27
717.53	44112.88
717.873	44085.08
718.216	43823.85
718.559	43810.74
718.902	43537.08
719.246	43712.21
719.589	43535.95
719.932	43475.38
720.275	43568.94
720.617	43567.58
720.96	43450.07
721.303	43449.62
721.646	43571.2
721.989	43249.4
722.331	43288.72
722.674	43129.85
723.016	43295.27
723.359	43053.92
723.701	43122.4
724.044	42945
724.386	42847.6
724.729	43036.3
725.071	42986.13
725.413	42916.75
725.755	42921.95
726.097	42742.52
726.439	42591.11
726.782	42495.52
727.124	42890.09
727.465	42633.14
727.807	42562.41
728.149	42694.84
728.491	42321.06
728.833	42574.16
729.175	42538.91
729.516	42303.44
729.858	42322.42
730.199	42532.36
730.541	42488.06
730.882	42467.27
731.224	42429.76
731.565	42284.45
731.906	42392.7
732.248	42342.08
732.589	42225.25
732.93	42198.13
733.271	42263.21
733.612	42404.68
733.953	42322.19
734.294	42262.53
734.635	42114.29
734.976	42338.69
735.317	42149.77
735.658	42241.06
735.999	42217.79
736.339	42257.34
736.68	42175.08
737.021	42301.18
737.361	42141.18
737.702	42495.75
738.042	42258.92
738.383	42413.49
738.723	42353.6
739.063	42303.21
739.404	42652.35
739.744	42440.83
740.084	42373.04
740.424	42446.93
740.764	42461.85
741.104	42662.3
741.444	42478.57
741.784	42406.71
742.124	42653.93
742.464	42529.19
742.804	42677.44
743.143	42639.92
743.483	42714.05
743.823	42705.23
744.162	42660.49
744.502	42918.33
744.841	42882.4
745.181	42987.94
745.52	42925.11
745.86	43150.65
746.199	43120.82
746.538	43195.16
746.877	43489.17
747.216	43381.83
747.556	43330.53
747.895	43524.87
748.234	43536.62
748.573	43556.28
748.911	43711.31
749.25	43710.86
749.589	43756.28
749.928	43925.09
750.267	44117.17
750.605	44133.44
750.944	44098.64
751.283	44234.46
751.621	44497.95
751.96	44279.43
752.298	44500.89
752.636	44549.03
752.975	44460.67
753.313	44525.98
753.651	44918.96
753.989	44741.56
754.327	44937.04
754.666	44709.47
755.004	44972.52
755.342	45153.53
755.679	45320.98
756.017	45045.28
756.355	45325.96
756.693	45458.38
757.031	45533.86
757.368	45381.77
757.706	45511.03
758.044	45486.85
758.381	45636.23
758.719	45574.08
759.056	45867.86
759.394	45813.4
759.731	45810.91
760.068	45702.67
760.405	45898.82
760.743	45765.27
761.08	46029.21
761.417	45830.35
761.754	45834.87
762.091	46035.99
762.428	45853.62
762.765	45883
763.102	46041.64
763.438	46094.07
763.775	45842.55
764.112	46065.6
764.449	46103.56
764.785	46001.64
765.122	46027.86
765.458	45783.12
765.795	45752.84
766.131	45969.1
766.467	45862.21
766.804	45676.45
767.14	45699.05
767.476	45625.61
767.812	45470.36
768.148	45756
768.485	45630.58
768.821	45431.26
769.157	45337.03
769.492	45321.21
769.828	45407.76
770.164	44981.56
770.5	45025.85
770.836	44948.34
771.171	44848.23
771.507	44859.75
771.842	44662.24
772.178	44570.49
772.513	44591.96
772.849	44391.06
773.184	44455.92
773.519	44376.15
773.855	44200.33
774.19	43963.05
774.525	44000.79
774.86	43969.61
775.195	43954.01
775.53	43663.4
775.865	43632.67
776.2	43381.15
776.535	43218.67
776.87	43261.83
777.205	43002.63
777.539	42902.52
777.874	43007.37
778.209	42627.27
778.543	42618.46
778.878	42358.8
779.212	42360.84
779.547	42130.56
779.881	42258.47
780.215	41878.59
780.55	42074.06
780.884	41667.29
781.218	41728.54
781.552	41783.45
781.886	41446.28
782.22	41223.01
782.554	41116.57
782.888	40669.35
783.222	40770.59
783.556	40681.56
783.889	40561.56
784.223	40231.85
784.557	40261.23
784.89	40304.62
785.224	40135.36
785.557	39842.71
785.891	39793.9
786.224	39762.49
786.558	39712.09
786.891	39384.87
787.224	39282.05
787.557	39113.01
787.891	39167.25
788.224	38783.08
788.557	38889.29
788.89	38859.91
789.223	38689.52
789.556	38523.87
789.888	38416.76
790.221	38158.01
790.554	38190.1
790.887	38016.77
791.219	37821.97
791.552	37743.56
791.884	37494.07
792.217	37557.12
792.549	37386.73
792.882	37188.99
793.214	37094.08
793.546	37024.93
793.879	36902.9
794.211	36742.45
794.543	36867.19
794.875	36615.68
795.207	36572.74
795.539	36520.08
795.871	36548.11
796.203	36223.6
796.535	36063.15
796.867	35997.84
797.198	35765.08
797.53	35846.66
797.862	35616.83
798.193	35652.31
798.525	35457.29
798.856	35454.8
799.188	35020.24
799.519	35125.32
799.85	34989.96
800.182	34862.73
800.513	35035.15
800.844	34493.7
801.175	34666.12
801.506	34584.32
801.837	34398.56
802.168	34266.36
802.499	34430.42
802.83	34059.13
803.161	34080.15
803.491	34074.73
803.822	34188.85
804.153	33898.01
804.483	33733.04
804.814	33501.86
805.145	33677.22
805.475	33531.46
805.805	33451.92
806.136	33373.73
806.466	33261.19
806.796	33144.58
807.126	32910.01
807.457	33049.67
807.787	33056
808.117	32757.47
808.447	32665.27
808.777	32812.39
809.107	32491.04
809.436	32367.65
809.766	32474.77
810.096	32476.35
810.426	32077.72
810.755	32327.65
811.085	32198.39
811.414	32159.07
811.744	31964.27
812.073	31952.97
812.403	31807.67
812.732	31699.87
813.061	31832.52
813.39	31348.02
813.719	31480.22
814.049	31611.74
814.378	31525.87
814.707	31296.27
815.036	31365.42
815.365	31095.82
815.693	30990.06
816.022	30888.14
816.351	30976.95
816.68	30687.24
817.008	30840.23
817.337	30624.87
817.665	30535.38
817.994	30564.76
818.322	30640.47
818.651	30435.73
818.979	30446.12
819.307	30354.37
819.636	30396.18
819.964	30219.69
820.292	30359.57
820.62	30154.15
820.948	30155.05
821.276	30423.75
821.604	30178.78
821.932	30386.46
822.259	30125.68
822.587	30166.13
822.915	30153.92
823.243	30228.72
823.57	30090.42
823.898	30212.91
824.225	30192.12
824.553	29955.29
824.88	30205.22
825.207	30195.51
825.535	30057.66
825.862	30304.88
826.189	30042.74
826.516	30331.32
826.843	30282.73
827.17	30285.22
827.497	30178.78
827.824	30215.84
828.151	30334.94
828.478	30130.65
828.805	30328.84
829.131	30231.44
829.458	30364.09
829.785	30066.47
830.111	30167.03
830.438	30323.19
830.764	30354.6
831.09	30341.94
831.417	30069.63
831.743	30360.25
832.069	30312.34
832.395	30137.65
832.722	30139.91
833.048	29950.99
833.374	30233.7
833.7	30045.9
834.026	30243.64
834.351	30111.44
834.677	30114.15
835.003	30002.29
835.329	29983.31
835.654	30075.28
835.98	29873.48
836.306	30008.17
836.631	29827.15
836.956	29919.35
837.282	29963.65
837.607	29897.66
837.932	29864.67
838.258	29696.31
838.583	29711.68
838.908	29591.23
839.233	29528.4
839.558	29585.35
839.883	29433.04
840.208	29398.69
840.533	29400.95
840.858	29355.98
841.182	29338.13
841.507	29249.09
841.832	29181.07
842.156	29207.28
842.481	29165.93
842.805	29098.81
843.13	28931.13
843.454	28965.93
843.778	28701.53
844.103	28879.83
844.427	28743.34
844.751	28810.91
845.075	28595.32
845.399	28697.24
845.723	28530.46
846.047	28469.22
846.371	28240.3
846.695	28162.56
847.019	28039.86
847.343	27986.98
847.666	27880.76
847.99	27758.51
848.313	27656.59
848.637	27618.17
848.96	27471.74
849.284	27462.47
849.607	27162.59
849.931	27097.96
850.254	26896.84
850.577	26820.68
850.9	26555.15
851.223	26646.67
851.546	26539.1
851.869	26307.92
852.192	26571.65
852.515	26175.5
852.838	26022.51
853.161	26104.54
853.483	25975.73
853.806	25813.93
854.129	25897.09
854.451	25843.53
854.774	25616.19
855.096	25583.2
855.419	25476.76
855.741	25328.51
856.063	25287.61
856.385	25142.08
856.708	25175.75
857.03	25016.66
857.352	25027.28
857.674	24917.9
857.996	24839.94
858.318	24731.69
858.64	24788.87
858.961	24657.35
859.283	24530.8
859.605	24416.22
859.926	24509.33
860.248	24453.28
860.57	24325.6
860.891	24239.5
861.212	24231.59
861.534	24088.1
861.855	23990.02
862.176	24043.35
862.498	24106.63
862.819	24042.45
863.14	23928.78
863.461	23857.59
863.782	23798.61
864.103	23794.77
864.424	23673.42
864.745	23676.81
865.065	23531.5
865.386	23506.64
865.707	23575.11
866.027	23477.26
866.348	23484.27
866.668	23380.32
866.989	23317.49
867.309	23098.29
867.63	23290.83
867.95	23202.47
868.27	23164.28
868.59	23226.65
868.91	23118.86
869.23	23144.84
869.55	23092.64
869.87	23045.64
870.19	22906.21
870.51	22844.51
870.83	22884.96
871.15	22713.67
871.469	22763.38
871.789	22894.45
872.109	22785.53
872.428	22529.04
872.748	22759.99
873.067	22708.02
873.386	22623.28
873.706	22552.54
874.025	22508.02
874.344	22493.79
874.663	22542.6
874.982	22387.8
875.301	22317.07
875.62	22345.54
875.939	22282.27
876.258	22282.72
876.577	22291.98
876.896	22140.8
877.214	22030.07
877.533	22124.53
877.852	22140.58
878.17	22051.31
878.489	22129.73
878.807	21949.17
879.125	21919.79
879.444	21948.94
879.762	21910.98
880.08	21986.91
880.398	21755.5
880.716	21725.9
881.034	21717.54
881.352	21717.54
881.67	21619.23
881.988	21673.47
882.306	21503.98
882.624	21491.78
882.941	21451.33
883.259	21258.11
883.577	21420.14
883.894	21367.49
884.212	21361.61
884.529	21195.06
884.846	21214.05
885.164	21038.01
885.481	21143.54
885.798	21053.15
886.115	20847.73
886.432	20951.68
886.75	20882.76
887.067	20792.36
887.383	20769.99
887.7	20852.93
888.017	20613.16
888.334	20624.91
888.651	20582.42
888.967	20563.67
889.284	20482.77
889.6	20328.42
889.917	20285.26
890.233	20308.53
890.55	20236.45
890.866	20338.59
891.182	20172.94
891.498	20118.71
891.815	20016.34
892.131	19955.55
892.447	19864.25
892.763	19817.7
893.079	19745.38
893.395	19698.15
893.71	19584.49
894.026	19519.18
894.342	19532.96
894.657	19443.92
894.973	19431.04
895.289	19417.71
895.604	19339.75
895.92	19144.95
896.235	19172.52
896.55	19095.91
896.865	19088.68
897.181	18975.91
897.496	18938.4
897.811	18840.55
898.126	18772.75
898.441	18648.24
898.756	18664.28
899.071	18605.98
899.386	18583.83
899.7	18552.87
900.015	18329.38
900.33	18252.32
900.644	18257.97
900.959	18218.42
901.273	18118.53
901.588	18026.11
901.902	18023.85
902.216	17923.51
902.531	17888.03
902.845	17782.5
903.159	17660.24
903.473	17654.82
903.787	17528.72
904.101	17433.13
904.415	17522.84
904.729	17414.6
905.042	17244.89
905.356	17234.26
905.67	17259.57
905.984	17255.96
906.297	17120.14
906.611	16975.06
906.924	16988.85
907.237	16892.35
907.551	16837.21
907.864	16677.67
908.177	16705.46
908.491	16623.66
908.804	16495.07
909.117	16409.2
909.43	16309.32
909.743	16351.12
910.056	16284.01
910.368	16249.43
910.681	16159.72
910.994	16128.98
911.307	16058.25
911.619	15861.87
911.932	15913.85
912.244	15777.35
912.557	15777.58
912.869	15690.58
913.181	15585.72
913.494	15523.35
913.806	15499.17
914.118	15440.41
914.43	15325.61
914.742	15279.74
915.054	15152.74
915.366	15158.16
915.678	15121.33
915.99	15071.84
916.302	14917.72
916.613	14858.96
916.925	14935.57
917.236	14803.37
917.548	14764.05
917.859	14718.17
918.171	14677.5
918.482	14571.28
918.794	14507.56
919.105	14421
919.416	14252.87
919.727	14322.7
920.038	14233.67
920.349	14158.41
920.66	14060.34
920.971	14089.71
921.282	14049.94
921.593	13968.59
921.903	13815.82
922.214	13800
922.525	13763.4
922.835	13713
923.146	13659.22
923.456	13605.66
923.767	13453.8
924.077	13519.56
924.387	13436.4
924.697	13263.3
925.008	13316.85
925.318	13198.89
925.628	13204.54
925.938	13150.53
926.248	13093.58
926.558	12923.87
926.867	12910.08
927.177	12844.32
927.487	12775.85
927.796	12749.18
928.106	12745.79
928.416	12713.71
928.725	12697.89
929.034	12647.72
929.344	12624.22
929.653	12533.6
929.962	12430.1
930.271	12436.65
930.581	12317.56
930.89	12173.61
931.199	12146.26
931.508	12096.09
931.817	12157.56
932.125	12096.09
932.434	12038.02
932.743	11865.37
933.051	11828.76
933.36	11824.69
933.669	11688.2
933.977	11725.93
934.286	11702.88
934.594	11586.5
934.902	11534.08
935.21	11492.72
935.519	11488.65
935.827	11440.97
936.135	11411.59
936.443	11308.77
936.751	11219.73
937.059	11214.08
937.367	11120.53
937.674	11192.16
937.982	11107.19
938.29	11094.76
938.597	11086.86
938.905	10897.71
939.213	10861.78
939.52	10813.87
939.827	10827.88
940.135	10766.19
940.442	10677.6
940.749	10629.47
941.056	10662.01
941.363	10532.97
941.67	10585.17
941.977	10459.75
942.284	10391.73
942.591	10340.89
942.898	10306.76
943.205	10297.5
943.511	10271.51
943.818	10241.45
944.125	10140.89
944.431	10029.03
944.738	10125.07
945.044	10027.67
945.35	9988.35
945.657	9885.08
945.963	9870.16
946.269	9831.07
946.575	9788.81
946.881	9681.69
947.187	9697.97
947.493	9645.31
947.799	9636.5
948.105	9544.07
948.41	9521.92
948.716	9504.07
949.022	9493.22
949.327	9397.86
949.633	9304.76
949.938	9293.46
950.244	9296.17
950.549	9185.89
950.854	9141.6
951.16	9153.35
951.465	9057.98
951.77	9037.64
952.075	9030.19
952.38	8979.11
952.685	8948.61
952.99	8883.75
953.294	8862.51
953.599	8840.36
953.904	8735.28
954.209	8727.6
954.513	8741.38
954.818	8658.44
955.122	8615.28
955.426	8601.72
955.731	8558.11
956.035	8487.6
956.339	8487.83
956.643	8418.22
956.948	8388.85
957.252	8284.9
957.556	8411.45
957.86	8299.36
958.163	8277.66
958.467	8262.75
958.771	8191.56
959.075	8140.04
959.378	8066.14
959.682	8114.05
959.985	8039.93
960.289	8004
960.592	7884.68
960.896	7886.49
961.199	7845.58
961.502	7903.44
961.805	7759.03
962.108	7721.75
962.411	7714.97
962.714	7670
963.017	7711.8
963.32	7625.25
963.623	7574.18
963.926	7542.77
964.228	7516.1
964.531	7479.04
964.833	7441.08
965.136	7425.71
965.438	7365.82
965.741	7345.94
966.043	7313.62
966.345	7293.51
966.648	7279.5
966.95	7226.62
967.252	7150.24
967.554	7159.73
967.856	7058.03
968.158	7038.15
968.46	7058.71
968.761	6986.4
969.063	7008.54
969.365	6955.21
969.666	6899.17
969.968	6862.79
970.269	6852.16
970.571	6838.61
970.872	6795.44
971.174	6752.05
971.475	6742.34
971.776	6705.28
972.077	6681.1
972.378	6681.55
972.679	6620.76
972.98	6546.64
973.281	6542.12
973.582	6512.51
973.883	6486.98
974.183	6480.65
974.484	6416.92
974.785	6415.11
975.085	6416.7
975.386	6357.49
975.686	6270.26
975.986	6290.82
976.287	6268.23
976.587	6172.63
976.887	6162.92
977.187	6171.05
977.487	6127.66
977.787	6090.38
978.087	6076.14
978.387	6061.9
978.687	6072.52
978.987	6008.57
979.286	5968.12
979.586	6002.7
979.885	5883.83
980.185	5898.74
980.484	5851.51
980.784	5806.77
981.083	5810.61
981.382	5770.16
981.682	5741.91
981.981	5710.27
982.28	5689.03
982.579	5658.75
982.878	5656.04
983.177	5602.93
983.475	5581.24
983.774	5550.96
984.073	5483.84
984.372	5524.06
984.67	5480
984.969	5478.87
985.267	5458.98
985.566	5434.57
985.864	5370.4
986.162	5325.2
986.461	5348.48
986.759	5299.89
987.057	5232.09
987.355	5242.94
987.653	5248.14
987.951	5198.42
988.249	5183.28
988.547	5147.8
988.844	5135.83
989.142	5131.53
989.44	5036.17
989.737	5030.52
990.035	5026
990.332	5009.28
990.63	4950.52
990.927	4956.4
991.224	4940.35
991.521	4918.2
991.819	4898.32
992.116	4870.07
992.413	4816.06
992.71	4778.09
993.006	4786.46
993.303	4767.7
993.6	4738.77
993.897	4760.69
994.193	4717.76
994.49	4650.87
994.787	4638.89
995.083	4595.05
995.379	4574.94
995.676	4524.77
995.972	4520.93
996.268	4541.26
996.565	4505.33
996.861	4499.46
997.157	4460.36
997.453	4394.38
997.749	4438.44
998.044	4377.43
998.34	4390.08
998.636	4294.72
998.932	4305.34
999.227	4334.72
999.523	4244.78
999.818	4224.44
1000.114	4207.71
1000.409	4223.98
1000.704	4167.26
1001	4186.25
1001.295	4101.73
1001.59	4091.33
1001.885	4052.24
1002.18	4019.02
1002.475	4007.49
1002.77	4046.14
1003.065	3971.34
1003.359	3905.58
1003.654	3933.37
1003.949	3941.73
1004.243	3921.62
1004.538	3817.89
1004.832	3840.49
1005.127	3873.26
1005.421	3822.87
1005.715	3762.75
1006.009	3755.07
1006.304	3710.1
1006.598	3680.27
1006.892	3692.93
1007.186	3626.71
1007.48	3633.04
1007.773	3662.42
1008.067	3590.78
1008.361	3569.76
1008.655	3512.14
1008.948	3529.54
1009.242	3504.68
1009.535	3462.2
1009.829	3472.59
1010.122	3438.24
1010.415	3413.38
1010.708	3380.39
1011.001	3383.56
1011.295	3322.31
1011.588	3338.58
1011.881	3291.58
1012.173	3312.37
1012.466	3259.26
1012.759	3242.54
1013.052	3255.2
1013.344	3246.61
1013.637	3210
1013.93	3141.75
1014.222	3143.56
1014.514	3113.28
1014.807	3117.57
1015.099	3061.3
1015.391	3038.71
1015.683	3009.1
1015.976	2988.54
1016.268	3018.59
1016.56	2995.09
1016.851	2939.5
1017.143	2945.83
1017.435	2911.03
1017.727	2883.23
1018.018	2851.14
1018.31	2855.66
1018.602	2821.08
1018.893	2824.02
1019.185	2768.43
1019.476	2787.41
1019.767	2751.48
1020.058	2722.56
1020.35	2708.54
1020.641	2670.13
1020.932	2682.33
1021.223	2661.77
1021.514	2650.24
1021.804	2601.43
1022.095	2599.17
1022.386	2586.51
1022.677	2563.69
1022.967	2587.87
1023.258	2531.6
1023.548	2504.71
1023.839	2518.27
1024.129	2459.29
1024.419	2454.31
1024.709	2437.59
1025	2417.25
1025.29	2409.8
1025.58	2407.99
1025.87	2382.45
1026.16	2351.27
1026.449	2320.98
1026.739	2311.04
1027.029	2265.62
1027.319	2301.78
1027.608	2233.75
1027.898	2247.54
1028.187	2256.13
1028.477	2213.42
1028.766	2193.3
1029.055	2167.77
1029.344	2177.49
1029.634	2145.17
1029.923	2129.35
1030.212	2116.92
1030.501	2099.3
1030.79	2074.21
1031.078	2051.61
1031.367	2050.03
1031.656	2039.41
1031.945	2019.98
1032.233	2013.42
1032.522	1988.34
1032.81	1959.41
1033.099	1940.66
1033.387	1951.28
1033.675	1949.02
1033.963	1880.09
1034.251	1925.74
1034.54	1879.19
1034.828	1876.02
1035.116	1887.78
1035.403	1869.02
1035.691	1847.78
1035.979	1817.49
1036.267	1830.83
1036.554	1817.27
1036.842	1751.51
1037.129	1763.03
1037.417	1768.68
1037.704	1777.04
1037.992	1722.36
1038.279	1717.84
1038.566	1703.83
1038.853	1703.83
1039.14	1703.83
