Data from 18-1248_FLMS001491_005.txt Node
Date: Thu Apr 19 16:24:33 BST 2018
User: hsy
Spectrometer: FLMS00149
Trigger mode: 0
Integration Time (sec): 1.000000E-2
Scans to average: 10
Electric dark correction enabled: true
Nonlinearity correction enabled: false
Boxcar width: 0
XAxis mode: Wavelengths
Number of Pixels in Spectrum: 2048
>>>>>Begin Spectral Data<<<<<
341.393	-27.88
341.776	-27.88
342.16	-27.88
342.543	-35.79
342.927	-83.25
343.31	-77.37
343.693	-88.22
344.077	-76.47
344.46	-58.61
344.843	-49.35
345.226	-24.72
345.61	-19.52
345.993	-17.94
346.376	-17.26
346.759	14.38
347.142	43.98
347.525	51.44
347.908	50.54
348.291	81.27
348.674	68.84
349.057	119.01
349.44	123.53
349.823	132.57
350.206	182.96
350.588	224.77
350.971	253.02
351.354	267.93
351.737	282.85
352.119	297.53
352.502	298.89
352.884	335.73
353.267	321.49
353.65	352
354.032	346.12
354.414	354.71
354.797	351.54
355.179	365.78
355.562	373.92
355.944	363.07
356.326	353.13
356.709	402.62
357.091	383.63
357.473	366.01
357.855	380.47
358.238	376.63
358.62	382.73
359.002	384.76
359.384	395.39
359.766	389.74
360.148	373.24
360.53	368.27
360.912	413.01
361.294	395.61
361.676	394.71
362.057	396.74
362.439	403.29
362.821	384.09
363.203	393.8
363.584	375.05
363.966	379.11
364.348	388.61
364.729	401.49
365.111	382.73
365.493	402.62
365.874	377.76
366.256	367.59
366.637	372.79
367.019	373.92
367.4	382.28
367.781	394.93
368.163	391.32
368.544	379.11
368.925	393.35
369.306	375.5
369.688	392.22
370.069	402.62
370.45	390.19
370.831	399.68
371.212	388.61
371.593	376.85
371.974	385.89
372.355	380.7
372.736	391.77
373.117	400.36
373.498	388.83
373.879	405.55
374.26	389.96
374.641	397.64
375.021	413.24
375.402	391.77
375.783	394.03
376.163	431.77
376.544	397.19
376.925	394.26
377.305	414.82
377.686	404.2
378.066	425.89
378.447	407.14
378.827	430.19
379.208	431.54
379.588	421.83
379.968	456.4
380.349	415.27
380.729	429.28
381.109	440.36
381.489	430.41
381.87	419.11
382.25	441.03
382.63	459.34
383.01	465.44
383.39	440.81
383.77	430.41
384.15	436.29
384.53	459.79
384.91	475.16
385.29	466.8
385.67	463.63
386.049	479.9
386.429	482.39
386.809	483.29
387.189	474.93
387.568	481.26
387.948	467.25
388.328	493.24
388.707	491.88
389.087	522.39
389.466	494.37
389.846	519.22
390.225	492.56
390.605	500.69
390.984	516.74
391.363	509.28
391.743	533.23
392.122	523.07
392.501	511.54
392.881	554.25
393.26	534.82
393.639	549.51
394.018	549.51
394.397	530.07
394.776	546.34
395.155	548.6
395.534	549.73
395.913	568.94
396.292	560.35
396.671	574.82
397.05	568.94
397.429	552.44
397.808	569.39
398.186	578.88
398.565	554.25
398.944	584.53
399.323	593.8
399.701	600.35
400.08	572.33
400.458	612.55
400.837	600.35
401.215	618.66
401.594	619.33
401.972	606.23
402.351	622.72
402.729	614.14
403.107	635.6
403.486	640.58
403.864	642.61
404.242	617.07
404.62	663.63
404.999	662.04
405.377	657.3
405.755	660.24
406.133	669.95
406.511	682.61
406.889	707.47
407.267	677.86
407.645	707.02
408.023	703.85
408.401	717.86
408.779	724.42
409.156	722.83
409.534	723.06
409.912	753.57
410.29	747.69
410.667	754.02
411.045	787.69
411.422	791.53
411.8	762.38
412.178	807.8
412.555	832.66
412.933	826.79
413.31	810.97
413.687	826.79
414.065	822.49
414.442	831.98
414.819	844.86
415.197	851.42
415.574	886.67
415.951	880.12
416.328	884.19
416.705	888.48
417.082	871.76
417.46	870.17
417.837	934.13
418.214	905.2
418.591	916.73
418.967	925.99
419.344	945.88
419.721	937.97
420.098	950.85
420.475	964.86
420.852	946.11
421.228	953.11
421.605	972.32
421.982	984.97
422.358	987.46
422.735	1002.83
423.111	1005.31
423.488	1021.13
423.864	1027.01
424.241	1043.73
424.617	1039.89
424.994	1037.85
425.37	1073.79
425.746	1072.66
426.123	1096.61
426.499	1088.02
426.875	1094.8
427.251	1074.92
427.627	1130.51
428.003	1135.03
428.379	1163.5
428.756	1149.49
429.132	1180.22
429.507	1184.74
429.883	1196.27
430.259	1217.28
430.635	1225.42
431.011	1235.59
431.387	1246.66
431.763	1270.84
432.138	1298.41
432.514	1319.88
432.89	1308.36
433.265	1315.36
433.641	1337.73
434.016	1327.34
434.392	1349.71
434.767	1373.89
435.143	1376.38
435.518	1398.07
435.894	1441.46
436.269	1453.66
436.644	1447.33
437.02	1452.76
437.395	1485.3
437.77	1504.73
438.145	1508.58
438.52	1504.73
438.895	1539.08
439.271	1511.06
439.646	1564.85
440.021	1555.58
440.395	1580.66
440.77	1562.59
441.145	1596.48
441.52	1607.1
441.895	1597.61
442.27	1632.64
442.645	1621.79
443.019	1651.62
443.394	1648.69
443.769	1638.97
444.143	1694.33
444.518	1677.84
444.892	1669.25
445.267	1699.08
445.641	1728.46
446.016	1733.88
446.39	1741.79
446.764	1719.87
447.139	1723.49
447.513	1772.98
447.887	1771.85
448.262	1787.44
448.636	1776.37
449.01	1830.15
449.384	1820.88
449.758	1845.29
450.132	1843.03
450.506	1886.19
450.88	1856.14
451.254	1874.22
451.628	1939.75
452.002	1948.56
452.376	1957.83
452.75	1976.81
453.123	1978.39
453.497	2025.17
453.871	2026.75
454.244	2073.76
454.618	2071.27
454.992	2104.04
455.365	2139.75
455.739	2169.12
456.112	2182.23
456.486	2189.24
456.859	2223.13
457.232	2240.99
457.606	2273.08
457.979	2318.95
458.352	2318.5
458.725	2356.46
459.099	2352.17
459.472	2425.39
459.845	2465.84
460.218	2448.66
460.591	2472.84
460.964	2495.89
461.337	2535.67
461.71	2619.73
462.083	2584.25
462.456	2643.69
462.829	2625.16
463.201	2678.94
463.574	2727.3
463.947	2721.2
464.32	2736.34
464.692	2783.12
465.065	2844.13
465.438	2848.88
465.81	2879.84
466.183	2888.65
466.555	2958.03
466.928	2989.67
467.3	3001.87
467.672	3030.34
468.045	3100.17
468.417	3112.15
468.789	3140.4
469.161	3139.72
469.534	3189.89
469.906	3258.36
470.278	3292.94
470.65	3334.29
471.022	3384.91
471.394	3425.36
471.766	3473.5
472.138	3503.55
472.51	3587.84
472.882	3606.15
473.253	3647.95
473.625	3710.33
473.997	3786.26
474.369	3764.79
474.74	3845.24
475.112	3894.28
475.484	3975.4
475.855	4016.31
476.227	4075.29
476.598	4144.67
476.97	4213.59
477.341	4296.75
477.713	4365.68
478.084	4379.24
478.455	4494.49
478.827	4559.34
479.198	4634.14
479.569	4671.66
479.94	4807.25
480.311	4873.46
480.682	4943.51
481.053	5039.33
481.424	5123.85
481.795	5190.97
482.166	5243.62
482.537	5348.48
482.908	5470.51
483.279	5482.03
483.65	5734.68
484.021	5754.34
484.391	5841.57
484.762	5909.82
485.133	5970.83
485.503	6051.06
485.874	6247.21
486.244	6306.19
486.615	6397.49
486.985	6522.68
487.356	6600.19
487.726	6703.24
488.097	6844.93
488.467	6939.85
488.837	7110.69
489.207	7176.68
489.578	7286.73
489.948	7354.75
490.318	7543.45
490.688	7613.5
491.058	7738.02
491.428	7794.96
491.798	7906.6
492.168	8126.03
492.538	8193.15
492.908	8253.26
493.278	8343.88
493.648	8460.71
494.017	8563.31
494.387	8627.71
494.757	8796.07
495.126	8843.07
495.496	8985.44
495.866	8979.11
496.235	9154.7
496.605	9215.94
496.974	9373.23
497.344	9454.81
497.713	9541.36
498.082	9554.69
498.452	9747
498.821	9834.91
499.19	9873.33
499.559	9970.27
499.928	10138.41
500.298	10189.93
500.667	10225.41
501.036	10290.49
501.405	10423.37
501.774	10427.89
502.143	10608.22
502.512	10691.84
502.88	10779.07
503.249	10816.58
503.618	10939.29
503.987	10950.81
504.356	11075.33
504.724	11218.83
505.093	11196.68
505.462	11324.59
505.83	11369.33
506.199	11556.67
506.567	11648.87
506.936	11653.85
507.304	11793.73
507.672	11955.53
508.041	11945.36
508.409	12095.87
508.777	12121.63
509.145	12270.78
509.514	12273.49
509.882	12447.72
510.25	12499.25
510.618	12596.87
510.986	12619.92
511.354	12713.93
511.722	12896.75
512.09	12957.09
512.458	12869.63
512.826	13137.65
513.193	13127.93
513.561	13268.72
513.929	13374.7
514.297	13460.8
514.664	13583.74
515.032	13637.97
515.4	13761.81
515.767	13775.82
516.135	13859.21
516.502	13813.34
516.869	14065.99
517.237	14181.92
517.604	14204.06
517.972	14406.32
518.339	14448.35
518.706	14510.72
519.073	14614.9
519.44	14737.83
519.808	14865.51
520.175	14931.73
520.542	15115
520.909	15076.35
521.276	15218.72
521.643	15388.66
522.009	15530.81
522.376	15596.79
522.743	15700.97
523.11	15869.78
523.477	16047.18
523.843	16128.53
524.21	16358.81
524.577	16417.34
524.943	16518.58
525.31	16591.34
525.676	16831.56
526.043	16994.95
526.409	17088.73
526.776	17263.64
527.142	17308.84
527.508	17350.42
527.874	17618.66
528.241	17718.09
528.607	17810.07
528.973	18002.15
529.339	17977.07
529.705	18228.59
530.071	18405.76
530.437	18457.74
530.803	18643.27
531.169	18758.52
531.535	18685.07
531.901	18861.11
532.267	18871.96
532.632	19115.12
532.998	19185.63
533.364	19316.92
533.73	19307.88
534.095	19502
534.461	19579.51
534.826	19693.63
535.192	19833.07
535.557	20002.33
535.923	19907.64
536.288	20091.14
536.653	20153.74
537.019	20119.16
537.384	20271.7
537.749	20285.71
538.114	20460.62
538.479	20501.07
538.845	20551.24
539.21	20492.48
539.575	20739.48
539.94	20716.88
540.305	20904
540.67	20895.19
541.034	20900.38
541.399	21063.77
541.764	21088.17
542.129	21155.29
542.494	21145.8
542.858	21297.89
543.223	21354.38
543.587	21465.57
543.952	21353.03
544.316	21543.53
544.681	21533.13
545.045	21640.7
545.41	21682.96
545.774	21787.14
546.138	21861.94
546.503	21870.98
546.867	21892.22
547.231	21998.43
547.595	22145.32
547.959	22139.45
548.324	22230.74
548.688	22234.81
549.052	22282.04
549.416	22296.73
549.779	22435.26
550.143	22435.26
550.507	22631.64
550.871	22754.35
551.235	22670.96
551.599	22917.28
551.962	22862.82
552.326	22970.16
552.689	23110.27
553.053	22919.09
553.417	23150.94
553.78	23350.49
554.143	23338.96
554.507	23492.4
554.87	23479.98
555.234	23682.68
555.597	23558.39
555.96	23719.29
556.323	23891.49
556.686	23900.53
557.05	24052.62
557.413	24066.4
557.776	24127.64
558.139	24316.34
558.502	24339.39
558.865	24480.4
559.228	24591.81
559.59	24730.79
559.953	24577.12
560.316	25034.51
560.679	25028.64
561.041	25112.48
561.404	25246.94
561.767	25510.66
562.129	25464.78
562.492	25631.78
562.854	25689.64
563.217	25752.46
563.579	25824.09
563.941	26048.95
564.304	26198.32
564.666	26455.04
565.028	26396.51
565.39	26500.24
565.753	26819.55
566.115	26881.92
566.477	26935.03
566.839	27111.07
567.201	27377.73
567.563	27322.81
567.925	27703.37
568.287	27555.8
568.648	27664.05
569.01	28009.57
569.372	28210.47
569.734	28286.18
570.095	28363.46
570.457	28667.18
570.819	28779.5
571.18	28808.2
571.542	29143.1
571.903	29102.65
572.265	29414.74
572.626	29520.72
572.987	29544.68
573.349	29782.41
573.71	29821.05
574.071	30047.71
574.432	30268.72
574.794	30601.82
575.155	30578.32
575.516	30574.7
575.877	30782.38
576.238	30918.2
576.599	31121.58
576.96	31250.62
577.32	31355.47
577.681	31352.76
578.042	31704.17
578.403	31747.78
578.763	31808.34
579.124	31866.87
579.485	32213.98
579.845	32340.53
580.206	32255.11
580.566	32420.76
580.927	32559.74
581.287	32725.38
581.648	32785.49
582.008	33134.64
582.368	33081.31
582.728	33237.46
583.089	33188.87
583.449	33421.18
583.809	33419.15
584.169	33696.43
584.529	33881.74
584.889	34102.75
585.249	34088.06
585.609	34056.42
585.969	34568.5
586.329	34439.91
586.688	34876.06
587.048	34909.05
587.408	35110.86
587.768	35065.66
588.127	35403.05
588.487	35538.87
588.846	36013.21
589.206	35862.02
589.565	36095.01
589.925	36559.18
590.284	36714.43
590.643	36998.49
591.003	37219.05
591.362	37586.95
591.721	37742.43
592.08	37983.78
592.44	38313.26
592.799	38505.57
593.158	38694.49
593.517	38810.65
593.876	39233.23
594.235	39418.54
594.593	39754.35
594.952	40148.01
595.311	40179.2
595.67	40525.86
596.029	40957.71
596.387	41140.3
596.746	41672.49
597.104	41620.06
597.463	41798.59
597.822	42371.46
598.18	42444.22
598.538	42672.47
598.897	43297.99
599.255	43257.53
599.613	44069.94
599.972	43814.58
600.33	44228.13
600.688	44386.54
601.046	44657.72
601.404	45245.28
601.762	45335.9
602.12	45661.31
602.478	45879.16
602.836	46003.9
603.194	46067.18
603.552	46474.4
603.91	46610.22
604.268	46870.1
604.625	47180.82
604.983	47524.09
605.341	47434.15
605.698	47892.44
606.056	48182.6
606.413	48225.54
606.771	48475.7
607.128	48715.02
607.485	48662.82
607.843	48928.12
608.2	49165.63
608.557	49532.17
608.914	49607.65
609.272	49829.57
609.629	50138.71
609.986	50341.19
610.343	50314.07
610.7	50764.91
611.057	50859.82
611.414	50866.6
611.771	51139.81
612.127	51299.81
612.484	51366.47
612.841	51507.94
613.198	51466.36
613.554	51620.7
613.911	52001.03
614.267	52009.17
614.624	52167.13
614.98	52277.18
615.337	52541.36
615.693	52539.32
616.05	52661.36
616.406	52848.24
616.762	52805.31
617.118	52885.53
617.475	53001.69
617.831	53175.69
618.187	53190.16
618.543	53430.37
618.899	53502.24
619.255	53499.53
619.611	53544.27
619.967	53780.65
620.323	53877.14
620.678	53788.33
621.034	53833.08
621.39	53888.67
621.746	53988.78
622.101	54376.11
622.457	54029.91
622.812	54229.68
623.168	54324.81
623.523	54302.22
623.879	54447.07
624.234	54381.54
624.589	54495.66
624.945	54500.4
625.3	54596.9
625.655	54636.22
626.01	54606.16
626.365	54608.2
626.72	54644.81
627.075	54521.87
627.43	54650
627.785	54602.55
628.14	54689.1
628.495	54769.32
628.85	54722.32
629.205	54707.18
629.559	54859.94
629.914	54713.96
630.269	54764.58
630.623	54601.64
630.978	54604.13
631.332	54787.18
631.687	54825.82
632.041	54674.64
632.396	54735.88
632.75	54694.75
633.104	54712.6
633.459	54520.74
633.813	54646.39
634.167	54624.24
634.521	54578.59
634.875	54584.24
635.229	54511.48
635.583	54438.71
635.937	54518.48
636.291	54506.28
636.645	54415.43
636.999	54287.08
637.352	54459.95
637.706	54220.41
638.06	54384.7
638.413	54235.78
638.767	54203.91
639.121	54306.51
639.474	54140.19
639.828	54106.29
640.181	54200.52
640.534	54220.18
640.888	54153.75
641.241	53972.96
641.594	54126.63
641.947	54091.15
642.301	54068.78
642.654	54104.26
643.007	53966.41
643.36	54119.62
643.713	54024.71
644.066	54174.76
644.419	53883.24
644.771	53607.77
645.124	53396.93
645.477	53265.86
645.83	53195.58
646.182	53130.04
646.535	53090.04
646.888	53248.91
647.24	53104.96
647.593	53205.07
647.945	53126.65
648.298	53059.54
648.65	52833.55
649.002	52705.42
649.355	52725.08
649.707	52690.06
650.059	52574.58
650.411	53052.53
650.763	53193.77
651.115	53623.36
651.467	53503.37
651.819	53512.41
652.171	53446.87
652.523	53402.8
652.875	53412.52
653.227	53328.46
653.578	53516.93
653.93	53417.72
654.282	53346.08
654.633	53342.02
654.985	53389.25
655.337	53393.31
655.688	53419.53
656.039	53498.17
656.391	53117.84
656.742	53180.21
657.094	53278.74
657.445	53270.83
657.796	53340.89
658.147	53254.56
658.498	53353.99
658.849	53390.6
659.2	53317.38
659.551	53238.06
659.902	53445.29
660.253	53335.01
660.604	53388.57
660.955	53223.6
661.306	53330.49
661.656	53273.99
662.007	53268.35
662.358	53230.83
662.708	53358.29
663.059	53204.84
663.409	53150.61
663.76	53270.15
664.11	53270.38
664.461	53272.19
664.811	53376.14
665.161	53226.99
665.511	53178.63
665.862	53226.99
666.212	53344.73
666.562	53305.41
666.912	53225.86
667.262	53165.97
667.612	53282.36
667.962	53238.06
668.312	53234
668.662	53320.1
669.011	53287.78
669.361	53208.01
669.711	53147.22
670.06	53123.49
670.41	53138.86
670.76	53062.02
671.109	53269.02
671.459	53116.94
671.808	53112.42
672.157	53172.53
672.507	53040.78
672.856	53023.83
673.205	53019.76
673.554	53110.61
673.904	53034.9
674.253	53226.09
674.602	53049.37
674.951	52651.64
675.3	52432.66
675.649	53034.23
675.998	52924.17
676.346	53025.41
676.695	53012.98
677.044	52791.75
677.393	52896.6
677.741	52959.43
678.09	52886.43
678.438	52736.16
678.787	52862.48
679.135	52871.75
679.484	52646.67
679.832	52798.08
680.181	52720.79
680.529	52661.36
680.877	52593.11
681.225	52582.04
681.573	52693.22
681.922	52578.42
682.27	52451.42
682.618	52413.23
682.966	52347.92
683.314	52403.06
683.661	52290.29
684.009	52176.17
684.357	52128.94
684.705	52110.41
685.053	52203.97
685.4	51982.73
685.748	51891.43
686.095	51866.35
686.443	51610.31
686.79	51680.82
687.138	51734.37
687.485	51739.57
687.832	51481.27
688.18	51554.27
688.527	51411.44
688.874	51349.3
689.221	51283.99
689.568	51062.98
689.915	51071.79
690.262	51102.75
690.609	51019.82
690.956	50820.95
691.303	50836.32
691.65	50684.91
691.997	50554.97
692.344	50550.68
692.69	50504.35
693.037	50404.92
693.383	50074.53
693.73	50254.64
694.077	50058.49
694.423	49964.48
694.769	49758.83
695.116	49742.56
695.462	49593.19
695.808	49468.9
696.155	49472.74
696.501	49263.93
696.847	49273.87
697.193	49031.62
697.539	49081.79
697.885	48724.28
698.231	48618.75
698.577	48813.32
698.923	48649.48
699.269	48503.27
699.614	48426.21
699.96	48150.74
700.306	48360.68
700.651	47991.65
700.997	47842.73
701.342	47783.97
701.688	47774.93
702.033	47451.77
702.379	47499.91
702.724	47296.07
703.069	47242.51
703.415	46821.28
703.76	46727.95
704.105	46940.15
704.45	46594.85
704.795	46437.34
705.14	46384.46
705.485	46366.83
705.83	45975.66
706.175	46180.17
706.52	46035.31
706.865	45930.46
707.209	45732.5
707.554	45663.35
707.899	45671.03
708.243	45565.72
708.588	45477.59
708.932	45148.78
709.277	45166.19
709.621	44991.05
709.966	44742.69
710.31	44846.19
710.654	44527.78
710.998	44493.21
711.342	44680.55
711.687	44425.64
712.031	44267.45
712.375	43998.98
712.719	44117.17
713.063	43954.47
713.407	44188.58
713.75	43834.02
714.094	43869.95
714.438	43706.56
714.782	43785.43
715.125	43515.38
715.469	43787.92
715.812	43236.07
716.156	43235.61
716.499	43225.45
716.843	43269.51
717.186	43011.21
717.53	43262.51
717.873	43347.7
718.216	43114.94
718.559	42935.06
718.902	42636.08
719.246	42841.5
719.589	42603.54
719.932	42619.59
720.275	42592.69
720.617	42641.96
720.96	42509.53
721.303	42533.03
721.646	42568.06
721.989	42263.66
722.331	42380.72
722.674	42290.78
723.016	42134.63
723.359	42097.34
723.701	42154.51
724.044	42141.18
724.386	41894.18
724.729	42083.33
725.071	42020.28
725.413	41955.2
725.755	41887.18
726.097	41856.89
726.439	41821.64
726.782	41679.95
727.124	42079.26
727.465	41775.99
727.807	41600.63
728.149	41731.02
728.491	41652.15
728.833	41710.68
729.175	41751.59
729.516	41675.88
729.858	41772.15
730.199	41664.81
730.541	41667.07
730.882	41549.78
731.224	41620.52
731.565	41570.35
731.906	41615.54
732.248	41659.84
732.589	41449.67
732.93	41493.29
733.271	41649.22
733.612	41442.89
733.953	41637.24
734.294	41551.37
734.635	41536.68
734.976	41673.62
735.317	41590.23
735.658	41357.92
735.999	41534.42
736.339	41405.38
736.68	41619.61
737.021	41591.14
737.361	41574.64
737.702	41851.7
738.042	41611.02
738.383	41673.62
738.723	41830.45
739.063	41692.15
739.404	41953.16
739.744	41894.63
740.084	41926.72
740.424	41959.94
740.764	41893.5
741.104	42093.95
741.444	41885.37
741.784	41793.62
742.124	42056.66
742.464	42022.31
742.804	42037
743.143	42025.48
743.483	42074.52
743.823	42007.62
744.162	42173.5
744.502	42374.85
744.841	42246.04
745.181	42331.01
745.52	42289.2
745.86	42599.25
746.199	42513.83
746.538	42565.58
746.877	42829.98
747.216	42879.92
747.556	42722.18
747.895	43012.34
748.234	42950.2
748.573	43033.13
748.911	43017.32
749.25	43048.95
749.589	43208.27
749.928	43441.71
750.267	43548.15
750.605	43391.54
750.944	43539.11
751.283	43504.08
751.621	43824.75
751.96	43697.3
752.298	43792.21
752.636	43919.66
752.975	43928.7
753.313	43858.65
753.651	44288.47
753.989	44143.84
754.327	44369.82
754.666	44109.72
755.004	44512.64
755.342	44598.06
755.679	44744.95
756.017	44677.84
756.355	44845.06
756.693	44963.25
757.031	45084.83
757.368	44892.07
757.706	45012.52
758.044	45007.55
758.381	45267.43
758.719	45239.4
759.056	45425.61
759.394	45423.13
759.731	45189.24
760.068	45349.01
760.405	45475.1
760.743	45400.98
761.08	45563.69
761.417	45574.99
761.754	45576.8
762.091	45612.73
762.428	45589.9
762.765	45445.73
763.102	45671.48
763.438	45591.03
763.775	45521.88
764.112	45546.06
764.449	45631.71
764.785	45558.27
765.122	45534.31
765.458	45493.63
765.795	45422
766.131	45491.83
766.467	45485.05
766.804	45426.97
767.14	45236.47
767.476	45158.5
767.812	45086.87
768.148	45351.04
768.485	45261.78
768.821	45054.32
769.157	45028.56
769.492	45093.42
769.828	44920.99
770.164	44602.81
770.5	44602.36
770.836	44741.34
771.171	44616.14
771.507	44512.19
771.842	44279.2
772.178	44226.1
772.513	44158.98
772.849	44081.02
773.184	44219.77
773.519	44045.08
773.855	43914.47
774.19	43776.17
774.525	43534.36
774.86	43643.97
775.195	43504.76
775.53	43340.7
775.865	43262.05
776.2	43020.03
776.535	42838.56
776.87	42931.67
777.205	42636.31
777.539	42582.52
777.874	42657.78
778.209	42222.08
778.543	42288.52
778.878	42023.67
779.212	42114.51
779.547	41819.61
779.881	41938.25
780.215	41661.19
780.55	41660.51
780.884	41482.44
781.218	41286.06
781.552	41573.06
781.886	41161.09
782.22	40900.53
782.554	40778.5
782.888	40557.04
783.222	40352.98
783.556	40234.34
783.889	40311.85
784.223	39974.23
784.557	40103.49
784.89	40137.62
785.224	39780.79
785.557	39591.19
785.891	39465.09
786.224	39407.47
786.558	39420.57
786.891	39194.36
787.224	38940.13
787.557	38789.18
787.891	38929.74
788.224	38631.22
788.557	38621.95
788.89	38528.62
789.223	38422.18
789.556	38241.4
789.888	38104.9
790.221	37994.85
790.554	37918.47
790.887	37841.41
791.219	37601.19
791.552	37531.81
791.884	37386.5
792.217	37312.38
792.549	37131.82
792.882	36835.1
793.214	36804.6
793.546	36855.67
793.879	36761.89
794.211	36463.82
794.543	36457.94
794.875	36467.43
795.207	36339.75
795.539	36184.73
795.871	36233.31
796.203	36118.29
796.535	35771.63
796.867	35743.38
797.198	35559.21
797.53	35536.16
797.862	35317.86
798.193	35395.37
798.525	35173.45
798.856	35314.69
799.188	34815.27
799.519	34806.01
799.85	34466.13
800.182	34701.15
800.513	34647.14
800.844	34156.98
801.175	34444.89
801.506	34561.94
801.837	34182.75
802.168	34175.74
802.499	34177.55
802.83	33921.74
803.161	33873.6
803.491	33808.52
803.822	33844.22
804.153	33470.9
804.483	33293.73
804.814	33249.89
805.145	33243.79
805.475	33299.38
805.805	33121.76
806.136	33185.71
806.466	32983.91
806.796	33078.59
807.126	32738.04
807.457	32626.85
807.787	32683.35
808.117	32563.8
808.447	32467.54
808.777	32502.11
809.107	32291.72
809.436	32233.19
809.766	32273.87
810.096	32332.62
810.426	31929.47
810.755	32058.28
811.085	31922.69
811.414	31977.61
811.744	31737.16
812.073	31754.33
812.403	31515.02
812.732	31380.33
813.061	31605.41
813.39	31391.63
813.719	31335.36
814.049	31516.37
814.378	31272.31
814.707	30971.98
815.036	30990.74
815.365	30818.54
815.693	30810.86
816.022	30755.04
816.351	30682.27
816.68	30597.08
817.008	30615.38
817.337	30374.26
817.665	30346.91
817.994	30449.06
818.322	30466.68
818.651	30240.48
818.979	30020.37
819.307	30210.19
819.636	30062.85
819.964	29874.38
820.292	30151.44
820.62	30016.08
820.948	30073.25
821.276	30051.78
821.604	29937.43
821.932	30143.98
822.259	29906.7
822.587	29879.58
822.915	29769.08
823.243	29997.32
823.57	29869.86
823.898	30021.5
824.225	29899.47
824.553	29854.5
824.88	29970.2
825.207	29986.25
825.535	29844.55
825.862	30027.15
826.189	29785.8
826.516	30116.64
826.843	30109.18
827.17	30148.05
827.497	30059.46
827.824	29995.06
828.151	30068.05
828.478	29973.36
828.805	30121.38
829.131	30033.02
829.458	30036.87
829.785	29661.28
830.111	30021.27
830.438	30107.15
830.764	29920.03
831.09	30002.29
831.417	29872.58
831.743	30050.42
832.069	29999.58
832.395	29827.61
832.722	29965
833.048	29897.66
833.374	29985.57
833.7	29873.25
834.026	29934.95
834.351	29889.3
834.677	29901.95
835.003	29866.25
835.329	29890.88
835.654	29889.75
835.98	29608.18
836.306	29730.66
836.631	29544.9
836.956	29849.3
837.282	29711.45
837.607	29539.93
837.932	29666.48
838.258	29498.57
838.583	29532.92
838.908	29453.6
839.233	29439.37
839.558	29440.05
839.883	29314.17
840.208	29281.41
840.533	29271.01
840.858	29147.85
841.182	29199.6
841.507	29108.98
841.832	29019.72
842.156	28985.59
842.481	28959.61
842.805	28875.31
843.13	28706.28
843.454	28778.82
843.778	28643
844.103	28597.58
844.427	28479.62
844.751	28690.46
845.075	28474.65
845.399	28401.2
845.723	28167.76
846.047	28297.7
846.371	28203.69
846.695	27899.29
847.019	27856.36
847.343	27662.92
847.666	27598.06
847.99	27567.33
848.313	27442.58
848.637	27332.08
848.96	27371.85
849.284	27109.71
849.607	26914.01
849.931	26941.13
850.254	26724.86
850.577	26622.27
850.9	26408.94
851.223	26469.28
851.546	26577.97
851.869	26295.95
852.192	26395.38
852.515	26043.07
852.838	25929.18
853.161	25900.7
853.483	25759.46
853.806	25752.68
854.129	25661.61
854.451	25578.9
854.774	25408.96
855.096	25359.7
855.419	25193.83
855.741	25245.35
856.063	25102.53
856.385	25103.44
856.708	25025.02
857.03	24944.57
857.352	24924.91
857.674	24931.24
857.996	24635.2
858.318	24423.23
858.64	24630
858.961	24498.48
859.283	24439.95
859.605	24329.67
859.926	24322.44
860.248	24307.98
860.57	24129.9
860.891	24079.73
861.212	24116.12
861.534	24029.11
861.855	23950.47
862.176	23940.3
862.498	23921.32
862.819	23906.41
863.14	23621.22
863.461	23739.18
863.782	23648.11
864.103	23649.46
864.424	23671.84
864.745	23641.78
865.065	23490.82
865.386	23341.45
865.707	23425.29
866.027	23485.85
866.348	23323.37
866.668	23182.58
866.989	23272.52
867.309	23072.53
867.63	23142.13
867.95	23157.05
868.27	22958.41
868.59	23040.44
868.91	23000.21
869.23	22992.98
869.55	22883.83
869.87	23004.06
870.19	22714.57
870.51	22820.33
870.83	22771.29
871.15	22655.59
871.469	22632.77
871.789	22720
872.109	22633.67
872.428	22611.98
872.748	22475.48
873.067	22496.27
873.386	22487.69
873.706	22490.4
874.025	22407.24
874.344	22288.37
874.663	22390.29
874.982	22380.34
875.301	22242.95
875.62	22136.51
875.939	22163.17
876.258	22183.29
876.577	22000.24
876.896	22099.22
877.214	22016.74
877.533	21966.8
877.852	21971.09
878.17	22010.18
878.489	22138.77
878.807	21777.87
879.125	21809.51
879.444	21816.06
879.762	21750.53
880.08	21793.47
880.398	21693.13
880.716	21692.68
881.034	21604.54
881.352	21460.37
881.67	21464.66
881.988	21443.42
882.306	21339.92
882.624	21439.8
882.941	21218.79
883.259	21173.82
883.577	21273.48
883.894	21145.57
884.212	21160.94
884.529	21017.89
884.846	20928.18
885.164	20818.8
885.481	20826.49
885.798	20852.7
886.115	20773.38
886.432	20806.37
886.75	20763.66
887.067	20812.02
887.383	20653.61
887.7	20560.05
888.017	20457.91
888.334	20574.06
888.651	20345.14
888.967	20424.24
889.284	20347.4
889.6	20238.71
889.917	20147.86
890.233	20079.84
890.55	20012.72
890.866	20035.32
891.182	19891.37
891.498	19926.17
891.815	19775.89
892.131	19680.53
892.447	19708.78
892.763	19682.79
893.079	19531.15
893.395	19535.22
893.71	19542.68
894.026	19371.61
894.342	19365.06
894.657	19087.32
894.973	19275.79
895.289	19224.95
895.604	19078.74
895.92	19093.65
896.235	19036.25
896.55	18943.6
896.865	18856.82
897.181	18794.68
897.496	18831.74
897.811	18721
898.126	18705.64
898.441	18733.89
898.756	18569.14
899.071	18481.24
899.386	18413.67
899.7	18318.76
900.015	18249.83
900.33	18059.78
900.644	18041.7
900.959	18097.74
901.273	17863.85
901.588	18030.63
901.902	17849.16
902.216	17747.47
902.531	17784.98
902.845	17691.43
903.159	17545.22
903.473	17537.76
903.787	17385.45
904.101	17382.06
904.415	17349.06
904.729	17217.99
905.042	17198.79
905.356	17227.94
905.67	17056.87
905.984	17090.54
906.297	17034.5
906.611	16886.93
906.924	16967.83
907.237	16788.85
907.551	16798.34
907.864	16637.22
908.177	16691.91
908.491	16489.88
908.804	16389.77
909.117	16361.97
909.43	16248.08
909.743	16181.41
910.056	16243.56
910.368	16128.53
910.681	16048.98
910.994	16000.17
911.307	15957.91
911.619	15738.71
911.932	15824.58
912.244	15686.96
912.557	15585.04
912.869	15565.16
913.181	15561.31
913.494	15493.52
913.806	15334.65
914.118	15283.58
914.43	15285.62
914.742	15177.82
915.054	15163.36
915.366	15017.83
915.678	15049.01
915.99	15014.44
916.302	14864.84
916.613	14854.89
916.925	14827.77
917.236	14781
917.548	14712.52
917.859	14684.27
918.171	14534.22
918.482	14465.52
918.794	14326.77
919.105	14211.97
919.416	14166.55
919.727	14211.74
920.038	14164.29
920.349	14024.86
920.66	14029.15
920.971	14027.12
921.282	13988.93
921.593	13885.43
921.903	13761.59
922.214	13774.92
922.525	13728.59
922.835	13631.2
923.146	13572.89
923.456	13534.93
923.767	13458.32
924.077	13383.97
924.387	13375.61
924.697	13237.08
925.008	13258.1
925.318	13188.72
925.628	13181.72
925.938	13103.07
926.248	12932.46
926.558	12859.24
926.867	12841.16
927.177	12837.54
927.487	12788.51
927.796	12651.33
928.106	12627.83
928.416	12607.72
928.725	12644.1
929.034	12518.91
929.344	12495.18
929.653	12400.04
929.962	12273.72
930.271	12264
930.581	12201.63
930.89	12174.28
931.199	12119.37
931.508	12001.86
931.817	12045.7
932.125	12054.74
932.434	12015.87
932.743	11772.49
933.051	11776.55
933.36	11680.06
933.669	11638.03
933.977	11637.35
934.286	11624.02
934.594	11511.25
934.902	11447.52
935.21	11398.26
935.519	11443.46
935.827	11344.93
936.135	11276.23
936.443	11186.74
936.751	11180.19
937.059	11146.29
937.367	11064.26
937.674	11127.53
937.982	11054.31
938.29	10983.36
938.597	10932.51
938.905	10775.9
939.213	10765.96
939.52	10651.84
939.827	10764.38
940.135	10689.13
940.442	10626.08
940.749	10530.49
941.056	10595.57
941.363	10457.95
941.67	10410.26
941.977	10349.02
942.284	10305.41
942.591	10310.38
942.898	10246.65
943.205	10262.47
943.511	10143.83
943.818	10069.71
944.125	10014.79
944.431	10079.65
944.738	9906.55
945.044	9993.55
945.35	9913.33
945.657	9797.85
945.963	9830.84
946.269	9788.81
946.575	9779.09
946.881	9635.14
947.187	9631.07
947.493	9569.83
947.799	9523.96
948.105	9482.83
948.41	9451.19
948.716	9368.26
949.022	9347.92
949.327	9343.62
949.633	9199.67
949.938	9225.66
950.244	9313.57
950.549	9206.45
950.854	9110.41
951.16	9110.41
951.465	9021.37
951.77	9003.75
952.075	8973.46
952.38	8897.76
952.685	8888.04
952.99	8791.55
953.294	8822.73
953.599	8718.1
953.904	8666.13
954.209	8629.07
954.513	8676.52
954.818	8586.58
955.122	8607.6
955.426	8580.93
955.731	8495.96
956.035	8497.09
956.339	8385.46
956.643	8355.4
956.948	8326.48
957.252	8283.31
957.556	8295.52
957.86	8234.28
958.163	8189.08
958.467	8079.93
958.771	8134.62
959.075	8076.09
959.378	8055.07
959.682	8081.51
959.985	8003.09
960.289	7904.57
960.592	7907.96
960.896	7917
961.199	7806.04
961.502	7785.25
961.805	7711.8
962.108	7663.44
962.411	7669.32
962.714	7617.34
963.017	7525.14
963.32	7555.2
963.623	7528.76
963.926	7518.14
964.228	7461.87
964.531	7450.79
964.833	7438.36
965.136	7347.74
965.438	7326.28
965.741	7265.03
966.043	7262.78
966.345	7200.18
966.648	7177.13
966.95	7157.92
967.252	7168.77
967.554	7099.39
967.856	7081.08
968.158	6989.11
968.46	7029.11
968.761	6950.69
969.063	7013.97
969.365	6879.51
969.666	6857.81
969.968	6871.6
970.269	6806.74
970.571	6748.21
970.872	6693.98
971.174	6718.38
971.475	6676.35
971.776	6705.73
972.077	6655.56
972.378	6656.46
972.679	6594.32
972.98	6601.55
973.281	6476.13
973.582	6487.65
973.883	6421.44
974.183	6428.45
974.484	6410.37
974.785	6306.64
975.085	6316.13
975.386	6352.29
975.686	6274.33
975.986	6230.03
976.287	6210.83
976.587	6152.75
976.887	6153.2
977.187	6099.64
977.487	6137.38
977.787	6057.61
978.087	6020.32
978.387	5996.37
978.687	5938.06
978.987	5943.94
979.286	5856.03
979.586	5911.17
979.885	5894.68
980.185	5776.26
980.484	5853.77
980.784	5778.75
981.083	5722.02
981.382	5706.66
981.682	5688.81
981.981	5709.6
982.28	5614.68
982.579	5632.76
982.878	5615.81
983.177	5604.06
983.475	5608.58
983.774	5476.16
984.073	5457.17
984.372	5486.78
984.67	5444.74
984.969	5468.02
985.267	5404.97
985.566	5322.04
985.864	5315.48
986.162	5393.22
986.461	5292.21
986.759	5266.22
987.057	5161.59
987.355	5182.15
987.653	5180.12
987.951	5127.01
988.249	5104.64
988.547	5125.66
988.844	5088.6
989.142	5077.97
989.44	5040.23
989.737	5028.48
990.035	4979.67
990.332	4937.86
990.63	4981.25
990.927	4941.25
991.224	4862.61
991.521	4894.48
991.819	4785.1
992.116	4829.62
992.413	4788.94
992.71	4771.54
993.006	4773.35
993.303	4714.59
993.6	4694.93
993.897	4680.02
994.193	4640.25
994.49	4620.36
994.787	4614.48
995.083	4538.55
995.379	4584.88
995.676	4510.31
995.972	4482.28
996.268	4494.03
996.565	4443.19
996.861	4450.42
997.157	4443.19
997.453	4408.16
997.749	4326.58
998.044	4309.63
998.34	4351.44
998.636	4325
998.932	4253.36
999.227	4257.2
999.523	4220.82
999.818	4205
1000.114	4174.27
1000.409	4157.09
1000.704	4134.95
1001	4109.86
1001.295	4105.34
1001.59	4061.96
1001.885	4082.52
1002.18	3995.29
1002.475	3990.77
1002.77	3973.37
1003.065	3944.22
1003.359	3906.71
1003.654	3906.71
1003.949	3848.4
1004.243	3879.81
1004.538	3847.5
1004.832	3787.84
1005.127	3776.99
1005.421	3791.91
1005.715	3727.27
1006.009	3765.69
1006.304	3718.01
1006.598	3672.59
1006.892	3640.72
1007.186	3651.12
1007.48	3605.7
1007.773	3620.61
1008.067	3533.83
1008.361	3572.7
1008.655	3497.68
1008.948	3504.91
1009.242	3515.3
1009.535	3483.89
1009.829	3433.27
1010.122	3427.17
1010.415	3343.78
1010.708	3373.39
1011.001	3322.09
1011.295	3304.46
1011.588	3327.74
1011.881	3284.12
1012.173	3286.38
1012.466	3218.59
1012.759	3220.62
1013.052	3211.81
1013.344	3174.07
1013.637	3171.13
1013.93	3156.67
1014.222	3113.51
1014.514	3080.96
1014.807	3089.33
1015.099	3043.23
1015.391	3028.31
1015.683	3067.63
1015.976	2971.14
1016.268	2995.54
1016.56	2950.12
1016.851	2927.07
1017.143	2913.28
1017.435	2886.17
1017.727	2880.52
1018.018	2867.41
1018.31	2832.61
1018.602	2830.35
1018.893	2788.09
1019.185	2781.76
1019.476	2758.49
1019.767	2774.53
1020.058	2720.3
1020.35	2717.36
1020.641	2677.13
1020.932	2646.17
1021.223	2618.38
1021.514	2640.75
1021.804	2590.58
1022.095	2606.17
1022.386	2559.85
1022.677	2557.14
1022.967	2532.05
1023.258	2510.58
1023.548	2507.65
1023.839	2480.3
1024.129	2433.07
1024.419	2451.83
1024.709	2417.93
1025	2379.29
1025.29	2412.06
1025.58	2343.36
1025.87	2370.7
1026.16	2300.65
1026.449	2323.7
1026.739	2326.86
1027.029	2313.07
1027.319	2283.02
1027.608	2221.1
1027.898	2226.3
1028.187	2224.72
1028.477	2187.2
1028.766	2161.44
1029.055	2132.97
1029.344	2185.39
1029.634	2150.14
1029.923	2110.59
1030.212	2122.8
1030.501	2088.45
1030.79	2042.35
1031.078	2003.7
1031.367	2034.89
1031.656	2011.84
1031.945	2019.98
1032.233	2006.42
1032.522	1994.89
1032.81	1951.5
1033.099	1960.32
1033.387	1958.28
1033.675	1916.48
1033.963	1917.83
1034.251	1900.2
1034.54	1877.15
1034.828	1864.5
1035.116	1859.3
1035.403	1814.78
1035.691	1827.89
1035.979	1823.82
1036.267	1805.52
1036.554	1797.38
1036.842	1785.18
1037.129	1755.58
1037.417	1739.08
1037.704	1728.68
1037.992	1723.26
1038.279	1734.33
1038.566	1691.85
1038.853	1691.85
1039.14	1691.85
