Data from 18-1248_FLMS001491_009.txt Node
Date: Thu Apr 19 16:24:41 BST 2018
User: hsy
Spectrometer: FLMS00149
Trigger mode: 0
Integration Time (sec): 1.000000E-2
Scans to average: 10
Electric dark correction enabled: true
Nonlinearity correction enabled: false
Boxcar width: 0
XAxis mode: Wavelengths
Number of Pixels in Spectrum: 2048
>>>>>Begin Spectral Data<<<<<
341.393	-11.21
341.776	-11.21
342.16	-11.21
342.543	-75.62
342.927	-51.67
343.31	-71.55
343.693	-80.82
344.077	-65.45
344.46	-63.19
344.843	-50.54
345.226	-34.26
345.61	-34.26
345.993	-25.23
346.376	4.15
346.759	8.67
347.142	13.64
347.525	50.03
347.908	52.96
348.291	81.66
348.674	93.19
349.057	120.99
349.44	112.85
349.823	126.86
350.206	175
350.588	236.24
350.971	234.2
351.354	253.41
351.737	266.97
352.119	289.79
352.502	277.59
352.884	316.91
353.267	308.1
353.65	317.59
354.032	323.92
354.414	342.45
354.797	354.2
355.179	347.87
355.562	357.82
355.944	373.41
356.326	358.72
356.709	376.57
357.091	375.22
357.473	380.19
357.855	360.08
358.238	380.19
358.62	367.53
359.002	374.54
359.384	398.27
359.766	375.22
360.148	362.79
360.53	354.65
360.912	358.04
361.294	374.31
361.676	364.82
362.057	375.22
362.439	386.06
362.821	368.66
363.203	369.11
363.584	388.55
363.966	391.71
364.348	353.52
364.729	346.97
365.111	361.66
365.493	355.1
365.874	358.04
366.256	343.58
366.637	378.15
367.019	366.4
367.4	347.87
367.781	348.78
368.163	357.36
368.544	350.58
368.925	373.86
369.306	332.51
369.688	361.66
370.069	364.82
370.45	351.04
370.831	364.14
371.212	349
371.593	360.3
371.974	379.74
372.355	385.84
372.736	370.7
373.117	362.79
373.498	349
373.879	375.67
374.26	360.3
374.641	375.89
375.021	369.11
375.402	382.45
375.783	388.32
376.163	406.63
376.544	375.44
376.925	388.55
377.305	374.31
377.686	382.67
378.066	392.84
378.447	389
378.827	368.66
379.208	376.12
379.588	383.58
379.968	389.68
380.349	382
380.729	390.58
381.109	417.47
381.489	424.48
381.87	395.55
382.25	403.46
382.63	388.32
383.01	406.85
383.39	410.02
383.77	402.56
384.15	413.18
384.53	409.79
384.91	436.68
385.29	427.64
385.67	425.38
386.049	413.86
386.429	424.03
386.809	423.58
387.189	436.46
387.568	430.58
387.948	455.44
388.328	466.51
388.707	440.07
389.087	439.85
389.466	450.69
389.846	461.77
390.225	431.49
390.605	428.77
390.984	462.67
391.363	470.81
391.743	457.47
392.122	479.17
392.501	487.08
392.881	472.84
393.26	479.17
393.639	476.68
394.018	468.77
394.397	485.95
394.776	488.89
395.155	464.48
395.534	492.95
395.913	485.04
396.292	503.57
396.671	505.83
397.05	493.41
397.429	507.64
397.808	493.86
398.186	506.06
398.565	499.51
398.944	506.74
399.323	508.32
399.701	502.44
400.08	525.72
400.458	506.29
400.837	524.59
401.215	530.92
401.594	531.82
401.972	525.49
402.351	544.03
402.729	524.14
403.107	516.46
403.486	557.36
403.864	531.6
404.242	559.62
404.62	553.74
404.999	554.19
405.377	565.04
405.755	554.87
406.133	562.78
406.511	572.5
406.889	588.32
407.267	607.07
407.645	591.03
408.023	597.58
408.401	620.41
408.779	618.83
409.156	621.76
409.534	636.9
409.912	635.55
410.29	627.64
410.667	631.25
411.045	647.98
411.422	639.39
411.8	647.3
412.178	654.98
412.555	668.09
412.933	667.86
413.31	683.23
413.687	668.77
414.065	706.96
414.442	718.94
414.819	711.93
415.197	699.5
415.574	711.25
415.951	704.47
416.328	733.62
416.705	722.33
417.082	744.92
417.46	736.79
417.837	739.5
418.214	732.49
418.591	741.08
418.967	766.17
419.344	751.25
419.721	743.34
420.098	749.9
420.475	763.91
420.852	778.37
421.228	797.8
421.605	815.88
421.982	811.81
422.358	804.58
422.735	798.93
423.111	788.76
423.488	808.2
423.864	831.48
424.241	835.32
424.617	849.78
424.994	840.29
425.37	839.38
425.746	853.17
426.123	850.01
426.499	826.28
426.875	893.62
427.251	875.77
427.627	900.85
428.003	918.7
428.379	909.21
428.756	925.48
429.132	941.53
429.507	943.11
429.883	958.93
430.259	967.52
430.635	980.17
431.011	1003
431.387	1001.41
431.763	987.4
432.138	1028.98
432.514	985.6
432.89	1026.27
433.265	1019.27
433.641	1082.77
434.016	1060.85
434.392	1074.41
434.767	1075.08
435.143	1060.85
435.518	1107.17
435.894	1122.99
436.269	1114.18
436.644	1141.98
437.02	1158.92
437.395	1145.82
437.77	1181.75
438.145	1198.02
438.52	1186.04
438.895	1207.06
439.271	1197.34
439.646	1194.4
440.021	1218.81
440.395	1256.1
440.77	1217.45
441.145	1240.96
441.52	1253.84
441.895	1254.06
442.27	1267.85
442.645	1252.26
443.019	1292.48
443.394	1261.29
443.769	1290.45
444.143	1277.57
444.518	1284.8
444.892	1270.79
445.267	1300.39
445.641	1301.97
446.016	1306.94
446.39	1318.02
446.764	1325.93
447.139	1336.77
447.513	1352.37
447.887	1341.97
448.262	1346.72
448.636	1376.55
449.01	1407.28
449.384	1381.52
449.758	1414.51
450.132	1375.19
450.506	1442.76
450.88	1447.73
451.254	1440.27
451.628	1457.22
452.002	1480.27
452.376	1463.32
452.75	1482.31
453.123	1495.64
453.497	1517.33
453.871	1511.23
454.244	1566.82
454.618	1579.48
454.992	1591.23
455.365	1614.28
455.739	1603.88
456.112	1638.46
456.486	1686.59
456.859	1689.53
457.232	1686.37
457.606	1696.54
457.979	1692.02
458.352	1755.74
458.725	1777.21
459.099	1780.38
459.472	1789.64
459.845	1833.03
460.218	1824.44
460.591	1875.06
460.964	1846.82
461.337	1909.87
461.71	1884.78
462.083	1918
462.456	1950.32
462.829	1928.17
463.201	2002.52
463.574	1988.96
463.947	2013.82
464.32	2073.7
464.692	2060.37
465.065	2070.99
465.438	2080.71
465.81	2125.45
466.183	2141.95
466.555	2184.89
466.928	2160.03
467.3	2192.12
467.672	2231.66
468.045	2260.82
468.417	2267.6
468.789	2276.41
469.161	2308.27
469.534	2350.53
469.906	2365.67
470.278	2372.9
470.65	2434.82
471.022	2420.59
471.394	2509.17
471.766	2523.86
472.138	2524.31
472.51	2588.49
472.882	2580.58
473.253	2635.5
473.625	2672.56
473.997	2739.22
474.369	2739.22
474.74	2767.47
475.112	2789.62
475.484	2873.91
475.855	2875.04
476.227	2937.18
476.598	3012.66
476.97	3031.19
477.341	3068.7
477.713	3115.03
478.084	3141.7
478.455	3237.74
478.827	3269.6
479.198	3328.36
479.569	3342.37
479.94	3425.76
480.311	3407.9
480.682	3553.89
481.053	3597.73
481.424	3658.52
481.795	3704.62
482.166	3728.57
482.537	3816.03
482.908	3902.58
483.279	3922.24
483.65	4046.31
484.021	4141.67
484.391	4146.42
484.762	4209.47
485.133	4209.69
485.503	4344.15
485.874	4378.73
486.244	4437.93
486.615	4540.76
486.985	4602.68
487.356	4690.81
487.726	4718.6
488.097	4849.22
488.467	4883.8
488.837	4975.55
489.207	5025.49
489.578	5127.18
489.948	5177.8
490.318	5246.5
490.688	5232.04
491.058	5419.38
491.428	5482.43
491.798	5516.78
492.168	5660.73
492.538	5691.01
492.908	5815.3
493.278	5882.87
493.648	5944.34
494.017	5998.57
494.387	6067.04
494.757	6124.44
495.126	6252.58
495.496	6281.5
495.866	6345.68
496.235	6444.66
496.605	6472.46
496.974	6528.27
497.344	6627.03
497.713	6689.17
498.082	6726.69
498.452	6810.98
498.821	6916.74
499.19	6935.04
499.559	7050.97
499.928	7072.22
500.298	7150.41
500.667	7241.93
501.036	7215.26
501.405	7328.71
501.774	7331.87
502.143	7432.66
502.512	7536.16
502.88	7612.99
503.249	7554.01
503.618	7692.54
503.987	7768.47
504.356	7765.08
504.724	7844.4
505.093	7903.83
505.462	7995.81
505.83	8041
506.199	8124.84
506.567	8226.99
506.936	8212.75
507.304	8354.44
507.672	8401.9
508.041	8400.54
508.409	8469.47
508.777	8591.05
509.145	8691.38
509.514	8682.34
509.882	8708.33
510.25	8735.9
510.618	8876.91
510.986	8934.77
511.354	8943.13
511.722	9060.41
512.09	9219.96
512.458	9096.12
512.826	9238.03
513.193	9232.84
513.561	9386.96
513.929	9368.2
514.297	9468.99
514.664	9560.96
515.032	9580.62
515.4	9711.69
515.767	9750.56
516.135	9827.17
516.502	9768.87
516.869	10002.53
517.237	10049.09
517.604	9963.44
517.972	10165.69
518.339	10177.9
518.706	10270.55
519.073	10268.97
519.44	10338.8
519.808	10437.55
520.175	10519.36
520.542	10639.35
520.909	10716.87
521.276	10757.32
521.643	10906.46
522.009	10950.53
522.376	11063.3
522.743	11091.54
523.11	11256.06
523.477	11348.71
523.843	11330.41
524.21	11515.71
524.577	11690.17
524.943	11734.01
525.31	11721.13
525.676	11884.52
526.043	12000
526.409	12059.2
526.776	12121.8
527.142	12310.27
527.508	12308.69
527.874	12467.1
528.241	12512.07
528.607	12581.67
528.973	12746.19
529.339	12712.52
529.705	12865.51
530.071	12983.47
530.437	13089.23
530.803	13178.5
531.169	13282.22
531.535	13249
531.901	13394.99
532.267	13493.52
532.632	13537.81
532.998	13678.6
533.364	13796.33
533.73	13784.36
534.095	13859.16
534.461	13930.34
534.826	13993.16
535.192	14122.65
535.557	14132.82
535.923	14224.12
536.288	14347.73
536.653	14357
537.019	14371.23
537.384	14402.87
537.749	14587.95
538.114	14618.23
538.479	14635.63
538.845	14630.66
539.21	14656.65
539.575	14688.51
539.94	14838.34
540.305	14919.92
540.67	14933.25
541.034	14996.3
541.399	15022.29
541.764	15078.11
542.129	15071.33
542.494	15178.44
542.858	15206.24
543.223	15197.65
543.587	15334.6
543.952	15296.18
544.316	15348.16
544.681	15448.49
545.045	15457.76
545.41	15627.92
545.774	15594.03
546.138	15676.96
546.503	15694.81
546.867	15765.09
547.231	15837.63
547.595	15986.33
547.959	15857.29
548.324	15982.04
548.688	15988.82
549.052	16043.05
549.416	15984.3
549.779	16133.45
550.143	16152.2
550.507	16304.74
550.871	16342.25
551.235	16269.94
551.599	16462.02
551.962	16512.42
552.326	16516.49
552.689	16546.77
553.053	16551.51
553.417	16596.03
553.78	16873.54
554.143	16795.35
554.507	16950.37
554.87	16956.48
555.234	17120.54
555.597	16936.81
555.96	17112.63
556.323	17207.32
556.686	17199.63
557.05	17259.52
557.413	17485.95
557.776	17440.3
558.139	17642.56
558.502	17611.6
558.865	17650.02
559.228	17802.1
559.59	17867.41
559.953	17918.26
560.316	18127.52
560.679	18219.72
561.041	18215.2
561.404	18310.34
561.767	18425.14
562.129	18324.12
562.492	18568.86
562.854	18623.32
563.217	18669.42
563.579	18753.72
563.941	18883.2
564.304	19025.8
564.666	19226.25
565.028	19217.88
565.39	19278.22
565.753	19507.37
566.115	19629.85
566.477	19611.55
566.839	19665.78
567.201	19829.39
567.563	19882.73
567.925	20083.62
568.287	20074.36
568.648	20211.08
569.01	20353.22
569.372	20558.19
569.734	20515.25
570.095	20690.84
570.457	20784.4
570.819	20866.88
571.18	20933.55
571.542	21085.41
571.903	21205.18
572.265	21327.89
572.626	21487.88
572.987	21563.36
573.349	21597.26
573.71	21747.08
574.071	21955.67
574.432	21994.53
574.794	22225.04
575.155	22222.78
575.516	22255.09
575.877	22355.66
576.238	22421.87
576.599	22594.74
576.96	22701.41
577.32	22795.42
577.681	22859.37
578.042	23000.38
578.403	23154.28
578.763	23172.13
579.124	23255.74
579.485	23516.53
579.845	23462.97
580.206	23570.54
580.566	23563.76
580.927	23801.49
581.287	23904.77
581.648	23943.86
582.008	24197.64
582.368	24194.48
582.728	24326.68
583.089	24457.97
583.449	24399.9
583.809	24685.31
584.169	24838.75
584.529	24798.53
584.889	25163.49
585.249	25064.28
585.609	24982.48
585.969	25462.92
586.329	25421.56
586.688	25750.14
587.048	25863.59
587.408	25912.62
587.768	26040.53
588.127	26185.61
588.487	26463.57
588.846	26823.56
589.206	26759.61
589.565	27082.99
589.925	27404.11
590.284	27484.79
590.643	27672.8
591.003	27901.05
591.362	28181.49
591.721	28334.71
592.08	28451.77
592.44	28772.89
592.799	28927.01
593.158	29211.75
593.517	29280.9
593.876	29598.85
594.235	29800.43
594.593	30048.56
594.952	30300.3
595.311	30447.19
595.67	30861.19
596.029	31253.95
596.387	31394.74
596.746	31949.98
597.104	31833.15
597.463	31997.44
597.822	32431.77
598.18	32532.56
598.538	32867.24
598.897	33333.45
599.255	33200.57
599.613	33851.4
599.972	33813.88
600.33	34161.9
600.688	34180.88
601.046	34525.28
601.404	35044.36
601.762	35094.3
602.12	35405.26
602.478	35639.37
602.836	35961.4
603.194	35901.74
603.552	36246.14
603.91	36532.68
604.268	36704.66
604.625	36948.94
604.983	37371.76
605.341	37246.11
605.698	37697.85
606.056	38050.16
606.413	37928.58
606.771	38561.56
607.128	38481.11
607.485	38646.3
607.843	38803.36
608.2	39137.81
608.557	39452.83
608.914	39526.05
609.272	39935.76
609.629	40073.38
609.986	40378.46
610.343	40385.92
610.7	40761.5
611.057	40895.73
611.414	40895.28
611.771	41329.85
612.127	41452.55
612.484	41527.35
612.841	41736.84
613.198	41742.04
613.554	41856.84
613.911	42358.07
614.267	42382.47
614.624	42511.74
614.98	42627.66
615.337	42980.88
615.693	43150.81
616.05	43283.69
616.406	43480.07
616.762	43451.82
617.118	43516.68
617.475	43492.5
617.831	43950.79
618.187	44077.8
618.543	44261.52
618.899	44445.47
619.255	44331.8
619.611	44375.42
619.967	44880.49
620.323	44908.73
620.678	44960.26
621.034	44921.39
621.39	44989.86
621.746	45018.11
622.101	45547.14
622.457	45130.42
622.812	45447.93
623.168	45661.48
623.523	45587.36
623.879	45755.72
624.234	45537.42
624.589	45740.58
624.945	45794.13
625.3	45897.18
625.655	46013.56
626.01	46066.67
626.365	46130.4
626.72	46074.35
627.075	46032.55
627.43	46139.21
627.785	46061.7
628.14	46242.03
628.495	46221.02
628.85	46453.1
629.205	46209.04
629.559	46380.11
629.914	46271.41
630.269	46322.26
630.623	46192.09
630.978	46155.93
631.332	46367.45
631.687	46310.96
632.041	46479.77
632.396	46320.45
632.75	46224.18
633.104	46371.52
633.459	46264.86
633.813	46150.96
634.167	46112.09
634.521	46130.4
634.875	46181.92
635.229	46059.89
635.583	46023.96
635.937	46044.07
636.291	45903.74
636.645	46003.62
636.999	45840.91
637.352	45945.32
637.706	45694.48
638.06	45870.97
638.413	45901.02
638.767	45564.54
639.121	45815.6
639.474	45611.77
639.828	45649.51
640.181	45740.13
640.534	45736.96
640.888	45466.46
641.241	45397.08
641.594	45357.76
641.947	45555.27
642.301	45372.9
642.654	45408.61
643.007	45265.34
643.36	45482.28
643.713	45352.34
644.066	45368.84
644.419	45261.04
644.771	44760.04
645.124	44448.86
645.477	44563.66
645.83	44386.26
646.182	44299.71
646.535	44331.12
646.888	44407.5
647.24	44154.18
647.593	44588.97
647.945	44284.34
648.298	44103.56
648.65	43994.18
649.002	43774.53
649.355	43692.72
649.707	43547.87
650.059	43626.96
650.411	44156.66
650.763	44434.17
651.115	45066.24
651.467	44967.04
651.819	44993.93
652.171	44829.19
652.523	44687.27
652.875	44728.85
653.227	44548.29
653.578	44962.29
653.93	44847.95
654.282	44646.14
654.633	44522.53
654.985	44602.53
655.337	44776.76
655.688	44622.19
656.039	44807.72
656.391	44387.84
656.742	44539.25
657.094	44677.55
657.445	44577.44
657.796	44594.62
658.147	44430.1
658.498	44599.82
658.849	44695.86
659.2	44485.92
659.551	44444.11
659.902	44653.37
660.253	44509.87
660.604	44706.25
660.955	44515.07
661.306	44675.52
661.656	44461.29
662.007	44442.31
662.358	44557.33
662.708	44649.53
663.059	44524.79
663.409	44299.94
663.76	44565.92
664.11	44608.18
664.461	44586.93
664.811	44678.91
665.161	44656.99
665.511	44520.04
665.862	44601.4
666.212	44693.6
666.562	44658.57
666.912	44584.22
667.262	44556.65
667.612	44466.49
667.962	44504
668.312	44469.2
668.662	44669.87
669.011	44618.57
669.361	44577.67
669.711	44590.78
670.06	44449.09
670.41	44371.35
670.76	44327.96
671.109	44642.53
671.459	44428.97
671.808	44376.32
672.157	44475.98
672.507	44287.96
672.856	44148.75
673.205	44376.55
673.554	44332.93
673.904	44184.46
674.253	44627.61
674.602	44237.79
674.951	43710.8
675.3	43436
675.649	44244.8
675.998	44130
676.346	44249.54
676.695	44243.89
677.044	43934.97
677.393	44052.49
677.741	44141.97
678.09	43989.44
678.438	43843.45
678.787	43915.99
679.135	43983.11
679.484	43671.03
679.832	43845.26
680.181	43874.41
680.529	43897.69
680.877	43793.51
681.225	43627.86
681.573	44009.1
681.922	43590.35
682.27	43558.26
682.618	43483.01
682.966	43477.81
683.314	43453.41
683.661	43508.55
684.009	43305.84
684.357	43089.8
684.705	43146.07
685.053	43057.71
685.4	42915.57
685.748	42929.58
686.095	42818.85
686.443	42541.57
686.79	42690.71
687.138	42634.9
687.485	42699.08
687.832	42485.3
688.18	42473.54
688.527	42310.84
688.874	42053.22
689.221	42159.43
689.568	41942.48
689.915	41872.66
690.262	41985.2
690.609	41863.62
690.956	41664.75
691.303	41623.85
691.65	41497.3
691.997	41389.28
692.344	41175.73
692.69	41111.09
693.037	41204.43
693.383	40762.63
693.73	40940.03
694.077	40834.27
694.423	40722.18
694.769	40591.79
695.116	40615.51
695.462	40270.66
695.808	40306.6
696.155	40369.87
696.501	39884.46
696.847	40018.24
697.193	39785.03
697.539	39644.69
697.885	39448.54
698.231	39423.68
698.577	39414.87
698.923	39307.53
699.269	39016.01
699.614	38936.91
699.96	38758.84
700.306	38777.82
700.651	38407.44
700.997	38560.65
701.342	38376.93
701.688	38249.7
702.033	38131.06
702.379	38077.73
702.724	37781.01
703.069	37950.5
703.415	37505.77
703.76	37464.86
704.105	37513.22
704.45	37367.92
704.795	37192.1
705.14	37002.95
705.485	37123.18
705.83	36837.99
706.175	36790.98
706.52	36821.04
706.865	36543.98
707.209	36608.39
707.554	36452.23
707.899	36371.78
708.243	36220.15
708.588	36279.36
708.932	35899.03
709.277	36027.84
709.621	35888.86
709.966	35747.17
710.31	35765.25
710.654	35417.91
710.998	35580.62
711.342	35491.58
711.687	35329.33
712.031	35247.75
712.375	35121.87
712.719	35079.61
713.063	34983.57
713.407	35239.38
713.75	34971.59
714.094	34947.87
714.438	34758.04
714.782	34756.46
715.125	34565.73
715.469	34722.56
715.812	34440.99
716.156	34385.17
716.499	34465.39
716.843	34369.35
717.186	34177.04
717.53	34334.78
717.873	34386.3
718.216	34256.13
718.559	34196.25
718.902	34047.55
719.246	34116.93
719.589	33955.8
719.932	33857.5
720.275	34018.17
720.617	33927.78
720.96	33903.6
721.303	33958.74
721.646	33837.61
721.989	33636.94
722.331	33763.94
722.674	33565.76
723.016	33632.65
723.359	33630.61
723.701	33678.3
724.044	33442.14
724.386	33504.74
724.729	33431.97
725.071	33491.41
725.413	33399.43
725.755	33394.23
726.097	33300.9
726.439	33199.21
726.782	33198.53
727.124	33272.2
727.465	33403.05
727.807	33325.31
728.149	33158.76
728.491	33149.27
728.833	33220.91
729.175	33380.9
729.516	33156.05
729.858	33164.18
730.199	33262.49
730.541	33265.2
730.882	33170.06
731.224	33138.42
731.565	33138.65
731.906	33178.42
732.248	33179.55
732.589	32954.47
732.93	33033.57
733.271	33127.35
733.612	33128.25
733.953	33190.85
734.294	33128.93
734.635	33159.44
734.976	33241.02
735.317	32955.6
735.658	33039.44
735.999	33121.93
736.339	33121.25
736.68	33161.7
737.021	33045.32
737.361	33033.79
737.702	33279.89
738.042	33131.87
738.383	33333.22
738.723	33402.14
739.063	33321.02
739.404	33441.92
739.744	33384.74
740.084	33401.69
740.424	33529.6
740.764	33482.59
741.104	33820.21
741.444	33437.62
741.784	33499.77
742.124	33678.07
742.464	33633.32
742.804	33763.26
743.143	33733.89
743.483	33965.75
743.823	33798.07
744.162	33858.63
744.502	33970.26
744.841	33889.36
745.181	34202.58
745.52	34185.4
745.86	34153.76
746.199	34175.91
746.538	34342.23
746.877	34613.41
747.216	34532.51
747.556	34593.07
747.895	34787.64
748.234	34772.05
748.573	34787.64
748.911	34818.6
749.25	34920.97
749.589	34920.3
749.928	35181.31
750.267	35283
750.605	35341.53
750.944	35409.32
751.283	35340.4
751.621	35531.58
751.96	35635.08
752.298	35733.61
752.636	35748.52
752.975	35896.77
753.313	35897.67
753.651	36209.08
753.989	36083.43
754.327	36322.52
754.666	36256.53
755.004	36407.04
755.342	36440.26
755.679	36586.92
756.017	36358
756.355	36802.73
756.693	36729.51
757.031	36986.68
757.368	36873.69
757.706	37030.3
758.044	36924.54
758.381	37054.03
758.719	37244.98
759.056	37277.3
759.394	37171.54
759.731	37192.1
760.068	37394.13
760.405	37428.03
760.743	37470.06
761.08	37656.27
761.417	37385.99
761.754	37514.8
762.091	37622.82
762.428	37628.25
762.765	37403.4
763.102	37619.21
763.438	37603.16
763.775	37490.85
764.112	37634.35
764.449	37701.01
764.785	37697.4
765.122	37518.19
765.458	37463.96
765.795	37652.2
766.131	37563.16
766.467	37573.33
766.804	37322.72
767.14	37511.64
767.476	37378.99
767.812	37293.12
768.148	37508.03
768.485	37408.59
768.821	37261.7
769.157	37296.96
769.492	37250.4
769.828	37179.45
770.164	36967.25
770.5	36923.63
770.836	36956.85
771.171	36757.54
771.507	36762.51
771.842	36586.69
772.178	36660.59
772.513	36680.93
772.849	36436.64
773.184	36535.4
773.519	36481.39
773.855	36259.24
774.19	36292.69
774.525	36207.72
774.86	36229.41
775.195	36074.16
775.53	35939.7
775.865	35806.6
776.2	35663.78
776.535	35441.64
776.87	35445.25
777.205	35405.48
777.539	35335.2
777.874	35324.58
778.209	34999.84
778.543	34996
778.878	34929.34
779.212	34836.46
779.547	34528.44
779.881	34607.99
780.215	34455.9
780.55	34493.87
780.884	34188.56
781.218	34203.03
781.552	34130.94
781.886	33885.3
782.22	33932.98
782.554	33755.13
782.888	33585.87
783.222	33468.58
783.556	33315.59
783.889	33171.87
784.223	33203.73
784.557	33107.46
784.89	33111.53
785.224	32936.85
785.557	32772.1
785.891	32623.86
786.224	32643.29
786.558	32678.1
786.891	32462.06
787.224	32267.03
787.557	32168.5
787.891	32107.26
788.224	32007.6
788.557	31892.58
788.89	31977.32
789.223	31773.03
789.556	31605.58
789.888	31579.82
790.221	31277.91
790.554	31305.02
790.887	31192.94
791.219	31017.8
791.552	30964.02
791.884	30833.17
792.217	30910.46
792.549	30683.12
792.882	30497.59
793.214	30393.64
793.546	30460.3
793.879	30315.9
794.211	30086.75
794.543	30234.32
794.875	30039.07
795.207	30086.75
795.539	29984.16
795.871	29926.53
796.203	29750.26
796.535	29537.16
796.867	29581
797.198	29399.99
797.53	29350.73
797.862	29192.31
798.193	29180.56
798.525	28999.55
798.856	29069.6
799.188	28714.58
799.519	28733.79
799.85	28612.67
800.182	28614.93
800.513	28688.14
800.844	28386.01
801.175	28492.67
801.506	28415.38
801.837	28245.9
802.168	28210.87
802.499	28281.15
802.83	27971.78
803.161	27928.62
803.491	27880.93
803.822	28073.24
804.153	27648.62
804.483	27625.8
804.814	27431.68
805.145	27608.17
805.475	27581.73
805.805	27443.66
806.136	27363.43
806.466	27210.44
806.796	27179.71
807.126	27065.81
807.457	27000.5
807.787	27113.72
808.117	26900.17
808.447	26870.34
808.777	26868.53
809.107	26664.02
809.436	26528.2
809.766	26617.46
810.096	26603.68
810.426	26448.2
810.755	26489.78
811.085	26433.29
811.414	26419.73
811.744	26310.81
812.073	26193.29
812.403	26133.18
812.732	25965.05
813.061	26193.29
813.39	25887.31
813.719	25847.09
814.049	25951.27
814.378	25897.71
814.707	25664.04
815.036	25726.19
815.365	25520.77
815.693	25472.18
816.022	25463.37
816.351	25271.28
816.68	25235.35
817.008	25326.42
817.337	25111.29
817.665	25146.32
817.994	25168.24
818.322	25157.62
818.651	25012.99
818.979	24925.76
819.307	24936.15
819.636	24791.98
819.964	24761.69
820.292	24843.05
820.62	24806.44
820.948	24904.97
821.276	24912.42
821.604	24820
821.932	24995.36
822.259	24822.71
822.587	24867.45
822.915	24741.13
823.243	24765.99
823.57	24653.22
823.898	24777.06
824.225	24834.01
824.553	24734.58
824.88	24908.58
825.207	24892.31
825.535	24704.07
825.862	24893.22
826.189	24749.72
826.516	24961.46
826.843	25008.01
827.17	24964.63
827.497	25046.43
827.824	24945.19
828.151	24893.22
828.478	24845.08
828.805	25048.24
829.131	24835.82
829.458	24919.2
829.785	24794.69
830.111	24781.35
830.438	25048.92
830.764	24784.29
831.09	24948.58
831.417	24616.84
831.743	25012.99
832.069	24838.98
832.395	24826.32
832.722	24863.16
833.048	24784.29
833.374	24877.62
833.7	24672.43
834.026	24763.5
834.351	24604.18
834.677	24796.04
835.003	24761.69
835.329	24708.36
835.654	24664.75
835.98	24590.4
836.306	24584.07
836.631	24621.58
836.956	24735.48
837.282	24648.02
837.607	24626.1
837.932	24476.05
838.258	24470.18
838.583	24547.91
838.908	24481.93
839.233	24443.28
839.558	24295.49
839.883	24316.73
840.208	24174.59
840.533	24191.09
840.858	24254.59
841.182	24209.39
841.507	24175.04
841.832	24007.14
842.156	23967.59
842.481	23961.49
842.805	23844.88
843.13	23831.1
843.454	23847.37
843.778	23675.39
844.103	23688.73
844.427	23737.77
844.751	23705.9
845.075	23618.67
845.399	23595.85
845.723	23389.07
846.047	23479.47
846.371	23171
846.695	23105.47
847.019	23091
847.343	23047.16
847.666	22928.97
847.99	22752.48
848.313	22633.39
848.637	22730.79
848.96	22715.42
849.284	22632.94
849.607	22399.04
849.931	22363.11
850.254	22284.47
850.577	22045.61
850.9	21955.44
851.223	21904.37
851.546	21905.95
851.869	21686.75
852.192	21812.17
852.515	21636.8
852.838	21552.29
853.161	21477.26
853.483	21333.54
853.806	21396.13
854.129	21325.17
854.451	21129.7
854.774	21046.31
855.096	21094.9
855.419	20977.61
855.741	20865.98
856.063	20745.53
856.385	20676.38
856.708	20705.3
857.03	20651.75
857.352	20620.79
857.674	20537.17
857.996	20541.24
858.318	20313
858.64	20410.62
858.961	20316.84
859.283	20210.4
859.605	20089.05
859.926	20100.8
860.248	20054.47
860.57	19978.09
860.891	19943.97
861.212	19921.37
861.534	19909.84
861.855	19773.35
862.176	19774.03
862.498	19755.95
862.819	19774.25
863.14	19692.45
863.461	19631.66
863.782	19553.47
864.103	19537.65
864.424	19476.86
864.745	19595.28
865.065	19552.56
865.386	19400.48
865.707	19424.88
866.027	19377.65
866.348	19316.41
866.668	19292.23
866.989	19358.45
867.309	19117.1
867.63	19193.25
867.95	19276.64
868.27	19026.03
868.59	19161.39
868.91	19118.23
869.23	18970.66
869.55	18904.9
869.87	19051.56
870.19	18877.78
870.51	18942.64
870.83	18927.04
871.15	18786.94
871.469	18738.58
871.789	18847.05
872.109	18856.31
872.428	18689.08
872.748	18817.9
873.067	18700.38
873.386	18700.38
873.706	18639.59
874.025	18636.43
874.344	18557.56
874.663	18509.2
874.982	18478.02
875.301	18508.52
875.62	18403.67
875.939	18373.39
876.258	18403.22
876.577	18351.69
876.896	18282.54
877.214	18277.57
877.533	18273.05
877.852	18245.48
878.17	18280.51
878.489	18174.52
878.807	18097.01
879.125	18167.29
879.444	18086.39
879.762	18032.15
880.08	18114.18
880.398	18027.86
880.716	17904.25
881.034	17917.35
881.352	17998.03
881.67	17936.34
881.988	17799.39
882.306	17857.24
882.624	17804.81
882.941	17576.57
883.259	17644.59
883.577	17603.46
883.894	17547.87
884.212	17606.18
884.529	17597.59
884.846	17480.53
885.164	17453.64
885.481	17433.07
885.798	17395.33
886.115	17334.32
886.432	17248.22
886.75	17320.31
887.067	17277.82
887.383	17154.44
887.7	17085.51
888.017	17012.52
888.334	17112.18
888.651	16972.07
888.967	16904.27
889.284	16830.38
889.6	16768.68
889.917	16684.62
890.233	16707.44
890.55	16582.7
890.866	16742.24
891.182	16562.14
891.498	16620.89
891.815	16455.47
892.131	16414.57
892.447	16413.44
892.763	16325.98
893.079	16369.15
893.395	16282.37
893.71	16252.99
894.026	16203.73
894.342	16164.18
894.657	16096.38
894.973	16046.44
895.289	15860.91
895.604	15961.02
895.92	15806.22
896.235	15852.78
896.55	15866.56
896.865	15804.64
897.181	15724.64
897.496	15739.33
897.811	15658.88
898.126	15470.41
898.441	15406.23
898.756	15468.15
899.071	15345.67
899.386	15340.02
899.7	15180.7
900.015	15084.89
900.33	15049.86
900.644	15027.94
900.959	14977.54
901.273	14929.86
901.588	14867.94
901.902	14824.33
902.216	14811.22
902.531	14709.75
902.845	14691.22
903.159	14655.74
903.473	14597.44
903.787	14529.87
904.101	14502.3
904.415	14446.71
904.729	14331.46
905.042	14237.45
905.356	14246.26
905.67	14220.5
905.984	14187.51
906.297	14144.35
906.611	13970.11
906.924	14040.17
907.237	14035.2
907.551	13972.37
907.864	13919.27
908.177	13762.43
908.491	13801.08
908.804	13631.14
909.117	13595.21
909.43	13555.66
909.743	13518.37
910.056	13486.06
910.368	13405.38
910.681	13327.87
910.994	13244.93
911.307	13226.86
911.619	13127.2
911.932	13181.43
912.244	12993.64
912.557	12997.26
912.869	12980.08
913.181	12873.42
913.494	12873.19
913.806	12720.43
914.118	12734.67
914.43	12719.98
914.742	12596.36
915.054	12643.82
915.366	12551.85
915.678	12452.64
915.99	12480.89
916.302	12256.26
916.613	12303.94
916.925	12361.79
917.236	12262.81
917.548	12149.82
917.859	12204.96
918.171	12051.52
918.482	12004.97
918.794	11978.07
919.105	11915.48
919.416	11841.13
919.727	11805.88
920.038	11730.17
920.349	11690.62
920.66	11778.31
920.971	11660.12
921.282	11606.33
921.593	11553.68
921.903	11464.42
922.214	11477.52
922.525	11447.24
922.835	11352.55
923.146	11261.48
923.456	11186.46
923.767	11167.25
924.077	11223.29
924.387	11123.63
924.697	11017.87
925.008	10995.95
925.318	10935.84
925.628	10897.2
925.938	10810.87
926.248	10767.26
926.558	10690.2
926.867	10699.69
927.177	10676.64
927.487	10677.54
927.796	10551.45
928.106	10516.42
928.416	10491.33
928.725	10463.31
929.034	10421.28
929.344	10379.02
929.653	10330.66
929.962	10261.74
930.271	10229.65
930.581	10191.68
930.89	10115.07
931.199	10036.21
931.508	10024.68
931.817	10070.1
932.125	10048.63
932.434	9953.04
932.743	9862.88
933.051	9886.15
933.36	9780.84
933.669	9760.05
933.977	9721.86
934.286	9694.97
934.594	9629.44
934.902	9576.33
935.21	9513.73
935.519	9535.88
935.827	9477.8
936.135	9456.11
936.443	9368.88
936.751	9363.23
937.059	9303.79
937.367	9261.31
937.674	9250.46
937.982	9184.7
938.29	9110.35
938.597	9144.7
938.905	9046.63
939.213	9003.24
939.52	8931.38
939.827	9004.59
940.135	8895.44
940.442	8839.17
940.749	8894.31
941.056	8880.08
941.363	8630.14
941.67	8709.23
941.977	8663.13
942.284	8640.54
942.591	8697.03
942.898	8607.77
943.205	8539.07
943.511	8545.4
943.818	8463.37
944.125	8415
944.431	8381.79
944.738	8363.71
945.044	8341.79
945.35	8295.69
945.657	8227.21
945.963	8250.04
946.269	8177.72
946.575	8181.79
946.881	8088.91
947.187	8171.85
947.493	8054.34
947.799	7966.2
948.105	7971.85
948.41	7905.87
948.716	7881.69
949.022	7841.91
949.327	7825.19
949.633	7709.71
949.938	7742.25
950.244	7724.18
950.549	7651.86
950.854	7606.66
951.16	7578.42
951.465	7528.47
951.77	7520.11
952.075	7502.71
952.38	7515.14
952.685	7448.7
952.99	7396.27
953.294	7373.45
953.599	7286.22
953.904	7324.41
954.209	7265.66
954.513	7243.74
954.818	7207.13
955.122	7164.64
955.426	7126.9
955.731	7088.71
956.035	7078.77
956.339	7049.39
956.643	7056.62
956.948	6933.69
957.252	6931.2
957.556	6939.79
957.86	6902.95
958.163	6928.04
958.467	6883.97
958.771	6770.53
959.075	6822.05
959.378	6716.52
959.682	6735.27
959.985	6707.7
960.289	6658.89
960.592	6593.13
960.896	6602.4
961.199	6524.43
961.502	6560.82
961.805	6502.51
962.108	6448.28
962.411	6468.84
962.714	6422.74
963.017	6433.36
963.32	6399.69
963.623	6291.67
963.926	6327.6
964.228	6276.08
964.531	6220.26
964.833	6208.96
965.136	6148.62
965.438	6178.23
965.741	6149.08
966.043	6085.8
966.345	6069.3
966.648	6040.83
966.95	6067.72
967.252	6001.28
967.554	5955.41
967.856	6011.23
968.158	5920.38
968.46	5898.01
968.761	5844.9
969.063	5884.22
969.365	5747.73
969.666	5743.44
969.968	5707.28
970.269	5759.26
970.571	5724.45
970.872	5607.17
971.174	5634.96
971.475	5630.22
971.776	5643.55
972.077	5544.12
972.378	5525.82
972.679	5549.09
972.98	5465.48
973.281	5489.66
973.582	5465.48
973.883	5456.66
974.183	5391.81
974.484	5375.99
974.785	5324.01
975.085	5295.99
975.386	5337.12
975.686	5286.5
975.986	5282.21
976.287	5242.88
976.587	5237.91
976.887	5190.46
977.187	5143.68
977.487	5172.83
977.787	5112.94
978.087	5075.21
978.387	5041.31
978.687	5045.6
978.987	5041.08
979.286	4993.63
979.586	4963.34
979.885	4952.95
980.185	4930.8
980.484	4907.07
980.784	4901.2
981.083	4845.38
981.382	4836.12
981.682	4818.72
981.981	4818.26
982.28	4757.25
982.579	4769.68
982.878	4747.53
983.177	4702.33
983.475	4702.11
983.774	4615.56
984.073	4618.49
984.372	4588.89
984.67	4595.22
984.969	4579.63
985.267	4564.71
985.566	4561.32
985.864	4526.52
986.162	4497.82
986.461	4442.68
986.759	4456.69
987.057	4383.7
987.355	4370.14
987.653	4377.6
987.951	4397.48
988.249	4347.99
988.547	4329.24
988.844	4305.51
989.142	4288.79
989.44	4274.32
989.737	4239.97
990.035	4227.77
990.332	4204.95
990.63	4179.86
990.927	4147.77
991.224	4120.88
991.521	4120.88
991.819	4126.53
992.116	4071.62
992.413	4059.19
992.71	4015.12
993.006	4019.87
993.303	4005.86
993.6	3999.53
993.897	3971.96
994.193	3997.49
994.49	3924.95
994.787	3891.73
995.083	3872.75
995.379	3855.35
995.676	3892.64
995.972	3817.39
996.268	3799.98
996.565	3790.49
996.861	3767.22
997.157	3773.77
997.453	3770.61
997.749	3710.5
998.044	3712.53
998.34	3683.38
998.636	3693.32
998.932	3648.8
999.227	3595.02
999.523	3603.15
999.818	3592.98
1000.114	3567
1000.409	3502.14
1000.704	3515.02
1001	3484.51
1001.295	3428.7
1001.59	3440.67
1001.885	3449.71
1002.18	3411.29
1002.475	3433.21
1002.77	3357.74
1003.065	3352.99
1003.359	3348.02
1003.654	3349.38
1003.949	3292.88
1004.243	3295.37
1004.538	3237.06
1004.832	3269.83
1005.127	3226.44
1005.421	3178.08
1005.715	3185.09
1006.009	3193.67
1006.304	3157.06
1006.598	3108.48
1006.892	3093.79
1007.186	3087.91
1007.48	3058.08
1007.773	3054.02
1008.067	3034.13
1008.361	3002.27
1008.655	2998.42
1008.948	2967.69
1009.242	2953.68
1009.535	2948.48
1009.829	2941.93
1010.122	2875.94
1010.415	2881.14
1010.708	2876.39
1011.001	2853.34
1011.295	2823.29
1011.588	2826.68
1011.881	2782.84
1012.173	2818.09
1012.466	2793.68
1012.759	2729.05
1013.052	2746.23
1013.344	2704.42
1013.637	2724.31
1013.93	2698.32
1014.222	2706.23
1014.514	2653.8
1014.807	2642.73
1015.099	2630.3
1015.391	2610.86
1015.683	2621.94
1015.976	2570.86
1016.268	2575.16
1016.56	2560.7
1016.851	2510.98
1017.143	2498.32
1017.435	2500.13
1017.727	2441.83
1018.018	2444.99
1018.31	2470.75
1018.602	2425.78
1018.893	2413.35
1019.185	2409.74
1019.476	2392.11
1019.767	2351.66
1020.058	2327.71
1020.35	2331.55
1020.641	2289.97
1020.932	2278.22
1021.223	2258.78
1021.514	2276.86
1021.804	2240.7
1022.095	2214.94
1022.386	2199.8
1022.677	2207.71
1022.967	2172.23
1023.258	2167.26
1023.548	2155.73
1023.839	2156.64
1024.129	2131.33
1024.419	2090.2
1024.709	2084.32
1025	2099.92
1025.29	2071.22
1025.58	2014.27
1025.87	2034.38
1026.16	2009.98
1026.449	2005.46
1026.739	1968.62
1027.029	2007.26
1027.319	1956.19
1027.608	1954.16
1027.898	1927.04
1028.187	1929.3
1028.477	1917.55
1028.766	1918.68
1029.055	1856.99
1029.344	1845.46
1029.634	1832.13
1029.923	1844.78
1030.212	1824.67
1030.501	1817.44
1030.79	1794.61
1031.078	1807.27
1031.367	1769.08
1031.656	1776.99
1031.945	1751.68
1032.233	1772.92
1032.522	1727.04
1032.81	1717.1
1033.099	1734.28
1033.387	1679.81
1033.675	1677.55
1033.963	1666.26
1034.251	1628.52
1034.54	1622.19
1034.828	1599.36
1035.116	1614.05
1035.403	1611.57
1035.691	1579.25
1035.979	1601.4
1036.267	1590.78
1036.554	1579.03
1036.842	1573.83
1037.129	1540.61
1037.417	1507.39
1037.704	1529.76
1037.992	1504.9
1038.279	1498.12
1038.566	1470.33
1038.853	1470.33
1039.14	1470.33
