Data from 18-1248_FLMS001491_001.txt Node
Date: Thu Apr 19 16:24:25 BST 2018
User: hsy
Spectrometer: FLMS00149
Trigger mode: 0
Integration Time (sec): 1.000000E-2
Scans to average: 10
Electric dark correction enabled: true
Nonlinearity correction enabled: false
Boxcar width: 0
XAxis mode: Wavelengths
Number of Pixels in Spectrum: 2048
>>>>>Begin Spectral Data<<<<<
341.393	-19.99
341.776	-19.99
342.16	-19.99
342.543	-47.33
342.927	-59.08
343.31	-75.58
343.693	-70.83
344.077	-53.43
344.46	-59.98
344.843	-64.73
345.226	-47.33
345.61	-33.32
345.993	-13.43
346.376	5.32
346.759	24.53
347.142	13.23
347.525	46.23
347.908	52.1
348.291	85.32
348.674	93.01
349.057	98.88
349.44	123.06
349.823	134.13
350.206	182.95
350.588	224.08
350.971	244.19
351.354	262.72
351.737	257.07
352.119	291.42
352.502	316.05
352.884	300.23
353.267	325.54
353.65	326.45
354.032	339.33
354.414	339.1
354.797	351.3
355.179	359.21
355.562	370.96
355.944	367.58
356.326	368.25
356.709	377.07
357.091	364.41
357.473	391.53
357.855	377.97
358.238	401.25
358.62	389.04
359.002	386.56
359.384	388.82
359.766	369.38
360.148	390.85
360.53	404.64
360.912	400.79
361.294	391.08
361.676	386.11
362.057	370.96
362.439	377.07
362.821	359.67
363.203	366.45
363.584	365.54
363.966	392.43
364.348	380
364.729	377.74
365.111	370.74
365.493	366.45
365.874	389.72
366.256	380.46
366.637	392.43
367.019	358.08
367.4	360.12
367.781	379.78
368.163	370.74
368.544	404.18
368.925	362.83
369.306	384.3
369.688	380.68
370.069	373.68
370.45	368.7
370.831	350.17
371.212	388.82
371.593	384.52
371.974	377.52
372.355	365.32
372.736	394.47
373.117	417.97
373.498	391.3
373.879	390.85
374.26	379.78
374.641	402.83
375.021	369.83
375.402	394.92
375.783	402.15
376.163	408.03
376.544	430.62
376.925	412.32
377.305	391.98
377.686	397.63
378.066	399.89
378.447	412.09
378.827	407.35
379.208	432.21
379.588	412.32
379.968	433.79
380.349	432.66
380.729	445.99
381.109	400.34
381.489	415.94
381.87	430.85
382.25	443.28
382.63	440.34
383.01	442.6
383.39	439.44
383.77	443.05
384.15	415.03
384.53	445.77
384.91	467.23
385.29	462.49
385.67	465.65
386.049	462.71
386.429	468.82
386.809	465.2
387.189	463.39
387.568	477.4
387.948	480.11
388.328	486.89
388.707	460
389.087	495.03
389.466	481.7
389.846	499.77
390.225	501.81
390.605	507.01
390.984	473.56
391.363	511.07
391.743	523.05
392.122	514.69
392.501	515.14
392.881	516.05
393.26	524.41
393.639	549.04
394.018	546.33
394.397	539.55
394.776	554.91
395.155	519.66
395.534	543.84
395.913	549.94
396.292	556.72
396.671	570.73
397.05	572.32
397.429	547.68
397.808	558.3
398.186	575.25
398.565	553.56
398.944	551.3
399.323	577.06
399.701	587.68
400.08	572.77
400.458	582.03
400.837	589.72
401.215	601.69
401.594	612.09
401.972	583.39
402.351	564.86
402.729	614.35
403.107	620.45
403.486	612.77
403.864	626.1
404.242	612.77
404.62	629.04
404.999	636.95
405.377	663.61
405.755	645.31
406.133	659.54
406.511	654.12
406.889	684.18
407.267	679.43
407.645	693.22
408.023	696.15
408.401	683.5
408.779	702.26
409.156	700.67
409.534	730.28
409.912	700.22
410.29	741.58
410.667	753.55
411.045	762.82
411.422	761.01
411.8	764.63
412.178	754.23
412.555	784.06
412.933	784.06
413.31	789.03
413.687	821.35
414.065	798.07
414.442	804.4
414.819	831.07
415.197	845.08
415.574	839.2
415.951	842.59
416.328	864.74
416.705	849.14
417.082	859.99
417.46	889.37
417.837	878.3
418.214	890.95
418.591	882.82
418.967	896.83
419.344	927.11
419.721	909.71
420.098	944.74
420.475	917.84
420.852	942.7
421.228	942.25
421.605	949.03
421.982	956.03
422.358	988.35
422.735	960.78
423.111	978.18
423.488	983.83
423.864	993.77
424.241	998.07
424.617	1009.82
424.994	1046.2
425.37	1053.21
425.746	1030.16
426.123	1035.58
426.499	1074
426.875	1069.03
427.251	1091.85
427.627	1092.3
428.003	1141.79
428.379	1082.36
428.756	1126.43
429.132	1108.57
429.507	1152.19
429.883	1177.72
430.259	1180.66
430.635	1213.88
431.011	1201.23
431.387	1208.91
431.763	1251.85
432.138	1248.23
432.514	1277.16
432.89	1279.64
433.265	1301.56
433.641	1313.31
434.016	1295.69
434.392	1345.18
434.767	1323.71
435.143	1354.89
435.518	1364.16
435.894	1361.45
436.269	1402.8
436.644	1410.49
437.02	1403.48
437.395	1430.15
437.77	1432.86
438.145	1483.03
438.52	1494.78
438.895	1511.05
439.271	1489.13
439.646	1501.56
440.021	1550.59
440.395	1544.27
440.77	1528.45
441.145	1548.56
441.52	1563.25
441.895	1562.8
442.27	1587.88
442.645	1577.03
443.019	1612.06
443.394	1580.88
443.769	1630.14
444.143	1619.52
444.518	1626.98
444.892	1609.58
445.267	1642.8
445.641	1645.73
446.016	1658.39
446.39	1680.76
446.764	1659.97
447.139	1706.97
447.513	1701.33
447.887	1728.22
448.262	1755.11
448.636	1717.37
449.01	1750.14
449.384	1742
449.758	1771.61
450.132	1805.96
450.506	1813.19
450.88	1801.66
451.254	1828.1
451.628	1839.63
452.002	1886.18
452.376	1902.9
452.75	1915.78
453.123	1906.07
453.497	1944.93
453.871	1939.96
454.244	2029.23
454.618	2014.31
454.992	2041.66
455.365	2033.07
455.739	2083.24
456.112	2092.95
456.486	2132.95
456.859	2151.48
457.232	2191.26
457.606	2209.56
457.979	2230.8
458.352	2283
458.725	2283.46
459.099	2308.32
459.472	2313.96
459.845	2348.54
460.218	2396.67
460.591	2428.54
460.964	2418.14
461.337	2427.86
461.71	2494.3
462.083	2532.04
462.456	2540.17
462.829	2537.91
463.201	2622.21
463.574	2571.81
463.947	2641.41
464.32	2690.68
464.692	2683.22
465.065	2722.99
465.438	2759.38
465.81	2784.23
466.183	2788.3
466.555	2839.15
466.928	2862.42
467.3	2908.07
467.672	2884.12
468.045	3006.38
468.417	2992.59
468.789	3033.72
469.161	3073.72
469.534	3105.81
469.906	3113.27
470.278	3157.33
470.65	3194.62
471.022	3238.01
471.394	3326.59
471.766	3355.75
472.138	3376.08
472.51	3426.48
472.882	3495.18
473.253	3499.24
473.625	3601.61
473.997	3637.55
474.369	3661.05
474.74	3705.79
475.112	3793.25
475.484	3806.81
475.855	3898.33
476.227	3874.83
476.598	4041.38
476.97	4009.29
477.341	4119.57
477.713	4203.41
478.084	4223.52
478.455	4322.95
478.827	4344.87
479.198	4484.3
479.569	4519.78
479.94	4568.59
480.311	4713.22
480.682	4753.67
481.053	4867.34
481.424	4958.64
481.795	5017.85
482.166	5036.15
482.537	5187.56
482.908	5292.64
483.279	5350.95
483.65	5370.38
484.021	5579.87
484.391	5578.74
484.762	5691.95
485.133	5738.73
485.503	5811.95
485.874	5991.38
486.244	6046.3
486.615	6217.59
486.985	6257.82
487.356	6393.86
487.726	6418.04
488.097	6574.64
488.467	6606.96
488.837	6785.03
489.207	6855.31
489.578	6946.16
489.948	7113.61
490.318	7227.96
490.688	7269.99
491.058	7399.48
491.428	7500.49
491.798	7559.25
492.168	7644.67
492.538	7782.3
492.908	7915.85
493.278	8029.29
493.648	8063.87
494.017	8284.66
494.387	8298.21
494.757	8404.88
495.126	8563.52
495.496	8564.2
495.866	8682.84
496.235	8809.16
496.605	8893.9
496.974	8956.5
497.344	9109.27
497.713	9168.25
498.082	9267.45
498.452	9296.61
498.821	9422.7
499.19	9439.88
499.559	9582.02
499.928	9627.67
500.298	9753.99
500.667	9865.63
501.036	9887.1
501.405	9986.08
501.774	10095.91
502.143	10178.16
502.512	10183.59
502.88	10358.27
503.249	10408.67
503.618	10450.93
503.987	10584.48
504.356	10741.54
504.724	10703.57
505.093	10854.53
505.462	10897.24
505.83	10945.6
506.199	11045.94
506.567	11178.59
506.936	11280.06
507.304	11358.47
507.672	11436.66
508.041	11500.84
508.409	11589.2
508.777	11700.16
509.145	11764.11
509.514	11783.32
509.882	11917.1
510.25	11960.26
510.618	12076.42
510.986	12119.13
511.354	12239.58
511.722	12362.29
512.09	12505.56
512.458	12416.07
512.826	12579.91
513.193	12678.21
513.561	12762.73
513.929	12873.01
514.297	12961.59
514.664	13104.42
515.032	13104.19
515.4	13282.04
515.767	13291.3
516.135	13299.21
516.502	13269.38
516.869	13603.16
517.237	13602.93
517.604	13610.62
517.972	13895.13
518.339	13914.11
518.706	13924.73
519.073	14103.49
519.44	14114.33
519.808	14281.33
520.175	14374.21
520.542	14475.68
520.909	14593.64
521.276	14671.61
521.643	14784.6
522.009	14961.99
522.376	15081.09
522.743	15159.73
523.11	15269.78
523.477	15531.24
523.843	15574.86
524.21	15757.9
524.577	15825.02
524.943	15938.47
525.31	16150.44
525.676	16273.37
526.043	16432.92
526.409	16487.83
526.776	16688.73
527.142	16650.76
527.508	16866.35
527.874	17037.19
528.241	17123.97
528.607	17180.69
528.973	17367.13
529.339	17436.73
529.705	17629.49
530.071	17680.79
530.437	17836.27
530.803	17892.76
531.169	18109.26
531.535	18085.75
531.901	18217.95
532.267	18365.52
532.632	18581.11
532.998	18496.82
533.364	18686.64
533.73	18735.68
534.095	18946.75
534.461	18899.97
534.826	19097.25
535.192	19194.88
535.557	19240.3
535.923	19244.14
536.288	19360.75
536.653	19518.26
537.019	19514.87
537.384	19561.87
537.749	19743.11
538.114	19722.32
538.479	19790.57
538.845	19879.38
539.21	20000.73
539.575	19978.58
539.94	20121.18
540.305	20373.6
540.67	20222.65
541.034	20387.16
541.399	20369.31
541.764	20434.17
542.129	20518.91
542.494	20559.81
542.858	20776.76
543.223	20661.5
543.587	20781.28
543.952	20724.78
544.316	20943.53
544.681	20924.55
545.045	21004.09
545.41	21074.15
545.774	21096.52
546.138	21207.93
546.503	21150.98
546.867	21234.82
547.231	21420.81
547.595	21434.82
547.959	21574.02
548.324	21572.22
548.688	21633.68
549.052	21736.05
549.416	21739.22
549.779	21797.75
550.143	21952.09
550.507	22051.07
550.871	22098.3
551.235	22081.35
551.599	22209.49
551.962	22278.19
552.326	22363.61
552.689	22480.67
553.053	22404.74
553.417	22513.21
553.78	22767.89
554.143	22822.35
554.507	22928.56
554.87	22940.77
555.234	23065.06
555.597	22969.24
555.96	23113.19
556.323	23287.42
556.686	23187.54
557.05	23378.95
557.413	23576.46
557.776	23548.21
558.139	23691.03
558.502	23783.68
558.865	23830.23
559.228	24043.56
559.59	23983.23
559.953	24086.05
560.316	24416.66
560.679	24375.31
561.041	24570.55
561.404	24715.64
561.767	24870.89
562.129	24725.13
562.492	25029.75
562.854	25090.99
563.217	25256.19
563.579	25312.68
563.941	25533.47
564.304	25537.31
564.666	25742.5
565.028	25928.71
565.39	25916.28
565.753	26151.98
566.115	26236.73
566.477	26340.68
566.839	26373.9
567.201	26732.76
567.563	26747.45
567.925	26926.2
568.287	27082.35
568.648	27375.68
569.01	27306.75
569.372	27593.53
569.734	27630.14
570.095	27852.28
570.457	28062.89
570.819	28026.73
571.18	28137.01
571.542	28418.14
571.903	28391.92
572.265	28629.66
572.626	28723.67
572.987	28760.5
573.349	29082.3
573.71	29173.37
574.071	29321.39
574.432	29546.69
574.794	29791.66
575.155	29771.55
575.516	29860.36
575.877	29927.7
576.238	30001.6
576.599	30242.72
576.96	30349.84
577.32	30484.07
577.681	30596.16
578.042	30808.13
578.403	30833.67
578.763	30873.89
579.124	31099.2
579.485	31284.05
579.845	31448.11
580.206	31504.61
580.566	31672.29
580.927	31704.15
581.287	31740.76
581.648	31981.43
582.008	32105.27
582.368	32168.32
582.728	32410.35
583.089	32416.22
583.449	32573.06
583.809	32719.04
584.169	32794.52
584.529	32949.54
584.889	33438.12
585.249	33198.8
585.609	33183.66
585.969	33462.52
586.329	33517.89
586.688	33807.6
587.048	34017.99
587.408	34200.81
587.768	34300.69
588.127	34497.98
588.487	34709.5
588.846	35178.41
589.206	34961.47
589.565	35223.83
589.925	35626.31
590.284	35736.36
590.643	35994.89
591.003	36184.71
591.362	36750.35
591.721	36670.12
592.08	36895.2
592.44	37351.69
592.799	37528.41
593.158	37857.66
593.517	37885.01
593.876	38278.22
594.235	38501.94
594.593	38731.31
594.952	39026.67
595.311	39264.41
595.67	39451.97
596.029	39959.98
596.387	40192.97
596.746	40639.74
597.104	40533.3
597.463	40964.7
597.822	41351.13
598.18	41425.93
598.538	41842.42
598.897	42264.33
599.255	42079.47
599.613	42878.77
599.972	42840.81
600.33	43167.35
600.688	43192.44
601.046	43705.64
601.404	44161.9
601.762	44194.9
602.12	44675.11
602.478	44882.56
602.836	45190.58
603.194	45054.99
603.552	45450.23
603.91	45563.45
604.268	45954.17
604.625	46058.8
604.983	46599.58
605.341	46519.58
605.698	46982.17
606.056	47403.85
606.413	47187.36
606.771	47624.19
607.128	47863.95
607.485	47916.83
607.843	48110.5
608.2	48454.67
608.557	48681.11
608.914	48718.85
609.272	48998.61
609.629	49313.41
609.986	49593.63
610.343	49716.79
610.7	49880.17
611.057	50026.83
611.414	50028.87
611.771	50429.31
612.127	50569.19
612.484	50553.37
612.841	50870.2
613.198	50898.45
613.554	50888.05
613.911	51189.29
614.267	51339.79
614.624	51380.02
614.98	51580.92
615.337	51773.91
615.693	51810.06
616.05	51972.32
616.406	52100.23
616.762	52024.3
617.118	52148.81
617.475	52199.21
617.831	52426.32
618.187	52488.46
618.543	52543.15
618.899	52783.37
619.255	52761.68
619.611	52902.46
619.967	53079.18
620.323	53140.42
620.678	53015.68
621.034	53041.9
621.39	53179.29
621.746	53213.87
622.101	53540.41
622.457	53291.38
622.812	53580.64
623.168	53548.55
623.523	53559.85
623.879	53789.67
624.234	53615.67
624.589	53725.04
624.945	53807.07
625.3	53829.45
625.655	53881.2
626.01	53894.3
626.365	53958.26
626.72	53947.41
627.075	53902.44
627.43	53993.96
627.785	53962.1
628.14	54018.82
628.495	54139.27
628.85	54094.98
629.205	54023.34
629.559	54188.98
629.914	54085.71
630.269	54135.43
630.623	54018.59
630.978	53979.05
631.332	54161.64
631.687	54202.54
632.041	54049.78
632.396	54115.77
632.75	54024.02
633.104	54181.98
633.459	53981.53
633.813	53996.22
634.167	54051.36
634.521	54078.25
634.875	54023.79
635.229	54044.13
635.583	53837.36
635.937	53870.8
636.291	53849.56
636.645	53874.19
636.999	53725.04
637.352	53780.18
637.706	53676.46
638.06	53813.18
638.413	53673.07
638.767	53555.1
639.121	53709.68
639.474	53591.26
639.828	53617.7
640.181	53638.94
640.534	53650.92
640.888	53492.51
641.241	53344.49
641.594	53454.09
641.947	53525.27
642.301	53335.45
642.654	53455.22
643.007	53383.81
643.36	53461.55
643.713	53363.24
644.066	53525.95
644.419	53234.89
644.771	52984.95
645.124	52701.57
645.477	52806.42
645.83	52619.99
646.182	52572.53
646.535	52511.74
646.888	52646.2
647.24	52563.94
647.593	52653.21
647.945	52556.03
648.298	52419.31
648.65	52310.84
649.002	52093.22
649.355	51991.08
649.707	51927.35
650.059	51986.78
650.411	52389.26
650.763	52529.59
651.115	53034.89
651.467	52839.87
651.819	52906.31
652.171	52821.79
652.523	52782.24
652.875	52765.52
653.227	52680.55
653.578	52882.8
653.93	52801.9
654.282	52705.86
654.633	52686.88
654.985	52758.74
655.337	52702.7
655.688	52722.81
656.039	52754.22
656.391	52594
656.742	52589.25
657.094	52623.83
657.445	52781.11
657.796	52598.97
658.147	52687.33
658.498	52681.23
658.849	52867.66
659.2	52636.71
659.551	52634.68
659.902	52808.23
660.253	52617.5
660.604	52673.54
660.955	52570.04
661.306	52712.87
661.656	52614.34
662.007	52671.96
662.358	52615.69
662.708	52707.44
663.059	52656.6
663.409	52475.58
663.76	52694.11
664.11	52695.24
664.461	52673.54
664.811	52722.36
665.161	52718.51
665.511	52563.72
665.862	52624.28
666.212	52641.23
666.562	52641.91
666.912	52660.21
667.262	52621.34
667.612	52577.28
667.962	52711.96
668.312	52503.83
668.662	52650.72
669.011	52575.24
669.361	52620.89
669.711	52621.12
670.06	52506.09
670.41	52508.35
670.76	52445.98
671.109	52666.54
671.459	52546.09
671.808	52547.9
672.157	52574.34
672.507	52412.31
672.856	52404.62
673.205	52415.7
673.554	52521.01
673.904	52365.98
674.253	52657.05
674.602	52385.64
674.951	51972.77
675.3	51915.37
675.649	52404.17
675.998	52293.22
676.346	52322.37
676.695	52429.93
677.044	52144.52
677.393	52251.41
677.741	52335.25
678.09	52340.22
678.438	52155.59
678.787	52216.83
679.135	52278.07
679.484	51949.04
679.832	52082.6
680.181	52034.24
680.529	52075.37
680.877	51956.5
681.225	51916.95
681.573	52174.12
681.922	51926.22
682.27	51825.21
682.618	51901.36
682.966	51685.77
683.314	51797.86
683.661	51682.16
684.009	51525.1
684.357	51471.99
684.705	51349.51
685.053	51390.64
685.4	51330.75
685.748	51151.55
686.095	51251.43
686.443	51027.71
686.79	50948.84
687.138	51053.47
687.485	50879.02
687.832	50876.98
688.18	50778
688.527	50670.66
688.874	50673.6
689.221	50707.49
689.568	50548.18
689.915	50343.44
690.262	50421.85
690.609	50385.47
690.956	50227.96
691.303	50140.96
691.65	50067.51
691.997	50026.16
692.344	49920.85
692.69	49836.56
693.037	49854.18
693.383	49374.87
693.73	49548.43
694.077	49319.51
694.423	49349.79
694.769	49037.71
695.116	49061.21
695.462	48947.77
695.808	48830.03
696.155	48881.33
696.501	48497.16
696.847	48558.62
697.193	48357.5
697.539	48318.86
697.885	48106.66
698.231	48027.11
698.577	47958.19
698.923	48070.28
699.269	47515.26
699.614	47550.52
699.96	47336.06
700.306	47409.73
700.651	47176.74
700.997	47068.04
701.342	46939.91
701.688	46726.81
702.033	46673.25
702.379	46555.97
702.724	46383.99
703.069	46478.45
703.415	46215.86
703.76	46039.82
704.105	45873.95
704.45	45798.7
704.795	45719.38
705.14	45593.5
705.485	45538.14
705.83	45251.14
706.175	45517.35
706.52	45369.33
706.865	45058.83
707.209	45092.05
707.554	44812.51
707.899	44842.34
708.243	44649.12
708.588	44455.23
708.932	44375.01
709.277	44294.1
709.621	44170.72
709.966	43725.08
710.31	44041.45
710.654	43788.13
710.998	43822.7
711.342	43668.58
711.687	43692.99
712.031	43514.69
712.375	43259.78
712.719	43249.16
713.063	43352.21
713.407	43397.18
713.75	43106.79
714.094	43090.97
714.438	42935.5
714.782	42965.1
715.125	42763.97
715.469	42922.61
715.812	42516.3
716.156	42646.24
716.499	42483.76
716.843	42463.64
717.186	42311.33
717.53	42472.46
717.873	42443.98
718.216	42430.2
718.559	42315.17
718.902	42075.63
719.246	42131
719.589	42103.88
719.932	41848.97
720.275	41785.02
720.617	41961.06
720.96	41894.39
721.303	41925.58
721.646	41914.28
721.989	41561.07
722.331	41721.52
722.674	41635.64
723.016	41611.24
723.359	41380.96
723.701	41474.74
724.044	41413.5
724.386	41231.13
724.729	41401.75
725.071	41314.07
725.413	41249.66
725.755	41248.99
726.097	41171.25
726.439	41026.17
726.782	41120.18
727.124	41307.52
727.465	41083.34
727.807	40962.67
728.149	40971.93
728.491	40938.71
728.833	40965.15
729.175	41011.93
729.516	40845.61
729.858	40876.79
730.199	40987.52
730.541	40832.27
730.882	40781.43
731.224	40952.5
731.565	40701.43
731.906	40859.17
732.248	41063.45
732.589	40768.09
732.93	40768.09
733.271	40750.02
733.612	40792.5
733.953	40980.29
734.294	40870.24
734.635	40686.97
734.976	40913.85
735.317	40706.4
735.658	40810.81
735.999	40709.79
736.339	40783.24
736.68	40733.97
737.021	40750.92
737.361	40763.35
737.702	41016.68
738.042	40771.94
738.383	40877.02
738.723	41070.69
739.063	40905.27
739.404	41080.4
739.744	40924.7
740.084	40958.6
740.424	41110.01
740.764	40956.34
741.104	41271.58
741.444	40918.37
741.784	41066.39
742.124	41302.09
742.464	41169.44
742.804	41131.25
743.143	41157.69
743.483	41330.11
743.823	41253.51
744.162	41318.14
744.502	41529.66
744.841	41370.56
745.181	41603.1
745.52	41550.22
745.86	41735.53
746.199	41629.77
746.538	41709.54
746.877	41972.13
747.216	41979.36
747.556	41905.24
747.895	42134.16
748.234	42100.94
748.573	42054.16
748.911	42236.98
749.25	42432.01
749.589	42449.63
749.928	42429.75
750.267	42820.24
750.605	42587.48
750.944	42813.92
751.283	42802.62
751.621	43074.47
751.96	42907.47
752.298	43218.65
752.636	43388.82
752.975	43362.6
753.313	43380.23
753.651	43665.19
753.989	43592.65
754.327	43604.86
754.666	43542.03
755.004	43825.19
755.342	43975.47
755.679	43994.22
756.017	44014.79
756.355	44201.9
756.693	44118.74
757.031	44479.64
757.368	44233.54
757.706	44320.09
758.044	44390.6
758.381	44475.12
758.719	44630.59
759.056	44684.6
759.394	44681.66
759.731	44436.92
760.068	44603.7
760.405	44838.95
760.743	44637.15
761.08	44928.66
761.417	44825.84
761.754	44855.22
762.091	44788.55
762.428	44795.33
762.765	44716.47
763.102	44923.69
763.438	44813.86
763.775	44659.52
764.112	44925.5
764.449	44972.05
764.785	44789.23
765.122	44695.45
765.458	44647.77
765.795	44762.79
766.131	44758.05
766.467	44617.26
766.804	44637.37
767.14	44504.27
767.476	44346.31
767.812	44406.87
768.148	44620.2
768.485	44303.82
768.821	44234.22
769.157	44196.03
769.492	44171.4
769.828	44258.85
770.164	44104.96
770.5	43962.14
770.836	43997.84
771.171	43814.79
771.507	43744.29
771.842	43552.65
772.178	43582.03
772.513	43409.38
772.849	43360.79
773.184	43401.92
773.519	43386.1
773.855	43050.75
774.19	43174.59
774.525	42957.19
774.86	42964.87
775.195	42842.16
775.53	42521.04
775.865	42594.94
776.2	42456.19
776.535	42227.27
776.87	42129.87
777.205	41910.89
777.539	42022.53
777.874	41940.49
778.209	41406.04
778.543	41544.12
778.878	41488.98
779.212	41500.73
779.547	41118.82
779.881	41278.36
780.215	40991.59
780.55	41024.59
780.884	40759.73
781.218	40788.43
781.552	40701.2
781.886	40555.67
782.22	40395.22
782.554	40222.8
782.888	39865.52
783.222	39773.54
783.556	39608.35
783.889	39540.56
784.223	39350.28
784.557	39294.46
784.89	39329.04
785.224	39141.92
785.557	39055.15
785.891	39019.67
786.224	38743.29
786.558	38897.18
786.891	38564.31
787.224	38286.8
787.557	38249.06
787.891	38226.92
788.224	38074.61
788.557	38117.09
788.89	37859.02
789.223	37895.18
789.556	37572.7
789.888	37489.76
790.221	37464.68
790.554	37179.71
790.887	37180.62
791.219	36935.43
791.552	36969.55
791.884	36906.73
792.217	36728.43
792.549	36643.46
792.882	36349.45
793.214	36306.97
793.546	36359.17
793.879	36191.27
794.211	35938.17
794.543	36047.77
794.875	35913.99
795.207	35761.45
795.539	35530.04
795.871	35645.52
796.203	35401.91
796.535	35229.26
796.867	35258.41
797.198	35052.09
797.53	35098.87
797.862	34871.98
798.193	34836.5
798.525	34631.31
798.856	34819.78
799.188	34346.12
799.519	34207.82
799.85	34067.03
800.182	34125.11
800.513	34217.08
800.844	33832.23
801.175	34088.04
801.506	34040.14
801.837	33722.4
802.168	33700.03
802.499	33641.05
802.83	33311.34
803.161	33369.42
803.491	33233.15
803.822	33407.61
804.153	33045.59
804.483	32902.99
804.814	32702.09
805.145	32784.12
805.475	32850.11
805.805	32651.92
806.136	32549.78
806.466	32450.12
806.796	32556.33
807.126	32146.63
807.457	32107.53
807.787	32237.47
808.117	32022.79
808.447	32024.82
808.777	32055.78
809.107	31891.04
809.436	31721.33
809.766	31657.37
810.096	31657.15
810.426	31568.56
810.755	31573.53
811.085	31449.02
811.414	31396.36
811.744	31183.49
812.073	31297.16
812.403	31106.65
812.732	31035.47
813.061	31023.72
813.39	30675.03
813.719	30759.32
814.049	30938.07
814.378	30712.31
814.707	30686.1
815.036	30663.28
815.365	30502.6
815.693	30338.09
816.022	30416.73
816.351	30213.57
816.68	30058.55
817.008	30170.63
817.337	29882.28
817.665	29826.46
817.994	29774.26
818.322	30014.71
818.651	29808.83
818.979	29872.56
819.307	29825.11
819.636	29709.85
819.964	29607.94
820.292	29671.89
820.62	29628.5
820.948	29737.42
821.276	29716.41
821.604	29611.55
821.932	29725.22
822.259	29614.49
822.587	29632.12
822.915	29491.1
823.243	29435.29
823.57	29526.58
823.898	29623.75
824.225	29478.67
824.553	29445
824.88	29678.44
825.207	29612.23
825.535	29496.53
825.862	29593.7
826.189	29523.42
826.516	29780.14
826.843	29726.58
827.17	29636.41
827.497	29563.42
827.824	29560.71
828.151	29619.69
828.478	29593.93
828.805	29690.65
829.131	29605
829.458	29642.29
829.785	29501.72
830.111	29592.8
830.438	29792.34
830.764	29601.61
831.09	29611.55
831.417	29512.35
831.743	29744.43
832.069	29566.13
832.395	29454.72
832.722	29534.94
833.048	29461.95
833.374	29647.71
833.7	29272.13
834.026	29439.58
834.351	29435.96
834.677	29499.46
835.003	29446.36
835.329	29454.49
835.654	29437.55
835.98	29140.15
836.306	29337.66
836.631	29176.99
836.956	29487.04
837.282	29391.22
837.607	29163.88
837.932	29167.5
838.258	29069.19
838.583	29092.24
838.908	28923.43
839.233	28980.16
839.558	28888.86
839.883	28872.59
840.208	28600.05
840.533	28802.31
840.858	28811.12
841.182	28774.06
841.507	28858.13
841.832	28560.05
842.156	28469.66
842.481	28497.23
842.805	28415.88
843.13	28276.45
843.454	28478.93
843.778	28233.96
844.103	28344.69
844.427	28162.55
844.751	28105.83
845.075	28042.55
845.399	28050.91
845.723	27876.46
846.047	27921.88
846.371	27709.46
846.695	27610.47
847.019	27549.23
847.343	27342.46
847.666	27161.45
847.99	27060.88
848.313	27068.57
848.637	26960.32
848.96	26894.79
849.284	26828.8
849.607	26689.59
849.931	26661.35
850.254	26431.97
850.577	26314.46
850.9	26059.1
851.223	26024.98
851.546	26014.13
851.869	25868.83
852.192	25980.91
852.515	25691.43
852.838	25571.43
853.161	25509.74
853.483	25345.45
853.806	25347.71
854.129	25249.63
854.451	25212.8
854.774	25105
855.096	25162.4
855.419	24956.53
855.741	24884.67
856.063	24874.95
856.385	24663.43
856.708	24684
857.03	24637.67
857.352	24558.8
857.674	24462.99
857.996	24368.75
858.318	24190.23
858.64	24230.45
858.961	24074.3
859.283	24052.38
859.605	23952.27
859.926	24026.39
860.248	23914.07
860.57	23792.95
860.891	23847.86
861.212	23657.81
861.534	23694.42
861.855	23621.88
862.176	23638.15
862.498	23587.98
862.819	23530.81
863.14	23402.68
863.461	23404.71
863.782	23297.82
864.103	23352.96
864.424	23297.14
864.745	23374.2
865.065	23101.21
865.386	23105.96
865.707	23054.44
866.027	23203.58
866.348	23002.69
866.668	23005.17
866.989	22899.64
867.309	22722.92
867.63	22759.3
867.95	22912.29
868.27	22729.7
868.59	22890.6
868.91	22695.8
869.23	22597.05
869.55	22560.89
869.87	22602.92
870.19	22454.9
870.51	22379.65
870.83	22435.7
871.15	22331.97
871.469	22353.66
871.789	22344.17
872.109	22314.79
872.428	22336.04
872.748	22334
873.067	22164.97
873.386	22222.37
873.706	22087.91
874.025	22102.14
874.344	21928.82
874.663	22039.1
874.982	21947.35
875.301	22026.89
875.62	21827.8
875.939	21637.75
876.258	21791.64
876.577	21708.03
876.896	21677.75
877.214	21601.82
877.533	21626
877.852	21564.08
878.17	21536.06
878.489	21575.61
878.807	21527.7
879.125	21468.72
879.444	21518.88
879.762	21359.11
880.08	21508.71
880.398	21337.42
880.716	21299.91
881.034	21323.63
881.352	21222.17
881.67	21160.02
881.988	21177.88
882.306	21047.94
882.624	20960.93
882.941	20920.48
883.259	20935.62
883.577	20804.78
883.894	20864.21
884.212	20809.75
884.529	20814.5
884.846	20706.93
885.164	20492.24
885.481	20467.84
885.798	20687.04
886.115	20389.87
886.432	20449.76
886.75	20385.81
887.067	20376.54
887.383	20273.04
887.7	20176.55
888.017	20128.41
888.334	20191.46
888.651	20087.28
888.967	20078.7
889.284	19957.12
889.6	19922.32
889.917	19843.22
890.233	19820.62
890.55	19755.09
890.866	19750.12
891.182	19630.35
891.498	19547.18
891.815	19496.79
892.131	19445.49
892.447	19390.13
892.763	19355.78
893.079	19359.62
893.395	19195.33
893.71	19235.33
894.026	19124.14
894.342	19132.96
894.657	18977.93
894.973	19027.2
895.289	18973.64
895.604	18819.97
895.92	18670.6
896.235	18799.18
896.55	18638.96
896.865	18521.45
897.181	18550.37
897.496	18528.23
897.811	18364.62
898.126	18360.1
898.441	18238.07
898.756	18295.24
899.071	18162.59
899.386	18240.1
899.7	18048.24
900.015	17931.18
900.33	17823.16
900.644	17806.21
900.959	17870.17
901.273	17683.96
901.588	17628.14
901.902	17586.11
902.216	17441.93
902.531	17527.35
902.845	17312.89
903.159	17202.16
903.473	17327.13
903.787	17212.1
904.101	17114.71
904.415	17086.91
904.729	16996.97
905.042	16893.47
905.356	16888.5
905.67	16776.64
905.984	16830.65
906.297	16744.55
906.611	16660.03
906.924	16524.66
907.237	16510.43
907.551	16428.62
907.864	16441.05
908.177	16325.35
908.491	16215.52
908.804	16185.46
909.117	16105.01
909.43	16029.76
909.743	15978.01
910.056	15943.21
910.368	15906.38
910.681	15767.17
910.994	15779.15
911.307	15596.55
911.619	15512.71
911.932	15531.92
912.244	15444.01
912.557	15518.36
912.869	15345.03
913.181	15387.29
913.494	15194.98
913.806	15125.38
914.118	15060.3
914.43	15119.96
914.742	14995.21
915.054	14840.87
915.366	14981.88
915.678	14762.22
915.99	14731.49
916.302	14593.87
916.613	14571.72
916.925	14551.38
917.236	14510.25
917.548	14391.61
917.859	14398.17
918.171	14340.54
918.482	14164.95
918.794	14148.68
919.105	14098.74
919.416	14025.52
919.727	13945.52
920.038	13872.3
920.349	13807.22
920.66	13841.8
920.971	13780.1
921.282	13707.11
921.593	13686.32
921.903	13615.14
922.214	13582.14
922.525	13525.2
922.835	13415.59
923.146	13308.7
923.456	13326.33
923.767	13267.57
924.077	13198.2
924.387	13164.98
924.697	13026
925.008	13046.56
925.318	12982.38
925.628	12911.2
925.938	12894.48
926.248	12720.7
926.558	12695.84
926.867	12769.73
927.177	12679.79
927.487	12567.48
927.796	12551.44
928.106	12512.34
928.416	12346.7
928.725	12413.13
929.034	12301.72
929.344	12324.77
929.653	12269.18
929.962	12211.56
930.271	12089.98
930.581	12128.62
930.89	12025.12
931.199	11862.64
931.508	11891.79
931.817	11884.11
932.125	11868.06
932.434	11795.75
932.743	11632.36
933.051	11692.7
933.36	11639.14
933.669	11500.16
933.977	11474.18
934.286	11466.72
934.594	11423.78
934.902	11295.65
935.21	11322.77
935.519	11219.04
935.827	11229.89
936.135	11139.27
936.443	11071.47
936.751	11035.77
937.059	10971.14
937.367	10943.79
937.674	10905.6
937.982	10907.64
938.29	10825.38
938.597	10804.14
938.905	10667.19
939.213	10683.69
939.52	10650.47
939.827	10701.99
940.135	10515.1
940.442	10458.61
940.749	10415.22
941.056	10454.54
941.363	10319.18
941.67	10315.56
941.977	10185.17
942.284	10238.73
942.591	10172.06
942.898	10162.8
943.205	10144.95
943.511	10038.73
943.818	10002.8
944.125	9929.36
944.431	9877.61
944.738	9876.03
945.044	9839.64
945.35	9731.85
945.657	9660.66
945.963	9720.1
946.269	9592.42
946.575	9577.5
946.881	9568.01
947.187	9501.8
947.493	9391.97
947.799	9476.26
948.105	9438.07
948.41	9257.28
948.716	9326.21
949.022	9310.84
949.327	9263.61
949.633	9118.08
949.938	9144.29
950.244	9152.65
950.549	9065.88
950.854	8994.01
951.16	9005.54
951.465	8884.87
951.77	8851.87
952.075	8840.12
952.38	8882.61
952.685	8766.45
952.99	8741.14
953.294	8689.84
953.599	8661.14
953.904	8593.35
954.209	8530.52
954.513	8534.37
954.818	8509.06
955.122	8477.87
955.426	8443.07
955.731	8381.38
956.035	8340.92
956.339	8317.2
956.643	8271.55
956.948	8230.42
957.252	8128.73
957.556	8164.43
957.86	8091.21
958.163	8046.47
958.467	8022.97
958.771	7999.24
959.075	7936.87
959.378	7857.77
959.682	7969.41
959.985	7847.15
960.289	7825.68
960.592	7770.54
960.896	7742.75
961.199	7758.12
961.502	7630.66
961.805	7669.08
962.108	7559.93
962.411	7582.75
962.714	7467.73
963.017	7518.12
963.32	7457.33
963.623	7418.24
963.926	7380.95
964.228	7363.32
964.531	7305.92
964.833	7288.3
965.136	7263.89
965.438	7264.57
965.741	7163.78
966.043	7121.75
966.345	7164.91
966.648	7091.92
966.95	7051.02
967.252	7042.88
967.554	7046.95
967.856	6979.83
968.158	6952.26
968.46	6894.18
968.761	6868.2
969.063	6857.57
969.365	6808.99
969.666	6755.2
969.968	6703.68
970.269	6671.14
970.571	6647.18
970.872	6663.68
971.174	6611.93
971.475	6599.95
971.776	6560.18
972.077	6557.24
972.378	6503.91
972.679	6499.84
972.98	6434.31
973.281	6445.38
973.582	6457.36
973.883	6389.34
974.183	6335.78
974.484	6273.41
974.785	6201.09
975.085	6205.39
975.386	6262.34
975.686	6214.2
975.986	6145.95
976.287	6173.3
976.587	6062.79
976.887	6098.72
977.187	6057.59
977.487	5994.55
977.787	5959.52
978.087	5937.6
978.387	5918.84
978.687	5893.08
978.987	5839.97
979.286	5826.41
979.586	5844.27
979.885	5792.07
980.185	5760.65
980.484	5721.56
980.784	5720.2
981.083	5647.21
981.382	5697.15
981.682	5676.36
981.981	5664.61
982.28	5578.06
982.579	5534.9
982.878	5542.35
983.177	5505.75
983.475	5482.92
983.774	5410.38
984.073	5419.42
984.372	5327.22
984.67	5383.49
984.969	5433.2
985.267	5380.1
985.566	5325.41
985.864	5279.99
986.162	5255.81
986.461	5231.4
986.759	5209.93
987.057	5158.41
987.355	5107.11
987.653	5120.67
987.951	5119.77
988.249	5097.62
988.547	5025.98
988.844	5027.34
989.142	5020.79
989.44	4966.78
989.737	4944.4
990.035	4911.86
990.332	4896.95
990.63	4871.19
990.927	4852.88
991.224	4820.79
991.521	4802.26
991.819	4794.8
992.116	4754.8
992.413	4762.26
992.71	4645.65
993.006	4666.9
993.303	4642.49
993.6	4711.87
993.897	4635.26
994.193	4587.13
994.49	4526.11
994.787	4529.05
995.083	4454.25
995.379	4553.68
995.676	4476.17
995.972	4438.65
996.268	4422.16
996.565	4415.6
996.861	4363.4
997.157	4331.54
997.453	4313.23
997.749	4316.4
998.044	4296.96
998.34	4250.86
998.636	4218.1
998.932	4171.77
999.227	4228.94
999.523	4173.58
999.818	4149.4
1000.114	4115.27
1000.409	4121.83
1000.704	4051.09
1001	4068.04
1001.295	4022.39
1001.59	4024.65
1001.885	4031.43
1002.18	3969.51
1002.475	3964.77
1002.77	3903.53
1003.065	3941.04
1003.359	3903.3
1003.654	3869.4
1003.949	3831.44
1004.243	3822.63
1004.538	3750.54
1004.832	3737.66
1005.127	3777.65
1005.421	3715.96
1005.715	3747.37
1006.009	3730.2
1006.304	3669.64
1006.598	3627.6
1006.892	3588.28
1007.186	3578.79
1007.48	3548.96
1007.773	3490.88
1008.067	3491.11
1008.361	3503.54
1008.655	3440.71
1008.948	3453.14
1009.242	3445.69
1009.535	3439.36
1009.829	3360.72
1010.122	3373.6
1010.415	3345.12
1010.708	3322.53
1011.001	3295.18
1011.295	3279.14
1011.588	3254.73
1011.881	3209.53
1012.173	3248.86
1012.466	3213.83
1012.759	3189.2
1013.052	3169.54
1013.344	3168.18
1013.637	3140.61
1013.93	3077.79
1014.222	3089.31
1014.514	3050.22
1014.807	3025.13
1015.099	3015.87
1015.391	2978.81
1015.683	3010.9
1015.976	2962.99
1016.268	2967.73
1016.56	2911.24
1016.851	2906.27
1017.143	2881.41
1017.435	2829.43
1017.727	2862.2
1018.018	2817.45
1018.31	2814.97
1018.602	2758.7
1018.893	2787.85
1019.185	2743.33
1019.476	2744.91
1019.767	2673.28
1020.058	2680.28
1020.35	2654.29
1020.641	2648.65
1020.932	2676.89
1021.223	2622.88
1021.514	2597.57
1021.804	2565.71
1022.095	2582.21
1022.386	2548.99
1022.677	2539.27
1022.967	2461.53
1023.258	2464.24
1023.548	2483.45
1023.839	2478.03
1024.129	2464.24
1024.419	2424.02
1024.709	2401.19
1025	2372.72
1025.29	2375.21
1025.58	2334.08
1025.87	2337.69
1026.16	2289.33
1026.449	2288.88
1026.739	2301.54
1027.029	2264.93
1027.319	2243.23
1027.608	2257.24
1027.898	2243.46
1028.187	2197.36
1028.477	2184.7
1028.766	2182.22
1029.055	2132.05
1029.344	2115.55
1029.634	2079.17
1029.923	2098.15
1030.212	2091.37
1030.501	2113.74
1030.79	2056.57
1031.078	2036.46
1031.367	2013.63
1031.656	1949.68
1031.945	1985.16
1032.233	2020.41
1032.522	1967.31
1032.81	1932.51
1033.099	1956.91
1033.387	1939.74
1033.675	1890.02
1033.963	1894.54
1034.251	1904.71
1034.54	1869
1034.828	1859.06
1035.116	1814.32
1035.403	1824.71
1035.691	1808.22
1035.979	1811.83
1036.267	1761.21
1036.554	1761.44
1036.842	1752.4
1037.129	1712.85
1037.417	1733.41
1037.704	1726.18
1037.992	1686.86
1038.279	1694.09
1038.566	1666.3
1038.853	1666.3
1039.14	1666.3
