Data from 18-4530_FLMS001491_005.txt Node
Date: Thu Apr 19 16:44:13 BST 2018
User: hsy
Spectrometer: FLMS00149
Trigger mode: 0
Integration Time (sec): 1.000000E-2
Scans to average: 10
Electric dark correction enabled: true
Nonlinearity correction enabled: false
Boxcar width: 0
XAxis mode: Wavelengths
Number of Pixels in Spectrum: 2048
>>>>>Begin Spectral Data<<<<<
341.393	0.85
341.776	0.85
342.16	0.85
342.543	-67.85
342.927	-92.48
343.31	-84.35
343.693	-57
344.077	-80.96
344.46	-50.45
344.843	-61.3
345.226	-42.32
345.61	-15.65
345.993	-3.67
346.376	-8.19
346.759	11.69
347.142	33.84
347.525	49.43
347.908	37
348.291	70.9
348.674	90.11
349.057	110.9
349.44	107.29
349.823	139.15
350.206	179.83
350.588	209.88
350.971	246.94
351.354	254.85
351.737	249.43
352.119	285.36
352.502	281.97
352.884	300.73
353.267	308.18
353.65	305.02
354.032	316.09
354.414	330.78
354.797	343.89
355.179	345.7
355.562	337.79
355.944	352.48
356.326	388.86
356.709	368.52
357.091	370.33
357.473	354.74
357.855	371.91
358.238	370.1
358.62	366.94
359.002	377.11
359.384	364.23
359.766	373.49
360.148	369.2
360.53	381.18
360.912	364
361.294	357.9
361.676	350.22
362.057	392.93
362.439	363.1
362.821	371.23
363.203	377.56
363.584	360.16
363.966	363.78
364.348	367.62
364.729	362.87
365.111	356.77
365.493	375.53
365.874	373.27
366.256	356.54
366.637	352.02
367.019	354.96
367.4	349.31
367.781	363.1
368.163	357
368.544	370.1
368.925	355.64
369.306	377.56
369.688	358.58
370.069	369.2
370.45	354.06
370.831	373.27
371.212	372.36
371.593	364
371.974	347.05
372.355	355.64
372.736	353.15
373.117	353.15
373.498	357.45
373.879	382.31
374.26	375.75
374.641	381.85
375.021	343.21
375.402	373.27
375.783	374.4
376.163	387.28
376.544	410.78
376.925	363.55
377.305	404
377.686	388.63
378.066	374.62
378.447	382.98
378.827	394.28
379.208	407.62
379.588	391.57
379.968	394.28
380.349	404.23
380.729	375.75
381.109	403.32
381.489	423.44
381.87	412.36
382.25	404.9
382.63	407.39
383.01	409.2
383.39	418.46
383.77	416.2
384.15	417.56
384.53	447.39
384.91	454.39
385.29	453.94
385.67	436.32
386.049	447.62
386.429	447.39
386.809	445.13
387.189	475.41
387.568	454.39
387.948	452.14
388.328	459.82
388.707	455.98
389.087	474.73
389.466	461.17
389.846	486.71
390.225	472.93
390.605	487.61
390.984	506.14
391.363	486.48
391.743	494.62
392.122	494.39
392.501	491.68
392.881	505.92
393.26	516.99
393.639	511.57
394.018	528.29
394.397	528.07
394.776	526.48
395.155	542.3
395.534	543.21
395.913	536.88
396.292	539.14
396.671	545.92
397.05	555.41
397.429	558.35
397.808	558.35
398.186	569.19
398.565	545.69
398.944	584.79
399.323	566.93
399.701	583.21
400.08	583.88
400.458	592.24
400.837	606.48
401.215	603.09
401.594	627.05
401.972	596.76
402.351	598.8
402.729	620.49
403.107	606.26
403.486	624.79
403.864	645.35
404.242	647.84
404.62	640.15
404.999	657.78
405.377	681.73
405.755	670.66
406.133	681.96
406.511	672.47
406.889	685.8
407.267	706.82
407.645	704.33
408.023	714.28
408.401	701.17
408.779	745.46
409.156	715.4
409.534	761.05
409.912	766.25
410.29	789.53
410.667	782.3
411.045	792.24
411.422	801.5
411.8	818.45
412.178	806.93
412.555	844.44
412.933	843.09
413.31	856.42
413.687	871.11
414.065	881.73
414.442	899.35
414.819	909.3
415.197	898.9
415.574	899.13
415.951	934.16
416.328	922.63
416.705	932.35
417.082	969.18
417.46	935.96
417.837	965.79
418.214	981.84
418.591	983.65
418.967	994.95
419.344	993.36
419.721	1022.74
420.098	996.3
420.475	1043.08
420.852	1047.37
421.228	1077.88
421.605	1067.94
421.982	1090.31
422.358	1084.21
422.735	1098.45
423.111	1108.61
423.488	1146.81
423.864	1119.46
424.241	1131.89
424.617	1145.22
424.994	1156.07
425.37	1167.37
425.746	1157.43
426.123	1205.11
426.499	1212.79
426.875	1245.56
427.251	1237.43
427.627	1263.64
428.003	1257.31
428.379	1300.02
428.756	1328.04
429.132	1327.82
429.507	1347.25
429.883	1326.69
430.259	1389.51
430.635	1379.57
431.011	1398.32
431.387	1429.96
431.763	1462.5
432.138	1476.97
432.514	1478.77
432.89	1481.49
433.265	1540.02
433.641	1553.8
434.016	1538.66
434.392	1588.15
434.767	1647.36
435.143	1599.68
435.518	1636.06
435.894	1668.6
436.269	1699.56
436.644	1706.57
437.02	1724.19
437.395	1713.12
437.77	1772.1
438.145	1777.75
438.52	1806.9
438.895	1834.47
439.271	1822.27
439.646	1860.69
440.021	1876.5
440.395	1933.68
440.77	1885.32
441.145	1933.23
441.52	1936.16
441.895	1931.42
442.27	1944.3
442.645	1966.45
443.019	1994.24
443.394	1977.52
443.769	2029.04
444.143	1997.86
444.518	2045.31
444.892	2030.4
445.267	2050.74
445.641	2091.87
446.016	2076.05
446.39	2094.35
446.764	2135.03
447.139	2131.19
447.513	2140.45
447.887	2132.54
448.262	2119.89
448.636	2172.54
449.01	2206.44
449.384	2229.49
449.758	2259.32
450.132	2281.69
450.506	2274.69
450.88	2273.56
451.254	2298.41
451.628	2336.15
452.002	2339.32
452.376	2381.12
452.75	2424.51
453.123	2456.15
453.497	2494.12
453.871	2512.65
454.244	2511.29
454.618	2546.77
454.992	2593.32
455.365	2595.36
455.739	2659.99
456.112	2705.41
456.486	2676.71
456.859	2724.17
457.232	2819.76
457.606	2799.42
457.979	2863.37
458.352	2907.89
458.725	2914.44
459.099	2989.24
459.472	2978.62
459.845	3044.61
460.218	3067.43
460.591	3074.44
460.964	3128
461.337	3189.01
461.71	3203.7
462.083	3289.57
462.456	3271.04
462.829	3285.28
463.201	3341.78
463.574	3357.37
463.947	3412.74
464.32	3421.1
464.692	3487.54
465.065	3510.59
465.438	3556.69
465.81	3617.02
466.183	3655.21
466.555	3705.38
466.928	3748.09
467.3	3733.63
467.672	3857.02
468.045	3851.82
468.417	3903.34
468.789	3873.97
469.161	3988.09
469.534	4035.32
469.906	4090.91
470.278	4131.81
470.65	4133.17
471.022	4223.56
471.394	4292.26
471.766	4333.61
472.138	4334.52
472.51	4464.01
472.882	4557.79
473.253	4604.57
473.625	4645.92
473.997	4722.53
474.369	4706.94
474.74	4788.29
475.112	4906.71
475.484	4943.54
475.855	5001.85
476.227	5091.79
476.598	5239.13
476.97	5280.26
477.341	5365.23
477.713	5409.74
478.084	5442.74
478.455	5619
478.827	5661.72
479.198	5788.72
479.569	5826.01
479.94	5906.23
480.311	6071.65
480.682	6156.84
481.053	6299.66
481.424	6412.43
481.795	6444.07
482.166	6575.59
482.537	6633.89
482.908	6784.17
483.279	6853.55
483.65	7009.02
484.021	7139.19
484.391	7206.08
484.762	7242.01
485.133	7325.63
485.503	7436.36
485.874	7667.09
486.244	7742.11
486.615	7887.19
486.985	7967.19
487.356	8110.92
487.726	8221.87
488.097	8368.31
488.467	8402.66
488.837	8702.31
489.207	8690.79
489.578	8783.67
489.948	8940.73
490.318	8998.58
490.688	9114.51
491.058	9311.79
491.428	9424.1
491.798	9431.33
492.168	9684.21
492.538	9691.21
492.908	9881.72
493.278	9942.28
493.648	9992.45
494.017	10143.86
494.387	10204.87
494.757	10288.94
495.126	10432.89
495.496	10494.36
495.866	10612.09
496.235	10720.11
496.605	10843.5
496.974	10815.25
497.344	11081.23
497.713	11010.5
498.082	11131.85
498.452	11215.69
498.821	11375.69
499.19	11386.99
499.559	11468.57
499.928	11592.18
500.298	11641.45
500.667	11770.71
501.036	11765.51
501.405	11835.34
501.774	11872.17
502.143	12076.24
502.512	12196.91
502.88	12266.51
503.249	12216.57
503.618	12306.51
503.987	12420.18
504.356	12496.79
504.724	12602.55
505.093	12631.93
505.462	12694.98
505.83	12734.07
506.199	12827.63
506.567	13085.25
506.936	12965.25
507.304	13171.12
507.672	13186.94
508.041	13188.52
508.409	13312.81
508.777	13533.6
509.145	13479.36
509.514	13528.85
509.882	13744.67
510.25	13756.87
510.618	13869.64
510.986	13854.49
511.354	13979.69
511.722	14148.27
512.09	14265.56
512.458	14116.86
512.826	14296.74
513.193	14339
513.561	14493.57
513.929	14487.02
514.297	14702.61
514.664	14740.8
515.032	14851.98
515.4	14904.18
515.767	14869.38
516.135	15041.58
516.502	14969.04
516.869	15198.87
517.237	15322.48
517.604	15208.36
517.972	15431.63
518.339	15521.12
518.706	15585.3
519.073	15667.55
519.44	15696.93
519.808	15896.02
520.175	15957.94
520.542	16075
520.909	16201.55
521.276	16258.95
521.643	16449.23
522.009	16547.98
522.376	16669.79
522.743	16736.45
523.11	16869.56
523.477	16997.69
523.843	17018.71
524.21	17243.33
524.577	17389.32
524.943	17455.08
525.31	17403.78
525.676	17741.4
526.043	17738.91
526.409	17863.88
526.776	18012.35
527.142	17975.74
527.508	18116.3
527.874	18317.65
528.241	18485.33
528.607	18455.05
528.973	18745.44
529.339	18756.74
529.705	18935.26
530.071	18968.48
530.437	19028.82
530.803	19144.75
531.169	19254.13
531.535	19208.03
531.901	19317.85
532.267	19377.29
532.632	19540.22
532.998	19513.1
533.364	19677.39
533.73	19601.91
534.095	19852.75
534.461	19830.16
534.826	19921.68
535.192	19934.56
535.557	20052.3
535.923	20073.09
536.288	20097.49
536.653	20134.56
537.019	20189.24
537.384	20246.64
537.749	20309.01
538.114	20254.78
538.479	20245.06
538.845	20429.24
539.21	20334.1
539.575	20426.07
539.94	20422.68
540.305	20503.81
540.67	20527.54
541.034	20542
541.399	20665.84
541.764	20542.23
542.129	20613.64
542.494	20673.52
542.858	20656.58
543.223	20623.36
543.587	20745.61
543.952	20647.76
544.316	20742
544.681	20554.66
545.045	20835.33
545.41	20858.38
545.774	20684.82
546.138	20753.52
546.503	20882.56
546.867	20814.99
547.231	20963.01
547.595	20934.99
547.959	20974.31
548.324	21021.76
548.688	21004.59
549.052	21065.83
549.416	20925.04
549.779	20951.71
550.143	21001.43
550.507	21110.57
550.871	21110.57
551.235	20982.44
551.599	21255.43
551.962	21073.74
552.326	21203
552.689	21226.05
553.053	21079.39
553.417	21266.73
553.78	21332.94
554.143	21363.22
554.507	21371.13
554.87	21343.34
555.234	21683.44
555.597	21432.83
555.96	21608.87
556.323	21605.48
556.686	21616.78
557.05	21767.96
557.413	21727.51
557.776	21775.87
558.139	21908.07
558.502	21865.58
558.865	22022.87
559.228	21945.81
559.59	22008.4
559.953	22091.57
560.316	22333.59
560.679	22277.1
561.041	22346.47
561.404	22528.39
561.767	22577.88
562.129	22536.98
562.492	22741.27
562.854	22850.19
563.217	22735.62
563.579	22789.85
563.941	22885.67
564.304	23113.91
564.666	23275.49
565.028	23236.17
565.39	23213.57
565.753	23451.76
566.115	23521.36
566.477	23611.53
566.839	23677.51
567.201	23961.8
567.563	23886.1
567.925	24100.33
568.287	24015.36
568.648	24251.06
569.01	24401.34
569.372	24557.26
569.734	24615.34
570.095	24870.25
570.457	25010.59
570.819	24912.73
571.18	24888.33
571.542	25230.47
571.903	25166.29
572.265	25364.47
572.626	25503.45
572.987	25531.02
573.349	25614.64
573.71	25834.97
574.071	25912.26
574.432	26144.34
574.794	26251.46
575.155	26210.33
575.516	26230.67
575.877	26327.39
576.238	26468.4
576.599	26600.37
576.96	26615.97
577.32	26828.84
577.681	26832.01
578.042	26975.05
578.403	26996.97
578.763	26960.36
579.124	27009.18
579.485	27258.44
579.845	27281.71
580.206	27099.34
580.566	27282.62
580.927	27316.06
581.287	27462.27
581.648	27266.57
582.008	27476.74
582.368	27470.63
582.728	27528.26
583.089	27480.35
583.449	27555.6
583.809	27546.11
584.169	27568.26
584.529	27529.39
584.889	27854.13
585.249	27458.66
585.609	27437.41
585.969	27703.17
586.329	27565.55
586.688	27722.38
587.048	27604.19
587.408	27645.32
587.768	27562.38
588.127	27552.67
588.487	27583.85
588.846	27869.72
589.206	27410.97
589.565	27615.94
589.925	27631.76
590.284	27531.87
590.643	27518.99
591.003	27627.47
591.362	27716.5
591.721	27535.94
592.08	27593.79
592.44	27791.98
592.799	27470.86
593.158	27586.11
593.517	27547.24
593.876	27702.94
594.235	27601.93
594.593	27618.2
594.952	27598.99
595.311	27624.53
595.67	27595.38
596.029	27833.56
596.387	27716.95
596.746	27790.63
597.104	27590.63
597.463	27653.23
597.822	27671.08
598.18	27615.49
598.538	27548.6
598.897	27865.88
599.255	27496.62
599.613	27968.47
599.972	27637.63
600.33	27707.01
600.688	27607.58
601.046	27726.9
601.404	27833.34
601.762	27889.38
602.12	27830.4
602.478	27915.82
602.836	27834.47
603.194	27613.91
603.552	27701.81
603.91	27686.67
604.268	27793.11
604.625	27688.93
604.983	27886.22
605.341	27769.83
605.698	27889.83
606.056	27984.07
606.413	27878.98
606.771	28046.44
607.128	27856.16
607.485	27917.18
607.843	27911.3
608.2	27935.48
608.557	28227
608.914	28121.69
609.272	28180.45
609.629	28238.3
609.986	28274.68
610.343	28197.17
610.7	28523.04
611.057	28306.77
611.414	28219.31
611.771	28480.78
612.127	28514
612.484	28425.86
612.841	28695.23
613.198	28334.57
613.554	28372.98
613.911	28662.24
614.267	28741.79
614.624	28601.23
614.98	28611.39
615.337	28876.02
615.693	28870.37
616.05	28729.58
616.406	28890.48
616.762	28765.74
617.118	28827.89
617.475	28795.8
617.831	28889.13
618.187	29083.25
618.543	28929.58
618.899	29175.9
619.255	29143.36
619.611	29147.2
619.967	29288.21
620.323	29324.14
620.678	29105.62
621.034	29101.78
621.39	29170.93
621.746	29195.33
622.101	29498.6
622.457	29268.1
622.812	29403.46
623.168	29307.87
623.523	29467.64
623.879	29407.08
624.234	29416.35
624.589	29393.97
624.945	29445.04
625.3	29454.54
625.655	29507.64
626.01	29383.35
626.365	29424.93
626.72	29448.21
627.075	29523.91
627.43	29362.34
627.785	29429.23
628.14	29467.42
628.495	29475.1
628.85	29393.52
629.205	29361.66
629.559	29331.6
629.914	29218.38
630.269	29302.45
630.623	29266.97
630.978	29162.79
631.332	29339.29
631.687	29289.79
632.041	29195.33
632.396	29215.67
632.75	29281.21
633.104	29177.93
633.459	29137.26
633.813	29045.06
634.167	28988.56
634.521	28995.34
634.875	29083.25
635.229	28899.52
635.583	28938.62
635.937	28768.68
636.291	28804.61
636.645	28791.28
636.999	28714.89
637.352	28808.23
637.706	28725.52
638.06	28648.46
638.413	28681.45
638.767	28592.41
639.121	28561
639.474	28407.78
639.828	28545.86
640.181	28410.95
640.534	28508.8
640.888	28335.47
641.241	28295.7
641.594	28354
641.947	28349.25
642.301	28317.17
642.654	28295.24
643.007	28211.86
643.36	28365.3
643.713	28229.03
644.066	28391.29
644.419	28210.5
644.771	27777.97
645.124	27609.84
645.477	27602.83
645.83	27525.77
646.182	27537.3
646.535	27559.44
646.888	27474.93
647.24	27308.15
647.593	27598.99
647.945	27364.87
648.298	27349.73
648.65	27331.65
649.002	27164.2
649.355	26914.49
649.707	26878.78
650.059	26849.41
650.411	27318.77
650.763	27460.69
651.115	27900.23
651.467	27798.99
651.819	27740.01
652.171	27740.68
652.523	27648.26
652.875	27803.28
653.227	27606
653.578	27841.25
653.93	27651.19
654.282	27663.62
654.633	27631.31
654.985	27850.74
655.337	27687.8
655.688	27635.38
656.039	27763.96
656.391	27530.97
656.742	27618.43
657.094	27662.27
657.445	27710.18
657.796	27802.15
658.147	27682.38
658.498	27664.75
658.849	27697.52
659.2	27676.05
659.551	27626.11
659.902	27796.95
660.253	27564.42
660.604	27830.85
660.955	27667.69
661.306	27838.08
661.656	27744.3
662.007	27736.16
662.358	27723.51
662.708	27735.26
663.059	27742.49
663.409	27579.56
663.76	27782.04
664.11	27784.3
664.461	27889.38
664.811	27908.59
665.161	27822.04
665.511	27765.54
665.862	27671.98
666.212	27834.69
666.562	27835.6
666.912	27757.63
667.262	27762.38
667.612	27854.8
667.962	27909.04
668.312	27787.91
668.662	27872.43
669.011	27897.52
669.361	27861.81
669.711	27865.88
670.06	27797.63
670.41	27787.46
670.76	27827.69
671.109	27814.35
671.459	27756.5
671.808	27860.91
672.157	27827.46
672.507	27687.58
672.856	27639.44
673.205	27608.94
673.554	27728.03
673.904	27660.91
674.253	27827.69
674.602	27582.5
674.951	27279.45
675.3	27084.88
675.649	27629.73
675.998	27558.09
676.346	27598.99
676.695	27589.73
677.044	27399.9
677.393	27418.43
677.741	27546.11
678.09	27509.28
678.438	27416.62
678.787	27491.88
679.135	27469.96
679.484	27234.48
679.832	27304.76
680.181	27154.94
680.529	27260.47
680.877	27147.25
681.225	27198.32
681.573	27270.64
681.922	27141.15
682.27	26916.07
682.618	27029.06
682.966	26973.7
683.314	26887.37
683.661	26985.45
684.009	26840.82
684.357	26772.12
684.705	26710.43
685.053	26693.93
685.4	26550.66
685.748	26580.26
686.095	26365.13
686.443	26356.99
686.79	26270.21
687.138	26368.74
687.485	26107.96
687.832	26225.47
688.18	26142.53
688.527	25930.11
688.874	25956.1
689.221	25987.96
689.568	25793.62
689.915	25626.39
690.262	25765.14
690.609	25605.6
690.956	25596.56
691.303	25531.02
691.65	25256.91
691.997	25311.59
692.344	25233.63
692.69	25034.99
693.037	25113.18
693.383	24790.93
693.73	24907.76
694.077	24843.13
694.423	24708.22
694.769	24563.14
695.116	24547.77
695.462	24354.78
695.808	24298.97
696.155	24359.08
696.501	24245.86
696.847	24219.65
697.193	24090.84
697.539	24060.33
697.885	23943.95
698.231	23786.21
698.577	23678.19
698.923	23607.68
699.269	23560.45
699.614	23467.35
699.96	23354.58
700.306	23361.36
700.651	23114.59
700.997	23099.45
701.342	23012.22
701.688	22931.77
702.033	22829.4
702.379	22851.32
702.724	22756.41
703.069	22776.97
703.415	22473.93
703.76	22514.15
704.105	22490.88
704.45	22383.08
704.795	22308.51
705.14	22259.25
705.485	22192.13
705.83	21987.39
706.175	22113.26
706.52	21994.17
706.865	21923.89
707.209	21881.85
707.554	21797.56
707.899	21859.71
708.243	21697
708.588	21638.7
708.932	21504.01
709.277	21593.05
709.621	21434.41
709.966	21356.9
710.31	21446.39
710.654	21193.74
710.998	21346.5
711.342	21382.21
711.687	21198.26
712.031	21144.47
712.375	21030.58
712.719	20992.84
713.063	20964.82
713.407	21130.69
713.75	20937.47
714.094	21102.89
714.438	20732.96
714.782	20892.28
715.125	20747.65
715.469	20880.07
715.812	20733.64
716.156	20676.91
716.499	20640.98
716.843	20724.14
717.186	20556.01
717.53	20670.13
717.873	20741.55
718.216	20629.46
718.559	20720.08
718.902	20447.54
719.246	20555.11
719.589	20534.77
719.932	20420.88
720.275	20440.08
720.617	20447.77
720.96	20365.96
721.303	20425.62
721.646	20514.66
721.989	20355.34
722.331	20485.96
722.674	20369.8
723.016	20345.17
723.359	20288.9
723.701	20329.8
724.044	20320.54
724.386	20255
724.729	20310.82
725.071	20262.46
725.413	20335.68
725.755	20253.42
726.097	20215.91
726.439	20193.31
726.782	20215.01
727.124	20267.21
727.465	20298.84
727.807	20162.13
728.149	20308.11
728.491	20220.88
728.833	20219.3
729.175	20221.11
729.516	20149.47
729.858	20276.02
730.199	20276.02
730.541	20358.73
730.882	20313.76
731.224	20315.34
731.565	20158.51
731.906	20334.1
732.248	20410.93
732.589	20278.73
732.93	20249.35
733.271	20292.97
733.612	20278.51
733.953	20320.99
734.294	20353.98
734.635	20243.03
734.976	20313.53
735.317	20320.09
735.658	20334.32
735.999	20425.62
736.339	20483.92
736.68	20535
737.021	20528.44
737.361	20423.81
737.702	20657.93
738.042	20459.29
738.383	20638.95
738.723	20683.47
739.063	20659.06
739.404	20704.71
739.744	20767.31
740.084	20711.94
740.424	20925.04
740.764	20873.74
741.104	21084.59
741.444	21037.58
741.784	20981.31
742.124	21200.74
742.464	21184.92
742.804	21212.27
743.143	21271.47
743.483	21280.06
743.823	21355.77
744.162	21460.85
744.502	21467.4
744.841	21479.38
745.181	21708.98
745.52	21640.73
745.86	21806.15
746.199	21860.61
746.538	21984.22
746.877	22101.51
747.216	22217.66
747.556	22303.31
747.895	22308.06
748.234	22477.54
748.573	22544.89
748.911	22642.74
749.25	22742.62
749.589	22671.66
749.928	22873.69
750.267	23105.55
750.605	23191.65
750.944	23327.69
751.283	23460.12
751.621	23570.62
751.96	23628.7
752.298	23804.52
752.636	23997.28
752.975	24026.88
753.313	24153.66
753.651	24444.5
753.989	24552.29
754.327	24690.82
754.666	24626.87
755.004	24870.48
755.342	24992.96
755.679	25360.41
756.017	25150.02
756.355	25510.23
756.693	25485.38
757.031	25825.25
757.368	25800.17
757.706	25895.99
758.044	26045.81
758.381	26201.74
758.719	26285.35
759.056	26447.61
759.394	26482.64
759.731	26577.1
760.068	26660.71
760.405	26840.59
760.743	26891.89
761.08	27106.12
761.417	27095.28
761.754	27232.67
762.091	27333.46
762.428	27406.45
762.765	27450.07
763.102	27609.39
763.438	27681.93
763.775	27660.23
764.112	27774.13
764.449	27867.91
764.785	27908.36
765.122	27868.59
765.458	27915.82
765.795	27975.25
766.131	28076.95
766.467	28047.79
766.804	27982.48
767.14	27940.45
767.476	28109.03
767.812	28085.31
768.148	28156.49
768.485	28181.8
768.821	28121.24
769.157	28173.44
769.492	28118.3
769.828	28194.91
770.164	28095.7
770.5	28038.08
770.836	28164.17
771.171	28088.92
771.507	28068.81
771.842	27997.85
772.178	27981.81
772.513	27889.61
772.849	27974.12
773.184	27964.18
773.519	27895.48
773.855	27879.66
774.19	27844.86
774.525	27802.83
774.86	27836.95
775.195	27796.27
775.53	27732.32
775.865	27648.71
776.2	27450.07
776.535	27396.29
776.87	27389.51
777.205	27193.58
777.539	27200.36
777.874	27273.35
778.209	27068.38
778.543	27032.68
778.878	27005.11
779.212	26973.47
779.547	26861.84
779.881	26811.44
780.215	26775.28
780.55	26720.82
780.884	26532.35
781.218	26557.21
781.552	26629.53
781.886	26467.72
782.22	26238.8
782.554	26199.48
782.888	26041.07
783.222	26078.35
783.556	25877
783.889	25924.23
784.223	25683.79
784.557	25780.06
784.89	25816.21
785.224	25674.07
785.557	25533.51
785.891	25482.44
786.224	25445.15
786.558	25428.65
786.891	25218.94
787.224	25110.7
787.557	25030.7
787.891	25036.8
788.224	24941.21
788.557	24984.6
788.89	24901.66
789.223	24842.45
789.556	24660.99
789.888	24621.67
790.221	24513.42
790.554	24478.17
790.887	24448.57
791.219	24277.27
791.552	24276.59
791.884	24261.9
792.217	24166.77
792.549	24112.3
792.882	23902.59
793.214	23959.99
793.546	23941.46
793.879	23651.53
794.211	23464.86
794.543	23744.63
794.875	23596.61
795.207	23583.73
795.539	23499.21
795.871	23473.45
796.203	23345.09
796.535	23226.45
796.867	23199.56
797.198	23064.65
797.53	23116.4
797.862	22900.58
798.193	22870.53
798.525	22704.43
798.856	22789.17
799.188	22668.5
799.519	22504.66
799.85	22593.7
800.182	22477.32
800.513	22500.59
800.844	22159.13
801.175	22343.76
801.506	22290.88
801.837	22191.9
802.168	22198.68
802.499	22226.48
802.83	21963.89
803.161	21994.85
803.491	21948.07
803.822	21934.28
804.153	21786.26
804.483	21831.23
804.814	21489.55
805.145	21675.31
805.475	21574.52
805.805	21571.81
806.136	21545.59
806.466	21469.44
806.796	21383.11
807.126	21287.07
807.457	21216.79
807.787	21274.19
808.117	21208.43
808.447	21020.86
808.777	21240.74
809.107	21020.86
809.436	20968.66
809.766	20877.13
810.096	20920.07
810.426	20833.07
810.755	20855.67
811.085	20729.79
811.414	20792.62
811.744	20708.55
812.073	20612.51
812.403	20549.91
812.732	20541.55
813.061	20624.26
813.39	20436.69
813.719	20464.94
814.049	20507.43
814.378	20429.91
814.707	20242.8
815.036	20395.57
815.365	20193.08
815.693	20087.55
816.022	20170.03
816.351	20008.23
816.68	19934.79
817.008	19900.44
817.337	19817.05
817.665	19925.97
817.994	19811.85
818.322	19859.99
818.651	19705.19
818.979	19748.58
819.307	19765.75
819.636	19729.37
819.964	19587.23
820.292	19681.46
820.62	19578.64
820.948	19671.29
821.276	19723.27
821.604	19590.16
821.932	19724.62
822.259	19677.62
822.587	19564.4
822.915	19575.02
823.243	19615.02
823.57	19488.02
823.898	19667
824.225	19652.76
824.553	19622.25
824.88	19543.84
825.207	19649.37
825.535	19528.24
825.862	19645.53
826.189	19599.2
826.516	19768.92
826.843	19536.6
827.17	19736.15
827.497	19718.75
827.824	19664.96
828.151	19801.68
828.478	19578.19
828.805	19813.66
829.131	19675.13
829.458	19790.84
829.785	19625.87
830.111	19697.73
830.438	19852.08
830.764	19706.32
831.09	19796.03
831.417	19563.72
831.743	19821.57
832.069	19617.51
832.395	19619.77
832.722	19642.14
833.048	19621.35
833.374	19757.84
833.7	19676.71
834.026	19657.05
834.351	19657.05
834.677	19594.68
835.003	19583.38
835.329	19521.46
835.654	19568.92
835.98	19424.74
836.306	19621.8
836.631	19394.69
836.956	19520.33
837.282	19523.72
837.607	19416.83
837.932	19404.41
838.258	19451.64
838.583	19381.35
838.908	19275.14
839.233	19337.51
839.558	19294.58
839.883	19278.76
840.208	19081.93
840.533	19186.78
840.858	19099.1
841.182	19250.74
841.507	19152.21
841.832	19040.35
842.156	19086.67
842.481	19024.75
842.805	18993.57
843.13	18844.42
843.454	18884.64
843.778	18827.92
844.103	18814.82
844.427	18776.17
844.751	18767.13
845.075	18746.57
845.399	18641.71
845.723	18557.2
846.047	18621.6
846.371	18466.35
846.695	18435.84
847.019	18372.57
847.343	18137.77
847.666	18200.14
847.99	18080.37
848.313	18021.16
848.637	18028.4
848.96	18026.36
849.284	17953.14
849.607	17812.13
849.931	17764
850.254	17730.78
850.577	17538.24
850.9	17476.55
851.223	17432.71
851.546	17266.61
851.869	17247.85
852.192	17354.74
852.515	17211.24
852.838	17086.95
853.161	17085.14
853.483	17013.96
853.806	17005.15
854.129	16833.63
854.451	16863.45
854.774	16710.92
855.096	16750.24
855.419	16637.47
855.741	16571.49
856.063	16423.92
856.385	16461.88
856.708	16360.19
857.03	16413.52
857.352	16336.01
857.674	16356.35
857.996	16253.75
858.318	16170.82
858.64	16200.87
858.961	16021.44
859.283	16058.73
859.605	15988.22
859.926	16000.2
860.248	15954.78
860.57	15808.34
860.891	15927.43
861.212	15711.17
861.534	15807.21
861.855	15688.34
862.176	15777.16
862.498	15709.13
862.819	15759.08
863.14	15634.56
863.461	15594.11
863.782	15484.28
864.103	15533.32
864.424	15453.55
864.745	15519.08
865.065	15491.51
865.386	15388.92
865.707	15367
866.027	15323.16
866.348	15363.83
866.668	15264.17
866.989	15226.44
867.309	15169.49
867.63	15129.26
867.95	15229.6
868.27	15179.43
868.59	15132.2
868.91	15173.56
869.23	15165.87
869.55	15088.59
869.87	15055.37
870.19	14956.39
870.51	15025.09
870.83	15006.33
871.15	14840.91
871.469	14871.19
871.789	14895.6
872.109	14776.05
872.428	14704.87
872.748	14857.86
873.067	14748.93
873.386	14845.2
873.706	14647.69
874.025	14632.55
874.344	14651.08
874.663	14674.81
874.982	14702.16
875.301	14605.44
875.62	14547.36
875.939	14485.21
876.258	14542.16
876.577	14461.94
876.896	14579.9
877.214	14535.61
877.533	14516.62
877.852	14464.65
878.17	14395.05
878.489	14461.48
878.807	14333.8
879.125	14426.68
879.444	14352.33
879.762	14265.33
880.08	14401.15
880.398	14277.99
880.716	14268.72
881.034	14221.49
881.352	14194.82
881.67	14092
881.988	14137.2
882.306	14056.3
882.624	14055.39
882.941	14073.02
883.259	13988.95
883.577	13918.45
883.894	13897.88
884.212	13889.3
884.529	13846.13
884.846	13800.94
885.164	13749.86
885.481	13767.04
885.798	13818.79
886.115	13687.95
886.432	13735.63
886.75	13590.09
887.067	13715.74
887.383	13600.04
887.7	13515.52
888.017	13515.97
888.334	13438.01
888.651	13382.87
888.967	13438.69
889.284	13306.71
889.6	13292.02
889.917	13268.97
890.233	13293.38
890.55	13236.43
890.866	13250.22
891.182	13148.98
891.498	13125.7
891.815	13068.53
892.131	12970.45
892.447	12958.02
892.763	13007.06
893.079	12991.01
893.395	12942.88
893.71	12820.62
894.026	12798.25
894.342	12770.91
894.657	12671.93
894.973	12657.01
895.289	12704.69
895.604	12650.46
895.92	12567.52
896.235	12551.93
896.55	12508.77
896.865	12488.2
897.181	12447.07
897.496	12412.5
897.811	12372.95
898.126	12277.59
898.441	12221.32
898.756	12259.73
899.071	12254.31
899.386	12198.72
899.7	12072.62
900.015	12010.02
900.33	11889.35
900.644	11842.34
900.959	11840.99
901.273	11864.94
901.588	11827.66
901.902	11763.7
902.216	11707.21
902.531	11809.8
902.845	11671.73
903.159	11532.52
903.473	11564.39
903.787	11485.29
904.101	11465.63
904.415	11478.74
904.729	11407.33
905.042	11262.25
905.356	11291.62
905.67	11287.78
905.984	11324.39
906.297	11230.16
906.611	11103.61
906.924	11118.3
907.237	11051.86
907.551	11072.65
907.864	10954.46
908.177	11008.69
908.491	10842.14
908.804	10833.78
909.117	10814.35
909.43	10647.35
909.743	10657.29
910.056	10745.42
910.368	10642.6
910.681	10641.02
910.994	10537.75
911.307	10523.51
911.619	10325.55
911.932	10341.14
912.244	10323.51
912.557	10288.94
912.869	10258.66
913.181	10240.35
913.494	10210.75
913.806	10105.21
914.118	10127.59
914.43	10128.94
914.742	10050.75
915.054	9948.61
915.366	9898.67
915.678	9902.73
915.99	9919.46
916.302	9828.61
916.613	9767.37
916.925	9827.03
917.236	9765.56
917.548	9672.68
917.859	9712.23
918.171	9627.26
918.482	9540.71
918.794	9482.41
919.105	9481.28
919.416	9466.14
919.727	9405.35
920.038	9319.25
920.349	9330.09
920.66	9248.97
920.971	9299.13
921.282	9260.94
921.593	9164.9
921.903	9068.41
922.214	9087.61
922.525	9047.39
922.835	9022.53
923.146	8983.44
923.456	9018.01
923.767	8869.31
924.077	8824.57
924.387	8857.56
924.697	8780.05
925.008	8750.67
925.318	8772.37
925.628	8684.46
925.938	8706.38
926.248	8535.99
926.558	8511.36
926.867	8591.36
927.177	8503
927.487	8456.9
927.796	8495.09
928.106	8461.87
928.416	8368.76
928.725	8457.12
929.034	8372.6
929.344	8326.28
929.653	8237.92
929.962	8160.18
930.271	8182.55
930.581	8082.22
930.89	8132.16
931.199	8037.92
931.508	8022.33
931.817	8020.07
932.125	8005.16
932.434	7966.29
932.743	7871.15
933.051	7819.17
933.36	7846.74
933.669	7755.67
933.977	7769.91
934.286	7664.83
934.594	7718.84
934.902	7603.13
935.21	7645.17
935.519	7582.79
935.827	7549.58
936.135	7547.54
936.443	7423.7
936.751	7420.54
937.059	7463.02
937.367	7361.56
937.674	7378.05
937.982	7299.86
938.29	7318.62
938.597	7289.92
938.905	7200.66
939.213	7159.76
939.52	7180.32
939.827	7175.8
940.135	7061
940.442	7065.97
940.749	7043.6
941.056	7010.38
941.363	7019.42
941.67	6941
941.977	6944.85
942.284	6902.59
942.591	6811.52
942.898	6832.08
943.205	6831.63
943.511	6798.86
943.818	6760.22
944.125	6676.83
944.431	6684.29
944.738	6648.13
945.044	6577.17
945.35	6593.44
945.657	6582.37
945.963	6552.09
946.269	6518.19
946.575	6472.77
946.881	6448.59
947.187	6473.22
947.493	6401.13
947.799	6373.79
948.105	6357.06
948.41	6281.59
948.716	6254.47
949.022	6292.21
949.327	6175.15
949.633	6204.53
949.938	6176.73
950.244	6191.65
950.549	6085.89
950.854	6044.98
951.16	6057.19
951.465	6028.94
951.77	5984.87
952.075	5995.94
952.38	5957.3
952.685	5957.75
952.99	5898.09
953.294	5880.92
953.599	5864.42
953.904	5815.84
954.209	5754.37
954.513	5775.16
954.818	5753.24
955.122	5747.14
955.426	5730.19
955.731	5704.65
956.035	5700.13
956.339	5653.13
956.643	5671.21
956.948	5552.34
957.252	5583.98
957.556	5560.02
957.86	5527.03
958.163	5530.42
958.467	5550.31
958.771	5525.22
959.075	5467.37
959.378	5424.66
959.682	5423.98
959.985	5355.51
960.289	5328.16
960.592	5313.93
960.896	5273.25
961.199	5247.72
961.502	5279.35
961.805	5240.26
962.108	5156.87
962.411	5209.75
962.714	5117.78
963.017	5130.66
963.32	5065.35
963.623	5060.38
963.926	5088.85
964.228	5045.01
964.531	5023.77
964.833	5039.36
965.136	5014.5
965.438	4941.06
965.741	4913.71
966.043	4906.71
966.345	4879.59
966.648	4881.17
966.95	4847.73
967.252	4791.23
967.554	4820.38
967.856	4803.66
968.158	4749.2
968.46	4741.29
968.761	4686.6
969.063	4697.45
969.365	4687.05
969.666	4635.98
969.968	4601.86
970.269	4579.03
970.571	4604.12
970.872	4606.15
971.174	4531.58
971.475	4552.14
971.776	4551.69
972.077	4509.88
972.378	4525.7
972.679	4450.9
972.98	4433.05
973.281	4424.46
973.582	4418.81
973.883	4367.74
974.183	4375.87
974.484	4358.7
974.785	4331.36
975.085	4345.37
975.386	4318.7
975.686	4243.45
975.986	4229.21
976.287	4207.52
976.587	4210.91
976.887	4193.96
977.187	4199.61
977.487	4214.97
977.787	4151.02
978.087	4103.11
978.387	4109.21
978.687	4095.43
978.987	4044.13
979.286	4052.49
979.586	4040.74
979.885	4017.24
980.185	3998.26
980.484	3963.68
980.784	3954.19
981.083	3941.76
981.382	3906.28
981.682	3914.87
981.981	3855.66
982.28	3899.5
982.579	3866.28
982.878	3873.06
983.177	3802.1
983.475	3802.56
983.774	3756.23
984.073	3743.8
984.372	3767.3
984.67	3730.47
984.969	3731.14
985.267	3723.91
985.566	3730.92
985.864	3668.55
986.162	3625.84
986.461	3626.06
986.759	3631.71
987.057	3568.66
987.355	3561.43
987.653	3536.35
987.951	3561.21
988.249	3516.91
988.547	3490.02
988.844	3494.77
989.142	3504.48
989.44	3484.15
989.737	3459.29
990.035	3449.12
990.332	3456.12
990.63	3395.79
990.927	3407.54
991.224	3375.45
991.521	3315.34
991.819	3333.87
992.116	3329.8
992.413	3319.18
992.71	3293.19
993.006	3271.95
993.303	3276.69
993.6	3247.32
993.897	3262
994.193	3202.35
994.49	3196.24
994.787	3140.65
995.083	3130.71
995.379	3148.56
995.676	3149.69
995.972	3134.1
996.268	3105.85
996.565	3072.41
996.861	3102.01
997.157	3022.69
997.453	3044.61
997.749	2996.47
998.044	3036.47
998.34	2997.6
998.636	2968.23
998.932	2964.39
999.227	2925.74
999.523	2938.85
999.818	2895.01
1000.114	2880.32
1000.409	2883.26
1000.704	2856.37
1001	2813.65
1001.295	2834.67
1001.59	2790.38
1001.885	2840.55
1002.18	2756.71
1002.475	2756.48
1002.77	2759.19
1003.065	2754.45
1003.359	2715.58
1003.654	2737.27
1003.949	2717.16
1004.243	2646.65
1004.538	2648.46
1004.832	2669.48
1005.127	2683.26
1005.421	2614.11
1005.715	2619.76
1006.009	2610.27
1006.304	2573.89
1006.598	2588.35
1006.892	2556.94
1007.186	2524.17
1007.48	2547.22
1007.773	2510.16
1008.067	2462.93
1008.361	2476.71
1008.655	2461.35
1008.948	2445.75
1009.242	2456.6
1009.535	2409.6
1009.829	2414.8
1010.122	2399.43
1010.415	2374.12
1010.708	2323.05
1011.001	2377.28
1011.295	2328.02
1011.588	2269.94
1011.881	2305.19
1012.173	2300.67
1012.466	2285.53
1012.759	2246.44
1013.052	2261.13
1013.344	2222.03
1013.637	2209.83
1013.93	2214.8
1014.222	2222.26
1014.514	2178.42
1014.807	2183.61
1015.099	2160.56
1015.391	2128.02
1015.683	2137.74
1015.976	2062.71
1016.268	2110.17
1016.56	2092.09
1016.851	2058.19
1017.143	2055.71
1017.435	2040.79
1017.727	2044.86
1018.018	2026.1
1018.31	2005.31
1018.602	2005.31
1018.893	1998.08
1019.185	1983.39
1019.476	1969.61
1019.767	1930.74
1020.058	1918.31
1020.35	1909.5
1020.641	1910.4
1020.932	1905.88
1021.223	1852.78
1021.514	1876.05
1021.804	1847.13
1022.095	1841.25
1022.386	1813.23
1022.677	1789.73
1022.967	1791.76
1023.258	1798.09
1023.548	1742.27
1023.839	1791.53
1024.129	1774.81
1024.419	1758.09
1024.709	1724.64
1025	1698.43
1025.29	1703.18
1025.58	1701.14
1025.87	1690.07
1026.16	1652.1
1026.449	1677.41
1026.739	1663.85
1027.029	1657.53
1027.319	1637.87
1027.608	1623.4
1027.898	1622.27
1028.187	1603.29
1028.477	1570.07
1028.766	1577.98
1029.055	1545.89
1029.344	1545.67
1029.634	1565.55
1029.923	1529.62
1030.212	1506.34
1030.501	1509.51
1030.79	1495.72
1031.078	1483.07
1031.367	1435.61
1031.656	1458.89
1031.945	1469.06
1032.233	1457.98
1032.522	1425.67
1032.81	1411.88
1033.099	1400.81
1033.387	1400.36
1033.675	1367.14
1033.963	1356.29
1034.251	1391.32
1034.54	1379.79
1034.828	1359.68
1035.116	1347.48
1035.403	1354.71
1035.691	1323.52
1035.979	1320.59
1036.267	1306.8
1036.554	1308.16
1036.842	1291.43
1037.129	1282.85
1037.417	1303.86
1037.704	1255.05
1037.992	1270.87
1038.279	1278.33
1038.566	1249.18
1038.853	1249.18
1039.14	1249.18
