Data from 18-4525_FLMS001491_004.txt Node
Date: Thu Apr 19 16:42:43 BST 2018
User: hsy
Spectrometer: FLMS00149
Trigger mode: 0
Integration Time (sec): 1.000000E-2
Scans to average: 10
Electric dark correction enabled: true
Nonlinearity correction enabled: false
Boxcar width: 0
XAxis mode: Wavelengths
Number of Pixels in Spectrum: 2048
>>>>>Begin Spectral Data<<<<<
341.393	-2.34
341.776	-2.34
342.16	-2.34
342.543	-42.12
342.927	-73.3
343.31	-76.47
343.693	-49.35
344.077	-53.64
344.46	-60.42
344.843	-57.26
345.226	-24.26
345.61	-36.92
345.993	-7.77
346.376	2.18
346.759	6.92
347.142	7.82
347.525	24.1
347.908	55.73
348.291	72.46
348.674	80.14
349.057	116.75
349.44	104.77
349.823	153.36
350.206	157.2
350.588	233.81
350.971	239.68
351.354	259.12
351.737	265.44
352.119	281.26
352.502	288.27
352.884	302.28
353.267	319
353.65	335.5
354.032	322.84
354.414	306.35
354.797	371.88
355.179	353.13
355.562	347.93
355.944	361.94
356.326	369.4
356.709	349.51
357.091	363.07
357.473	358.1
357.855	353.8
358.238	376.63
358.62	370.98
359.002	370.08
359.384	378.44
359.766	399
360.148	373.46
360.53	387.48
360.912	387.7
361.294	356.06
361.676	384.09
362.057	378.21
362.439	358.32
362.821	359
363.203	369.62
363.584	347.7
363.966	379.34
364.348	352.22
364.729	371.66
365.111	352.45
365.493	351.54
365.874	359
366.256	365.56
366.637	340.47
367.019	368.27
367.4	371.2
367.781	362.17
368.163	356.74
368.544	370.08
368.925	363.97
369.306	375.27
369.688	359.23
370.069	369.62
370.45	377.98
370.831	371.2
371.212	370.08
371.593	363.07
371.974	353.35
372.355	349.96
372.736	367.36
373.117	349.06
373.498	378.66
373.879	370.98
374.26	378.89
374.641	349.51
375.021	375.5
375.402	362.39
375.783	378.21
376.163	411.88
376.544	402.16
376.925	387.7
377.305	404.65
377.686	392
378.066	367.14
378.447	387.7
378.827	409.62
379.208	395.39
379.588	390.19
379.968	402.84
380.349	413.01
380.729	413.01
381.109	401.71
381.489	431.54
381.87	398.55
382.25	424.08
382.63	414.59
383.01	415.27
383.39	441.26
383.77	436.97
384.15	416.18
384.53	423.86
384.91	445.78
385.29	434.48
385.67	441.26
386.049	443.75
386.429	432.9
386.809	441.94
387.189	450.75
387.568	432.45
387.948	457.76
388.328	476.06
388.707	481.48
389.087	456.85
389.466	473.12
389.846	484.65
390.225	481.03
390.605	482.16
390.984	479.9
391.363	476.06
391.743	485.55
392.122	489.85
392.501	468.83
392.881	498.89
393.26	489.39
393.639	518.77
394.018	498.43
394.397	521.03
394.776	503.86
395.155	549.05
395.534	520.58
395.913	515.38
396.292	548.83
396.671	536.17
397.05	549.05
397.429	553.8
397.808	543.18
398.186	550.64
398.565	585.66
398.944	561.03
399.323	561.71
399.701	586.34
400.08	591.09
400.458	566
400.837	599
401.215	573.01
401.594	588.6
401.972	618.2
402.351	599.9
402.729	658.65
403.107	619.33
403.486	643.29
403.864	635.15
404.242	635.83
404.62	653.91
404.999	642.61
405.377	668.37
405.755	652.33
406.133	678.77
406.511	686.45
406.889	706.79
407.267	708.15
407.645	708.6
408.023	731.65
408.401	729.84
408.779	723.51
409.156	717.86
409.534	773.45
409.912	779.33
410.29	774.58
410.667	784.53
411.045	810.97
411.422	817.07
411.8	798.76
412.178	819.55
412.555	833.79
412.933	874.47
413.31	855.49
413.687	914.02
414.065	862.72
414.442	901.81
414.819	906.78
415.197	907.01
415.574	932.09
415.951	942.94
416.328	934.81
416.705	970.06
417.082	954.69
417.46	961.25
417.837	999.66
418.214	999.66
418.591	1003.28
418.967	1026.33
419.344	1013.9
419.721	1028.36
420.098	1000.57
420.475	1057.74
420.852	1049.15
421.228	1054.35
421.605	1072.43
421.982	1078.3
422.358	1093.9
422.735	1141.58
423.111	1154.91
423.488	1151.75
423.864	1151.3
424.241	1194.23
424.617	1143.39
424.994	1205.08
425.37	1195.14
425.746	1234.69
426.123	1250.96
426.499	1249.6
426.875	1277.85
427.251	1288.24
427.627	1296.15
428.003	1313.33
428.379	1342.93
428.756	1347.9
429.132	1356.49
429.507	1364.17
429.883	1395.58
430.259	1437.17
430.635	1446.2
431.011	1438.75
431.387	1472.42
431.763	1492.98
432.138	1493.66
432.514	1511.51
432.89	1522.59
433.265	1572.08
433.641	1572.08
434.016	1611.4
434.392	1609.36
434.767	1694.79
435.143	1669.02
435.518	1684.39
435.894	1737.95
436.269	1749.93
436.644	1780.89
437.02	1809.13
437.395	1830.83
437.77	1845.97
438.145	1866.08
438.52	1863.82
438.895	1900.88
439.271	1891.84
439.646	1933.65
440.021	1976.81
440.395	1956.93
440.77	1962.8
441.145	1985.85
441.52	2040.99
441.895	2038.05
442.27	2041.9
442.645	2057.71
443.019	2057.71
443.394	2097.04
443.769	2126.64
444.143	2119.18
444.518	2138.84
444.892	2162.12
445.267	2177.94
445.641	2194.89
446.016	2183.13
446.39	2181.78
446.764	2218.39
447.139	2261.1
447.513	2253.19
447.887	2270.14
448.262	2248.22
448.636	2296.58
449.01	2328.89
449.384	2346.29
449.758	2349.46
450.132	2421.09
450.506	2391.94
450.88	2428.55
451.254	2436.01
451.628	2469.68
452.002	2513.3
452.376	2518.49
452.75	2534.09
453.123	2563.92
453.497	2636
453.871	2633.74
454.244	2690.47
454.618	2705.83
454.992	2770.69
455.365	2773.63
455.739	2796
456.112	2860.86
456.486	2878.03
456.859	2930.69
457.232	2989.44
457.606	2986.28
457.979	3035.09
458.352	3084.35
458.725	3125.48
459.099	3158.02
459.472	3216.78
459.845	3247.51
460.218	3240.51
460.591	3315.53
460.964	3357.12
461.337	3381.75
461.71	3506.49
462.083	3505.81
462.456	3526.38
462.829	3513.04
463.201	3610.89
463.574	3628.07
463.947	3696.54
464.32	3748.07
464.692	3774.05
465.065	3789.87
465.438	3842.98
465.81	3893.6
466.183	3905.12
466.555	4014.95
466.928	4005.91
467.3	4055.63
467.672	4086.81
468.045	4189.86
468.417	4202.74
468.789	4255.17
469.161	4273.25
469.534	4366.35
469.906	4428.27
470.278	4478.67
470.65	4496.75
471.022	4562.51
471.394	4641.6
471.766	4698.32
472.138	4750.75
472.51	4835.04
472.882	4922.95
473.253	4928.15
473.625	5089.27
473.997	5092.66
474.369	5174.69
474.74	5218.76
475.112	5327.68
475.484	5395.25
475.855	5493.78
476.227	5557.51
476.598	5682.03
476.97	5726.77
477.341	5831.17
477.713	5977.39
478.084	6019.87
478.455	6149.36
478.827	6152.07
479.198	6330.37
479.569	6363.59
479.94	6531.95
480.311	6670.93
480.682	6747.53
481.053	6907.53
481.424	6998.15
481.795	7070.01
482.166	7179.84
482.537	7330.34
482.908	7455.54
483.279	7604.91
483.65	7727.4
484.021	7846.04
484.391	7923.77
484.762	8080.15
485.133	8177.78
485.503	8304.78
485.874	8525.34
486.244	8589.52
486.615	8778.67
486.985	8862.06
487.356	9048.04
487.726	9180.01
488.097	9327.13
488.467	9403.96
488.837	9627.23
489.207	9726.44
489.578	9961.91
489.948	10063.83
490.318	10239.19
490.688	10256.14
491.058	10398.96
491.428	10677.6
491.798	10732.74
492.168	10927.76
492.538	11067.65
492.908	11229
493.278	11380.18
493.648	11418.15
494.017	11655.43
494.387	11729.1
494.757	11843.22
495.126	12009.32
495.496	12049.32
495.866	12277.33
496.235	12406.14
496.605	12516.2
496.974	12579.92
497.344	12724.55
497.713	12853.81
498.082	13072.34
498.452	13184.2
498.821	13303.29
499.19	13365.89
499.559	13507.13
499.928	13535.83
500.298	13613.79
500.667	13890.85
501.036	13866.9
501.405	14027.79
501.774	14143.27
502.143	14287
502.512	14313.89
502.88	14580.32
503.249	14511.4
503.618	14628.68
503.987	14826.19
504.356	14815.12
504.724	15008.56
505.093	14986.19
505.462	15095.56
505.83	15242.68
506.199	15278.16
506.567	15526.06
506.936	15568.77
507.304	15727.41
507.672	15831.36
508.041	15920.4
508.409	16025.71
508.777	16172.37
509.145	16175.76
509.514	16308.86
509.882	16393.61
510.25	16412.14
510.618	16586.82
510.986	16591.8
511.354	16760.6
511.722	16861.84
512.09	16956.08
512.458	16984.1
512.826	17133.93
513.193	17206.92
513.561	17281.72
513.929	17309.97
514.297	17464.09
514.664	17590.41
515.032	17586.35
515.4	17739.34
515.767	17906.34
516.135	17942.72
516.502	17836.96
516.869	18140
517.237	18154.24
517.604	18067.69
517.972	18350.62
518.339	18463.38
518.706	18422.26
519.073	18482.14
519.44	18482.37
519.808	18834.67
520.175	18792.42
520.542	19015.91
520.909	19104.27
521.276	19155.34
521.643	19172.74
522.009	19314.21
522.376	19497.03
522.743	19445.96
523.11	19603.92
523.477	19844.59
523.843	19868.55
524.21	20100.18
524.577	20211.59
524.943	20198.93
525.31	20336.78
525.676	20443.67
526.043	20485.03
526.409	20650.45
526.776	20755.53
527.142	20819.48
527.508	20895.86
527.874	21070.55
528.241	21141.51
528.607	21118
528.973	21398.67
529.339	21315.74
529.705	21561.16
530.071	21653.58
530.437	21671.89
530.803	21798.66
531.169	21840.02
531.535	21850.87
531.901	21817.42
532.267	21875.72
532.632	22051.99
532.998	22027.13
533.364	22077.07
533.73	22105.1
534.095	22243.62
534.461	22134.25
534.826	22316.84
535.192	22291.53
535.557	22357.52
535.923	22359.33
536.288	22444.07
536.653	22459.44
537.019	22363.4
537.384	22358.65
537.749	22318.42
538.114	22431.64
538.479	22305.54
538.845	22361.81
539.21	22288.59
539.575	22385.09
539.94	22428.25
540.305	22428.03
540.67	22403.17
541.034	22385.09
541.399	22438.65
541.764	22350.51
542.129	22392.32
542.494	22298.99
542.858	22295.37
543.223	22248.14
543.587	22381.02
543.952	22193
544.316	22186
544.681	22153.01
545.045	22363.4
545.41	22289.72
545.774	22089.96
546.138	22128.82
546.503	22176.51
546.867	22048.38
547.231	22127.24
547.595	22216.51
547.959	22154.13
548.324	22126.79
548.688	21989.17
549.052	22107.36
549.416	22059.9
549.779	22046.79
550.143	21978.77
550.507	22040.69
550.871	22018.55
551.235	21943.52
551.599	22093.35
551.962	21995.27
552.326	21979.45
552.689	22016.96
553.053	21761.38
553.417	21932.45
553.78	22056.28
554.143	21997.75
554.507	21923.41
554.87	22047.47
555.234	22082.5
555.597	21867.36
555.96	21965.67
556.323	21958.89
556.686	21960.69
557.05	22058.54
557.413	22077.75
557.776	21927.02
558.139	22008.83
558.502	22130.41
558.865	22108.71
559.228	22158.2
559.59	22102.38
559.953	22011.54
560.316	22278.2
560.679	22211.53
561.041	22256.05
561.404	22238.2
561.767	22389.61
562.129	22189.84
562.492	22404.52
562.854	22449.95
563.217	22300.35
563.579	22369.72
563.941	22475.48
564.304	22657.85
564.666	22823.27
565.028	22705.31
565.39	22753.44
565.753	22869.82
566.115	22801.35
566.477	22957.96
566.839	22975.81
567.201	23238.63
567.563	23192.3
567.925	23277.27
568.287	23228.23
568.648	23249.47
569.01	23381.67
569.372	23578.96
569.734	23491.95
570.095	23755.67
570.457	23769.91
570.819	23779.18
571.18	23729.01
571.542	23959.74
571.903	23948.21
572.265	24081.77
572.626	24118.6
572.987	24136.68
573.349	24241.54
573.71	24300.07
574.071	24356.34
574.432	24459.39
574.794	24690.34
575.155	24644.69
575.516	24434.53
575.877	24680.62
576.238	24693.28
576.599	24776.21
576.96	24837
577.32	24781.41
577.681	24816.89
578.042	25093.49
578.403	24978.24
578.763	25015.3
579.124	24944.57
579.485	25245.58
579.845	25278.57
580.206	25189.76
580.566	25196.99
580.927	25187.28
581.287	25259.82
581.648	25204.22
582.008	25454.84
582.368	25276.31
582.728	25359.7
583.089	25239.25
583.449	25347.72
583.809	25349.31
584.169	25393.15
584.529	25399.7
584.889	25519.92
585.249	25235.18
585.609	25114.51
585.969	25337.1
586.329	25194.28
586.688	25349.98
587.048	25345.69
587.408	25162.64
587.768	25319.02
588.127	25309.08
588.487	25267.05
588.846	25429.08
589.206	25132.59
589.565	25216.65
589.925	25309.76
590.284	25319.02
590.643	25062.99
591.003	25309.76
591.362	25332.81
591.721	25281.28
592.08	25169.42
592.44	25169.2
592.799	25229.08
593.158	25186.15
593.517	25150.21
593.876	25124.23
594.235	25185.69
594.593	25085.13
594.952	25181.4
595.311	25090.1
595.67	25159.03
596.029	25166.49
596.387	25234.28
596.746	25229.99
597.104	25144.56
597.463	25142.76
597.822	25253.71
598.18	25129.2
598.538	25087.39
598.897	25251.91
599.255	25106.6
599.613	25382.07
599.972	25186.6
600.33	25213.49
600.688	25082.19
601.046	25165.58
601.404	25363.99
601.762	25172.36
602.12	25236.54
602.478	25312.92
602.836	25309.08
603.194	24985.02
603.552	25145.02
603.91	25070.67
604.268	25210.78
604.625	25156.99
604.983	25329.42
605.341	25140.95
605.698	25234.51
606.056	25435.86
606.413	25201.51
606.771	25355.86
607.128	25325.58
607.485	25247.84
607.843	25281.96
608.2	25408.51
608.557	25448.74
608.914	25299.59
609.272	25472.01
609.629	25605.12
609.986	25605.34
610.343	25455.74
610.7	25738.45
611.057	25672.91
611.414	25588.39
611.771	25729.41
612.127	25745.23
612.484	25800.37
612.841	25935.05
613.198	25761.5
613.554	25702.29
613.911	25861.83
614.267	25966.01
614.624	25868.16
614.98	25947.03
615.337	26123.97
615.693	26141.6
616.05	26047.14
616.406	26139.79
616.762	26062.28
617.118	26145.67
617.475	26090.3
617.831	26260.47
618.187	26270.18
618.543	26284.65
618.899	26482.38
619.255	26345.89
619.611	26422.95
619.967	26487.13
620.323	26540.91
620.678	26383.63
621.034	26478.09
621.39	26488.03
621.746	26526
622.101	26771.19
622.457	26530.07
622.812	26709.72
623.168	26636.5
623.523	26588.37
623.879	26717.4
624.234	26658.42
624.589	26613.9
624.945	26671.98
625.3	26707.91
625.655	26834.92
626.01	26774.35
626.365	26648.93
626.72	26621.81
627.075	26580.01
627.43	26685.99
627.785	26501.82
628.14	26679.89
628.495	26558.09
628.85	26679.21
629.205	26514.25
629.559	26692.32
629.914	26566.9
630.269	26512.89
630.623	26449.39
630.978	26468.6
631.332	26520.12
631.687	26600.57
632.041	26575.94
632.396	26538.43
632.75	26444.42
633.104	26445.77
633.459	26362.84
633.813	26389.28
634.167	26304.31
634.521	26336.4
634.875	26421.59
635.229	26395.83
635.583	26156.52
635.937	26154.03
636.291	26112
636.645	26220.24
636.999	26041.72
637.352	26255.27
637.706	26052.11
638.06	26112
638.413	25993.36
638.767	25985.22
639.121	26036.07
639.474	25882.62
639.828	25902.96
640.181	25912.91
640.534	25834.72
640.888	25825.9
641.241	25748.84
641.594	25736.87
641.947	25835.85
642.301	25790.88
642.654	25818.9
643.007	25656.19
643.36	25863.42
643.713	25701.61
644.066	25817.32
644.419	25617.55
644.771	25363.32
645.124	25099.59
645.477	25207.16
645.83	25262.98
646.182	25146.82
646.535	25100.95
646.888	25168.29
647.24	25029.09
647.593	25292.13
647.945	25007.62
648.298	25055.3
648.65	25069.99
649.002	24808.53
649.355	24644.69
649.707	24540.51
650.059	24643.56
650.411	24900.5
650.763	25203.32
651.115	25601.95
651.467	25452.81
651.819	25605.57
652.171	25500.49
652.523	25355.63
652.875	25419.13
653.227	25295.3
653.578	25503.65
653.93	25458.68
654.282	25369.87
654.633	25340.27
654.985	25414.39
655.337	25491.9
655.688	25460.94
656.039	25424.11
656.391	25307.27
656.742	25474.5
657.094	25371.45
657.445	25531
657.796	25612.58
658.147	25427.72
658.498	25512.92
658.849	25714.95
659.2	25560.6
659.551	25518.57
659.902	25597.43
660.253	25600.37
660.604	25608.28
660.955	25523.54
661.306	25600.15
661.656	25546.81
662.007	25705.23
662.358	25620.48
662.708	25742.74
663.059	25694.38
663.409	25519.92
663.76	25706.81
664.11	25795.4
664.461	25778.9
664.811	25849.63
665.161	25650.54
665.511	25667.49
665.862	25738
666.212	25873.81
666.562	25827.48
666.912	25772.12
667.262	25751.1
667.612	25823.19
667.962	25776.19
668.312	25688.73
668.662	25894.83
669.011	25801.27
669.361	25738.67
669.711	25822.74
670.06	25846.69
670.41	25826.13
670.76	25745.9
671.109	25924.66
671.459	25747.94
671.808	25733.02
672.157	25748.16
672.507	25658.68
672.856	25634.04
673.205	25668.39
673.554	25814.15
673.904	25613.48
674.253	25825
674.602	25757.88
674.951	25317.67
675.3	25181.17
675.649	25592.69
675.998	25533.93
676.346	25510.66
676.695	25594.72
677.044	25493.03
677.393	25471.34
677.741	25632.69
678.09	25515.18
678.438	25332.81
678.787	25565.34
679.135	25523.99
679.484	25226.82
679.832	25288.74
680.181	25192.93
680.529	25163.32
680.877	25149.54
681.225	25117.22
681.573	25218.69
681.922	25094.4
682.27	25046.04
682.618	25021.18
682.966	24896.44
683.314	24994.06
683.661	24966.04
684.009	24808.08
684.357	24792.48
684.705	24679.04
685.053	24677.46
685.4	24515.2
685.748	24483.57
686.095	24488.76
686.443	24357.01
686.79	24409.67
687.138	24335.55
687.485	24333.96
687.832	24138.94
688.18	24159.73
688.527	24063.24
688.874	24000.64
689.221	23918.38
689.568	23881.1
689.915	23777.37
690.262	23693.98
690.609	23742.34
690.956	23499.18
691.303	23570.14
691.65	23354.78
691.997	23372.63
692.344	23225.75
692.69	23128.57
693.037	23214.22
693.383	22959.76
693.73	22952.08
694.077	22813.55
694.423	22780.79
694.769	22674.8
695.116	22682.48
695.462	22573.56
695.808	22441.59
696.155	22445.2
696.501	22259.89
696.847	22178.54
697.193	22219.67
697.539	22098.54
697.885	21842.96
698.231	21885.67
698.577	21761.15
698.923	21685.45
699.269	21687.03
699.614	21459.01
699.96	21467.6
700.306	21408.62
700.651	21334.95
700.997	21167.72
701.342	21162.75
701.688	21087.27
702.033	21021.06
702.379	20935.41
702.724	20860.61
703.069	20832.81
703.415	20634.63
703.76	20487.29
704.105	20653.61
704.45	20506.72
704.795	20523.9
705.14	20300.62
705.485	20274.18
705.83	20044.81
706.175	20153.06
706.52	20092.95
706.865	20008.43
707.209	19978.6
707.554	19959.84
707.899	19980.63
708.243	19816.34
708.588	19802.33
708.932	19720.3
709.277	19684.14
709.621	19624.26
709.966	19517.82
710.31	19555.11
710.654	19356.24
710.998	19468.33
711.342	19413.42
711.687	19264.95
712.031	19367.32
712.375	19177.04
712.719	19268.34
713.063	19224.72
713.407	19245.28
713.75	19095.46
714.094	19083.03
714.438	19024.95
714.782	19062.69
715.125	18927.33
715.469	19103.59
715.812	19005.29
716.156	18979.3
716.499	19022.47
716.843	19056.14
717.186	18856.14
717.53	19040.54
717.873	19006.42
718.216	18970.04
718.559	18874.45
718.902	18715.81
719.246	18803.26
719.589	18749.25
719.932	18786.09
720.275	18759.65
720.617	18797.16
720.96	18706.09
721.303	18861.79
721.646	18817.95
721.989	18835.58
722.331	18832.41
722.674	18648.46
723.016	18707.9
723.359	18663.15
723.701	18689.37
724.044	18678.29
724.386	18532.31
724.729	18753.77
725.071	18678.52
725.413	18672.19
725.755	18729.59
726.097	18556.72
726.439	18556.94
726.782	18598.52
727.124	18702.93
727.465	18760.1
727.807	18696.82
728.149	18657.73
728.491	18683.04
728.833	18798.74
729.175	18713.77
729.516	18709.03
729.858	18701.12
730.199	18822.7
730.541	18855.92
730.882	18820.66
731.224	18770.04
731.565	18799.42
731.906	18788.12
732.248	18841
732.589	18716.26
732.93	18880.32
733.271	18939.98
733.612	18883.49
733.953	18973.2
734.294	19045.97
734.635	19007.33
734.976	19117.15
735.317	19163.25
735.658	19087.55
735.999	19048.91
736.339	19207.55
736.68	19202.35
737.021	19180.43
737.361	19240.77
737.702	19440.99
738.042	19353.3
738.383	19468.33
738.723	19554.66
739.063	19520.98
739.404	19588.33
739.744	19683.69
740.084	19695.89
740.424	19776.8
740.764	19816.12
741.104	20010.91
741.444	19959.16
741.784	19998.94
742.124	20161.42
742.464	20185.15
742.804	20270.57
743.143	20337.01
743.483	20428.53
743.823	20452.03
744.162	20673.95
744.502	20904
744.841	20953.94
745.181	21021.06
745.52	21141.05
745.86	21300.15
746.199	21403.65
746.538	21511.44
746.877	21834.82
747.216	21818.1
747.556	21986.91
747.895	22164.53
748.234	22126.11
748.573	22310.06
748.911	22537.63
749.25	22806.1
749.589	22868.24
749.928	23181.45
750.267	23345.06
750.605	23522.91
750.944	23784.6
751.283	23942.34
751.621	24209.9
751.96	24263.46
752.298	24501.87
752.636	24802.2
752.975	24834.52
753.313	25152.93
753.651	25423.43
753.989	25568.06
754.327	25776.19
754.666	25862.06
755.004	26253.91
755.342	26528.03
755.679	26867.46
756.017	26979.32
756.355	27323.04
756.693	27396.71
757.031	27827.66
757.368	27871.27
757.706	28236.46
758.044	28297.02
758.381	28763.45
758.719	28807.29
759.056	29038.47
759.394	29313.95
759.731	29280.28
760.068	29583.77
760.405	29783.99
760.743	30009.07
761.08	30249.97
761.417	30441.37
761.754	30503.75
762.091	30794.13
762.428	30917.97
762.765	31132.2
763.102	31476.6
763.438	31458.3
763.775	31538.3
764.112	31752.98
764.449	31887.21
764.785	32106.42
765.122	31966.31
765.458	32171.72
765.795	32388.89
766.131	32571.94
766.467	32611.04
766.804	32703.46
767.14	32715.89
767.476	32816.23
767.812	33036.56
768.148	33142.55
768.485	33225.03
768.821	33131.25
769.157	33321.98
769.492	33377.79
769.828	33423.67
770.164	33404.69
770.5	33255.31
770.836	33562.87
771.171	33516.77
771.507	33669.99
771.842	33422.99
772.178	33530.56
772.513	33603.78
772.849	33530.79
773.184	33718.58
773.519	33738.92
773.855	33679.71
774.19	33711.35
774.525	33651.91
774.86	33672.48
775.195	33568.52
775.53	33644.45
775.865	33515.42
776.2	33514.51
776.535	33315.42
776.87	33440.17
777.205	33301.41
777.539	33191.13
777.874	33476.32
778.209	33178.93
778.543	33278.81
778.878	33124.92
779.212	33080.63
779.547	33005.15
779.881	33107.75
780.215	32861.88
780.55	32855.32
780.884	32876.56
781.218	32682.45
781.552	32847.64
781.886	32701.88
782.22	32558.83
782.554	32449.91
782.888	32149.13
783.222	32255.34
783.556	32203.81
783.889	32039.07
784.223	31959.75
784.557	31950.71
784.89	32092.86
785.224	31764.73
785.557	31711.4
785.891	31778.29
786.224	31727.44
786.558	31718.4
786.891	31505.98
787.224	31448.81
787.557	31288.36
787.891	31285.42
788.224	31052.21
788.557	31046.56
788.89	31084.07
789.223	31053.11
789.556	30833
789.888	30784.42
790.221	30642.5
790.554	30570.41
790.887	30587.13
791.219	30330.42
791.552	30430.98
791.884	30275.5
792.217	30332.45
792.549	30212.45
792.882	30069.63
793.214	29834.39
793.546	29881.16
793.879	29812.01
794.211	29507.84
794.543	29744.22
794.875	29652.02
795.207	29521.62
795.539	29507.39
795.871	29400.05
796.203	29324.79
796.535	29109.88
796.867	29205.02
797.198	29024.46
797.53	29013.84
797.862	28760.97
798.193	28997.12
798.525	28647.75
798.856	28833.51
799.188	28358.49
799.519	28305.61
799.85	28414.99
800.182	28364.82
800.513	28389.45
800.844	28029.69
801.175	28259.74
801.506	28209.34
801.837	27988.56
802.168	28009.35
802.499	28047.09
802.83	27829.01
803.161	27762.8
803.491	27777.72
803.822	27909.69
804.153	27518.74
804.483	27407.1
804.814	27382.7
805.145	27446.88
805.475	27362.81
805.805	27401.45
806.136	27409.82
806.466	27217.05
806.796	27060.67
807.126	26962.6
807.457	27023.61
807.787	27084.4
808.117	26894.58
808.447	26879.66
808.777	26828.59
809.107	26700.46
809.436	26574.81
809.766	26761.92
810.096	26586.56
810.426	26437.19
810.755	26558.09
811.085	26364.87
811.414	26434.7
811.744	26337.98
812.073	26371.43
812.403	26271.99
812.732	26054.15
813.061	26300.24
813.39	26003.07
813.719	25985.67
814.049	26177.08
814.378	25957.2
814.707	25890.99
815.036	25879.46
815.365	25772.34
815.693	25702.74
816.022	25703.42
816.351	25642.63
816.68	25365.58
817.008	25594.72
817.337	25323.32
817.665	25367.84
817.994	25393.37
818.322	25515.18
818.651	25307.27
818.979	25273.6
819.307	25250.32
819.636	25190.89
819.964	25101.4
820.292	25145.92
820.62	25157.9
820.948	25143.21
821.276	25333.03
821.604	25160.84
821.932	25245.81
822.259	25325.35
822.587	25181.85
822.915	25092.14
823.243	25211.46
823.57	25100.05
823.898	25204.45
824.225	25165.81
824.553	25159.48
824.88	25181.85
825.207	25432.01
825.535	25008.52
825.862	25223.43
826.189	25169.2
826.516	25346.82
826.843	25401.73
827.17	25366.25
827.497	25323.77
827.824	25451.68
828.151	25445.57
828.478	25334.16
828.805	25422.52
829.131	25309.76
829.458	25377.55
829.785	25170.33
830.111	25341.85
830.438	25513.59
830.764	25321.51
831.09	25551.33
831.417	25241.06
831.743	25493.48
832.069	25253.71
832.395	25256.43
832.722	25362.64
833.048	25247.39
833.374	25341.17
833.7	25319.02
834.026	25405.8
834.351	25165.58
834.677	25331
835.003	25239.93
835.329	25194.28
835.654	25223.88
835.98	25105.24
836.306	25156.32
836.631	24997.9
836.956	25204.45
837.282	25108.18
837.607	24992.93
837.932	25055.53
838.258	24934.85
838.583	24868.19
838.908	24919.03
839.233	24992.7
839.558	24866.38
839.883	24832.71
840.208	24681.98
840.533	24797.46
840.858	24881.07
841.182	24743.67
841.507	24656.44
841.832	24628.42
842.156	24534.64
842.481	24574.18
842.805	24503.9
843.13	24297.81
843.454	24423
843.778	24368.31
844.103	24431.36
844.427	24284.93
844.751	24300.07
845.075	24209.9
845.399	24007.42
845.723	24032.5
846.047	24048.77
846.371	23830.93
846.695	23708.44
847.019	23713.87
847.343	23573.08
847.666	23544.15
847.99	23435.01
848.313	23345.74
848.637	23277.72
848.96	23281.34
849.284	23098.52
849.607	23072.98
849.931	22985.07
850.254	22887.68
850.577	22748.24
850.9	22583.95
851.223	22546.22
851.546	22455.37
851.869	22463.73
852.192	22558.19
852.515	22211.53
852.838	22238.65
853.161	22077.53
853.483	22048.6
853.806	21985.1
854.129	21860.81
854.451	21841.6
854.774	21767.93
855.096	21649.29
855.419	21578.78
855.741	21602.96
856.063	21471.67
856.385	21366.81
856.708	21267.83
857.03	21348.51
857.352	21242.29
857.674	21203.43
857.996	21243.2
858.318	20986.93
858.64	21004.79
858.961	20963.21
859.283	20790.78
859.605	20791.23
859.926	20707.39
860.248	20724.79
860.57	20567.06
860.891	20610.67
861.212	20564.8
861.534	20500.39
861.855	20402.54
862.176	20425.37
862.498	20509.21
862.819	20502.65
863.14	20378.81
863.461	20182.21
863.782	20180.18
864.103	20153.51
864.424	20006.62
864.745	20132.72
865.065	19957.13
865.386	19909.67
865.707	20042.33
866.027	19943.8
866.348	19958.94
866.668	19871.48
866.989	19925.49
867.309	19721.66
867.63	19756.46
867.95	19784.93
868.27	19670.58
868.59	19690.7
868.91	19598.95
869.23	19669
869.55	19542
869.87	19630.59
870.19	19471.27
870.51	19504.49
870.83	19424.49
871.15	19432.62
871.469	19380.2
871.789	19350.59
872.109	19443.02
872.428	19311.95
872.748	19304.94
873.067	19245.06
873.386	19187.43
873.706	19233.08
874.025	19162.8
874.344	19079.41
874.663	19107.66
874.982	19091.62
875.301	19006.65
875.62	18943.6
875.939	18852.3
876.258	18966.2
876.577	18827.67
876.896	18960.09
877.214	18818.4
877.533	18822.7
877.852	18865.18
878.17	18736.6
878.489	18799.19
878.807	18544.96
879.125	18743.6
879.444	18561.91
879.762	18529.37
880.08	18653.66
880.398	18516.04
880.716	18558.75
881.034	18476.94
881.352	18460.67
881.67	18300.45
881.988	18366.89
882.306	18290.28
882.624	18277.17
882.941	18154.01
883.259	18134.58
883.577	18173.9
883.894	18050.51
884.212	18041.7
884.529	18053.9
884.846	17905.66
885.164	17929.16
885.481	17886.68
885.798	17848.49
886.115	17742.27
886.432	17821.59
886.75	17722.84
887.067	17775.04
887.383	17652.78
887.7	17569.4
888.017	17508.83
888.334	17499.57
888.651	17471.09
888.967	17361.72
889.284	17324.43
889.6	17244.21
889.917	17207.37
890.233	17273.59
890.55	17219.8
890.866	17152.23
891.182	17048.05
891.498	17011.45
891.815	16913.82
892.131	16895.52
892.447	16928.06
892.763	16804.9
893.079	16831.11
893.395	16611.23
893.71	16668.63
894.026	16683.77
894.342	16597.9
894.657	16436.55
894.973	16471.12
895.289	16390.22
895.604	16325.36
895.92	16321.29
896.235	16254.4
896.55	16285.36
896.865	16147.29
897.181	16070
897.496	16133.05
897.811	16030.45
898.126	15887.18
898.441	15988.87
898.756	15971.47
899.071	15874.75
899.386	15874.75
899.7	15644.48
900.015	15547.98
900.33	15404.03
900.644	15473.41
900.959	15433.41
901.273	15435.89
901.588	15327.42
901.902	15265.5
902.216	15204.49
902.531	15126.52
902.845	15064.38
903.159	14906.64
903.473	14886.76
903.787	14898.73
904.101	14897.38
904.415	14837.72
904.729	14766.08
905.042	14720.43
905.356	14675.46
905.67	14604.73
905.984	14569.48
906.297	14525.64
906.611	14353.89
906.924	14379.42
907.237	14358.41
907.551	14284.74
907.864	14268.47
908.177	14196.6
908.491	14155.7
908.804	14051.98
909.117	13945.54
909.43	13895.6
909.743	13891.75
910.056	13788.25
910.368	13805.65
910.681	13642.95
910.994	13558.43
911.307	13595.94
911.619	13479.33
911.932	13537.64
912.244	13412.67
912.557	13326.8
912.869	13289.28
913.181	13260.58
913.494	13225.56
913.806	13127.71
914.118	12983.3
914.43	12979.23
914.742	12955.05
915.054	12844.1
915.366	12813.14
915.678	12766.36
915.99	12735.4
916.302	12648.17
916.613	12592.58
916.925	12618.11
917.236	12497.89
917.548	12483.2
917.859	12456.54
918.171	12441.4
918.482	12308.52
918.794	12233.94
919.105	12207.05
919.416	12195.75
919.727	12152.36
920.038	12053.38
920.349	12010.67
920.66	11927.29
920.971	11996.89
921.282	11887.74
921.593	11823.11
921.903	11771.58
922.214	11688.2
922.525	11685.94
922.835	11646.16
923.146	11553.74
923.456	11517.8
923.767	11529.56
924.077	11501.08
924.387	11481.42
924.697	11334.31
925.008	11302.44
925.318	11316.68
925.628	11233.97
925.938	11144.48
926.248	11062.22
926.558	11007.99
926.867	11004.6
927.177	10953.75
927.487	10920.98
927.796	10786.3
928.106	10853.64
928.416	10754.89
928.725	10716.92
929.034	10680.76
929.344	10762.57
929.653	10670.37
929.962	10566.42
930.271	10558.06
930.581	10536.36
930.89	10410.49
931.199	10387.89
931.508	10354.67
931.817	10285.29
932.125	10261.34
932.434	10243.49
932.743	10177.73
933.051	10114.23
933.36	10086.2
933.669	10014.12
933.977	10032.87
934.286	10009.6
934.594	9899.09
934.902	9859.09
935.21	9810.28
935.519	9808.92
935.827	9771.86
936.135	9640.11
936.443	9632.43
936.751	9586.78
937.059	9582.94
937.367	9504.3
937.674	9487.35
937.982	9505.65
938.29	9416.39
938.597	9485.09
938.905	9314.7
939.213	9274.47
939.52	9271.31
939.827	9238.09
940.135	9179.56
940.442	9152.89
940.749	9064.76
941.056	9137.3
941.363	9041.94
941.67	8974.14
941.977	8997.87
942.284	8898.66
942.591	8873.58
942.898	8871.55
943.205	8810.98
943.511	8754.04
943.818	8722.85
944.125	8615.73
944.431	8585.68
944.738	8680.59
945.044	8556.07
945.35	8588.84
945.657	8504.1
945.963	8488.51
946.269	8402.63
946.575	8427.26
946.881	8302.3
947.187	8268.4
947.493	8296.19
947.799	8282.64
948.105	8213.48
948.41	8174.62
948.716	8161.96
949.022	8131
949.327	8048.52
949.633	7922.42
949.938	7961.06
950.244	8027.73
950.549	7878.8
950.854	7838.13
951.16	7853.27
951.465	7802.2
951.77	7745.02
952.075	7722.42
952.38	7685.14
952.685	7644.46
952.99	7614.86
953.294	7595.87
953.599	7572.82
953.904	7473.39
954.209	7501.86
954.513	7512.94
954.818	7435.65
955.122	7420.06
955.426	7375.31
955.731	7334.86
956.035	7315.2
956.339	7260.97
956.643	7237.47
956.948	7171.93
957.252	7140.52
957.556	7170.12
957.86	7072.95
958.163	7084.02
958.467	7044.02
958.771	7002.22
959.075	6989.34
959.378	6971.94
959.682	6919.73
959.985	6924.48
960.289	6789.79
960.592	6794.99
960.896	6755.22
961.199	6726.97
961.502	6743.24
961.805	6721.32
962.108	6585.5
962.411	6597.48
962.714	6604.71
963.017	6577.14
963.32	6521.33
963.623	6485.85
963.926	6512.74
964.228	6441.55
964.531	6403.59
964.833	6414.89
965.136	6382.35
965.438	6283.14
965.741	6289.47
966.043	6271.84
966.345	6220.32
966.648	6264.16
966.95	6236.36
967.252	6179.41
967.554	6143.03
967.856	6097.16
968.158	6063.48
968.46	6098.96
968.761	6068.23
969.063	6016.93
969.365	5990.94
969.666	5957.72
969.968	5888.12
970.269	5898.29
970.571	5864.17
970.872	5809.03
971.174	5847.67
971.475	5813.55
971.776	5744.17
972.077	5723.61
972.378	5701.01
972.679	5645.42
972.98	5739.2
973.281	5682.25
973.582	5613.78
973.883	5577.17
974.183	5529.49
974.484	5498.75
974.785	5460.11
975.085	5447.46
975.386	5494.69
975.686	5418.3
975.986	5435.93
976.287	5411.3
976.587	5322.49
976.887	5305.31
977.187	5338.31
977.487	5302.15
977.787	5274.13
978.087	5269.16
978.387	5207.46
978.687	5167.24
978.987	5143.96
979.286	5131.98
979.586	5172.66
979.885	5098.54
980.185	5052.21
980.484	5043.85
980.784	5014.7
981.083	4985.55
981.382	5037.75
981.682	4991.42
981.981	4913.01
982.28	4929.5
982.579	4873.91
982.878	4850.41
983.177	4848.38
983.475	4850.18
983.774	4800.69
984.073	4803.63
984.372	4752.11
984.67	4765.21
984.969	4729.73
985.267	4689.96
985.566	4702.39
985.864	4616.52
986.162	4581.26
986.461	4616.29
986.759	4622.17
987.057	4581.72
987.355	4557.99
987.653	4522.73
987.951	4495.16
988.249	4497.88
988.547	4473.47
988.844	4423.3
989.142	4419.46
989.44	4366.35
989.737	4385.79
990.035	4302.63
990.332	4356.64
990.63	4328.61
990.927	4282.51
991.224	4227.6
991.521	4231.67
991.819	4266.47
992.116	4171.78
992.413	4177.88
992.71	4145.79
993.006	4183.76
993.303	4160.71
993.6	4097.21
993.897	4080.03
994.193	4073.25
994.49	4049.53
994.787	4019.92
995.083	3974.27
995.379	3982.41
995.676	3990.77
995.972	3945.8
996.268	3918.23
996.565	3875.52
996.861	3821.74
997.157	3835.29
997.453	3823.09
997.749	3805.92
998.044	3761.17
998.34	3720.95
998.636	3751.23
998.932	3757.78
999.227	3714.85
999.523	3715.07
999.818	3629.42
1000.114	3628.75
1000.409	3625.58
1000.704	3607.05
1001	3584.45
1001.295	3573.83
1001.59	3529.54
1001.885	3549.2
1002.18	3495.42
1002.475	3487.51
1002.77	3482.08
1003.065	3468.07
1003.359	3433.5
1003.654	3385.59
1003.949	3401.63
1004.243	3376.78
1004.538	3372.71
1004.832	3343.78
1005.127	3319.83
1005.421	3286.61
1005.715	3282.99
1006.009	3285.03
1006.304	3238.02
1006.598	3174.97
1006.892	3163
1007.186	3145.14
1007.48	3125.93
1007.773	3156.89
1008.067	3113.51
1008.361	3082.09
1008.655	3050.23
1008.948	3058.59
1009.242	3023.56
1009.535	2999.16
1009.829	2993.73
1010.122	2977.46
1010.415	2979.95
1010.708	2941.31
1011.001	2906.96
1011.295	2910.8
1011.588	2869.22
1011.881	2846.85
1012.173	2851.82
1012.466	2799.62
1012.759	2806.62
1013.052	2810.01
1013.344	2749
1013.637	2765.94
1013.93	2763.23
1014.222	2705.83
1014.514	2692.95
1014.807	2680.75
1015.099	2694.31
1015.391	2650.24
1015.683	2675.1
1015.976	2640.98
1016.268	2599.62
1016.56	2596.23
1016.851	2584.25
1017.143	2567.76
1017.435	2556.01
1017.727	2526.63
1018.018	2520.07
1018.31	2499.06
1018.602	2504.71
1018.893	2456.57
1019.185	2436.69
1019.476	2456.35
1019.767	2437.59
1020.058	2381.1
1020.35	2351.49
1020.641	2349.68
1020.932	2337.03
1021.223	2339.29
1021.514	2319.85
1021.804	2268.33
1022.095	2287.31
1022.386	2269.01
1022.677	2263.13
1022.967	2213.64
1023.258	2209.12
1023.548	2184.26
1023.839	2155.56
1024.129	2161.21
1024.419	2145.85
1024.709	2135.68
1025	2090.71
1025.29	2074.44
1025.58	2085.51
1025.87	2087.77
1026.16	2025.4
1026.449	2028.11
1026.739	2037.6
1027.029	2027.88
1027.319	2008.45
1027.608	1985.17
1027.898	1982.91
1028.187	1952.18
1028.477	1943.14
1028.766	1938.4
1029.055	1903.59
1029.344	1896.14
1029.634	1897.27
1029.923	1889.58
1030.212	1826.31
1030.501	1873.09
1030.79	1834.67
1031.078	1808
1031.367	1806.65
1031.656	1824.73
1031.945	1786.76
1032.233	1778.4
1032.522	1799.19
1032.81	1761.9
1033.099	1739.76
1033.387	1724.62
1033.675	1715.58
1033.963	1730.27
1034.251	1691.17
1034.54	1678.06
1034.828	1641.23
1035.116	1642.81
1035.403	1648.69
1035.691	1616.37
1035.979	1624.05
1036.267	1545.86
1036.554	1588.12
1036.842	1543.38
1037.129	1570.95
1037.417	1568.69
1037.704	1544.51
1037.992	1550.83
1038.279	1502.93
1038.566	1500.89
1038.853	1500.89
1039.14	1500.89
