Data from 18-4530_FLMS001491_007.txt Node
Date: Thu Apr 19 16:44:18 BST 2018
User: hsy
Spectrometer: FLMS00149
Trigger mode: 0
Integration Time (sec): 1.000000E-2
Scans to average: 10
Electric dark correction enabled: true
Nonlinearity correction enabled: false
Boxcar width: 0
XAxis mode: Wavelengths
Number of Pixels in Spectrum: 2048
>>>>>Begin Spectral Data<<<<<
341.393	-11.75
341.776	-11.75
342.16	-11.75
342.543	-51.07
342.927	-63.05
343.31	-59.66
343.693	-55.82
344.077	-70.73
344.46	-72.54
344.843	-60.11
345.226	-54.24
345.61	-38.64
345.993	-26.21
346.376	1.58
346.759	34.58
347.142	31.64
347.525	49.49
347.908	52.88
348.291	80.68
348.674	88.81
349.057	98.3
349.44	140.34
349.823	140.79
350.206	158.64
350.588	241.8
350.971	245.64
351.354	237.28
351.737	260.78
352.119	272.08
352.502	287.68
352.884	292.87
353.267	320.44
353.65	306.88
354.032	333.78
354.414	350.5
354.797	338.07
355.179	347.34
355.562	340.56
355.944	378.97
356.326	376.49
356.709	373.78
357.091	365.41
357.473	380.1
357.855	367.67
358.238	375.81
358.62	358.41
359.002	379.2
359.384	357.73
359.766	368.13
360.148	412.87
360.53	386.43
360.912	378.75
361.294	382.14
361.676	390.72
362.057	374.23
362.439	391.4
362.821	382.36
363.203	378.07
363.584	362.7
363.966	372.65
364.348	377.84
364.729	357.5
365.111	356.15
365.493	357.28
365.874	369.48
366.256	355.24
366.637	361.8
367.019	369.48
367.4	356.15
367.781	359.09
368.163	377.84
368.544	347.56
368.925	350.27
369.306	364.74
369.688	355.92
370.069	348.92
370.45	372.19
370.831	350.27
371.212	367.9
371.593	363.83
371.974	369.71
372.355	376.04
372.736	363.83
373.117	351.18
373.498	367.9
373.879	383.72
374.26	363.83
374.641	383.04
375.021	361.35
375.402	371.29
375.783	369.03
376.163	401.57
376.544	381.46
376.925	384.4
377.305	376.04
377.686	389.82
378.066	399.09
378.447	402.93
378.827	398.18
379.208	401.8
379.588	387.11
379.968	410.38
380.349	422.81
380.729	426.88
381.109	422.81
381.489	411.97
381.87	425.53
382.25	408.35
382.63	397.96
383.01	424.85
383.39	403.61
383.77	425.3
384.15	411.06
384.53	443.6
384.91	429.82
385.29	439.99
385.67	441.12
386.049	437.05
386.429	434.34
386.809	458.74
387.189	449.71
387.568	477.95
387.948	465.3
388.328	461.68
388.707	469.14
389.087	483.38
389.466	494.45
389.846	478.86
390.225	462.13
390.605	476.6
390.984	472.53
391.363	518.86
391.743	478.18
392.122	508.91
392.501	519.31
392.881	503.49
393.26	503.72
393.639	532.64
394.018	528.35
394.397	519.08
394.776	537.39
395.155	545.75
395.534	542.13
395.913	536.48
396.292	561.79
396.671	560.44
397.05	536.03
397.429	571.06
397.808	548.69
398.186	578.52
398.565	577.84
398.944	579.87
399.323	566.54
399.701	611.06
400.08	605.63
400.458	598.4
400.837	627.1
401.215	610.38
401.594	615.58
401.972	624.16
402.351	618.51
402.729	621.23
403.107	633.66
403.486	622.36
403.864	646.54
404.242	637.95
404.62	664.39
404.999	663.94
405.377	669.59
405.755	683.82
406.133	675.46
406.511	703.94
406.889	707.55
407.267	689.47
407.645	716.37
408.023	725.86
408.401	738.74
408.779	731.73
409.156	738.51
409.534	726.76
409.912	761.34
410.29	797.27
410.667	791.17
411.045	804.5
411.422	805.63
411.8	807.21
412.178	836.81
412.555	845.18
412.933	853.99
413.31	868.23
413.687	869.81
414.065	886.08
414.442	882.24
414.819	899.19
415.197	902.58
415.574	946.64
415.951	927.43
416.328	920.65
416.705	952.97
417.082	945.74
417.46	963.82
417.837	980.31
418.214	955
418.591	985.51
418.967	1010.14
419.344	980.31
419.721	1002.46
420.098	1010.59
420.475	1020.09
420.852	1034.55
421.228	1042.23
421.605	1063.02
421.982	1096.92
422.358	1075.45
422.735	1082.23
423.111	1096.69
423.488	1137.6
423.864	1156.13
424.241	1117.26
424.617	1136.47
424.994	1166.75
425.37	1183.25
425.746	1193.19
426.123	1183.7
426.499	1188.67
426.875	1204.71
427.251	1238.61
427.627	1261.21
428.003	1274.54
428.379	1309.12
428.756	1284.71
429.132	1334.43
429.507	1341.66
429.883	1366.52
430.259	1370.59
430.635	1385.73
431.011	1382.56
431.387	1406.52
431.763	1449.45
432.138	1457.14
432.514	1472.05
432.89	1453.07
433.265	1535.78
433.641	1550.02
434.016	1544.37
434.392	1592.27
434.767	1613.74
435.143	1604.48
435.518	1610.35
435.894	1646.96
436.269	1660.52
436.644	1696.9
437.02	1719.95
437.395	1738.71
437.77	1756.56
438.145	1756.56
438.52	1783.23
438.895	1824.58
439.271	1804.25
439.646	1838.6
440.021	1867.3
440.395	1867.75
440.77	1877.69
441.145	1899.84
441.52	1922.44
441.895	1937.12
442.27	1945.49
442.645	1910.68
443.019	1977.58
443.394	2010.12
443.769	2000.63
444.143	1995.43
444.518	2034.52
444.892	2031.58
445.267	2045.6
445.641	2062.09
446.016	2080.17
446.39	2105.03
446.764	2098.93
447.139	2098.93
447.513	2135.99
447.887	2137.34
448.262	2150.45
448.636	2155.88
449.01	2201.52
449.384	2210.34
449.758	2241.97
450.132	2233.61
450.506	2285.82
450.88	2260.96
451.254	2318.58
451.628	2323.78
452.002	2346.83
452.376	2362.42
452.75	2406.94
453.123	2398.58
453.497	2438.13
453.871	2453.95
454.244	2518.35
454.618	2549.54
454.992	2600.16
455.365	2577.11
455.739	2634.06
456.112	2678.12
456.486	2679.03
456.859	2720.61
457.232	2779.81
457.606	2775.97
457.979	2819.81
458.352	2874.73
458.725	2899.13
459.099	2950.2
459.472	2976.42
459.845	2997.21
460.218	3034.27
460.591	3058.68
460.964	3113.36
461.337	3124.44
461.71	3220.25
462.083	3248.5
462.456	3266.13
462.829	3253.25
463.201	3297.54
463.574	3315.39
463.947	3340.7
464.32	3432.23
464.692	3459.8
465.065	3497.76
465.438	3568.04
465.81	3533.47
466.183	3592.67
466.555	3639.9
466.928	3714.25
467.3	3726
467.672	3749.28
468.045	3862.72
468.417	3889.84
468.789	3864.53
469.161	3917.86
469.534	3996.28
469.906	4045.09
470.278	4076.5
470.65	4145.43
471.022	4181.36
471.394	4280.11
471.766	4243.73
472.138	4333.9
472.51	4464.74
472.882	4505.64
473.253	4538.19
473.625	4539.09
473.997	4670.84
474.369	4706.09
474.74	4748.58
475.112	4778.41
475.484	4904.96
475.855	4999.42
476.227	5042.58
476.598	5164.16
476.97	5272.4
477.341	5316.24
477.713	5438.5
478.084	5397.37
478.455	5619.06
478.827	5600.08
479.198	5724.14
479.569	5795.1
479.94	5937.47
480.311	6006.17
480.682	6124.13
481.053	6259.72
481.424	6353.05
481.795	6440.96
482.166	6516.89
482.537	6564.8
482.908	6711.69
483.279	6839.37
483.65	6999.36
484.021	7040.94
484.391	7115.75
484.762	7183.99
485.133	7260.6
485.503	7368.39
485.874	7528.16
486.244	7599.8
486.615	7819.68
486.985	7929.73
487.356	8005.89
487.726	8063.52
488.097	8275.04
488.467	8343.96
488.837	8453.34
489.207	8588.47
489.578	8684.97
489.948	8852.87
490.318	8983.94
490.688	9045.64
491.058	9148.91
491.428	9315.91
491.798	9343.03
492.168	9582.57
492.538	9644.04
492.908	9783.25
493.278	9859.4
493.648	9895.11
494.017	10104.14
494.387	10187.75
494.757	10256.45
495.126	10288.54
495.496	10428.65
495.866	10577.35
496.235	10661.19
496.605	10766.95
496.974	10827.29
497.344	10885.14
497.713	11057.34
498.082	11102.76
498.452	11216.65
498.821	11299.36
499.19	11279.03
499.559	11421.62
499.928	11504.56
500.298	11575.29
500.667	11676.3
501.036	11737.77
501.405	11803.08
501.774	11857.77
502.143	12013.47
502.512	11962.17
502.88	12265.44
503.249	12200.58
503.618	12295.5
503.987	12309.05
504.356	12387.02
504.724	12500.91
505.093	12540.46
505.462	12703.85
505.83	12645.54
506.199	12752.66
506.567	12892.77
506.936	12883.73
507.304	13062.93
507.672	13077.62
508.041	13165.53
508.409	13288.24
508.777	13365.07
509.145	13419.08
509.514	13514.45
509.882	13657.95
510.25	13671.73
510.618	13672.18
510.986	13662.69
511.354	13988.11
511.722	13988.33
512.09	14099.97
512.458	14072.85
512.826	14232.39
513.193	14254.31
513.561	14367.31
513.929	14487.53
514.297	14538.37
514.664	14637.58
515.032	14625.83
515.4	14810.91
515.767	14805.26
516.135	14967.74
516.502	14842.55
516.869	15077.8
517.237	15226.04
517.604	15113.27
517.972	15366.6
518.339	15410.44
518.706	15467.39
519.073	15631.23
519.44	15625.58
519.808	15843.2
520.175	15895.63
520.542	16064.66
520.909	16089.75
521.276	16095.4
521.643	16349.4
522.009	16393.24
522.376	16544.65
522.743	16647.92
523.11	16700.8
523.477	16840.46
523.843	16959.33
524.21	17167.46
524.577	17250.39
524.943	17352.09
525.31	17398.86
525.676	17577.16
526.043	17812.64
526.409	17768.35
526.776	17964.73
527.142	17919.08
527.508	18082.46
527.874	18174.89
528.241	18355.9
528.607	18324.49
528.973	18580.3
529.339	18600.41
529.705	18820.52
530.071	18818.04
530.437	18877.92
530.803	19024.13
531.169	19092.38
531.535	19080.18
531.901	19182.09
532.267	19211.25
532.632	19457.79
532.998	19386.38
533.364	19539.6
533.73	19593.84
534.095	19746.6
534.461	19688.52
534.826	19794.28
535.192	19915.41
535.557	20014.61
535.923	19872.7
536.288	19987.72
536.653	20057.33
537.019	20072.01
537.384	20119.47
537.749	20219.58
538.114	20203.08
538.479	20192.69
538.845	20323.99
539.21	20225.23
539.575	20273.37
539.94	20272.01
540.305	20476.98
540.67	20433.36
541.034	20415.96
541.399	20370.09
541.764	20523.53
542.129	20470.65
542.494	20490.76
542.858	20649.85
543.223	20554.04
543.587	20595.62
543.952	20536.86
544.316	20614.37
544.681	20561.72
545.045	20761.26
545.41	20696.4
545.774	20622.96
546.138	20791.54
546.503	20727.82
546.867	20726.91
547.231	20879.68
547.595	20894.82
547.959	20847.14
548.324	20713.35
548.688	20804.2
549.052	20940.92
549.416	20817.98
549.779	20930.52
550.143	20899.11
550.507	21041.48
550.871	21090.07
551.235	21070.63
551.599	21250.74
551.962	21188.82
552.326	21231.08
552.689	21226.79
553.053	21046.23
553.417	21159.67
553.78	21369.83
554.143	21333.9
554.507	21275.82
554.87	21337.97
555.234	21416.61
555.597	21371.19
555.96	21489.38
556.323	21525.54
556.686	21546.55
557.05	21597.62
557.413	21688.02
557.776	21662.26
558.139	21735.02
558.502	21787
558.865	21793.1
559.228	21921.23
559.59	22043.04
559.953	22017.05
560.316	22175.91
560.679	22215.24
561.041	22218.62
561.404	22375.23
561.767	22622.23
562.129	22473.08
562.492	22572.74
562.854	22676.92
563.217	22744.49
563.579	22778.84
563.941	22918.95
564.304	22924.82
564.666	23210.92
565.028	23082.78
565.39	23188.09
565.753	23437.35
566.115	23382.21
566.477	23555.31
566.839	23616.55
567.201	23788.98
567.563	23683.45
567.925	23994.4
568.287	23925.7
568.648	24100.38
569.01	24311.45
569.372	24438.45
569.734	24500.6
570.095	24508.06
570.457	24696.98
570.819	24860.14
571.18	24861.72
571.542	25073.92
571.903	24957.99
572.265	25285.44
572.626	25372.21
572.987	25350.29
573.349	25595.71
573.71	25652.88
574.071	25717.29
574.432	25810.85
574.794	26092.42
575.155	25915.48
575.516	26102.82
575.877	26069.6
576.238	26145.75
576.599	26310.72
576.96	26399.31
577.32	26430.94
577.681	26666.87
578.042	26705.96
578.403	26674.78
578.763	26823.25
579.124	26819.18
579.485	26955.45
579.845	27064.15
580.206	26889.24
580.566	26998.39
580.927	27091.49
581.287	27171.26
581.648	27031.83
582.008	27151.15
582.368	27293.97
582.728	27177.59
583.089	27248.55
583.449	27148.89
583.809	27228.21
584.169	27358.38
584.529	27100.53
584.889	27418.94
585.249	27231.15
585.609	27157.03
585.969	27309.56
586.329	27332.61
586.688	27487.41
587.048	27322.67
587.408	27409.22
587.768	27338.26
588.127	27333.29
588.487	27364.48
588.846	27536.45
589.206	27243.35
589.565	27243.8
589.925	27379.85
590.284	27402.22
590.643	27369.68
591.003	27450.58
591.362	27565.15
591.721	27389.79
592.08	27367.64
592.44	27450.35
592.799	27461.2
593.158	27431.14
593.517	27329.68
593.876	27439.05
594.235	27378.72
594.593	27314.31
594.952	27536.68
595.311	27284.71
595.67	27472.05
596.029	27569.44
596.387	27485.6
596.746	27554.98
597.104	27381.2
597.463	27425.04
597.822	27545.94
598.18	27480.41
598.538	27383.23
598.897	27592.04
599.255	27367.87
599.613	27826.61
599.972	27455.1
600.33	27495.1
600.688	27450.8
601.046	27599.27
601.404	27711.14
601.762	27606.28
602.12	27719.27
602.478	27625.71
602.836	27751.36
603.194	27496.45
603.552	27528.54
603.91	27610.12
604.268	27645.83
604.625	27550.01
604.983	27741.19
605.341	27534.42
605.698	27688.09
606.056	27763.34
606.413	27560.41
606.771	27837.69
607.128	27660.52
607.485	27632.95
607.843	27669.55
608.2	27819.38
608.557	27805.82
608.914	27697.12
609.272	27943.9
609.629	27944.8
609.986	27945.93
610.343	27899.61
610.7	28108.87
611.057	28029.32
611.414	28178.92
611.771	28124.01
612.127	28137.57
612.484	28216.66
612.841	28279.71
613.198	28222.99
613.554	28245.13
613.911	28408.07
614.267	28502.75
614.624	28406.71
614.98	28483.32
615.337	28671.79
615.693	28594.73
616.05	28587.27
616.406	28608.97
616.762	28660.72
617.118	28603.99
617.475	28593.6
617.831	28753.14
618.187	28629.08
618.543	28709.98
618.899	28924.89
619.255	28926.47
619.611	28807.83
619.967	28985.45
620.323	28923.53
620.678	28900.94
621.034	28787.72
621.39	28892.57
621.746	28888.05
622.101	29114.94
622.457	28796.98
622.812	29137.76
623.168	29031.78
623.523	29033.59
623.879	29095.96
624.234	28966.24
624.589	29079.69
624.945	29081.04
625.3	29161.95
625.655	29097.99
626.01	29149.52
626.365	29285.56
626.72	29105.9
627.075	29074.72
627.43	29132.34
627.785	29036.3
628.14	29086.69
628.495	29029.97
628.85	29186.13
629.205	28985
629.559	29236.29
629.914	28997.43
630.269	28988.62
630.623	28981.84
630.978	28898
631.332	29048.73
631.687	29052.34
632.041	28854.61
632.396	28932.35
632.75	28766.48
633.104	28956.3
633.459	28790.66
633.813	28841.28
634.167	28787.94
634.521	28737.78
634.875	28677.21
635.229	28728.06
635.583	28509.31
635.937	28414.62
636.291	28607.61
636.645	28537.55
636.999	28355.19
637.352	28391.57
637.706	28244.68
638.06	28335.3
638.413	28385.47
638.767	28301.4
639.121	28325.81
639.474	28257.56
639.828	28199.26
640.181	28167.85
640.534	28368.07
640.888	28220.5
641.241	28030
641.594	28057.12
641.947	28155.64
642.301	27891.02
642.654	28005.82
643.007	28053.95
643.36	28081.07
643.713	27946.61
644.066	28134.85
644.419	27786.84
644.771	27626.84
645.124	27437.24
645.477	27335.55
645.83	27210.36
646.182	27340.3
646.535	27205.16
646.888	27279.96
647.24	27133.52
647.593	27323.8
647.945	27273.41
648.298	27098.95
648.65	27057.14
649.002	26852.4
649.355	26833.42
649.707	26716.13
650.059	26591.84
650.411	27104.82
650.763	27246.97
651.115	27618.26
651.467	27586.85
651.819	27641.99
652.171	27544.36
652.523	27486.28
652.875	27422.56
653.227	27445.61
653.578	27732.6
653.93	27567.64
654.282	27486.28
654.633	27391.14
654.985	27474.53
655.337	27553.17
655.688	27467.3
656.039	27672.94
656.391	27291.71
656.742	27473.18
657.094	27494.87
657.445	27397.25
657.796	27492.61
658.147	27441.54
658.498	27517.92
658.849	27640.18
659.2	27552.27
659.551	27310.69
659.902	27456.91
660.253	27421.65
660.604	27574.42
660.955	27484.48
661.306	27590.91
661.656	27566.51
662.007	27636.56
662.358	27613.74
662.708	27626.62
663.059	27595.88
663.409	27399.96
663.76	27673.17
664.11	27658.93
664.461	27634.75
664.811	27735.09
665.161	27649.89
665.511	27644.24
665.862	27716.11
666.212	27669.1
666.562	27758.37
666.912	27773.51
667.262	27627.3
667.612	27621.87
667.962	27721.08
668.312	27664.36
668.662	27778.48
669.011	27672.49
669.361	27746.62
669.711	27705.49
670.06	27536
670.41	27627.07
670.76	27541.65
671.109	27673.62
671.459	27475.21
671.808	27534.19
672.157	27527.86
672.507	27394.31
672.856	27412.84
673.205	27476.11
673.554	27496.9
673.904	27404.93
674.253	27627.3
674.602	27371.71
674.951	27087.2
675.3	26861.44
675.649	27362.67
675.998	27381.65
676.346	27466.4
676.695	27428.43
677.044	27238.83
677.393	27352.5
677.741	27255.55
678.09	27217.82
678.438	27107.99
678.787	27130.59
679.135	27245.61
679.484	27111.6
679.832	27139.63
680.181	27062.11
680.529	27073.19
680.877	26957.94
681.225	26912.06
681.573	27147.76
681.922	26954.32
682.27	26859.63
682.618	26896.24
682.966	26736.47
683.314	26776.92
683.661	26662.8
684.009	26625.29
684.357	26520.43
684.705	26470.94
685.053	26555.46
685.4	26369.02
685.748	26305.3
686.095	26297.84
686.443	26126.77
686.79	26147.56
687.138	26183.04
687.485	26187.11
687.832	25994.12
688.18	26114.79
688.527	25867.57
688.874	25811.98
689.221	25891.52
689.568	25669.61
689.915	25668.25
690.262	25614.69
690.609	25491.53
690.956	25463.51
691.303	25407.24
691.65	25381.71
691.997	25222.84
692.344	24998.21
692.69	25050.19
693.037	24997.08
693.383	24873.92
693.73	24819.46
694.077	24708.73
694.423	24709.63
694.769	24580.37
695.116	24377.66
695.462	24381.28
695.808	24247.72
696.155	24267.61
696.501	24014.06
696.847	24092.25
697.193	24007.73
697.539	23928.64
697.885	23779.26
698.231	23687.29
698.577	23682.32
698.923	23551.25
699.269	23393.06
699.614	23353.96
699.96	23234.87
700.306	23154.19
700.651	23023.12
700.997	22975.44
701.342	22876.23
701.688	22730.48
702.033	22737.03
702.379	22764.83
702.724	22646.64
703.069	22687.31
703.415	22411.84
703.76	22385.85
704.105	22455
704.45	22387.43
704.795	22271.73
705.14	22131.17
705.485	22225.4
705.83	21973.43
706.175	22074.22
706.52	21979.08
706.865	21874.45
707.209	21857.96
707.554	21809.37
707.899	21772.08
708.243	21665.19
708.588	21553.11
708.932	21350.17
709.277	21443.5
709.621	21417.29
709.966	21229.72
710.31	21270.85
710.654	21135.04
710.998	21262.04
711.342	21272.89
711.687	21017.07
712.031	21060.01
712.375	20967.13
712.719	20927.81
713.063	20871.77
713.407	21004.87
713.75	20865.21
714.094	20815.05
714.438	20800.13
714.782	20788.15
715.125	20687.37
715.469	20794.03
715.812	20663.41
716.156	20610.76
716.499	20678.33
716.843	20742.51
717.186	20404.89
717.53	20610.08
717.873	20619.34
718.216	20510.65
718.559	20410.31
718.902	20392.23
719.246	20449.41
719.589	20349.07
719.932	20323.99
720.275	20270.65
720.617	20421.16
720.96	20304.55
721.303	20314.49
721.646	20419.8
721.989	20262.29
722.331	20347.94
722.674	20278.34
723.016	20281.05
723.359	20335.06
723.701	20189.75
724.044	20176.42
724.386	20077.44
724.729	20286.47
725.071	20240.15
725.413	20163.54
725.755	20215.74
726.097	20272.69
726.439	20157.66
726.782	20175.29
727.124	20273.82
727.465	20134.84
727.807	20093.03
728.149	20156.76
728.491	20217.1
728.833	20236.98
729.175	20138
729.516	20107.04
729.858	20100.49
730.199	20239.69
730.541	20190.2
730.882	20185.23
731.224	20146.59
731.565	20177.55
731.906	20130.32
732.248	20209.86
732.589	20175.06
732.93	20094.84
733.271	20265.68
733.612	20260.94
733.953	20270.88
734.294	20323.53
734.635	20178
734.976	20347.49
735.317	20260.03
735.658	20295.29
735.999	20326.02
736.339	20310.43
736.68	20377.77
737.021	20404.44
737.361	20423.64
737.702	20553.81
738.042	20416.86
738.383	20595.62
738.723	20651.89
739.063	20481.95
739.404	20681.49
739.744	20650.53
740.084	20692.34
740.424	20817.08
740.764	20823.41
741.104	20878.77
741.444	20902.5
741.784	20970.07
742.124	20935.95
742.464	21059.79
742.804	21211.19
743.143	21215.26
743.483	21281.25
743.823	21230.18
744.162	21308.37
744.502	21421.81
744.841	21424.97
745.181	21594.46
745.52	21599.88
745.86	21716.49
746.199	21751.52
746.538	21842.36
746.877	21994.68
747.216	22133.43
747.556	22151.73
747.895	22231.96
748.234	22380.88
748.573	22301.33
748.911	22462.91
749.25	22600.54
749.589	22675.56
749.928	22953.75
750.267	23005.5
750.605	23112.39
750.944	23229.9
751.283	23388.54
751.621	23560.28
751.96	23520.06
752.298	23785.36
752.636	23937.68
752.975	24056.09
753.313	24153.72
753.651	24472.58
753.989	24539.02
754.327	24666.47
754.666	24622.86
755.004	24875.28
755.342	25012.9
755.679	25255.38
756.017	25223.97
756.355	25491.99
756.693	25613.11
757.031	25808.81
757.368	25764.97
757.706	26017.62
758.044	26063.95
758.381	26354.79
758.719	26307.56
759.056	26632.29
759.394	26479.53
759.731	26616.48
760.068	26839.29
760.405	26917.03
760.743	26987.54
761.08	27276.57
761.417	27154.54
761.754	27431.14
762.091	27402.67
762.428	27449.45
762.765	27587.52
763.102	27727.18
763.438	27685.15
763.775	27760.4
764.112	27898.93
764.449	27914.07
764.785	28022.99
765.122	28015.76
765.458	27991.13
765.795	28065.48
766.131	28305.7
766.467	28255.53
766.804	28104.8
767.14	28213.95
767.476	28176.21
767.812	28222.76
768.148	28355.64
768.485	28423.66
768.821	28296.21
769.157	28319.71
769.492	28407.61
769.828	28387.5
770.164	28296.88
770.5	28166.27
770.836	28273.15
771.171	28328.75
771.507	28224.12
771.842	28159.71
772.178	28181.63
772.513	28142.08
772.849	28086.95
773.184	28182.08
773.519	28146.6
773.855	27973.73
774.19	28089.43
774.525	27976.44
774.86	28005.14
775.195	27866.16
775.53	27896.22
775.865	27803.56
776.2	27685.6
776.535	27572.61
776.87	27578.03
777.205	27571.03
777.539	27446.06
777.874	27619.39
778.209	27357.7
778.543	27507.98
778.878	27329.68
779.212	27278.6
779.547	27171.26
779.881	27103.47
780.215	26960.87
780.55	27105.5
780.884	26809.92
781.218	26690.37
781.552	26873.64
781.886	26712.07
782.22	26612.63
782.554	26461.9
782.888	26403.37
783.222	26334.45
783.556	26263.26
783.889	26188.01
784.223	25969.26
784.557	26187.79
784.89	26122.03
785.224	25958.64
785.557	25836.83
785.891	25891.52
786.224	25823.28
786.558	25698.53
786.891	25566.11
787.224	25463.29
787.557	25329.28
787.891	25395.49
788.224	25259
788.557	25251.77
788.89	25185.55
789.223	25054.71
789.556	24993.92
789.888	25059.45
790.221	24650.43
790.554	24615.4
790.887	24699.46
791.219	24579.24
791.552	24569.52
791.884	24518.45
792.217	24395.52
792.549	24394.84
792.882	24203.66
793.214	24189.42
793.546	24163.43
793.879	24009.09
794.211	23891.58
794.543	24006.6
794.875	23889.32
795.207	23792.82
795.539	23818.36
795.871	23700.17
796.203	23631.92
796.535	23455.43
796.867	23477.8
797.198	23332.04
797.53	23259.95
797.862	23185.83
798.193	23299.73
798.525	23058.83
798.856	23275.77
799.188	22925.05
799.519	22932.28
799.85	22831.49
800.182	22765.5
800.513	22745.39
800.844	22531.61
801.175	22693.19
801.506	22645.05
801.837	22499.52
802.168	22452.97
802.499	22516.02
802.83	22322.58
803.161	22290.94
803.491	22202.58
803.822	22220.66
804.153	22114.9
804.483	21947.9
804.814	21872.87
805.145	21899.76
805.475	21872.42
805.805	21819.77
806.136	21879.88
806.466	21715.36
806.796	21759.2
807.126	21480.34
807.457	21443.73
807.787	21541.58
808.117	21466.55
808.447	21341.13
808.777	21447.35
809.107	21271.08
809.436	21198.54
809.766	21300.23
810.096	21174.13
810.426	21108.6
810.755	21061.59
811.085	21008.71
811.414	21041.71
811.744	21018.66
812.073	20875.38
812.403	20862.95
812.732	20675.39
813.061	20822.5
813.39	20601.72
813.719	20603.3
814.049	20683.52
814.378	20632
814.707	20559.69
815.036	20559.46
815.365	20421.61
815.693	20227.49
816.022	20248.96
816.351	20295.06
816.68	20168.96
817.008	20199.24
817.337	20025.24
817.665	20095.06
817.994	20084.67
818.322	19996.54
818.651	20000.6
818.979	19989.76
819.307	19957.67
819.636	19966.93
819.964	19905.01
820.292	19813.04
820.62	19833.38
820.948	19920.83
821.276	19893.26
821.604	19894.84
821.932	20022.07
822.259	19805.58
822.587	19851.68
822.915	19891.23
823.243	19862.75
823.57	19755.64
823.898	19926.26
824.225	19857.33
824.553	19796.77
824.88	19818.69
825.207	19895.07
825.535	19808.74
825.862	19885.35
826.189	19747.05
826.516	19861.85
826.843	20017.1
827.17	19937.55
827.497	20060.72
827.824	19937.55
828.151	20024.56
828.478	19840.83
828.805	19950.89
829.131	19886.26
829.458	19938.68
829.785	19719.71
830.111	19985.01
830.438	20116.08
830.764	19820.95
831.09	19898.69
831.417	19761.06
831.743	20053.48
832.069	19954.05
832.395	19930.32
832.722	19881.06
833.048	19788.86
833.374	19931.23
833.7	19778.01
834.026	19848.07
834.351	19750.44
834.677	19888.52
835.003	19770.1
835.329	19738.24
835.654	19740.05
835.98	19681.74
836.306	19724
836.631	19609.43
836.956	19787.95
837.282	19567.4
837.607	19627.96
837.932	19708.63
838.258	19592.03
838.583	19554.29
838.908	19514.97
839.233	19543.44
839.558	19347.74
839.883	19411.47
840.208	19290.34
840.533	19378.7
840.858	19264.8
841.182	19353.39
841.507	19340.28
841.832	19227.07
842.156	19232.04
842.481	19206.5
842.805	19092.83
843.13	19051.7
843.454	19131.7
843.778	19034.3
844.103	18974.19
844.427	18848.77
844.751	18930.35
845.075	18881.76
845.399	18745.27
845.723	18700.75
846.047	18859.62
846.371	18592.96
846.695	18583.69
847.019	18561.55
847.343	18434.09
847.666	18412.62
847.99	18199.75
848.313	18178.51
848.637	18202.23
848.96	18170.37
849.284	18230.48
849.607	17949.58
849.931	17926.08
850.254	17811.28
850.577	17694.45
850.9	17548.01
851.223	17592.76
851.546	17568.58
851.869	17432.99
852.192	17430.95
852.515	17292.43
852.838	17298.75
853.161	17206.55
853.483	17123.84
853.806	17106.22
854.129	17046.33
854.451	17118.65
854.774	16897.18
855.096	16909.84
855.419	16914.36
855.741	16800.46
856.063	16731.09
856.385	16690.86
856.708	16680.92
857.03	16565.89
857.352	16577.64
857.674	16527.48
857.996	16440.7
858.318	16382.39
858.64	16412.68
858.961	16417.65
859.283	16274.15
859.605	16199.12
859.926	16197.77
860.248	16138.33
860.57	16113.25
860.891	16057.66
861.212	16096.3
861.534	16015.85
861.855	15907.38
862.176	15842.97
862.498	15859.7
862.819	15867.83
863.14	15772.24
863.461	15751.45
863.782	15728.85
864.103	15720.72
864.424	15709.87
864.745	15661.51
865.065	15569.99
865.386	15551.46
865.707	15583.09
866.027	15659.02
866.348	15569.76
866.668	15479.82
866.989	15448.18
867.309	15329.77
867.63	15396.43
867.95	15470.1
868.27	15265.36
868.59	15433.27
868.91	15375.41
869.23	15331.12
869.55	15236.21
869.87	15266.94
870.19	15186.95
870.51	15237.11
870.83	15228.98
871.15	15164.57
871.469	15096.33
871.789	15165.02
872.109	15089.32
872.428	14998.48
872.748	15011.13
873.067	14969.32
873.386	15063.56
873.706	14956.44
874.025	14872.38
874.344	14910.12
874.663	14868.76
874.982	14843.45
875.301	14854.3
875.62	14823.11
875.939	14792.38
876.258	14871.02
876.577	14685.49
876.896	14756
877.214	14670.12
877.533	14686.85
877.852	14674.19
878.17	14690.69
878.489	14655.89
878.807	14560.52
879.125	14588.99
879.444	14526.62
879.762	14452.05
880.08	14617.02
880.398	14438.72
880.716	14400.3
881.034	14431.26
881.352	14352.62
881.67	14285.5
881.988	14247.99
882.306	14197.59
882.624	14210.02
882.941	14102.91
883.259	14150.36
883.577	14214.77
883.894	14049.8
884.212	14052.06
884.529	14047.77
884.846	14012.51
885.164	13938.16
885.481	13900.65
885.798	13959.41
886.115	13801.45
886.432	13828.11
886.75	13853.42
887.067	13881.44
887.383	13766.42
887.7	13785.4
888.017	13666.76
888.334	13659.3
888.651	13572.75
888.967	13553.54
889.284	13577.27
889.6	13483.71
889.917	13472.41
890.233	13496.59
890.55	13418.86
890.866	13408.01
891.182	13363.72
891.498	13266.54
891.815	13277.39
892.131	13206.21
892.447	13191.97
892.763	13063.61
893.079	13094.8
893.395	13013.44
893.71	13024.74
894.026	12995.14
894.342	12978.19
894.657	12896.38
894.973	12868.59
895.289	12939.55
895.604	12724.64
895.92	12774.81
896.235	12632.44
896.55	12604.19
896.865	12557.86
897.181	12484.19
897.496	12500.46
897.811	12468.37
898.126	12433.35
898.441	12456.4
898.756	12405.32
899.071	12288.49
899.386	12343.86
899.7	12192.9
900.015	12146.12
900.33	12118.33
900.644	12093.47
900.959	12086.01
901.273	11995.84
901.588	12022.96
901.902	11888.73
902.216	11825.68
902.531	11829.52
902.845	11864.55
903.159	11732.57
903.473	11743.42
903.787	11601.28
904.101	11577.32
904.415	11552.24
904.729	11536.19
905.042	11418
905.356	11475.4
905.67	11485.8
905.984	11446.48
906.297	11418.68
906.611	11270.89
906.924	11231.12
907.237	11193.6
907.551	11143.44
907.864	11093.72
908.177	11144.34
908.491	11053.95
908.804	10957.9
909.117	10942.99
909.43	10918.36
909.743	10856.21
910.056	10812.6
910.368	10761.3
910.681	10766.72
910.994	10686.27
911.307	10678.36
911.619	10570.8
911.932	10632.49
912.244	10464.13
912.557	10471.14
912.869	10410.35
913.181	10435.88
913.494	10317.92
913.806	10285.38
914.118	10220.52
914.43	10224.14
914.742	10229.11
915.054	10186.17
915.366	10111.15
915.678	10072.5
915.99	10024.14
916.302	10007.65
916.613	9971.49
916.925	9932.39
917.236	9929.68
917.548	9844.94
917.859	9809.46
918.171	9805.84
918.482	9724.49
918.794	9728.33
919.105	9643.81
919.416	9606.53
919.727	9561.78
920.038	9546.87
920.349	9480.65
920.66	9407.21
920.971	9413.09
921.282	9382.8
921.593	9323.6
921.903	9312.52
922.214	9223.94
922.525	9227.33
922.835	9126.09
923.146	9121.34
923.456	9112.08
923.767	9039.54
924.077	9042.02
924.387	8975.36
924.697	8898.52
925.008	8903.49
925.318	8867.56
925.628	8829.15
925.938	8849.94
926.248	8757.51
926.558	8684.52
926.867	8741.47
927.177	8678.64
927.487	8567.68
927.796	8578.98
928.106	8490.62
928.416	8495.82
928.725	8450.4
929.034	8392.1
929.344	8451.08
929.653	8402.49
929.962	8349.38
930.271	8291.99
930.581	8253.79
930.89	8229.39
931.199	8217.64
931.508	8114.81
931.817	8078.88
932.125	8079.34
932.434	8062.16
932.743	7977.64
933.051	7986.23
933.36	7932.67
933.669	7885.67
933.977	7840.7
934.286	7799.57
934.594	7763.41
934.902	7751.89
935.21	7685.9
935.519	7637.77
935.827	7678.67
936.135	7604.55
936.443	7610.42
936.751	7532.46
937.059	7534.04
937.367	7462.63
937.674	7493.14
937.982	7457.88
938.29	7425.79
938.597	7390.31
938.905	7279.58
939.213	7326.81
939.52	7236.19
939.827	7250.2
940.135	7207.04
940.442	7186.7
940.749	7175.63
941.056	7195.74
941.363	7102.64
941.67	7048.4
941.977	7033.49
942.284	7031.91
942.591	7001.62
942.898	6947.39
943.205	6942.19
943.511	6847.28
943.818	6883.21
944.125	6778.35
944.431	6742.2
944.738	6758.24
945.044	6719.37
945.35	6630.33
945.657	6653.84
945.963	6622.42
946.269	6587.62
946.575	6573.61
946.881	6529.77
947.187	6554.86
947.493	6459.27
947.799	6437.12
948.105	6432.15
948.41	6401.64
948.716	6373.84
949.022	6360.96
949.327	6349.21
949.633	6185.6
949.938	6247.07
950.244	6239.84
950.549	6242.32
950.854	6196.45
951.16	6172.95
951.465	6165.71
951.77	6096.56
952.075	6073.96
952.38	6094.08
952.685	6054.98
952.99	5973.63
953.294	6013.85
953.599	5925.04
953.904	5885.49
954.209	5897.47
954.513	5922.78
954.818	5853.41
955.122	5860.18
955.426	5806.63
955.731	5791.03
956.035	5722.56
956.339	5694.77
956.643	5705.84
956.948	5684.14
957.252	5677.14
957.556	5574.32
957.86	5588.33
958.163	5585.84
958.467	5555.79
958.771	5529.57
959.075	5510.82
959.378	5494.77
959.682	5454.09
959.985	5429.46
960.289	5427.2
960.592	5360.99
960.896	5303.82
961.199	5323.02
961.502	5306.75
961.805	5281.67
962.108	5244.38
962.411	5247.09
962.714	5216.59
963.017	5181.33
963.32	5176.81
963.623	5182.46
963.926	5173.88
964.228	5136.81
964.531	5082.13
964.833	5110.6
965.136	5051.84
965.438	5019.76
965.741	4944.73
966.043	4994.44
966.345	4933.43
966.648	4931.62
966.95	4953.99
967.252	4851.17
967.554	4865.18
967.856	4845.52
968.158	4806.43
968.46	4821.34
968.761	4791.96
969.063	4770.27
969.365	4707.45
969.666	4714
969.968	4661.57
970.269	4661.12
970.571	4723.04
970.872	4677.39
971.174	4588.13
971.475	4604.85
971.776	4578.18
972.077	4567.79
972.378	4541.12
972.679	4526.66
972.98	4500.45
973.281	4477.4
973.582	4541.8
973.883	4438.53
974.183	4413.22
974.484	4396.04
974.785	4371.18
975.085	4344.07
975.386	4363.28
975.686	4345.87
975.986	4310.17
976.287	4264.75
976.587	4267.01
976.887	4276.05
977.187	4279.89
977.487	4253.22
977.787	4206.9
978.087	4188.82
978.387	4139.1
978.687	4123.06
978.987	4110.85
979.286	4084.19
979.586	4076.95
979.885	4072.89
980.185	4068.14
980.484	4008.71
980.784	3996.51
981.083	3982.27
981.382	4019.1
981.682	3939.11
981.981	3968.26
982.28	3860.01
982.579	3913.34
982.878	3928.71
983.177	3855.72
983.475	3857.07
983.774	3822.27
984.073	3828.15
984.372	3780.01
984.67	3773.91
984.969	3791.99
985.267	3757.19
985.566	3699.34
985.864	3697.98
986.162	3682.84
986.461	3668.38
986.759	3652.79
987.057	3622.73
987.355	3622.28
987.653	3549.96
987.951	3590.64
988.249	3575.27
988.547	3548.16
988.844	3536.4
989.142	3496.18
989.44	3482.85
989.737	3486.91
990.035	3476.07
990.332	3471.55
990.63	3415.73
990.927	3386.13
991.224	3422.96
991.521	3385.45
991.819	3390.65
992.116	3365.11
992.413	3345.67
992.71	3343.64
993.006	3331.44
993.303	3346.58
993.6	3321.72
993.897	3262.97
994.193	3258.22
994.49	3216.41
994.787	3208.28
995.083	3177.54
995.379	3197.43
995.676	3195.17
995.972	3152.91
996.268	3154.27
996.565	3104.55
996.861	3087.15
997.157	3092.35
997.453	3050.99
997.749	3042.63
998.044	3023.88
998.34	2992.69
998.636	3013.93
998.932	2997.21
999.227	2989.98
999.523	2974.39
999.818	2950.66
1000.114	2926.93
1000.409	2925.12
1000.704	2911.56
1001	2905.01
1001.295	2882.41
1001.59	2840.6
1001.885	2855.29
1002.18	2813.71
1002.475	2807.61
1002.77	2772.81
1003.065	2791.79
1003.359	2766.93
1003.654	2745.92
1003.949	2765.58
1004.243	2733.94
1004.538	2715.86
1004.832	2697.1
1005.127	2687.84
1005.421	2626.6
1005.715	2605.81
1006.009	2625.47
1006.304	2626.15
1006.598	2554.51
1006.892	2579.59
1007.186	2561.29
1007.48	2547.73
1007.773	2538.24
1008.067	2512.25
1008.361	2446.26
1008.655	2477
1008.948	2478.8
1009.242	2545.47
1009.535	2460.05
1009.829	2425.02
1010.122	2432.48
1010.415	2439.03
1010.708	2385.25
1011.001	2341.63
1011.295	2380.05
1011.588	2355.42
1011.881	2319.04
1012.173	2333.72
1012.466	2298.47
1012.759	2272.71
1013.052	2279.26
1013.344	2263.44
1013.637	2265.25
1013.93	2228.87
1014.222	2222.31
1014.514	2195.65
1014.807	2217.79
1015.099	2176.67
1015.391	2146.16
1015.683	2152.71
1015.976	2124.69
1016.268	2125.82
1016.56	2091.92
1016.851	2091.7
1017.143	2093.73
1017.435	2055.77
1017.727	2013.51
1018.018	2049.44
1018.31	2017.8
1018.602	2027.07
1018.893	2015.09
1019.185	1993.62
1019.476	2006.27
1019.767	1941.19
1020.058	1940.29
1020.35	1953.39
1020.641	1914.3
1020.932	1916.56
1021.223	1902.32
1021.514	1885.83
1021.804	1892.38
1022.095	1887.63
1022.386	1853.28
1022.677	1848.76
1022.967	1801.99
1023.258	1808.54
1023.548	1775.09
1023.839	1796.79
1024.129	1812.61
1024.419	1799.95
1024.709	1752.04
1025	1742.1
1025.29	1706.4
1025.58	1703.91
1025.87	1717.24
1026.16	1686.28
1026.449	1638.6
1026.739	1633.18
1027.029	1642.89
1027.319	1655.1
1027.608	1617.36
1027.898	1651.26
1028.187	1628.88
1028.477	1598.15
1028.766	1592.05
1029.055	1582.33
1029.344	1582.78
1029.634	1552.73
1029.923	1573.07
1030.212	1551.6
1030.501	1527.42
1030.79	1506.18
1031.078	1508.89
1031.367	1479.96
1031.656	1499.4
1031.945	1487.42
1032.233	1484.48
1032.522	1437.7
1032.81	1457.59
1033.099	1455.55
1033.387	1434.76
1033.675	1415.56
1033.963	1409.45
1034.251	1393.86
1034.54	1378.27
1034.828	1377.14
1035.116	1363.35
1035.403	1361.09
1035.691	1353.86
1035.979	1340.3
1036.267	1340.53
1036.554	1336.69
1036.842	1310.47
1037.129	1304.15
1037.417	1320.19
1037.704	1278.84
1037.992	1294.2
1038.279	1261.89
1038.566	1272.51
1038.853	1272.51
1039.14	1272.51
