Data from 18-4525_FLMS001491_002.txt Node
Date: Thu Apr 19 16:42:38 BST 2018
User: hsy
Spectrometer: FLMS00149
Trigger mode: 0
Integration Time (sec): 1.000000E-2
Scans to average: 10
Electric dark correction enabled: true
Nonlinearity correction enabled: false
Boxcar width: 0
XAxis mode: Wavelengths
Number of Pixels in Spectrum: 2048
>>>>>Begin Spectral Data<<<<<
341.393	-20.95
341.776	-20.95
342.16	-20.95
342.543	-60.27
342.927	-64.56
343.31	-64.79
343.693	-82.19
344.077	-64.11
344.46	-71.11
344.843	-42.19
345.226	-44.22
345.61	-41.51
345.993	-4.22
346.376	-13.71
346.759	17.02
347.142	22.44
347.525	49.79
347.908	61.09
348.291	77.36
348.674	98.15
349.057	102.21
349.44	118.26
349.823	133.4
350.206	183.12
350.588	221.99
350.971	253.4
351.354	267.86
351.737	277.13
352.119	278.48
352.502	282.32
352.884	307.18
353.267	330.01
353.65	325.26
354.032	323.68
354.414	337.01
354.797	335.43
355.179	374.3
355.562	361.87
355.944	349.44
356.326	356.22
356.709	386.5
357.091	384.47
357.473	393.51
357.855	361.64
358.238	363.22
358.62	389.89
359.002	360.29
359.384	374.75
359.766	379.72
360.148	387.63
360.53	369.33
360.912	384.02
361.294	348.99
361.676	371.36
362.057	355.54
362.439	378.82
362.821	358.93
363.203	380.63
363.584	365.03
363.966	367.74
364.348	351.93
364.729	374.52
365.111	393.28
365.493	353.96
365.874	365.71
366.256	347.41
366.637	355.09
367.019	353.28
367.4	347.86
367.781	329.1
368.163	348.54
368.544	361.19
368.925	357.35
369.306	345.37
369.688	356.67
370.069	374.3
370.45	360.06
370.831	367.74
371.212	383.79
371.593	342.66
371.974	377.91
372.355	359.38
372.736	370.68
373.117	380.4
373.498	379.72
373.879	381.53
374.26	358.93
374.641	358.48
375.021	376.56
375.402	372.49
375.783	373.62
376.163	393.73
376.544	403.22
376.925	386.5
377.305	397.8
377.686	406.16
378.066	400.29
378.447	406.84
378.827	373.39
379.208	414.97
379.588	400.29
379.968	413.17
380.349	392.83
380.729	403.45
381.109	422.88
381.489	394.64
381.87	401.19
382.25	419.72
382.63	415.88
383.01	416.1
383.39	429.66
383.77	420.17
384.15	433.96
384.53	436.44
384.91	448.65
385.29	432.6
385.67	441.87
386.049	451.13
386.429	447.06
386.809	443.22
387.189	452.49
387.568	455.2
387.948	477.35
388.328	468.08
388.707	483.9
389.087	479.83
389.466	464.69
389.846	475.31
390.225	482.09
390.605	479.83
390.984	491.58
391.363	490.23
391.743	506.05
392.122	494.52
392.501	508.98
392.881	514.63
393.26	520.51
393.639	524.12
394.018	522.77
394.397	529.77
394.776	520.96
395.155	545.82
395.534	526.38
395.913	537.68
396.292	525.71
396.671	532.94
397.05	555.99
397.429	557.34
397.808	554.18
398.186	556.67
398.565	558.93
398.944	576.33
399.323	575.2
399.701	584.24
400.08	587.85
400.458	607.06
400.837	613.39
401.215	595.54
401.594	623.33
401.972	594.86
402.351	615.87
402.729	618.81
403.107	638.02
403.486	637.57
403.864	613.39
404.242	641.18
404.62	679.83
404.999	647.29
405.377	667.62
405.755	649.77
406.133	681.86
406.511	660.39
406.889	670.79
407.267	684.57
407.645	712.14
408.023	724.35
408.401	742.2
408.779	729.54
409.156	756.66
409.534	775.42
409.912	787.17
410.29	780.39
410.667	788.98
411.045	798.47
411.422	828.52
411.8	821.52
412.178	836.88
412.555	865.81
412.933	901.74
413.31	876.66
413.687	893.61
414.065	904.45
414.442	931.57
414.819	939.03
415.197	926.6
415.574	940.84
415.951	948.29
416.328	960.95
416.705	976.32
417.082	971.8
417.46	1016.99
417.837	979.03
418.214	986.71
418.591	1019.7
418.967	1021.29
419.344	1004.56
419.721	1024.68
420.098	1022.64
420.475	1041.63
420.852	1064.45
421.228	1080.72
421.605	1086.37
421.982	1103.77
422.358	1116.65
422.735	1156.65
423.111	1135.41
423.488	1169.53
423.864	1189.19
424.241	1163.88
424.617	1174.5
424.994	1205.01
425.37	1234.16
425.746	1236.87
426.123	1249.98
426.499	1237.33
426.875	1263.54
427.251	1317.55
427.627	1331.11
428.003	1340.83
428.379	1328.17
428.756	1348.96
429.132	1367.94
429.507	1386.7
429.883	1408.62
430.259	1429.86
430.635	1433.25
431.011	1448.17
431.387	1484.55
431.763	1521.16
432.138	1535.17
432.514	1529.3
432.89	1543.76
433.265	1601.16
433.641	1592.8
434.016	1628.73
434.392	1678.22
434.767	1700.14
435.143	1695.17
435.518	1712.57
435.894	1757.31
436.269	1768.39
436.644	1791.66
437.02	1812.9
437.395	1821.72
437.77	1836.41
438.145	1872.34
438.52	1899.46
438.895	1933.35
439.271	1932.68
439.646	1948.72
440.021	1996.85
440.395	2017.64
440.77	1951.43
441.145	2009.28
441.52	2043.63
441.895	2052.9
442.27	2078.43
442.645	2057.87
443.019	2099
443.394	2147.58
443.769	2148.94
444.143	2142.84
444.518	2196.4
444.892	2181.03
445.267	2201.82
445.641	2235.27
446.016	2229.84
446.39	2231.42
446.764	2255.6
447.139	2262.16
447.513	2272.55
447.887	2265.1
448.262	2300.58
448.636	2363.17
449.01	2392.55
449.384	2401.36
449.758	2408.14
450.132	2438.42
450.506	2424.64
450.88	2493.11
451.254	2429.16
451.628	2494.69
452.002	2524.75
452.376	2578.31
452.75	2618.98
453.123	2615.82
453.497	2651.75
453.871	2654.69
454.244	2738.76
454.618	2770.62
454.992	2825.08
455.365	2764.74
455.739	2849.94
456.112	2907.34
456.486	2936.72
456.859	2980.78
457.232	3024.85
457.606	3063.72
457.979	3105.07
458.352	3154.34
458.725	3159.76
459.099	3208.35
459.472	3193.21
459.845	3301
460.218	3316.37
460.591	3347.1
460.964	3368.34
461.337	3419.19
461.71	3526.76
462.083	3529.7
462.456	3587.09
462.829	3546.87
463.201	3651.73
463.574	3626.64
463.947	3750.93
464.32	3795
464.692	3813.3
465.065	3821.44
465.438	3890.82
465.81	3911.61
466.183	3928.78
466.555	4080.87
466.928	4093.97
467.3	4060.08
467.672	4126.74
468.045	4258.49
468.417	4243.35
468.789	4254.42
469.161	4352.72
469.534	4453.29
469.906	4507.07
470.278	4529.9
470.65	4529.67
471.022	4667.52
471.394	4712.04
471.766	4722.21
472.138	4831.58
472.51	4928.08
472.882	5040.16
473.253	5006.27
473.625	5075.87
473.997	5232.48
474.369	5234.74
474.74	5304.34
475.112	5394.28
475.484	5466.59
475.855	5588.17
476.227	5564.9
476.598	5754.95
476.97	5843.53
477.341	5917.66
477.713	6056.41
478.084	6063.41
478.455	6185.9
478.827	6271.32
479.198	6492.78
479.569	6504.08
479.94	6677.64
480.311	6765.32
480.682	6883.73
481.053	7030.39
481.424	7130.73
481.795	7272.42
482.166	7338.63
482.537	7429.48
482.908	7529.36
483.279	7719.42
483.65	7867.21
484.021	8028.56
484.391	8111.95
484.762	8236.01
485.133	8272.62
485.503	8426.97
485.874	8628.32
486.244	8721.2
486.615	8923.68
486.985	9008.2
487.356	9176.1
487.726	9303.1
488.097	9552.14
488.467	9556.2
488.837	9748.74
489.207	9899.02
489.578	10098.79
489.948	10210.2
490.318	10333.13
490.688	10471.43
491.058	10661.49
491.428	10778.54
491.798	10944.87
492.168	11139.66
492.538	11321.35
492.908	11372.2
493.278	11490.62
493.648	11646.54
494.017	11783.04
494.387	11957.27
494.757	12099.41
495.126	12226.19
495.496	12315.23
495.866	12477.03
496.235	12568.33
496.605	12792.28
496.974	12873.18
497.344	12983.68
497.713	13117.01
498.082	13174.19
498.452	13381.41
498.821	13525.14
499.19	13570.34
499.559	13737.56
499.928	13930.1
500.298	13960.16
500.667	14095.29
501.036	14040.38
501.405	14305.23
501.774	14376.19
502.143	14521.95
502.512	14597.2
502.88	14803.07
503.249	14699.8
503.618	14896.18
503.987	15009.39
504.356	15152.44
504.724	15262.49
505.093	15386.33
505.462	15410.96
505.83	15505.65
506.199	15741.35
506.567	15863.83
506.936	15918.97
507.304	16060.21
507.672	16151.28
508.041	16285.07
508.409	16309.25
508.777	16373.88
509.145	16693.64
509.514	16584.04
509.882	16702
510.25	16783.36
510.618	16939.06
510.986	16910.36
511.354	17200.52
511.722	17306.28
512.09	17464.47
512.458	17373.17
512.826	17619.49
513.193	17550.57
513.561	17613.39
513.929	17777.91
514.297	17879.83
514.664	17963.21
515.032	18094.96
515.4	18198.01
515.767	18309.42
516.135	18369.08
516.502	18212.7
516.869	18634.16
517.237	18643.42
517.604	18564.78
517.972	18820.59
518.339	18864.66
518.706	18891.78
519.073	19066.91
519.44	19169.06
519.808	19370.86
520.175	19317.75
520.542	19509.84
520.909	19631.42
521.276	19576.96
521.643	19777.18
522.009	19878.87
522.376	20053.33
522.743	20000.22
523.11	20202.48
523.477	20432.3
523.843	20368.12
524.21	20633.2
524.577	20671.17
524.943	20829.81
525.31	20871.61
525.676	21124.71
526.043	21164.71
526.409	21156.12
526.776	21319.28
527.142	21381.88
527.508	21505.49
527.874	21565.38
528.241	21630.46
528.607	21717.24
528.973	21915.43
529.339	21941.19
529.705	22052.37
530.071	22212.82
530.437	22112.71
530.803	22374.17
531.169	22458.01
531.535	22399.03
531.901	22390.67
532.267	22495.52
532.632	22644.9
532.998	22634.05
533.364	22722.19
533.73	22656.65
534.095	22933.93
534.461	22712.24
534.826	22846.48
535.192	22869.98
535.557	22998.11
535.923	22991.56
536.288	23018.9
536.653	23188.16
537.019	22991.56
537.384	23003.76
537.749	23072.46
538.114	23062.74
538.479	23005.12
538.845	23090.31
539.21	22979.35
539.575	23063.42
539.94	23131.21
540.305	23137.77
540.67	23041.95
541.034	23066.58
541.399	23086.47
541.764	23068.16
542.129	23153.81
542.494	23067.71
542.858	23091.21
543.223	22994.27
543.587	23103.64
543.952	23060.03
544.316	23009.64
544.681	22818
545.045	22928.96
545.41	23048.5
545.774	22813.71
546.138	22832.92
546.503	22895.97
546.867	22821.62
547.231	23000.14
547.595	22812.8
547.959	22845.12
548.324	22821.17
548.688	22824.78
549.052	22944.33
549.416	22828.85
549.779	22733.26
550.143	22712.92
550.507	22803.09
550.871	22691.23
551.235	22628.85
551.599	22822.97
551.962	22784.78
552.326	22772.58
552.689	22806.02
553.053	22662.3
553.417	22676.31
553.78	22884.89
554.143	22654.84
554.507	22648.06
554.87	22788.17
555.234	22869.75
555.597	22682.64
555.96	22699.81
556.323	22660.49
556.686	22695.97
557.05	22748.85
557.413	22821.39
557.776	22711.79
558.139	22824.56
558.502	22732.35
558.865	22791.56
559.228	22878.34
559.59	22960.6
559.953	22924.44
560.316	23042.4
560.679	23007.83
561.041	22954.27
561.404	22992.69
561.767	23189.07
562.129	23080.59
562.492	23258.22
562.854	23205.11
563.217	23182.29
563.579	23413.24
563.941	23402.39
564.304	23487.14
564.666	23580.92
565.028	23579.11
565.39	23614.59
565.753	23721.25
566.115	23694.36
566.477	23803.96
566.839	23750.86
567.201	24081.02
567.563	24005.99
567.925	24109.95
568.287	24193.11
568.648	24208.25
569.01	24404.63
569.372	24433.55
569.734	24387.45
570.095	24553.1
570.457	24709.48
570.819	24693.21
571.18	24621.12
571.542	24819.98
571.903	24817.95
572.265	24973.43
572.626	25073.99
572.987	25051.84
573.349	25148.11
573.71	25240.54
574.071	25281.44
574.432	25355.11
574.794	25558.72
575.155	25550.59
575.516	25603.24
575.877	25576.35
576.238	25587.42
576.599	25790.13
576.96	25826.51
577.32	25855.89
577.681	25804.59
578.042	25838.04
578.403	26026.96
578.763	26078.93
579.124	26041.42
579.485	26168.87
579.845	26231.92
580.206	26075.32
580.566	26194.41
580.927	26191.02
581.287	26426.49
581.648	26230.79
582.008	26307.85
582.368	26294.75
582.728	26306.5
583.089	26243.45
583.449	26310.11
583.809	26334.97
584.169	26344.24
584.529	26324.35
584.889	26353.73
585.249	26295.65
585.609	26068.31
585.969	26444.57
586.329	26307.63
586.688	26404.12
587.048	26198.93
587.408	26318.7
587.768	26184.69
588.127	26208.87
588.487	26176.11
588.846	26364.12
589.206	26110.8
589.565	26059.5
589.925	26364.12
590.284	26200.51
590.643	26098.82
591.003	26250.23
591.362	26337.23
591.721	26163.22
592.08	26099.95
592.44	26364.12
592.799	26197.35
593.158	26142.66
593.517	26133.62
593.876	26099.5
594.235	26089.33
594.593	26094.53
594.952	26028.76
595.311	26057.69
595.67	26067.18
596.029	26184.47
596.387	26188.76
596.746	26193.96
597.104	25902.44
597.463	26021.31
597.822	26141.98
598.18	26056.33
598.538	26089.1
598.897	26186.27
599.255	25967.3
599.613	26283.67
599.972	26030.57
600.33	26153.06
600.688	26015.21
601.046	26137.69
601.404	26256.33
601.762	26188.76
602.12	26260.4
602.478	26167.52
602.836	26250.68
603.194	26105.82
603.552	26129.55
603.91	26051.81
604.268	26297.01
604.625	26137.69
604.983	26202.55
605.341	26048.65
605.698	26288.87
606.056	26340.62
606.413	26286.61
606.771	26413.61
607.128	26367.96
607.485	26327.97
607.843	26299.49
608.2	26353.05
608.557	26447.51
608.914	26424.01
609.272	26407.51
609.629	26521.18
609.986	26708.07
610.343	26679.6
610.7	26711.01
611.057	26725.92
611.414	26476.44
611.771	26659.03
612.127	26895.86
612.484	26806.82
612.841	26901.06
613.198	26859.93
613.554	26729.31
613.911	26941.74
614.267	26974.73
614.624	26883.66
614.98	27036.65
615.337	27099.92
615.693	27112.58
616.05	27094.27
616.406	27292.91
616.762	27188.51
617.118	27103.99
617.475	27043.65
617.831	27356.19
618.187	27330.65
618.543	27346.92
618.899	27479.57
619.255	27498.56
619.611	27359.58
619.967	27637.54
620.323	27687.7
620.678	27505.34
621.034	27471.89
621.39	27526.13
621.746	27475.28
622.101	27774.03
622.457	27563.64
622.812	27694.48
623.168	27749.62
623.523	27742.62
623.879	27866.91
624.234	27709.4
624.589	27660.59
624.945	27654.94
625.3	27768.38
625.655	27734.26
626.01	27858.77
626.365	27756.85
626.72	27796.63
627.075	27673.47
627.43	27763.63
627.785	27720.02
628.14	27780.58
628.495	27722.73
628.85	27714.6
629.205	27733.58
629.559	27735.84
629.914	27676.18
630.269	27652.9
630.623	27471.66
630.978	27421.5
631.332	27736.97
631.687	27710.53
632.041	27454.49
632.396	27538.78
632.75	27554.37
633.104	27610.64
633.459	27396.19
633.813	27466.69
634.167	27441.61
634.521	27388.95
634.875	27446.81
635.229	27154.84
635.583	27184.44
635.937	27289.07
636.291	27177.66
636.645	27142.18
636.999	27098.34
637.352	27167.94
637.706	26983.09
638.06	27047.5
638.413	27022.64
638.767	26939.48
639.121	26961.85
639.474	26872.13
639.828	26807.73
640.181	26835.98
640.534	26791.68
640.888	26810.67
641.241	26724.79
641.594	26772.93
641.947	26783.77
642.301	26714.17
642.654	26872.36
643.007	26639.37
643.36	26862.19
643.713	26696.09
644.066	26873.49
644.419	26472.14
644.771	26390.11
645.124	25999.84
645.477	26148.76
645.83	26073.06
646.182	26030.12
646.535	26040.06
646.888	26176.11
647.24	26088.65
647.593	26173.39
647.945	26085.26
648.298	25985.6
648.65	25842.55
649.002	25655.22
649.355	25609.79
649.707	25538.38
650.059	25609.79
650.411	25970.24
650.763	26157.12
651.115	26637.11
651.467	26490.9
651.819	26398.25
652.171	26451.13
652.523	26433.5
652.875	26388.76
653.227	26328.42
653.578	26547.62
653.93	26432.14
654.282	26232.15
654.633	26261.75
654.985	26431.01
655.337	26395.53
655.688	26351.69
656.039	26517.57
656.391	26211.58
656.742	26347.85
657.094	26425.14
657.445	26483.22
657.796	26439.15
658.147	26400.73
658.498	26432.14
658.849	26560.5
659.2	26426.72
659.551	26382.65
659.902	26630.33
660.253	26471.46
660.604	26587.62
660.955	26460.39
661.306	26647.96
661.656	26396.44
662.007	26574.51
662.358	26639.37
662.708	26657.9
663.059	26525.02
663.409	26493.61
663.76	26676.88
664.11	26774.28
664.461	26773.15
664.811	26735.19
665.161	26731.8
665.511	26658.58
665.862	26697.45
666.212	26772.93
666.562	26803.43
666.912	26704.45
667.262	26731.12
667.612	26871.68
667.962	26800.04
668.312	26622.2
668.662	26829.42
669.011	26690.44
669.361	26747.62
669.711	26755.98
670.06	26709.65
670.41	26712.59
670.76	26751.46
671.109	26746.49
671.459	26779.25
671.808	26627.62
672.157	26671.01
672.507	26552.82
672.856	26437.57
673.205	26615.87
673.554	26607.73
673.904	26568.64
674.253	26727.05
674.602	26474.85
674.951	26150.34
675.3	26025.38
675.649	26538.58
675.998	26498.58
676.346	26531.35
676.695	26509.66
677.044	26327.06
677.393	26393.5
677.741	26371.81
678.09	26289.55
678.438	26263.56
678.787	26224.47
679.135	26274.63
679.484	26011.36
679.832	26166.84
680.181	26109.89
680.529	26139.5
680.877	25987.86
681.225	26001.65
681.573	26157.35
681.922	25963.91
682.27	25873.51
682.618	25861.09
682.966	25799.62
683.314	25753.74
683.661	25722.78
684.009	25723.69
684.357	25572.05
684.705	25554.65
685.053	25594.2
685.4	25455.45
685.748	25361.44
686.095	25345.84
686.443	25296.35
686.79	25176.58
687.138	25315.79
687.485	25201.22
687.832	25076.93
688.18	25080.54
688.527	24818.18
688.874	24791.28
689.221	24845.52
689.568	24654.11
689.915	24653.43
690.262	24565.3
690.609	24514.68
690.956	24438.98
691.303	24368.92
691.65	24260.9
691.997	24224.29
692.344	24144.75
692.69	23976.39
693.037	24035.37
693.383	23939.33
693.73	23821.37
694.077	23682.39
694.423	23566.68
694.769	23482.84
695.116	23414.14
695.462	23315.16
695.808	23290.76
696.155	23359.46
696.501	22984.55
696.847	23201.95
697.193	22879.7
697.539	22920.82
697.885	22721.06
698.231	22616.88
698.577	22579.36
698.923	22526.03
699.269	22496.65
699.614	22321.97
699.96	22095.08
700.306	22183.89
700.651	22052.6
700.997	22005.82
701.342	21865.03
701.688	21885.82
702.033	21684.02
702.379	21717.69
702.724	21617.58
703.069	21676.34
703.415	21424.37
703.76	21356.57
704.105	21441.31
704.45	21365.38
704.795	21138.5
705.14	21125.62
705.485	21135.11
705.83	20879.52
706.175	20984.38
706.52	20944.15
706.865	20732.41
707.209	20786.87
707.554	20731.28
707.899	20661.9
708.243	20543.49
708.588	20489.48
708.932	20479.08
709.277	20433.21
709.621	20274.11
709.966	20248.8
710.31	20312.3
710.654	20214.91
710.998	20264.62
711.342	20229.14
711.687	20025.08
712.031	20032.54
712.375	19970.17
712.719	20048.36
713.063	19884.75
713.407	20094.68
713.75	19977.4
714.094	19970.17
714.438	19796.16
714.782	19811.75
715.125	19790.06
715.469	19803.62
715.812	19619.44
716.156	19631.87
716.499	19647.92
716.843	19735.37
717.186	19613.57
717.53	19810.62
717.873	19720.68
718.216	19649.95
718.559	19537.86
718.902	19539.67
719.246	19641.81
719.589	19553.45
719.932	19555.49
720.275	19510.52
720.617	19518.43
720.96	19408.37
721.303	19520.69
721.646	19531.99
721.989	19385.32
722.331	19503.74
722.674	19388.04
723.016	19386.68
723.359	19279.56
723.701	19387.36
724.044	19339.68
724.386	19255.16
724.729	19317.98
725.071	19357.98
725.413	19344.65
725.755	19364.08
726.097	19375.38
726.439	19285.89
726.782	19371.54
727.124	19414.25
727.465	19353.01
727.807	19319.79
728.149	19415.61
728.491	19382.61
728.833	19421.93
729.175	19315.95
729.516	19262.16
729.858	19383.06
730.199	19504.19
730.541	19442.05
730.882	19456.51
731.224	19537.18
731.565	19432.55
731.906	19559.1
732.248	19578.31
732.589	19408.37
732.93	19494.02
733.271	19521.59
733.612	19566.56
733.953	19835.71
734.294	19626.67
734.635	19678.42
734.976	19713.9
735.317	19672.77
735.658	19833.9
735.999	19728.82
736.339	19767.46
736.68	19791.64
737.021	19886.55
737.361	19860.11
737.702	20117.06
738.042	19993.9
738.383	20069.15
738.723	20133.55
739.063	20151.18
739.404	20316.6
739.744	20368.12
740.084	20334.9
740.424	20460.32
740.764	20412.19
741.104	20614.9
741.444	20567.44
741.784	20714.1
742.124	20771.95
742.464	20785.96
742.804	20816.47
743.143	20891.5
743.483	21039.29
743.823	21075.22
744.162	21195.9
744.502	21386.4
744.841	21398.6
745.181	21659.84
745.52	21692.16
745.86	21832.72
746.199	22014.86
746.538	22044.01
746.877	22289.65
747.216	22395.64
747.556	22518.8
747.895	22645.58
748.234	22732.58
748.573	22974.38
748.911	23114.27
749.25	23318.55
749.589	23385.22
749.928	23684.42
750.267	23885.09
750.605	24023.39
750.944	24144.52
751.283	24462.25
751.621	24645.3
751.96	24742.7
752.298	24953.09
752.636	25276.24
752.975	25395.11
753.313	25563.24
753.651	25935.21
753.989	26008.43
754.327	26161.42
754.666	26459.04
755.004	26755.07
755.342	27070.09
755.679	27198
756.017	27247.49
756.355	27559.35
756.693	27829.4
757.031	28134.25
757.368	28214.92
757.706	28485.2
758.044	28635.93
758.381	28976.26
758.719	29049.02
759.056	29403.82
759.394	29528.79
759.731	29729.23
760.068	29949.34
760.405	30238.37
760.743	30331.7
761.08	30531.92
761.417	30668.42
761.754	30989.99
762.091	31141.17
762.428	31217.55
762.765	31380.04
763.102	31749.97
763.438	31649.86
763.775	31951.77
764.112	31964.2
764.449	32140.02
764.785	32347.69
765.122	32419.78
765.458	32669.27
765.795	32649.61
766.131	32940.67
766.467	32976.15
766.804	32981.35
767.14	33061.57
767.476	33219.76
767.812	33292.08
768.148	33457.5
768.485	33582.69
768.821	33610.03
769.157	33557.61
769.492	33712.86
769.828	33850.25
770.164	33711.05
770.5	33730.94
770.836	33883.93
771.171	33937.03
771.507	33981.78
771.842	33758.73
772.178	34034.66
772.513	33932.96
772.849	34061.77
773.184	34050.47
773.519	34126.18
773.855	33874.66
774.19	34125.05
774.525	34088.67
774.86	33992.62
775.195	34110.36
775.53	33916.24
775.865	33860.65
776.2	33725.29
776.535	33666.53
776.87	33659.52
777.205	33702.69
777.539	33735.68
777.874	33776.13
778.209	33398.97
778.543	33574.1
778.878	33534.33
779.212	33434.45
779.547	33320.1
779.881	33292.98
780.215	33077.17
780.55	33307.44
780.884	33013.44
781.218	32995.14
781.552	33085.08
781.886	33001.46
782.22	32872.2
782.554	32926.66
782.888	32640.12
783.222	32752.43
783.556	32509.72
783.889	32315.15
784.223	32204.65
784.557	32318.99
784.89	32345.21
785.224	32138.21
785.557	32039.68
785.891	32029.06
786.224	31960.13
786.558	31949.06
786.891	31832.23
787.224	31503.65
787.557	31549.52
787.891	31627.94
788.224	31473.14
788.557	31492.12
788.89	31369.42
789.223	31346.59
789.556	31174.17
789.888	31084.9
790.221	30927.62
790.554	30799.94
790.887	30858.47
791.219	30840.62
791.552	30695.08
791.884	30650.34
792.217	30671.35
792.549	30542.77
792.882	30234.98
793.214	30153.4
793.546	30267.52
793.879	30187.3
794.211	29930.13
794.543	29989.11
794.875	29958.38
795.207	29816.01
795.539	29750.25
795.871	29872.05
796.203	29670.02
796.535	29427.32
796.867	29479.07
797.198	29288.79
797.53	29430.03
797.862	29091.06
798.193	29215.35
798.525	29056.48
798.856	29105.52
799.188	28704.85
799.519	28787.56
799.85	28574.01
800.182	28724.06
800.513	28730.84
800.844	28346.22
801.175	28583.73
801.506	28559.55
801.837	28397.74
802.168	28301.25
802.499	28318.42
802.83	28148.93
803.161	27954.82
803.491	27974.7
803.822	28098.31
804.153	27869.62
804.483	27668.5
804.814	27645.22
805.145	27692
805.475	27764.31
805.805	27668.5
806.136	27604.09
806.466	27399.58
806.796	27389.41
807.126	27333.82
807.457	27303.31
807.787	27262.63
808.117	27167.49
808.447	27074.61
808.777	27133.14
809.107	26955.52
809.436	26926.59
809.766	26840.95
810.096	26840.04
810.426	26634.85
810.755	26739.25
811.085	26687.5
811.414	26783.55
811.744	26480.73
812.073	26490.22
812.403	26397.34
812.732	26303.79
813.061	26525.47
813.39	26312.15
813.719	26159.61
814.049	26353.28
814.378	26302.43
814.707	26107.18
815.036	26129.1
815.365	26013.62
815.693	25866.28
816.022	25869.67
816.351	25814.76
816.68	25693.41
817.008	25839.39
817.337	25466.07
817.665	25560.53
817.994	25674.2
818.322	25779.28
818.651	25560.75
818.979	25484.37
819.307	25512.62
819.636	25494.54
819.964	25354.43
820.292	25518.27
820.62	25355.34
820.948	25414.32
821.276	25596.46
821.604	25457.03
821.932	25519.63
822.259	25465.84
822.587	25349.69
822.915	25257.49
823.243	25407.99
823.57	25271.95
823.898	25486.41
824.225	25411.15
824.553	25256.36
824.88	25423.36
825.207	25505.84
825.535	25325.28
825.862	25491.38
826.189	25360.08
826.516	25469.91
826.843	25482.79
827.17	25642.79
827.497	25560.98
827.824	25557.14
828.151	25718.26
828.478	25530.02
828.805	25679.17
829.131	25570.25
829.458	25786.74
829.785	25396.01
830.111	25484.82
830.438	25622.22
830.764	25634.42
831.09	25655.89
831.417	25424.71
831.743	25680.75
832.069	25551.04
832.395	25495.9
832.722	25541.55
833.048	25519.4
833.374	25601.66
833.7	25468.55
834.026	25549
834.351	25476.91
834.677	25477.37
835.003	25419.52
835.329	25460.87
835.654	25473.3
835.98	25270.14
836.306	25422.23
836.631	25261.1
836.956	25363.02
837.282	25527.76
837.607	25251.16
837.932	25272.63
838.258	25255.45
838.583	25150.82
838.908	25130.71
839.233	25191.05
839.558	24997.83
839.883	24983.14
840.208	24972.75
840.533	24899.08
840.858	24972.07
841.182	25093.65
841.507	24871.51
841.832	24664.73
842.156	24810.72
842.481	24806.65
842.805	24612.98
843.13	24604.62
843.454	24498.41
843.778	24541.35
844.103	24541.8
844.427	24416.15
844.751	24429.94
845.075	24278.98
845.399	24334.35
845.723	24193.56
846.047	24255.48
846.371	24082.15
846.695	24045.09
847.019	24075.82
847.343	23748.82
847.666	23747.24
847.99	23631.54
848.313	23514.48
848.637	23549.96
848.96	23337.99
849.284	23387.25
849.607	23250.98
849.931	23110.42
850.254	22967.83
850.577	22921.73
850.9	22722.64
851.223	22827.27
851.546	22596.76
851.869	22546.37
852.192	22620.94
852.515	22283.1
852.838	22348.64
853.161	22213.5
853.483	22258.69
853.806	22144.57
854.129	22137.34
854.451	22214.18
854.774	21865.94
855.096	21854.64
855.419	21726.05
855.741	21785.26
856.063	21676.34
856.385	21517.7
856.708	21432.73
857.03	21536.68
857.352	21441.09
857.674	21475.21
857.996	21262.56
858.318	21258.04
858.64	21145.05
858.961	21187.08
859.283	21058.5
859.605	20899.18
859.926	20983.93
860.248	20897.6
860.57	20884.27
860.891	20789.58
861.212	20775.57
861.534	20697.38
861.855	20593.43
862.176	20635.91
862.498	20545.29
862.819	20573.09
863.14	20408.57
863.461	20454.9
863.782	20343.26
864.103	20392.53
864.424	20363.38
864.745	20346.88
865.065	20169.48
865.386	20181.91
865.707	20159.54
866.027	20141.69
866.348	20097.17
866.668	20121.8
866.989	20048.81
867.309	19844.29
867.63	19911.64
867.95	20058.53
868.27	19753.45
868.59	19882.03
868.91	19848.81
869.23	19797.74
869.55	19680.01
869.87	19749.83
870.19	19668.48
870.51	19682.49
870.83	19644.3
871.15	19517.3
871.469	19508.26
871.789	19607.01
872.109	19574.7
872.428	19515.04
872.748	19530.86
873.067	19470.29
873.386	19356.85
873.706	19528.6
874.025	19325.66
874.344	19229.85
874.663	19285.21
874.982	19231.66
875.301	19122.51
875.62	19067.14
875.939	19046.12
876.258	19162.28
876.577	19057.42
876.896	19118.44
877.214	19070.53
877.533	19025.11
877.852	18971.32
878.17	18940.59
878.489	18891.78
878.807	18941.04
879.125	18832.34
879.444	18813.36
879.762	18698.34
880.08	18862.63
880.398	18755.51
880.716	18652.91
881.034	18703.53
881.352	18592.35
881.67	18583.08
881.988	18586.93
882.306	18387.38
882.624	18466.93
882.941	18381.51
883.259	18273.26
883.577	18302.41
883.894	18258.35
884.212	18260.61
884.529	18228.29
884.846	18092.25
885.164	18034.4
885.481	18044.12
885.798	17990.33
886.115	17841.86
886.432	17984.68
886.75	17865.14
887.067	17864.23
887.383	17763.45
887.7	17749.21
888.017	17518.03
888.334	17645.03
888.651	17629.44
888.967	17540.17
889.284	17423.34
889.6	17421.76
889.917	17380.4
890.233	17319.39
890.55	17310.58
890.866	17262.44
891.182	17251.82
891.498	17229.22
891.815	17107.42
892.131	17039.17
892.447	16979.96
892.763	16949.68
893.079	16892.06
893.395	16808.22
893.71	16941.77
894.026	16759.4
894.342	16708.78
894.657	16624.27
894.973	16590.14
895.289	16572.06
895.604	16534.1
895.92	16461.78
896.235	16419.07
896.55	16437.15
896.865	16286.65
897.181	16195.58
897.496	16186.99
897.811	16165.75
898.126	16066.54
898.441	16026.54
898.756	16102.47
899.071	15881.69
899.386	16029.93
899.7	15859.31
900.015	15683.73
900.33	15668.13
900.644	15645.31
900.959	15601.47
901.273	15448.03
901.588	15462.26
901.902	15385.43
902.216	15330.74
902.531	15386.78
902.845	15212.55
903.159	15153.57
903.473	15091.2
903.787	15073.12
904.101	14972.33
904.415	15033.8
904.729	14918.55
905.042	14780.7
905.356	14817.53
905.67	14690.98
905.984	14719.46
906.297	14634.26
906.611	14497.54
906.924	14531.89
907.237	14461.61
907.551	14449.41
907.864	14306.81
908.177	14404.44
908.491	14222.3
908.804	14157.21
909.117	14096.88
909.43	14011.68
909.743	13988.86
910.056	14023.43
910.368	14065.46
910.681	13786.83
910.994	13765.81
911.307	13692.59
911.619	13595.87
911.932	13619.83
912.244	13470.45
912.557	13447.4
912.869	13354.75
913.181	13328.99
913.494	13317.46
913.806	13190.01
914.118	13203.11
914.43	13095.32
914.742	13138.93
915.054	13051.03
915.366	13002.67
915.678	12953.18
915.99	12916.79
916.302	12746.63
916.613	12765.38
916.925	12792.95
917.236	12733.52
917.548	12638.61
917.859	12591.6
918.171	12555.45
918.482	12462.12
918.794	12446.52
919.105	12318.84
919.416	12302.12
919.727	12278.62
920.038	12214.66
920.349	12090.6
920.66	12124.5
920.971	12104.61
921.282	12121.79
921.593	11917.27
921.903	11912.53
922.214	11783.49
922.525	11718.41
922.835	11731.51
923.146	11676.6
923.456	11696.03
923.767	11616.71
924.077	11630.73
924.387	11558.18
924.697	11501.24
925.008	11467.11
925.318	11450.62
925.628	11385.76
925.938	11262.6
926.248	11196.39
926.558	11159.55
926.867	11154.58
927.177	11002.95
927.487	10979.89
927.796	10914.13
928.106	10916.62
928.416	10870.75
928.725	10898.54
929.034	10765.89
929.344	10834.81
929.653	10779.9
929.962	10609.51
930.271	10628.49
930.581	10574.48
930.89	10531.32
931.199	10482.28
931.508	10477.54
931.817	10415.39
932.125	10339.46
932.434	10276.41
932.743	10247.94
933.051	10217.2
933.36	10195.51
933.669	10110.31
933.977	10058.34
934.286	10035.51
934.594	10008.17
934.902	9970.66
935.21	9900.38
935.519	9861.96
935.827	9842.98
936.135	9762.98
936.443	9703.77
936.751	9662.42
937.059	9706.03
937.367	9553.27
937.674	9575.19
937.982	9494.51
938.29	9451.12
938.597	9469.2
938.905	9343.33
939.213	9341.97
939.52	9332.25
939.827	9287.96
940.135	9263.33
940.442	9177.23
940.749	9163.67
941.056	9155.31
941.363	9085.71
941.67	9097.01
941.977	8996.22
942.284	8941.76
942.591	8919.16
942.898	8920.74
943.205	8873.74
943.511	8767.75
943.818	8848.43
944.125	8731.82
944.431	8668.09
944.738	8612.05
945.044	8585.38
945.35	8548.55
945.657	8525.04
945.963	8534.08
946.269	8478.72
946.575	8438.72
946.881	8331.83
947.187	8329.12
947.493	8266.75
947.799	8257.25
948.105	8265.62
948.41	8176.58
948.716	8151.95
949.022	8132.29
949.327	8135
949.633	7990.14
949.938	8009.8
950.244	8072.4
950.549	8014.55
950.854	7984.27
951.16	7865.63
951.465	7902.46
951.77	7774.1
952.075	7805.06
952.38	7755.35
952.685	7675.35
952.99	7640.1
953.294	7612.75
953.599	7599.42
953.904	7541.34
954.209	7505.86
954.513	7509.25
954.818	7522.13
955.122	7499.99
955.426	7433.32
955.731	7351.97
956.035	7375.02
956.339	7285.53
956.643	7287.34
956.948	7170.5
957.252	7182.93
957.556	7190.39
957.86	7137.51
958.163	7164.85
958.467	7130.5
958.771	7052.77
959.075	7035.37
959.378	7003.73
959.682	7015.25
959.985	6943.62
960.289	6883.73
960.592	6813.45
960.896	6877.18
961.199	6763.28
961.502	6801.7
961.805	6728.71
962.108	6695.71
962.411	6689.61
962.714	6631.31
963.017	6559.22
963.32	6655.49
963.623	6550.86
963.926	6503.63
964.228	6547.24
964.531	6428.6
964.833	6471.54
965.136	6365.1
965.438	6332.11
965.741	6330.75
966.043	6347.93
966.345	6264.99
966.648	6293.01
966.95	6263.86
967.252	6167.14
967.554	6184.99
967.856	6133.69
968.158	6091.89
968.46	6069.97
968.761	6069.06
969.063	6041.72
969.365	6029.29
969.666	5935.06
969.968	5920.82
970.269	5904.32
970.571	5903.42
970.872	5893.25
971.174	5860.26
971.475	5835.62
971.776	5799.47
972.077	5759.92
972.378	5780.26
972.679	5771.9
972.98	5696.19
973.281	5634.27
973.582	5618.68
973.883	5622.07
974.183	5638.11
974.484	5555.86
974.785	5529.42
975.085	5523.99
975.386	5524.22
975.686	5445.13
975.986	5403.54
976.287	5416.43
976.587	5423.2
976.887	5379.82
977.187	5392.7
977.487	5346.6
977.787	5302.98
978.087	5281.06
978.387	5263.66
978.687	5245.36
978.987	5212.14
979.286	5197
979.586	5201.06
979.885	5114.74
980.185	5119.71
980.484	5052.37
980.784	5036.32
981.083	5079.94
981.382	4980.5
981.682	5033.61
981.981	4934.4
982.28	4918.36
982.579	4900.28
982.878	4907.96
983.177	4870.45
983.475	4865.03
983.774	4846.5
984.073	4790
984.372	4778.02
984.67	4772.15
984.969	4740.28
985.267	4713.17
985.566	4685.15
985.864	4648.99
986.162	4641.98
986.461	4616.9
986.759	4621.64
987.057	4541.19
987.355	4532.38
987.653	4545.26
987.951	4457.13
988.249	4503.68
988.547	4423.23
988.844	4454.64
989.142	4427.3
989.44	4393.63
989.737	4410.12
990.035	4409.67
990.332	4341.43
990.63	4294.87
990.927	4298.71
991.224	4274.76
991.521	4277.25
991.819	4291.03
992.116	4211.94
992.413	4212.16
992.71	4203.35
993.006	4171.03
993.303	4163.12
993.6	4146.18
993.897	4080.19
994.193	4068.89
994.49	4042.22
994.787	4037.93
995.083	4023.69
995.379	4010.36
995.676	3976.69
995.972	3942.57
996.268	3925.84
996.565	3930.14
996.861	3896.01
997.157	3879.06
997.453	3857.14
997.749	3840.42
998.044	3807.2
998.34	3798.61
998.636	3779.18
998.932	3761.1
999.227	3718.62
999.523	3675
999.818	3686.75
1000.114	3643.36
1000.409	3663.48
1000.704	3585.97
1001	3618.73
1001.295	3545.29
1001.59	3542.35
1001.885	3524.95
1002.18	3535.8
1002.475	3502.35
1002.77	3509.81
1003.065	3493.54
1003.359	3469.13
1003.654	3431.39
1003.949	3396.59
1004.243	3364.73
1004.538	3355.69
1004.832	3329.25
1005.127	3340.1
1005.421	3299.64
1005.715	3307.78
1006.009	3294.9
1006.304	3235.69
1006.598	3186.43
1006.892	3197.73
1007.186	3175.35
1007.48	3164.28
1007.773	3138.52
1008.067	3091.51
1008.361	3090.61
1008.655	3070.05
1008.948	3058.07
1009.242	3053.1
1009.535	3047.67
1009.829	2997.96
1010.122	2996.6
1010.415	3044.96
1010.708	2931.29
1011.001	2905.3
1011.295	2922.71
1011.588	2881.35
1011.881	2849.04
1012.173	2911.18
1012.466	2843.16
1012.759	2838.87
1013.052	2802.26
1013.344	2854.46
1013.637	2811.3
1013.93	2774.46
1014.222	2776.27
1014.514	2753.44
1014.807	2740.56
1015.099	2686.55
1015.391	2664.18
1015.683	2686.78
1015.976	2658.08
1016.268	2619.44
1016.56	2666.89
1016.851	2567.46
1017.143	2568.59
1017.435	2564.3
1017.727	2545.54
1018.018	2513.9
1018.31	2515.71
1018.602	2519.33
1018.893	2466.45
1019.185	2429.39
1019.476	2449.95
1019.767	2427.8
1020.058	2418.31
1020.35	2389.16
1020.641	2348.71
1020.932	2336.05
1021.223	2340.57
1021.514	2300.12
1021.804	2293.8
1022.095	2309.84
1022.386	2270.52
1022.677	2254.7
1022.967	2244.76
1023.258	2222.84
1023.548	2214.25
1023.839	2199.56
1024.129	2162.27
1024.419	2155.27
1024.709	2126.57
1025	2177.41
1025.29	2130.86
1025.58	2090.64
1025.87	2090.41
1026.16	2063.29
1026.449	2041.15
1026.739	2019.45
1027.029	2026.01
1027.319	2016.06
1027.608	1980.58
1027.898	1984.2
1028.187	2004.99
1028.477	1951.43
1028.766	1957.53
1029.055	1944.88
1029.344	1927.03
1029.634	1895.61
1029.923	1910.53
1030.212	1890.42
1030.501	1836.63
1030.79	1857.2
1031.078	1829.18
1031.367	1830.53
1031.656	1811.77
1031.945	1779.46
1032.233	1773.58
1032.522	1773.58
1032.81	1768.61
1033.099	1737.65
1033.387	1739.69
1033.675	1696.3
1033.963	1709.18
1034.251	1708.95
1034.54	1678.67
1034.828	1645.68
1035.116	1622.4
1035.403	1663.53
1035.691	1602.97
1035.979	1598.9
1036.267	1645.45
1036.554	1587.15
1036.842	1597.32
1037.129	1595.28
1037.417	1554.38
1037.704	1546.24
1037.992	1554.83
1038.279	1525.68
1038.566	1516.64
1038.853	1516.64
1039.14	1516.64
