Data from 18-4525_FLMS001491_007.txt Node
Date: Thu Apr 19 16:42:52 BST 2018
User: hsy
Spectrometer: FLMS00149
Trigger mode: 0
Integration Time (sec): 1.000000E-2
Scans to average: 10
Electric dark correction enabled: true
Nonlinearity correction enabled: false
Boxcar width: 0
XAxis mode: Wavelengths
Number of Pixels in Spectrum: 2048
>>>>>Begin Spectral Data<<<<<
341.393	1.12
341.776	1.12
342.16	1.12
342.543	-41.59
342.927	-61.71
343.31	-75.49
343.693	-78.43
344.077	-55.38
344.46	-69.62
344.843	-61.03
345.226	-44.76
345.61	-22.39
345.993	-32.78
346.376	-25.32
346.759	24.17
347.142	26.88
347.525	37.95
347.908	58.74
348.291	89.48
348.674	100.77
349.057	127.21
349.44	147.33
349.823	139.42
350.206	187.33
350.588	243.82
350.971	234.33
351.354	252.18
351.737	276.14
352.119	293.54
352.502	300.99
352.884	309.13
353.267	295.35
353.65	327.43
354.032	339.64
354.414	335.57
354.797	348.45
355.179	360.2
355.562	367.43
355.944	349.81
356.326	382.57
356.709	372.18
357.091	372.86
357.473	346.42
357.855	371.5
358.238	362.24
358.62	362.91
359.002	366.76
359.384	387.77
359.766	387.55
360.148	383.03
360.53	378.28
360.912	390.94
361.294	384.16
361.676	373.31
362.057	371.73
362.439	374.89
362.821	381.9
363.203	343.71
363.584	353.65
363.966	380.31
364.348	349.81
364.729	355
365.111	331.5
365.493	356.13
365.874	376.93
366.256	367.66
366.637	363.14
367.019	354.55
367.4	349.13
367.781	360.43
368.163	361.33
368.544	371.05
368.925	381.9
369.306	366.76
369.688	370.82
370.069	337.6
370.45	378.51
370.831	374.44
371.212	349.81
371.593	386.42
371.974	372.86
372.355	391.61
372.736	375.8
373.117	380.54
373.498	382.35
373.879	387.32
374.26	373.99
374.641	371.5
375.021	370.82
375.402	395.23
375.783	397.26
376.163	372.41
376.544	373.76
376.925	396.59
377.305	388
377.686	368.34
378.066	400.2
378.447	398.17
378.827	390.03
379.208	411.73
379.588	389.13
379.968	386.64
380.349	408.34
380.729	408.79
381.109	414.66
381.489	430.26
381.87	414.21
382.25	409.69
382.63	427.77
383.01	412.18
383.39	441.33
383.77	423.93
384.15	375.57
384.53	423.25
384.91	438.17
385.29	424.16
385.67	419.64
386.049	440.2
386.429	442.46
386.809	480.65
387.189	456.47
387.568	456.25
387.948	464.61
388.328	459.86
388.707	481.1
389.087	444.95
389.466	449.24
389.846	479.3
390.225	486.3
390.605	494.44
390.984	490.59
391.363	475.23
391.743	481.78
392.122	491.5
392.501	486.75
392.881	501.22
393.26	531.72
393.639	519.07
394.018	505.74
394.397	532.63
394.776	513.19
395.155	541.89
395.534	535.57
395.913	515.45
396.292	540.31
396.671	535.79
397.05	559.97
397.429	554.32
397.808	547.54
398.186	557.71
398.565	574.21
398.944	568.56
399.323	567.65
399.701	562
400.08	568.11
400.458	570.82
400.837	581.44
401.215	612.85
401.594	599.29
401.972	604.04
402.351	620.99
402.729	618.73
403.107	591.61
403.486	625.05
403.864	635.22
404.242	644.04
404.62	629.8
404.999	653.3
405.377	665.96
405.755	661.66
406.133	680.65
406.511	685.62
406.889	703.24
407.267	693.53
407.645	706.41
408.023	721.32
408.401	750.25
408.779	748.44
409.156	739.85
409.534	768.33
409.912	758.84
410.29	793.64
410.667	793.19
411.045	791.83
411.422	810.59
411.8	811.72
412.178	826.4
412.555	823.47
412.933	832.73
413.31	857.36
413.687	904.14
414.065	891.94
414.442	903.24
414.819	895.56
415.197	909.79
415.574	955.21
415.951	929.23
416.328	917.48
416.705	936.23
417.082	976.23
417.46	965.84
417.837	991.15
418.214	973.97
418.591	1031.82
418.967	994.31
419.344	1029.56
419.721	1027.53
420.098	1028.21
420.475	1055.55
420.852	1046.06
421.228	1060.07
421.605	1073.63
421.982	1112.95
422.358	1114.08
422.735	1084.03
423.111	1124.02
423.488	1155.89
423.864	1157.92
424.241	1173.97
424.617	1184.59
424.994	1206.73
425.37	1179.62
425.746	1207.19
426.123	1243.12
426.499	1249.22
426.875	1288.54
427.251	1268.65
427.627	1273.62
428.003	1326.73
428.379	1319.27
428.756	1339.39
429.132	1349.55
429.507	1361.53
429.883	1369.44
430.259	1437.69
430.635	1427.52
431.011	1430.46
431.387	1446.5
431.763	1464.13
432.138	1493.05
432.514	1504.81
432.89	1518.36
433.265	1557.46
433.641	1593.39
434.016	1603.11
434.392	1669.32
434.767	1692.6
435.143	1674.07
435.518	1696.89
435.894	1718.36
436.269	1745.7
436.644	1782.99
437.02	1790.9
437.395	1803.1
437.77	1822.08
438.145	1846.94
438.52	1842.65
438.895	1905.02
439.271	1874.29
439.646	1951.35
440.021	1957
440.395	1987.96
440.77	1940.27
441.145	1985.47
441.52	2010.1
441.895	2004.9
442.27	2045.36
442.645	2025.92
443.019	2079.71
443.394	2073.15
443.769	2102.53
444.143	2065.02
444.518	2133.94
444.892	2136.65
445.267	2148.86
445.641	2188.85
446.016	2178.69
446.39	2211.91
446.764	2211.68
447.139	2186.82
447.513	2239.7
447.887	2233.37
448.262	2281.96
448.636	2302.98
449.01	2318.79
449.384	2333.03
449.758	2375.52
450.132	2396.76
450.506	2414.61
450.88	2432.01
451.254	2437.66
451.628	2490.99
452.002	2504.55
452.376	2487.83
452.75	2572.35
453.123	2567.83
453.497	2607.15
453.871	2644.21
454.244	2677.43
454.618	2731.44
454.992	2746.81
455.365	2781.38
455.739	2821.83
456.112	2825.67
456.486	2839.01
456.859	2903.86
457.232	2976.18
457.606	2980.25
457.979	3013.01
458.352	3074.48
458.725	3124.65
459.099	3139.34
459.472	3159.9
459.845	3212.1
460.218	3233.12
460.591	3301.14
460.964	3321.48
461.337	3373
461.71	3421.82
462.083	3487.8
462.456	3507.01
462.829	3537.97
463.201	3582.72
463.574	3556.95
463.947	3624.3
464.32	3688.25
464.692	3721.24
465.065	3768.7
465.438	3810.06
465.81	3851.86
466.183	3886.66
466.555	3977.96
466.928	4012.31
467.3	3995.14
467.672	4076.71
468.045	4176.37
468.417	4188.12
468.789	4247.78
469.161	4231.29
469.534	4354
469.906	4387.67
470.278	4406.65
470.65	4506.76
471.022	4547.21
471.394	4661.11
471.766	4674.44
472.138	4742.01
472.51	4833.98
472.882	4847.54
473.253	4919.86
473.625	4983.58
473.997	5081.89
474.369	5101.77
474.74	5157.59
475.112	5351.26
475.484	5381.09
475.855	5478.49
476.227	5551.48
476.598	5649.1
476.97	5700.85
477.341	5848.65
477.713	5970
478.084	5945.82
478.455	6107.85
478.827	6184.68
479.198	6345.58
479.569	6324.34
479.94	6478.91
480.311	6620.83
480.682	6730.43
481.053	6860.82
481.424	7044.09
481.795	7092.23
482.166	7145.79
482.537	7313.01
482.908	7481.82
483.279	7537.41
483.65	7639.56
484.021	7851.53
484.391	7925.2
484.762	8016.05
485.133	8148.47
485.503	8265.31
485.874	8443.15
486.244	8564.28
486.615	8842.47
486.985	8895.12
487.356	9011.5
487.726	9107.54
488.097	9367.42
488.467	9413.98
488.837	9622.56
489.207	9765.15
489.578	9844.02
489.948	10010.34
490.318	10186.61
490.688	10239.26
491.058	10486.94
491.428	10580.72
491.798	10723.55
492.168	10949.3
492.538	11076.76
492.908	11248.96
493.278	11364.21
493.648	11454.83
494.017	11674.71
494.387	11729.39
494.757	11832.9
495.126	11985.66
495.496	12149.95
495.866	12304.52
496.235	12449.38
496.605	12541.35
496.974	12528.7
497.344	12797.39
497.713	12874
498.082	12993.99
498.452	13149.24
498.821	13226.53
499.19	13315.57
499.559	13401.22
499.928	13540.65
500.298	13749.68
500.667	13855.67
501.036	13943.35
501.405	14043.01
501.774	14127.3
502.143	14230.12
502.512	14230.12
502.88	14440.06
503.249	14507.63
503.618	14670.56
503.987	14770.9
504.356	14926.15
504.724	14980.38
505.093	15002.08
505.462	15115.97
505.83	15216.31
506.199	15215.18
506.567	15515.74
506.936	15538.11
507.304	15734.49
507.672	15833.47
508.041	15849.06
508.409	16045.89
508.777	16137.64
509.145	16172.22
509.514	16243.63
509.882	16390.06
510.25	16377.18
510.618	16575.82
510.986	16531.98
511.354	16654.46
511.722	16937.62
512.09	16933.33
512.458	16967.68
512.826	17138.74
513.193	17102.59
513.561	17209.02
513.929	17360.43
514.297	17489.92
514.664	17624.61
515.032	17718.84
515.4	17841.78
515.767	17798.39
516.135	17918.61
516.502	17779.86
516.869	18120.19
517.237	18227.76
517.604	18079.74
517.972	18439.5
518.339	18443.57
518.706	18522.44
519.073	18595.2
519.44	18598.59
519.808	18851.69
520.175	18885.82
520.542	19064.8
520.909	19094.63
521.276	19089.43
521.643	19381.62
522.009	19295.52
522.376	19419.14
522.743	19497.55
523.11	19704.78
523.477	19891.21
523.843	19897.09
524.21	20100.7
524.577	20265.67
524.943	20328.94
525.31	20409.39
525.676	20501.82
526.043	20589.95
526.409	20669.95
526.776	20838.99
527.142	20863.84
527.508	20910.62
527.874	21062.71
528.241	21091.41
528.607	21070.84
528.973	21432.42
529.339	21270.16
529.705	21541.57
530.071	21549.48
530.437	21786.76
530.803	21851.84
531.169	21829.69
531.535	21743.37
531.901	21859.3
532.267	21920.31
532.632	22099.52
532.998	22005.51
533.364	22147.2
533.73	22164.6
534.095	22328.21
534.461	22264.03
534.826	22251.15
535.192	22155.34
535.557	22419.06
535.923	22429.23
536.288	22443.46
536.653	22509.45
537.019	22414.76
537.384	22468.32
537.749	22464.25
538.114	22469
538.479	22389.45
538.845	22338.61
539.21	22324.37
539.575	22450.92
539.94	22439.85
540.305	22438.49
540.67	22427.42
541.034	22488.66
541.399	22393.97
541.764	22402.11
542.129	22327.99
542.494	22485.95
542.858	22353.97
543.223	22272.17
543.587	22414.76
543.952	22346.06
544.316	22355.33
544.681	22362.79
545.045	22391.71
545.41	22445.5
545.774	22182.91
546.138	22241.66
546.503	22295.22
546.867	22197.82
547.231	22187.43
547.595	22163.02
547.959	22160.31
548.324	22163.24
548.688	22227.2
549.052	22176.58
549.416	21975.68
549.779	22088.44
550.143	22109.01
550.507	22068.78
550.871	22159.18
551.235	21996.92
551.599	22163.7
551.962	22196.69
552.326	22106.52
552.689	22096.58
553.053	22007.54
553.417	21963.48
553.78	22151.27
554.143	22017.94
554.507	22104.49
554.87	22051.38
555.234	22211.38
555.597	21943.59
555.96	22011.16
556.323	21988.33
556.686	21971.39
557.05	22133.64
557.413	22145.39
557.776	22029.24
558.139	22150.59
558.502	22183.81
558.865	22053.42
559.228	22217.71
559.59	22240.76
559.953	22241.21
560.316	22345.84
560.679	22317.82
561.041	22410.47
561.404	22471.03
561.767	22525.95
562.129	22497.02
562.492	22553.07
562.854	22538.6
563.217	22459.51
563.579	22558.94
563.941	22638.03
564.304	22722.33
564.666	22802.32
565.028	22850.01
565.39	22901.3
565.753	22954.41
566.115	22922.55
566.477	22956.22
566.839	23128.64
567.201	23242.99
567.563	23260.39
567.925	23317.11
568.287	23376.77
568.648	23270.11
569.01	23452.25
569.372	23678.46
569.734	23537.67
570.095	23591.91
570.457	23835.97
570.819	23893.59
571.18	23729.53
571.542	23942.86
571.903	23938.79
572.265	24089.52
572.626	24061.05
572.987	24134.49
573.349	24180.14
573.71	24338.55
574.071	24373.36
574.432	24459.23
574.794	24582.16
575.155	24593.69
575.516	24517.31
575.877	24660.13
576.238	24621.26
576.599	24759.79
576.96	24793.91
577.32	24835.27
577.681	24937.18
578.042	24942.15
578.403	24910.74
578.763	24944.64
579.124	24976.28
579.485	25049.5
579.845	25157.74
580.206	25128.14
580.566	25054.92
580.927	25075.03
581.287	25206.78
581.648	25165.88
582.008	25299.43
582.368	25138.99
582.728	25239.55
583.089	25222.6
583.449	25217.63
583.809	25191.87
584.169	25311.41
584.529	25161.13
584.889	25502.14
585.249	25331.98
585.609	25204.52
585.969	25286.1
586.329	25215.59
586.688	25301.24
587.048	25045.43
587.408	25145.99
587.768	25124.52
588.127	25218.76
588.487	25174.01
588.846	25320
589.206	25027.12
589.565	25041.36
589.925	25232.09
590.284	25131.08
590.643	25103.96
591.003	25130.62
591.362	25185.31
591.721	25148.93
592.08	25070.74
592.44	25174.01
592.799	25089.72
593.158	25049.04
593.517	24920.01
593.876	25071.42
594.235	25058.08
594.593	25005.43
594.952	25023.73
595.311	24981.48
595.67	25110.29
596.029	25182.37
596.387	25150.51
596.746	25136.73
597.104	24978.31
597.463	24890.86
597.822	25195.48
598.18	25005.43
598.538	24988.93
598.897	25130.85
599.255	24906.9
599.613	25238.87
599.972	24943.28
600.33	25025.77
600.688	24904.19
601.046	24980.12
601.404	25134.24
601.762	25094.69
602.12	25178.08
602.478	25156.39
602.836	25129.04
603.194	24972.66
603.552	25186.67
603.91	25027.12
604.268	25153.22
604.625	25142.15
604.983	25206.33
605.341	25020.12
605.698	25170.4
606.056	25183.96
606.413	25194.35
606.771	25280.23
607.128	25230.06
607.485	25152.77
607.843	25334.01
608.2	25226.44
608.557	25275.03
608.914	25307.57
609.272	25400.9
609.629	25425.98
609.986	25458.3
610.343	25401.35
610.7	25588.92
611.057	25486.55
611.414	25494.91
611.771	25686.32
612.127	25665.07
612.484	25699.88
612.841	25783.04
613.198	25643.83
613.554	25702.13
613.911	25865.75
614.267	25833.2
614.624	25807.22
614.98	25817.16
615.337	26040.43
615.693	25953.65
616.05	26043.14
616.406	26021.67
616.762	26065.06
617.118	26062.13
617.475	26142.12
617.831	26255.34
618.187	26166.08
618.543	26233.19
618.899	26466.86
619.255	26392.51
619.611	26276.58
619.967	26411.95
620.323	26491.72
620.678	26394.32
621.034	26243.36
621.39	26317.49
621.746	26353.64
622.101	26647.42
622.457	26503.47
622.812	26616.01
623.168	26520.19
623.523	26593.18
623.879	26564.26
624.234	26438.84
624.589	26650.81
624.945	26538.5
625.3	26739.85
625.655	26756.34
626.01	26625.73
626.365	26649
626.72	26641.09
627.075	26643.35
627.43	26505.96
627.785	26664.82
628.14	26660.75
628.495	26640.87
628.85	26615.78
629.205	26536.46
629.559	26679.96
629.914	26397.03
630.269	26570.81
630.623	26418.95
630.978	26369.69
631.332	26546.41
631.687	26573.98
632.041	26552.51
632.396	26406.75
632.75	26445.84
633.104	26469.8
633.459	26261.22
633.813	26238.39
634.167	26279.97
634.521	26235.68
634.875	26295.79
635.229	26110.71
635.583	26081.79
635.937	26071.39
636.291	26113.42
636.645	25986.87
636.999	26114.55
637.352	26143.71
637.706	25885.86
638.06	26110.03
638.413	25962.47
638.767	25904.62
639.121	25976.25
639.474	25799.99
639.828	25768.57
640.181	25764.28
640.534	25745.52
640.888	25752.98
641.241	25444.74
641.594	25715.02
641.947	25796.37
642.301	25597.28
642.654	25835.69
643.007	25698.07
643.36	25683.15
643.713	25712.53
644.066	25798.63
644.419	25484.51
644.771	25302.15
645.124	25113.45
645.477	25158.87
645.83	24962.49
646.182	24999.1
646.535	25067.12
646.888	25159.1
647.24	24882.27
647.593	25069.16
647.945	24976.5
648.298	24966.79
648.65	24792.78
649.002	24737.41
649.355	24581.71
649.707	24454.94
650.059	24525.67
650.411	24916.39
650.763	24990.29
651.115	25415.36
651.467	25315.25
651.819	25347.34
652.171	25322.03
652.523	25268.02
652.875	25379.66
653.227	25236.61
653.578	25456.72
653.93	25302.37
654.282	25233.22
654.633	25170.85
654.985	25356.38
655.337	25288.13
655.688	25208.81
656.039	25490.84
656.391	25124.07
656.742	25258.08
657.094	25270.28
657.445	25459.43
657.796	25403.84
658.147	25323.84
658.498	25461.69
658.849	25430.05
659.2	25380.34
659.551	25384.18
659.902	25473.89
660.253	25405.65
660.604	25529.03
660.955	25450.62
661.306	25631.18
661.656	25448.81
662.007	25606.77
662.358	25605.41
662.708	25689.48
663.059	25542.59
663.409	25426.66
663.76	25627.56
664.11	25649.48
664.461	25703.26
664.811	25728.57
665.161	25707.78
665.511	25649.25
665.862	25659.65
666.212	25806.31
666.562	25726.32
666.912	25754.79
667.262	25587.79
667.612	25675.69
667.962	25625.53
668.312	25683.6
668.662	25836.82
669.011	25692.42
669.361	25816.93
669.711	25718.86
670.06	25703.72
670.41	25681.8
670.76	25590.27
671.109	25757.73
671.459	25682.47
671.808	25631.18
672.157	25765.18
672.507	25577.84
672.856	25556.38
673.205	25651.06
673.554	25644.74
673.904	25515.7
674.253	25665.53
674.602	25552.99
674.951	25269.15
675.3	25178.98
675.649	25497.17
675.998	25510.73
676.346	25541.24
676.695	25497.17
677.044	25317.74
677.393	25423.5
677.741	25408.58
678.09	25404.52
678.438	25368.58
678.787	25359.55
679.135	25385.31
679.484	25218.08
679.832	25196.84
680.181	25133.11
680.529	25132.66
680.877	24983.96
681.225	25031.19
681.573	25106.22
681.922	25043.85
682.27	24919.56
682.618	24983.96
682.966	24887.24
683.314	24883.63
683.661	24814.02
684.009	24659
684.357	24618.55
684.705	24548.94
685.053	24677.53
685.4	24477.99
685.748	24407.93
686.095	24368.38
686.443	24335.39
686.79	24218.78
687.138	24281.83
687.485	24195.06
687.832	24087.94
688.18	24078.45
688.527	23863.77
688.874	23897.44
689.221	24008.62
689.568	23736.54
689.915	23588.52
690.262	23685.01
690.609	23572.47
690.956	23521.4
691.303	23502.64
691.65	23210.68
691.997	23230.79
692.344	23092.03
692.69	22977.46
693.037	23007.29
693.383	22706.73
693.73	22864.02
694.077	22857.46
694.423	22703.8
694.769	22627.87
695.116	22571.82
695.462	22444.82
695.808	22413.41
696.155	22332.05
696.501	22123.92
696.847	22220.19
697.193	21903.82
697.539	22024.04
697.885	21895.46
698.231	21852.07
698.577	21728.45
698.923	21747.89
699.269	21563.03
699.614	21471.06
699.96	21252.08
700.306	21369.82
700.651	21344.74
700.997	21154.01
701.342	21154.23
701.688	21102.48
702.033	20982.71
702.379	20961.02
702.724	20780.46
703.069	20831.08
703.415	20565.09
703.76	20557.86
704.105	20519.67
704.45	20489.16
704.795	20338.21
705.14	20239.91
705.485	20266.8
705.83	20160.13
706.175	20243.07
706.52	20094.6
706.865	20004.66
707.209	19946.81
707.554	20004.43
707.899	19896.64
708.243	19820.71
708.588	19698
708.932	19643.76
709.277	19729.18
709.621	19600.83
709.966	19405.35
710.31	19436.99
710.654	19359.25
710.998	19373.94
711.342	19356.09
711.687	19329.2
712.031	19269.54
712.375	19186.37
712.719	19183.66
713.063	19157
713.407	19205.36
713.75	19059.82
714.094	19164.23
714.438	18985.7
714.782	19067.73
715.125	18897.34
715.469	19071.12
715.812	18951.8
716.156	18908.42
716.499	18929.88
716.843	19003.1
717.186	18779.15
717.53	19059.15
717.873	18956.1
718.216	18932.6
718.559	18804.69
718.902	18706.39
719.246	18799.72
719.589	18664.35
719.932	18616.22
720.275	18711.36
720.617	18750.23
720.96	18594.75
721.303	18707.74
721.646	18695.09
721.989	18548.2
722.331	18774.86
722.674	18659.61
723.016	18667.97
723.359	18573.73
723.701	18815.54
724.044	18614.86
724.386	18528.54
724.729	18682.88
725.071	18710
725.413	18584.36
725.755	18575.99
726.097	18550.01
726.439	18579.16
726.782	18595.66
727.124	18707.97
727.465	18666.84
727.807	18526.28
728.149	18658.03
728.491	18647.86
728.833	18696.44
729.175	18654.41
729.516	18657.57
729.858	18620.74
730.199	18726.5
730.541	18732.15
730.882	18643.11
731.224	18769.66
731.565	18712.04
731.906	18789.55
732.248	18761.75
732.589	18742.32
732.93	18825.03
733.271	18867.51
733.612	18828.42
733.953	18866.16
734.294	18889.66
734.635	18859.38
734.976	19032.71
735.317	19013.5
735.658	18975.98
735.999	18993.84
736.339	19213.27
736.68	19148.41
737.021	19148.18
737.361	19162.19
737.702	19346.6
738.042	19367.61
738.383	19429.31
738.723	19615.06
739.063	19349.76
739.404	19645.57
739.744	19533.71
740.084	19618.45
740.424	19706.36
740.764	19795.17
741.104	19875.85
741.444	19817.77
741.784	19980.93
742.124	20183.64
742.464	20188.61
742.804	20155.84
743.143	20235.39
743.483	20424.76
743.823	20471.76
744.162	20545.21
744.502	20668.14
744.841	20740.68
745.181	21001.69
745.52	20935.25
745.86	21136.15
746.199	21247.79
746.538	21368.24
746.877	21514.67
747.216	21645.97
747.556	21891.16
747.895	21927.77
748.234	21975.23
748.573	22280.76
748.911	22325.05
749.25	22613.63
749.589	22580.64
749.928	22889.55
750.267	23183.56
750.605	23290.9
750.944	23437.79
751.283	23621.06
751.621	24014.95
751.96	23916.42
752.298	24191.89
752.636	24485.22
752.975	24779
753.313	24793.01
753.651	25243.84
753.989	25256.72
754.327	25539.43
754.666	25679.76
755.004	25911.62
755.342	26184.16
755.679	26422.12
756.017	26613.98
756.355	26932.16
756.693	27169.67
757.031	27526.27
757.368	27549.54
757.706	27801.29
758.044	28012.13
758.381	28344.1
758.719	28515.39
759.056	28690.76
759.394	28877.87
759.731	28933.01
760.068	29269.5
760.405	29432.66
760.743	29598.76
761.08	29897.28
761.417	30036.26
761.754	30378.62
762.091	30390.37
762.428	30452.52
762.765	30649.35
763.102	30925.5
763.438	31033.29
763.775	31052.28
764.112	31379.5
764.449	31480.97
764.785	31576.1
765.122	31649.55
765.458	31760.51
765.795	31839.15
766.131	32128.86
766.467	32176.54
766.804	32165.02
767.14	32376.08
767.476	32501.05
767.812	32421.05
768.148	32719.58
768.485	32790.54
768.821	32678.22
769.157	32750.99
769.492	33021.49
769.828	32855.62
770.164	32927.48
770.5	33029.63
770.836	33093.8
771.171	33050.64
771.507	33034.37
771.842	32949.4
772.178	33099.68
772.513	33116.63
772.849	33046.12
773.184	33115.5
773.519	33223.75
773.855	33221.49
774.19	33145.33
774.525	33262.84
774.86	33128.61
775.195	33060.59
775.53	32976.75
775.865	32979.68
776.2	32837.99
776.535	32753.25
776.87	32838.44
777.205	32783.98
777.539	32774.94
777.874	32739.46
778.209	32715.06
778.543	32721.16
778.878	32576.08
779.212	32509.19
779.547	32384.45
779.881	32410.43
780.215	32295.63
780.55	32463.31
780.884	32200.72
781.218	32181.29
781.552	32315.52
781.886	32049.09
782.22	32061.74
782.554	31933.38
782.888	31611.81
783.222	31758.92
783.556	31580.85
783.889	31469.67
784.223	31343.12
784.557	31381.53
784.89	31547.63
785.224	31302.67
785.557	31217.92
785.891	31093.86
786.224	30974.76
786.558	31073.75
786.891	30848.44
787.224	30813.41
787.557	30714.43
787.891	30671.95
788.224	30521.67
788.557	30620.2
788.89	30521.22
789.223	30423.82
789.556	30320.32
789.888	30222.24
790.221	30124.17
790.554	30000.1
790.887	30009.14
791.219	29770.28
791.552	29840.11
791.884	29621.35
792.217	29648.7
792.549	29608.47
792.882	29334.36
793.214	29404.86
793.546	29412.32
793.879	29215.04
794.211	29080.8
794.543	29176.62
794.875	29065.89
795.207	29015.04
795.539	28788.61
795.871	28990.64
796.203	28822.96
796.535	28629.52
796.867	28655.73
797.198	28495.28
797.53	28507.26
797.862	28332.12
798.193	28437.43
798.525	28183.2
798.856	28293.48
799.188	28037.21
799.519	27926.48
799.85	27889.65
800.182	27879.03
800.513	27939.82
800.844	27642.2
801.175	27747.5
801.506	27724.91
801.837	27580.96
802.168	27595.64
802.499	27494.18
802.83	27366.27
803.161	27157.01
803.491	27230.46
803.822	27238.14
804.153	27082.21
804.483	26982.33
804.814	26730.36
805.145	26936.68
805.475	26833.18
805.805	26815.1
806.136	26790.02
806.466	26694.2
806.796	26595.9
807.126	26367.88
807.457	26433.64
807.787	26442
808.117	26371.5
808.447	26288.56
808.777	26304.6
809.107	26166.76
809.436	26059.41
809.766	26112.52
810.096	26179.18
810.426	25995.01
810.755	26020.32
811.085	25890.6
811.414	25967.44
811.744	25768.8
812.073	25776.26
812.403	25701.01
812.732	25613.78
813.061	25731.06
813.39	25566.55
813.719	25464.4
814.049	25639.99
814.378	25526.09
814.707	25477.96
815.036	25377.17
815.365	25263.95
815.693	25118.42
816.022	25115.71
816.351	25048.37
816.68	25010.4
817.008	25022.15
817.337	24825.32
817.665	24912.55
817.994	24819.67
818.322	24963.62
818.651	24887.47
818.979	24705.1
819.307	24821.48
819.636	24617.42
819.964	24654.7
820.292	24709.84
820.62	24621.94
820.948	24692.44
821.276	24811.31
821.604	24644.08
821.932	24931.76
822.259	24708.26
822.587	24744.65
822.915	24595.27
823.243	24789.62
823.57	24601.37
823.898	24650.64
824.225	24711.2
824.553	24727.25
824.88	24785.1
825.207	24824.19
825.535	24586.91
825.862	24804.98
826.189	24713.23
826.516	24851.54
826.843	24931.53
827.17	24978.09
827.497	24868.94
827.824	24976.96
828.151	24858.77
828.478	24823.06
828.805	25027.12
829.131	24937.41
829.458	24980.12
829.785	24771.09
830.111	24794.14
830.438	24954.36
830.764	24817.41
831.09	24917.97
831.417	24742.16
831.743	25034.58
832.069	24837.52
832.395	24891.99
832.722	24989.39
833.048	24785.32
833.374	24901.7
833.7	24749.39
834.026	24809.73
834.351	24796.17
834.677	24847.92
835.003	24756.62
835.329	24844.53
835.654	24776.96
835.98	24632.11
836.306	24737.87
836.631	24599.34
836.956	24787.81
837.282	24675.04
837.607	24491.55
837.932	24566.8
838.258	24507.82
838.583	24481.83
838.908	24471.43
839.233	24518.21
839.558	24351.21
839.883	24379.01
840.208	24199.8
840.533	24319.12
840.858	24326.13
841.182	24270.08
841.507	24214.72
841.832	24150.31
842.156	24225.56
842.481	24108.73
842.805	24033.7
843.13	23839.13
843.454	23965.91
843.778	23868.74
844.103	23871.22
844.427	23764.78
844.751	23758.23
845.075	23721.85
845.399	23668.52
845.723	23544
846.047	23596.2
846.371	23430.33
846.695	23197.57
847.019	23240.73
847.343	23097.91
847.666	23002.77
847.99	22861.31
848.313	22941.98
848.637	22925.03
848.96	22868.09
849.284	22690.24
849.607	22633.29
849.931	22513.74
850.254	22420.19
850.577	22262.9
850.9	22149.01
851.223	22129.12
851.546	21970.93
851.869	22041.21
852.192	22220.19
852.515	21807.32
852.838	21673.99
853.161	21611.62
853.483	21548.35
853.806	21490.27
854.129	21517.39
854.451	21433.77
854.774	21286.66
855.096	21221.8
855.419	21191.75
855.741	21146.1
856.063	21100.9
856.385	21001.47
856.708	20936.16
857.03	20907.91
857.352	20822.72
857.674	20787.01
857.996	20660.23
858.318	20617.75
858.64	20598.31
858.961	20495.49
859.283	20417.75
859.605	20345.21
859.926	20458.43
860.248	20302.95
860.57	20269.28
860.891	20134.37
861.212	20136.18
861.534	20013.24
861.855	20056.63
862.176	20047.37
862.498	20023.64
862.819	20104.77
863.14	19885.79
863.461	19912.68
863.782	19684.67
864.103	19727.83
864.424	19692.35
864.745	19692.58
865.065	19599.92
865.386	19651.67
865.707	19560.83
866.027	19574.39
866.348	19457.33
866.668	19547.49
866.989	19432.7
867.309	19308.4
867.63	19396.09
867.95	19398.35
868.27	19259.59
868.59	19387.27
868.91	19216.2
869.23	19201.51
869.55	19138.47
869.87	19220.05
870.19	19069.54
870.51	19067.28
870.83	19130.1
871.15	19035.64
871.469	18858.02
871.789	18924.91
872.109	19023.21
872.428	18781.86
872.748	18949.32
873.067	18855.76
873.386	18973.05
873.706	18844.01
874.025	18733.73
874.344	18600.4
874.663	18820.73
874.982	18705.48
875.301	18676.1
875.62	18633.85
875.939	18534.64
876.258	18574.19
876.577	18405.6
876.896	18543.91
877.214	18525.6
877.533	18479.73
877.852	18433.4
878.17	18446.05
878.489	18431.14
878.807	18376
879.125	18328.77
879.444	18296.68
879.762	18219.62
880.08	18232.5
880.398	18098.49
880.716	18111.15
881.034	18081.77
881.352	18116.35
881.67	18063.47
881.988	18037.7
882.306	17911.61
882.624	17930.59
882.941	17933.53
883.259	17761.55
883.577	17835.9
883.894	17748.9
884.212	17751.61
884.529	17676.36
884.846	17648.56
885.164	17604.95
885.481	17559.52
885.798	17623.03
886.115	17440.66
886.432	17465.06
886.75	17388
887.067	17328.34
887.383	17323.6
887.7	17285.86
888.017	17223.71
888.334	17179.87
888.651	17147.33
888.967	17205.64
889.284	17035.92
889.6	17006.54
889.917	16920.9
890.233	17058.97
890.55	16853.1
890.866	16894.23
891.182	16785.08
891.498	16720.45
891.815	16740.34
892.131	16585.99
892.447	16614.46
892.763	16496.5
893.079	16444.53
893.395	16443.85
893.71	16369.27
894.026	16282.27
894.342	16309.61
894.657	16216.96
894.973	16173.8
895.289	16148.71
895.604	16069.39
895.92	15997.76
896.235	15961.83
896.55	15962.73
896.865	15888.83
897.181	15840.93
897.496	15833.47
897.811	15691.32
898.126	15646.58
898.441	15697.43
898.756	15598.9
899.071	15452.46
899.386	15508.5
899.7	15370.66
900.015	15272.35
900.33	15314.61
900.644	15185.8
900.959	15139.47
901.273	15115.07
901.588	15067.61
901.902	14945.58
902.216	14852.93
902.531	14867.62
902.845	14843.21
903.159	14762.31
903.473	14742.65
903.787	14621.52
904.101	14541.75
904.415	14555.54
904.729	14427.18
905.042	14355.77
905.356	14361.19
905.67	14285.03
905.984	14392.15
906.297	14329.1
906.611	14270.8
906.924	14252.49
907.237	14135.21
907.551	14067.86
907.864	13973.86
908.177	13971.37
908.491	13860.64
908.804	13792.62
909.117	13704.94
909.43	13632.4
909.743	13657.25
910.056	13575
910.368	13448.45
910.681	13419.97
910.994	13437.82
911.307	13434.66
911.619	13185.18
911.932	13259.07
912.244	13138.62
912.557	13162.8
912.869	13112.18
913.181	13018.4
913.494	13010.04
913.806	12889.59
914.118	12895.01
914.43	12858.4
914.742	12769.59
915.054	12676.49
915.366	12709.48
915.678	12572.31
915.99	12509.71
916.302	12362.6
916.613	12404.86
916.925	12407.57
917.236	12382.49
917.548	12242.38
917.859	12285.99
918.171	12243.05
918.482	12113.34
918.794	12031.99
919.105	12048.48
919.416	11976.85
919.727	11948.15
920.038	11857.3
920.349	11845.55
920.66	11755.38
920.971	11734.82
921.282	11679
921.593	11627.02
921.903	11565.11
922.214	11552.9
922.525	11471.1
922.835	11425.67
923.146	11415.05
923.456	11371.21
923.767	11321.27
924.077	11255.28
924.387	11189.52
924.697	11158.11
925.008	11165.12
925.318	10995.18
925.628	11087.15
925.938	10980.26
926.248	10825.92
926.558	10830.21
926.867	10861.62
927.177	10839.25
927.487	10781.4
927.796	10717.44
928.106	10741.17
928.416	10618.92
928.725	10638.12
929.034	10603.1
929.344	10547.51
929.653	10509.77
929.962	10399.26
930.271	10419.15
930.581	10345.93
930.89	10237.23
931.199	10196.33
931.508	10171.02
931.817	10207.85
932.125	10148.42
932.434	10082.43
932.743	9946.39
933.051	9964.24
933.36	9890.12
933.669	9917.24
933.977	9828.65
934.286	9794.98
934.594	9785.94
934.902	9763.8
935.21	9701.65
935.519	9670.92
935.827	9562.9
936.135	9469.12
936.443	9489.45
936.751	9426.63
937.059	9435.67
937.367	9352.73
937.674	9387.54
937.982	9384.6
938.29	9266.18
938.597	9226.86
938.905	9132.85
939.213	9059.18
939.52	9031.84
939.827	9087.88
940.135	8981.67
940.442	8965.4
940.749	8924.95
941.056	8974.89
941.363	8846.98
941.67	8892.18
941.977	8784.61
942.284	8707.33
942.591	8723.15
942.898	8710.49
943.205	8639.53
943.511	8585.75
943.818	8596.37
944.125	8462.36
944.431	8518.41
944.738	8379.88
945.044	8383.27
945.35	8368.81
945.657	8289.49
945.963	8357.28
946.269	8232.76
946.575	8215.14
946.881	8149.15
947.187	8214.46
947.493	8104.86
947.799	8115.48
948.105	8011.98
948.41	7963.84
948.716	7953.68
949.022	7943.73
949.327	8016.05
949.633	7823.96
949.938	7786.45
950.244	7816.28
950.549	7762.27
950.854	7711.87
951.16	7748.48
951.465	7668.03
951.77	7596.62
952.075	7593.46
952.38	7514.36
952.685	7528.15
952.99	7475.95
953.294	7480.69
953.599	7380.36
953.904	7365.89
954.209	7314.6
954.513	7324.31
954.818	7223.3
955.122	7225.56
955.426	7239.57
955.731	7152.34
956.035	7145.33
956.339	7117.09
956.643	7128.39
956.948	7061.95
957.252	7049.97
957.556	6952.57
957.86	6992.8
958.163	6904.44
958.467	6939.01
958.771	6915.96
959.075	6897.43
959.378	6821.28
959.682	6830.54
959.985	6804.55
960.289	6719.81
960.592	6708.74
960.896	6646.82
961.199	6671.45
961.502	6631.45
961.805	6557.1
962.108	6517.1
962.411	6519.59
962.714	6494.05
963.017	6474.84
963.32	6447.27
963.623	6460.61
963.926	6428.07
964.228	6349.65
964.531	6328.41
964.833	6285.92
965.136	6216.32
965.438	6273.72
965.741	6240.5
966.043	6159.15
966.345	6131.35
966.648	6123.89
966.95	6131.58
967.252	6015.42
967.554	6037.34
967.856	6027.4
968.158	6010.22
968.46	5974.74
968.761	5931.81
969.063	5984.69
969.365	5865.82
969.666	5860.85
969.968	5833.05
970.269	5798.25
970.571	5772.72
970.872	5780.62
971.174	5708.54
971.475	5701.76
971.776	5671.7
972.077	5648.2
972.378	5648.42
972.679	5647.97
972.98	5542.89
973.281	5565.04
973.582	5506.28
973.883	5481.2
974.183	5427.41
974.484	5418.83
974.785	5389
975.085	5400.3
975.386	5374.99
975.686	5291.37
975.986	5317.81
976.287	5309.68
976.587	5267.42
976.887	5296.34
977.187	5316
977.487	5235.55
977.787	5165.73
978.087	5207.98
978.387	5118.5
978.687	5134.09
978.987	5066.97
979.286	5060.87
979.586	5087.76
979.885	5009.35
980.185	4964.15
980.484	4964.6
980.784	4929.8
981.083	4899.97
981.382	4927.31
981.682	4890.7
981.981	4892.06
982.28	4866.75
982.579	4822.68
982.878	4818.62
983.177	4755.57
983.475	4741.33
983.774	4708.56
984.073	4692.07
984.372	4643.03
984.67	4647.55
984.969	4619.98
985.267	4622.24
985.566	4612.29
985.864	4535.69
986.162	4555.12
986.461	4515.35
986.759	4519.19
987.057	4453.88
987.355	4449.13
987.653	4490.72
987.951	4410.94
988.249	4437.16
988.547	4405.97
988.844	4375.01
989.142	4318.74
989.44	4291.62
989.737	4280.55
990.035	4290.49
990.332	4237.39
990.63	4210.72
990.927	4287.1
991.224	4212.76
991.521	4182.25
991.819	4136.83
992.116	4159.42
992.413	4090.95
992.71	4112.19
993.006	4113.55
993.303	4083.27
993.6	4029.26
993.897	4035.36
994.193	3992.2
994.49	3956.94
994.787	3984.74
995.083	3961.69
995.379	3948.58
995.676	3904.97
995.972	3856.61
996.268	3886.89
996.565	3838.3
996.861	3815.03
997.157	3831.52
997.453	3768.25
997.749	3778.19
998.044	3697.52
998.34	3685.54
998.636	3681.7
998.932	3659.1
999.227	3642.15
999.523	3584.3
999.818	3548.37
1000.114	3600.57
1000.409	3570.97
1000.704	3537.29
1001	3533.9
1001.295	3500.46
1001.59	3493.91
1001.885	3465.43
1002.18	3431.99
1002.475	3397.64
1002.77	3384.08
1003.065	3366.9
1003.359	3382.5
1003.654	3366
1003.949	3363.06
1004.243	3327.58
1004.538	3238.09
1004.832	3298.88
1005.127	3274.7
1005.421	3238.77
1005.715	3195.83
1006.009	3224.53
1006.304	3202.61
1006.598	3164.2
1006.892	3134.14
1007.186	3125.1
1007.48	3076.29
1007.773	3094.14
1008.067	3065.22
1008.361	3009.4
1008.655	2999.46
1008.948	3017.31
1009.242	3002.39
1009.535	2964.88
1009.829	2982.73
1010.122	2932.79
1010.415	2912.68
1010.708	2879.68
1011.001	2892.11
1011.295	2846.46
1011.588	2866.35
1011.881	2878.78
1012.173	2826.58
1012.466	2769.18
1012.759	2775.51
1013.052	2788.16
1013.344	2747.03
1013.637	2733.25
1013.93	2684.89
1014.222	2707.03
1014.514	2675.4
1014.807	2656.64
1015.099	2641.95
1015.391	2648.5
1015.683	2601.73
1015.976	2622.52
1016.268	2569.64
1016.56	2540.03
1016.851	2534.83
1017.143	2504.33
1017.435	2524.67
1017.727	2487.83
1018.018	2498.68
1018.31	2451.67
1018.602	2429.3
1018.893	2416.65
1019.185	2407.38
1019.476	2430.2
1019.767	2364.22
1020.058	2348.17
1020.35	2333.71
1020.641	2340.49
1020.932	2277.89
1021.223	2307.95
1021.514	2270.21
1021.804	2249.64
1022.095	2241.51
1022.386	2240.83
1022.677	2244.67
1022.967	2204.9
1023.258	2170.78
1023.548	2171.91
1023.839	2168.06
1024.129	2142.75
1024.419	2119.93
1024.709	2116.77
1025	2074.28
1025.29	2104.11
1025.58	2086.26
1025.87	2042.42
1026.16	2050.55
1026.449	1981.85
1026.739	1997.9
1027.029	2001.97
1027.319	1954.96
1027.608	1971.01
1027.898	1951.35
1028.187	1928.3
1028.477	1915.42
1028.766	1871.58
1029.055	1905.02
1029.344	1885.59
1029.634	1872.03
1029.923	1846.27
1030.212	1843.78
1030.501	1818.7
1030.79	1803.78
1031.078	1786.38
1031.367	1784.12
1031.656	1767.17
1031.945	1736.66
1032.233	1728.98
1032.522	1706.83
1032.81	1734.63
1033.099	1716.32
1033.387	1692.37
1033.675	1676.55
1033.963	1677
1034.251	1660.96
1034.54	1645.14
1034.828	1640.17
1035.116	1607.4
1035.403	1606.95
1035.691	1602.2
1035.979	1578.7
1036.267	1599.49
1036.554	1579.38
1036.842	1552.04
1037.129	1572.37
1037.417	1516.33
1037.704	1501.19
1037.992	1501.87
1038.279	1506.84
1038.566	1490.12
1038.853	1490.12
1039.14	1490.12
