Data from 18-4330_FLMS001491_002.txt Node
Date: Thu Apr 19 16:43:22 BST 2018
User: hsy
Spectrometer: FLMS00149
Trigger mode: 0
Integration Time (sec): 1.000000E-2
Scans to average: 10
Electric dark correction enabled: true
Nonlinearity correction enabled: false
Boxcar width: 0
XAxis mode: Wavelengths
Number of Pixels in Spectrum: 2048
>>>>>Begin Spectral Data<<<<<
341.393	-8.38
341.776	-8.38
342.16	-8.38
342.543	-52.44
342.927	-67.13
343.31	-70.52
343.693	-75.72
344.077	-66.45
344.46	-62.16
344.843	-68.49
345.226	-38.66
345.61	-26.91
345.993	-15.38
346.376	-14.03
346.759	18.29
347.142	24.84
347.525	36.37
347.908	70.49
348.291	86.76
348.674	97.84
349.057	103.71
349.44	129.93
349.823	125.86
350.206	178.29
350.588	219.42
350.971	233.65
351.354	258.06
351.737	263.71
352.119	262.58
352.502	294.22
352.884	318.62
353.267	310.26
353.65	309.13
354.032	320.66
354.414	344.38
354.797	345.29
355.179	340.99
355.562	359.52
355.944	362.91
356.326	361.11
356.709	364.04
357.091	370.82
357.473	366.53
357.855	374.67
358.238	382.12
358.62	373.08
359.002	382.12
359.384	374.21
359.766	369.69
360.148	384.83
360.53	369.02
360.912	343.25
361.294	374.21
361.676	355.23
362.057	349.13
362.439	376.02
362.821	375.57
363.203	356.81
363.584	358.17
363.966	352.52
364.348	346.87
364.729	349.81
365.111	350.94
365.493	361.56
365.874	361.78
366.256	350.26
366.637	360.43
367.019	357.94
367.4	368.34
367.781	378.28
368.163	363.82
368.544	354.55
368.925	345.74
369.306	343.48
369.688	380.99
370.069	340.32
370.45	380.77
370.831	349.58
371.212	357.72
371.593	364.04
371.974	342.12
372.355	378.51
372.736	380.31
373.117	351.62
373.498	358.39
373.879	337.15
374.26	368.34
374.641	370.15
375.021	360.2
375.402	365.17
375.783	383.48
376.163	391.39
376.544	389.35
376.925	372.86
377.305	388
377.686	395.23
378.066	399.07
378.447	395.23
378.827	399.52
379.208	401.78
379.588	396.81
379.968	396.13
380.349	394.1
380.729	419.18
381.109	430.48
381.489	409.69
381.87	411.73
382.25	410.37
382.63	394.78
383.01	410.6
383.39	430.93
383.77	416.92
384.15	424.38
384.53	436.81
384.91	424.83
385.29	425.29
385.67	431.16
386.049	430.93
386.429	439.52
386.809	440.88
387.189	433.42
387.568	458.05
387.948	445.17
388.328	466.41
388.707	466.19
389.087	456.47
389.466	461.67
389.846	447.43
390.225	465.51
390.605	453.31
390.984	475.68
391.363	493.53
391.743	497.15
392.122	506.41
392.501	506.64
392.881	504.15
393.26	508.45
393.639	505.51
394.018	527.43
394.397	511.61
394.776	516.13
395.155	514.32
395.534	529.24
395.913	529.46
396.292	553.64
396.671	558.39
397.05	533.98
397.429	529.01
397.808	556.81
398.186	564.04
398.565	566.98
398.944	584.38
399.323	573.53
399.701	586.41
400.08	583.25
400.458	584.15
400.837	590.48
401.215	604.26
401.594	592.06
401.972	628.22
402.351	617.82
402.729	627.99
403.107	637.26
403.486	647.43
403.864	629.8
404.242	647.2
404.62	639.74
404.999	635.45
405.377	657.82
405.755	671.15
406.133	680.65
406.511	700.53
406.889	691.27
407.267	692.62
407.645	718.39
408.023	733.3
408.401	731.72
408.779	754.77
409.156	787.08
409.534	758.84
409.912	784.15
410.29	759.74
410.667	822.34
411.045	808.1
411.422	832.28
411.8	833.86
412.178	848.1
412.555	854.88
412.933	888.32
413.31	866.86
413.687	910.7
414.065	922.9
414.442	905.5
414.819	939.17
415.197	957.7
415.574	981.65
415.951	973.07
416.328	966.06
416.705	998.83
417.082	1020.07
417.46	989.11
417.837	1009
418.214	1020.3
418.591	1043.57
418.967	1027.76
419.344	1077.25
419.721	1073.4
420.098	1089.22
420.475	1110.47
420.852	1123.8
421.228	1112.72
421.605	1156.57
421.982	1141.65
422.358	1186.4
422.735	1184.14
423.111	1200.63
423.488	1223.23
423.864	1232.95
424.241	1228.2
424.617	1255.09
424.994	1253.51
425.37	1309.56
425.746	1256.68
426.123	1307.07
426.499	1342.32
426.875	1376.22
427.251	1367.63
427.627	1411.25
428.003	1396.79
428.379	1422.55
428.756	1428.2
429.132	1448.08
429.507	1485.37
429.883	1478.59
430.259	1528.08
430.635	1547.74
431.011	1519.72
431.387	1590
431.763	1600.4
432.138	1628.19
432.514	1630.9
432.89	1657.8
433.265	1699.83
433.641	1728.98
434.016	1709.32
434.392	1779.83
434.767	1825.02
435.143	1802.42
435.518	1844.23
435.894	1868.41
436.269	1919.48
436.644	1945.25
437.02	1949.77
437.395	1957.45
437.77	2006.94
438.145	2043.32
438.52	2068.41
438.895	2092.81
439.271	2086.48
439.646	2154.73
440.021	2171.23
440.395	2149.76
440.77	2143.66
441.145	2205.8
441.52	2276.99
441.895	2230.21
442.27	2268.17
442.645	2299.36
443.019	2313.15
443.394	2338.68
443.769	2341.17
444.143	2346.36
444.518	2410.54
444.892	2404.89
445.267	2358.12
445.641	2428.62
446.016	2460.94
446.39	2484.21
446.764	2455.97
447.139	2490.09
447.513	2532.35
447.887	2549.3
448.262	2568.51
448.636	2570.09
449.01	2590.65
449.384	2636.75
449.758	2656.64
450.132	2687.37
450.506	2709.75
450.88	2713.59
451.254	2722.17
451.628	2755.85
452.002	2800.36
452.376	2825.67
452.75	2872.45
453.123	2879.68
453.497	2937.54
453.871	2962.85
454.244	3000.81
454.618	3050.98
454.992	3108.6
455.365	3128.94
455.739	3192.67
456.112	3220.24
456.486	3245.1
456.859	3279.9
457.232	3330.52
457.606	3351.54
457.979	3401.48
458.352	3416.62
458.725	3495.04
459.099	3526.9
459.472	3577.97
459.845	3681.92
460.218	3679.66
460.591	3735.25
460.964	3700.91
461.337	3817.29
461.71	3861.58
462.083	3934.12
462.456	3943.61
462.829	3968.47
463.201	4055.47
463.574	4063.61
463.947	4126.43
464.32	4171.85
464.692	4251.4
465.065	4236.94
465.438	4288.46
465.81	4382.24
466.183	4421.34
466.555	4461.34
466.928	4533.65
467.3	4499.75
467.672	4576.81
468.045	4701.33
468.417	4725.96
468.789	4755.34
469.161	4806.87
469.534	4909.24
469.906	5005.05
470.278	4975.9
470.65	5057.03
471.022	5142
471.394	5159.17
471.766	5254.54
472.138	5311.48
472.51	5466.51
472.882	5450.24
473.253	5565.94
473.625	5602.32
473.997	5717.35
474.369	5780.85
474.74	5889.1
475.112	5925.03
475.484	5976.33
475.855	6151.24
476.227	6178.13
476.598	6269.2
476.97	6362.08
477.341	6529.53
477.713	6615.86
478.084	6655.18
478.455	6798.23
478.827	6914.83
479.198	6998.9
479.569	7072.34
479.94	7299.91
480.311	7374.93
480.682	7491.09
481.053	7654.25
481.424	7794.81
481.795	7868.25
482.166	8047.46
482.537	8109.6
482.908	8269.15
483.279	8341.46
483.65	8485.64
484.021	8651.74
484.391	8782.81
484.762	8843.37
485.133	8858.06
485.503	9060.09
485.874	9268.22
486.244	9326.75
486.615	9525.61
486.985	9601.09
487.356	9797.24
487.726	9985.26
488.097	10151.81
488.467	10140.96
488.837	10323.33
489.207	10512.93
489.578	10657.56
489.948	10751.34
490.318	10843.32
490.688	10902.75
491.058	11156.53
491.428	11275.17
491.798	11328.73
492.168	11618.66
492.538	11653.46
492.908	11783.18
493.278	12021.82
493.648	12000.12
494.017	12177.52
494.387	12262.04
494.757	12386.78
495.126	12470.17
495.496	12549.49
495.866	12687.34
496.235	12768.92
496.605	12898.63
496.974	13062.02
497.344	13146.08
497.713	13212.07
498.082	13283.93
498.452	13393.76
498.821	13439.63
499.19	13528.22
499.559	13589.69
499.928	13732.96
500.298	13808.44
500.667	13916.68
501.036	13967.53
501.405	14016.57
501.774	14072.16
502.143	14185.83
502.512	14280.74
502.88	14380.62
503.249	14442.09
503.618	14464.01
503.987	14493.84
504.356	14686.38
504.724	14657.23
505.093	14778.13
505.462	14791.01
505.83	14819.48
506.199	14942.19
506.567	15088.63
506.936	15131.34
507.304	15268.28
507.672	15310.77
508.041	15292.01
508.409	15477.77
508.777	15573.36
509.145	15748.5
509.514	15603.19
509.882	15746.69
510.25	15767.03
510.618	15955.72
510.986	15880.25
511.354	16017.42
511.722	16153.69
512.09	16230.97
512.458	16274.81
512.826	16363.85
513.193	16411.53
513.561	16471.42
513.929	16378.54
514.297	16591.41
514.664	16671.19
515.032	16737.4
515.4	16878.64
515.767	16859.66
516.135	17018.75
516.502	16870.95
516.869	17218.74
517.237	17153.66
517.604	17025.53
517.972	17318.85
518.339	17348.91
518.706	17448.34
519.073	17427.32
519.44	17512.52
519.808	17734.89
520.175	17693.31
520.542	17865.28
520.909	17869.12
521.276	17937.59
521.643	18100.98
522.009	18181.2
522.376	18176.46
522.743	18403.8
523.11	18476.11
523.477	18611.02
523.843	18677.23
524.21	18816.67
524.577	18916.78
524.943	18904.8
525.31	19040.84
525.676	19214.62
526.043	19211.68
526.409	19291
526.776	19568.74
527.142	19545.91
527.508	19641.73
527.874	19739.81
528.241	19806.92
528.607	19720.15
528.973	19982.06
529.339	19975.51
529.705	20103.41
530.071	20147.7
530.437	20246.69
530.803	20311.09
531.169	20403.52
531.535	20366
531.901	20422.27
532.267	20431.09
532.632	20546.79
532.998	20566.68
533.364	20660.01
533.73	20582.27
534.095	20539.33
534.461	20720.8
534.826	20786.78
535.192	20804.41
535.557	20857.97
535.923	20778.65
536.288	20740.23
536.653	20990.17
537.019	20827.23
537.384	20890.06
537.749	20893.67
538.114	20913.79
538.479	20898.65
538.845	20970.73
539.21	20817.29
539.575	20931.19
539.94	20843.51
540.305	20908.14
540.67	20951.07
541.034	20855.03
541.399	20926.44
541.764	20895.71
542.129	20841.92
542.494	20894.8
542.858	20823.85
543.223	20732.1
543.587	20838.31
543.952	20900.45
544.316	20758.08
544.681	20677.41
545.045	20743.4
545.41	20775.03
545.774	20690.52
546.138	20536.4
546.503	20693.91
546.867	20609.16
547.231	20734.36
547.595	20611.2
547.959	20530.52
548.324	20563.29
548.688	20443.06
549.052	20566.22
549.416	20459.11
549.779	20450.97
550.143	20500.01
550.507	20493.68
550.871	20482.39
551.235	20470.18
551.599	20477.41
551.962	20373.69
552.326	20533.68
552.689	20368.49
553.053	20267.02
553.417	20267.93
553.78	20458.88
554.143	20345.44
554.507	20371.88
554.87	20424.53
555.234	20449.84
555.597	20167.37
555.96	20284.42
556.323	20364.2
556.686	20339.56
557.05	20396.06
557.413	20356.51
557.776	20312.67
558.139	20308.6
558.502	20309.06
558.865	20297.76
559.228	20480.58
559.59	20445.32
559.953	20434.7
560.316	20558.99
560.679	20504.98
561.041	20489.62
561.404	20576.85
561.767	20693
562.129	20627.69
562.492	20753.56
562.854	20771.19
563.217	20735.49
563.579	20785.88
563.941	20905.42
564.304	20883.05
564.666	21113.33
565.028	21060.45
565.39	21057.74
565.753	21102.71
566.115	21126.21
566.477	21196.04
566.839	21179.32
567.201	21444.85
567.563	21286.66
567.925	21501.12
568.287	21513.09
568.648	21597.38
569.01	21671.73
569.372	21860.65
569.734	21869.92
570.095	22008.45
570.457	22065.62
570.819	22071.04
571.18	22167.09
571.542	22197.37
571.903	22298.38
572.265	22323.47
572.626	22422.45
572.987	22417.7
573.349	22475.33
573.71	22543.57
574.071	22685.94
574.432	22792.38
574.794	22940.85
575.155	22932.94
575.516	22856.33
575.877	22906.73
576.238	22968.65
576.599	23126.16
576.96	23132.03
577.32	23105.59
577.681	23147.63
578.042	23294.97
578.403	23287.06
578.763	23304.46
579.124	23269.2
579.485	23491.8
579.845	23408.41
580.206	23500.61
580.566	23420.61
580.927	23466.71
581.287	23639.82
581.648	23471.23
582.008	23637.78
582.368	23538.35
582.728	23629.42
583.089	23511.23
583.449	23591.23
583.809	23685.24
584.169	23574.28
584.529	23613.15
584.889	23738.57
585.249	23482.53
585.609	23453.83
585.969	23659.93
586.329	23598.01
586.688	23667.39
587.048	23605.47
587.408	23620.83
587.768	23558.46
588.127	23642.53
588.487	23543.32
588.846	23760.94
589.206	23495.64
589.565	23492.93
589.925	23612.02
590.284	23629.65
590.643	23643.43
591.003	23628.97
591.362	23696.31
591.721	23656.31
592.08	23633.26
592.44	23690.21
592.799	23548.52
593.158	23645.69
593.517	23560.04
593.876	23516.43
594.235	23389.2
594.593	23520.72
594.952	23531.12
595.311	23550.55
595.67	23576.09
596.029	23604.11
596.387	23676.2
596.746	23769.98
597.104	23626.71
597.463	23549.65
597.822	23602.08
598.18	23520.72
598.538	23588.29
598.897	23690.21
599.255	23578.57
599.613	23818.57
599.972	23580.38
600.33	23623.32
600.688	23548.29
601.046	23699.7
601.404	23741.06
601.762	23610.89
602.12	23722.3
602.478	23681.4
602.836	23650.44
603.194	23547.62
603.552	23640.49
603.91	23649.53
604.268	23703.09
604.625	23667.39
604.983	23772.24
605.341	23625.81
605.698	23700.61
606.056	23850.21
606.413	23781.06
606.771	23819.25
607.128	23825.12
607.485	23779.7
607.843	23778.12
608.2	23742.41
608.557	23968.4
608.914	23913.26
609.272	24073.48
609.629	24016.53
609.986	24078.22
610.343	24025.79
610.7	24218.11
611.057	24133.59
611.414	24182.4
611.771	24188.95
612.127	24211.55
612.484	24250.65
612.841	24261.49
613.198	24185.79
613.554	24031.44
613.911	24510.98
614.267	24351.89
614.624	24396.18
614.98	24394.37
615.337	24561.37
615.693	24463.75
616.05	24515.73
616.406	24613.58
616.762	24495.39
617.118	24643.41
617.475	24571.09
617.831	24658.09
618.187	24561.6
618.543	24742.61
618.899	24799.79
619.255	24809.73
619.611	24714.82
619.967	24903.29
620.323	24918.88
620.678	24811.08
621.034	24818.99
621.39	24701.03
621.746	24815.38
622.101	25028.93
622.457	24805.44
622.812	24998.42
623.168	25002.27
623.523	25093.11
623.879	25078.65
624.234	24971.98
624.589	25053.56
624.945	25064.64
625.3	25090.63
625.655	25159.78
626.01	25264.18
626.365	25116.16
626.72	25050.63
627.075	25058.99
627.43	24989.16
627.785	24969.05
628.14	25079.1
628.495	25070.74
628.85	25164.07
629.205	24995.26
629.559	25075.03
629.914	25033.45
630.269	24969.05
630.623	24934.7
630.978	24885.89
631.332	24945.32
631.687	24906
632.041	24964.53
632.396	24922.72
632.75	24929.73
633.104	24868.94
633.459	24761.14
633.813	24825.55
634.167	24748.26
634.521	24824.19
634.875	24814.93
635.229	24796.85
635.583	24626.23
635.937	24616.74
636.291	24642.95
636.645	24675.5
636.999	24474.82
637.352	24691.77
637.706	24492.22
638.06	24590.3
638.413	24473.01
638.767	24383.53
639.121	24463.07
639.474	24313.02
639.828	24359.8
640.181	24356.18
640.534	24429.63
640.888	24375.39
641.241	24299.91
641.594	24172.01
641.947	24288.39
642.301	24254.72
642.654	24224.89
643.007	24123.65
643.36	24189.41
643.713	24119.58
644.066	24255.17
644.419	24057.43
644.771	23906.93
645.124	23657.89
645.477	23650.89
645.83	23590.78
646.182	23614.96
646.535	23657.67
646.888	23666.26
647.24	23619.93
647.593	23814.5
647.945	23651.34
648.298	23522.31
648.65	23488.18
649.002	23283.89
649.355	23236.66
649.707	23152.37
650.059	23171.58
650.411	23640.72
650.763	23731.34
651.115	24208.16
651.467	24050.65
651.819	23992.8
652.171	23993.25
652.523	23935.18
652.875	23967.27
653.227	23967.27
653.578	24017.43
653.93	23930.88
654.282	23965.68
654.633	24054.27
654.985	23952.58
655.337	23939.02
655.688	23981.5
656.039	24151.89
656.391	23900.15
656.742	23962.97
657.094	23951.67
657.445	24156.86
657.796	24169.75
658.147	23986.47
658.498	24058.34
658.849	24174.27
659.2	24140.59
659.551	24060.82
659.902	24235.73
660.253	24048.62
660.604	24180.59
660.955	24191.89
661.306	24298.78
661.656	24185.56
662.007	24257.88
662.358	24261.95
662.708	24083.65
663.059	24283.87
663.409	24268.5
663.76	24277.99
664.11	24253.59
664.461	24370.64
664.811	24358.89
665.161	24360.25
665.511	24333.36
665.862	24363.87
666.212	24484.99
666.562	24463.75
666.912	24439.8
667.262	24309.4
667.612	24297.43
667.962	24411.55
668.312	24311.44
668.662	24462.85
669.011	24495.16
669.361	24399.12
669.711	24345.79
670.06	24358.22
670.41	24364.09
670.76	24325.67
671.109	24394.37
671.459	24374.71
671.808	24280.7
672.157	24401.38
672.507	24197.99
672.856	24204.77
673.205	24299.01
673.554	24418.1
673.904	24260.36
674.253	24360.93
674.602	24230.08
674.951	23978.11
675.3	23857.21
675.649	24226.24
675.998	24087.49
676.346	24143.76
676.695	24296.97
677.044	24095.4
677.393	24070.09
677.741	24184.43
678.09	24044.55
678.438	23993.48
678.787	24061.05
679.135	23926.14
679.484	23824.9
679.832	23881.84
680.181	23908.28
680.529	23727.05
680.877	23716.42
681.225	23832.35
681.573	23902.86
681.922	23768.17
682.27	23619.93
682.618	23739.47
682.966	23638.23
683.314	23570.89
683.661	23553.49
684.009	23486.6
684.357	23442.53
684.705	23222.88
685.053	23454.06
685.4	23238.02
685.748	23201.64
686.095	23182.65
686.443	23114.18
686.79	22977.69
687.138	23092.94
687.485	22934.52
687.832	22850.46
688.18	22748.77
688.527	22772.49
688.874	22678.94
689.221	22592.16
689.568	22455.89
689.915	22455.67
690.262	22478.04
690.609	22450.02
690.956	22175.67
691.303	22200.98
691.65	22086.64
691.997	22195.79
692.344	21948.79
692.69	21903.36
693.037	21946.08
693.383	21613.2
693.73	21768.45
694.077	21638.51
694.423	21511.74
694.769	21440.78
695.116	21396.03
695.462	21289.82
695.808	21322.82
696.155	21164.63
696.501	21104.97
696.847	21082.82
697.193	20823.39
697.539	20869.72
697.885	20662.95
698.231	20633.34
698.577	20558.99
698.923	20486.45
699.269	20358.09
699.614	20423.4
699.96	20249.17
700.306	20272
700.651	20071.77
700.997	19999.46
701.342	19867.03
701.688	19885.56
702.033	19861.16
702.379	19775.06
702.724	19679.47
703.069	19586.59
703.415	19460.49
703.76	19482.64
704.105	19488.06
704.45	19455.52
704.795	19305.01
705.14	19122.65
705.485	19331.68
705.83	18978.47
706.175	19105.02
706.52	19015.08
706.865	18956.55
707.209	18867.51
707.554	18830.45
707.899	18912.48
708.243	18747.74
708.588	18645.82
708.932	18564.24
709.277	18583.68
709.621	18500.06
709.966	18402.21
710.31	18434.53
710.654	18304.59
710.998	18335.1
711.342	18338.49
711.687	18289
712.031	18224.37
712.375	18122.22
712.719	18078.15
713.063	18063.92
713.407	18277.92
713.75	18150.7
714.094	18033.41
714.438	18029.34
714.782	18057.82
715.125	17930.81
715.469	18043.35
715.812	17924.71
716.156	17913.64
716.499	17885.17
716.843	18006.07
717.186	17808.33
717.53	17924.49
717.873	17977.59
718.216	17860.76
718.559	17866.63
718.902	17689.46
719.246	17846.75
719.589	17727.2
719.932	17734.66
720.275	17714.77
720.617	17729.01
720.96	17717.94
721.303	17780.76
721.646	17877.03
721.989	17710.93
722.331	17803.36
722.674	17790.93
723.016	17769.24
723.359	17764.94
723.701	17644.95
724.044	17665.28
724.386	17650.82
724.729	17822.12
725.071	17791.83
725.413	17731.27
725.755	17632.29
726.097	17701.44
726.439	17637.94
726.782	17717.26
727.124	17714.77
727.465	17783.7
727.807	17723.14
728.149	17751.16
728.491	17705.96
728.833	17725.85
729.175	17814.21
729.516	17700.76
729.858	17749.35
730.199	17799.29
730.541	17873.19
730.882	17744.38
731.224	17922.45
731.565	17948.67
731.906	17888.78
732.248	17998.38
732.589	17846.97
732.93	17967.65
733.271	17908.44
733.612	17896.69
733.953	18137.81
734.294	18085.61
734.635	18070.92
734.976	18074.54
735.317	18251.03
735.658	18179.39
735.999	18070.7
736.339	18199.96
736.68	18332.16
737.021	18328.54
737.361	18292.61
737.702	18480.18
738.042	18446.51
738.383	18606.28
738.723	18603.79
739.063	18563.34
739.404	18638.59
739.744	18773.5
740.084	18681.75
740.424	18891.24
740.764	18903.67
741.104	19062.76
741.444	19058.92
741.784	19036.1
742.124	19274.06
742.464	19252.59
742.804	19318.57
743.143	19387.72
743.483	19492.81
743.823	19701.39
744.162	19643.54
744.502	19823.65
744.841	19858.22
745.181	20171.66
745.52	20088.72
745.86	20335.04
746.199	20455.04
746.538	20536.4
746.877	20817.52
747.216	20832.88
747.556	20933.45
747.895	21199.65
748.234	21328.46
748.573	21478.07
748.911	21603.71
749.25	21815.23
749.589	21919.86
749.928	22164.37
750.267	22346.74
750.605	22420.64
750.944	22662.89
751.283	22887.75
751.621	23187.85
751.96	23252.93
752.298	23540.84
752.636	23856.08
752.975	23952.35
753.313	24074.16
753.651	24494.03
753.989	24553.46
754.327	24938.09
754.666	24929.27
755.004	25313.22
755.342	25696.03
755.679	25815.35
756.017	25982.35
756.355	26263.93
756.693	26465.96
757.031	26805.61
757.368	26883.8
757.706	27265.03
758.044	27351.81
758.381	27672.7
758.719	27816.88
759.056	28238.34
759.394	28364.44
759.731	28391.33
760.068	28706.58
760.405	29025.21
760.743	29073.8
761.08	29415.71
761.417	29606.21
761.754	29720.79
762.091	29937.96
762.428	30141.79
762.765	30177.95
763.102	30532.52
763.438	30667.2
763.775	30749.91
764.112	31002.11
764.449	31231.26
764.785	31244.81
765.122	31391.02
765.458	31417.46
765.795	31694.97
766.131	31930.22
766.467	31967.05
766.804	31931.8
767.14	32186.03
767.476	32114.17
767.812	32211.34
768.148	32556.64
768.485	32564.78
768.821	32457.44
769.157	32749.41
769.492	32596.19
769.828	32869.86
770.164	32694.72
770.5	32814.04
770.836	33012.45
771.171	32970.42
771.507	32937.65
771.842	32953.02
772.178	33043.86
772.513	33087.93
772.849	33148.27
773.184	33145.56
773.519	33162.73
773.855	33150.98
774.19	33174.48
774.525	33086.35
774.86	33121.37
775.195	33213.58
775.53	33170.41
775.865	32930.42
776.2	32908.95
776.535	32792.8
776.87	32983.53
777.205	32957.31
777.539	32855.39
777.874	32998.21
778.209	32661.73
778.543	32759.58
778.878	32677.09
779.212	32735.4
779.547	32473.26
779.881	32542.86
780.215	32461.28
780.55	32425.57
780.884	32323.66
781.218	32301.28
781.552	32405.69
781.886	32222.19
782.22	32059.71
782.554	32032.14
782.888	31825.36
783.222	31901.97
783.556	31781.07
783.889	31712.15
784.223	31546.73
784.557	31586.73
784.89	31785.82
785.224	31422.89
785.557	31384.25
785.891	31232.84
786.224	31337.02
786.558	31255.44
786.891	31026.97
787.224	30984.71
787.557	30859.29
787.891	30912.17
788.224	30776.35
788.557	30758.73
788.89	30779.97
789.223	30636.47
789.556	30515.34
789.888	30499.07
790.221	30323.48
790.554	30263.82
790.887	30220.21
791.219	30163.26
791.552	30102.92
791.884	29924.4
792.217	29886.43
792.549	29858.86
792.882	29599.89
793.214	29494.35
793.546	29659.54
793.879	29553.79
794.211	29243.06
794.543	29467.69
794.875	29342.94
795.207	29255.49
795.539	29270.85
795.871	29187.47
796.203	29078.09
796.535	28862.5
796.867	28816.86
797.198	28688.5
797.53	28733.24
797.862	28562.4
798.193	28532.34
798.525	28479.69
798.856	28556.3
799.188	28236.98
799.519	28097.33
799.85	28091.22
800.182	28054.16
800.513	28182.75
800.844	27832.25
801.175	28049.64
801.506	27886.03
801.837	27769.2
802.168	27842.42
802.499	27810.33
802.83	27567.62
803.161	27534.86
803.491	27394.97
803.822	27588.41
804.153	27328.31
804.483	27193.17
804.814	27119.95
805.145	27099.16
805.475	27113.4
805.805	26997.92
806.136	27010.35
806.466	26994.98
806.796	26843.8
807.126	26674.31
807.457	26727.42
807.787	26834.76
808.117	26614.2
808.447	26600.19
808.777	26607.2
809.107	26450.82
809.436	26454.43
809.766	26534.43
810.096	26440.19
810.426	26332.4
810.755	26353.42
811.085	26239.07
811.414	26191.16
811.744	26119.53
812.073	26127.21
812.403	26012.64
812.732	25808.57
813.061	25973.77
813.39	25718.18
813.719	25716.6
814.049	26010.83
814.378	25857.84
814.707	25651.06
815.036	25668.24
815.365	25588.69
815.693	25409.04
816.022	25385.99
816.351	25230.51
816.68	25213.33
817.008	25321.58
817.337	25113
817.665	25110.51
817.994	25088.14
818.322	25220.34
818.651	25045.2
818.979	24910.52
819.307	24981.48
819.636	24986.22
819.964	24856.06
820.292	24958.43
820.62	24868.48
820.948	25009.95
821.276	25110.51
821.604	24869.16
821.932	25055.82
822.259	24857.86
822.587	24924.08
822.915	24895.6
823.243	24990.06
823.57	24765.44
823.898	24974.47
824.225	24940.8
824.553	24870.07
824.88	24992.32
825.207	25071.42
825.535	24998.65
825.862	25044.3
826.189	24933.34
826.516	25090.4
826.843	25106.22
827.17	25075.48
827.497	25117.74
827.824	25127.91
828.151	25237.74
828.478	25033
828.805	25346.66
829.131	25179.44
829.458	25122.26
829.785	25004.53
830.111	25221.02
830.438	25307.34
830.764	25179.21
831.09	25229.15
831.417	25161.58
831.743	25324.52
832.069	25173.11
832.395	25048.59
832.722	25224.18
833.048	25101.02
833.374	25265.31
833.7	25116.84
834.026	25239.77
834.351	25056.05
834.677	25163.62
835.003	25129.95
835.329	25128.14
835.654	25008.14
835.98	24940.12
836.306	25050.85
836.631	25004.07
836.956	25080.23
837.282	25001.59
837.607	24948.48
837.932	24888.82
838.258	24836.62
838.583	24917.3
838.908	24677.76
839.233	24847.02
839.558	24694.7
839.883	24640.92
840.208	24573.8
840.533	24661.94
840.858	24652.45
841.182	24559.11
841.507	24469.62
841.832	24405.67
842.156	24427.14
842.481	24416.97
842.805	24388.72
843.13	24303.3
843.454	24292
843.778	24135.17
844.103	24164.55
844.427	24127.04
844.751	24083.19
845.075	24035.06
845.399	23999.58
845.723	23849.98
846.047	23794.39
846.371	23698.57
846.695	23630.1
847.019	23506.26
847.343	23367.06
847.666	23381.07
847.99	23301.52
848.313	23222.43
848.637	23171.35
848.96	23116.89
849.284	23097.01
849.607	22848.2
849.931	22744.7
850.254	22689.78
850.577	22480.75
850.9	22420.41
851.223	22523.01
851.546	22376.12
851.869	22302.9
852.192	22238.5
852.515	22076.47
852.838	22006.41
853.161	22006.64
853.483	21826.53
853.806	21841.67
854.129	21753.54
854.451	21668.57
854.774	21600.55
855.096	21511.96
855.419	21465.86
855.741	21379.08
856.063	21300.67
856.385	21182.25
856.708	21233.55
857.03	20984.74
857.352	21109.26
857.674	21050.05
857.996	20952.66
858.318	20814.58
858.64	20821.13
858.961	20723.28
859.283	20677.41
859.605	20571.87
859.926	20687.13
860.248	20539.78
860.57	20340.02
860.891	20469.5
861.212	20452.1
861.534	20276.97
861.855	20313.58
862.176	20243.07
862.498	20291.88
862.819	20264.54
863.14	20182.05
863.461	20111.55
863.782	20129.4
864.103	20037.2
864.424	19993.13
864.745	20034.04
865.065	19903.87
865.386	19789.97
865.707	19874.72
866.027	19820.03
866.348	19709.75
866.668	19741.84
866.989	19787.26
867.309	19613.48
867.63	19625.46
867.95	19567.83
868.27	19525.12
868.59	19538
868.91	19492.13
869.23	19459.36
869.55	19365.58
869.87	19468.85
870.19	19314.05
870.51	19338.46
870.83	19326.71
871.15	19207.16
871.469	19211.91
871.789	19219.59
872.109	19190.22
872.428	19061.18
872.748	19207.62
873.067	19175.98
873.386	19092.82
873.706	19076.77
874.025	19009.66
874.344	18891.47
874.663	18971.24
874.982	18945.48
875.301	18933.73
875.62	18796.33
875.939	18764.69
876.258	18913.39
876.577	18667.52
876.896	18692.83
877.214	18720.4
877.533	18737.35
877.852	18786.84
878.17	18671.59
878.489	18621.19
878.807	18560.18
879.125	18536.45
879.444	18547.29
879.762	18509.78
880.08	18630.91
880.398	18351.37
880.716	18310.46
881.034	18327.41
881.352	18390.01
881.67	18267.98
881.988	18268.66
882.306	18169.9
882.624	18172.84
882.941	18128.1
883.259	18069.34
883.577	18074.31
883.894	18049
884.212	17934.2
884.529	17871.15
884.846	17883.58
885.164	17680.65
885.481	17813.98
885.798	17743.7
886.115	17705.51
886.432	17736.47
886.75	17643.36
887.067	17596.13
887.383	17442.24
887.7	17572.18
888.017	17349.59
888.334	17406.08
888.651	17319.98
888.967	17227.33
889.284	17252.64
889.6	17166.54
889.917	17174.9
890.233	17225.3
890.55	17163.15
890.866	17001.8
891.182	17070.95
891.498	16941.46
891.815	16853.55
892.131	16777.62
892.447	16823.95
892.763	16745.31
893.079	16702.15
893.395	16683.39
893.71	16616.72
894.026	16631.64
894.342	16498.31
894.657	16426.67
894.973	16345.32
895.289	16397.07
895.604	16354.58
895.92	16202.05
896.235	16140.58
896.55	16207.02
896.865	16069.39
897.181	15950.3
897.496	16039.34
897.811	15947.36
898.126	15833.24
898.441	15789.85
898.756	15829.85
899.071	15755.73
899.386	15736.3
899.7	15629.86
900.015	15535.62
900.33	15360.71
900.644	15374.95
900.959	15257.66
901.273	15265.57
901.588	15169.76
901.902	15172.92
902.216	15166.37
902.531	15084.34
902.845	14999.14
903.159	14908.97
903.473	14865.13
903.787	14809.54
904.101	14725.7
904.415	14772.25
904.729	14785.36
905.042	14530.45
905.356	14573.39
905.67	14524.58
905.984	14549.21
906.297	14490.9
906.611	14313.28
906.924	14320.29
907.237	14323.45
907.551	14282.32
907.864	14105.6
908.177	14091.37
908.491	14096.11
908.804	14009.56
909.117	13934.08
909.43	13848.44
909.743	13784.93
910.056	13756.46
910.368	13702
910.681	13608.22
910.994	13542.68
911.307	13504.72
911.619	13435.56
911.932	13457.49
912.244	13259.52
912.557	13349.01
912.869	13134.56
913.181	13156.7
913.494	13198.73
913.806	13041.9
914.118	13038.74
914.43	12958.29
914.742	12912.87
915.054	12775.24
915.366	12827.9
915.678	12712.87
915.99	12712.19
916.302	12592.42
916.613	12607.34
916.925	12634.91
917.236	12516.04
917.548	12495.7
917.859	12445.53
918.171	12374.35
918.482	12222.26
918.794	12296.61
919.105	12276.27
919.416	12137.97
919.727	12094.13
920.038	12047.58
920.349	11981.14
920.66	11957.41
920.971	11952.44
921.282	11856.17
921.593	11838.77
921.903	11664.09
922.214	11658.44
922.525	11676.06
922.835	11595.16
923.146	11535.73
923.456	11472.68
923.767	11453.02
924.077	11401.49
924.387	11423.64
924.697	11407.37
925.008	11313.59
925.318	11178.22
925.628	11240.82
925.938	11120.37
926.248	11086.7
926.558	11039.92
926.867	10959.02
927.177	10930.09
927.487	10896.87
927.796	10844.9
928.106	10892.35
928.416	10782.53
928.725	10705.92
929.034	10721.51
929.344	10661.17
929.653	10566.04
929.962	10538.92
930.271	10455.08
930.581	10454.85
930.89	10404.46
931.199	10350.45
931.508	10297.34
931.817	10206.72
932.125	10236.78
932.434	10186.38
932.743	10094.18
933.051	10140.74
933.36	10059.83
933.669	10008.99
933.977	9954.98
934.286	9836.56
934.594	9883.57
934.902	9835.21
935.21	9834.98
935.519	9710.01
935.827	9703.91
936.135	9671.14
936.443	9572.62
936.751	9544.82
937.059	9519.06
937.367	9502.79
937.674	9489.91
937.982	9375.11
938.29	9376.46
938.597	9339.85
938.905	9262.12
939.213	9165.85
939.52	9191.83
939.827	9214.21
940.135	9167.88
940.442	9130.59
940.749	9050.82
941.056	9052.63
941.363	9013.53
941.67	8949.58
941.977	8911.84
942.284	8861
942.591	8823.71
942.898	8825.06
943.205	8807.21
943.511	8700.55
943.818	8667.78
944.125	8574.68
944.431	8563.83
944.738	8574.22
945.044	8489.25
945.35	8452.42
945.657	8416.71
945.963	8398.18
946.269	8374.91
946.575	8355.7
946.881	8292.2
947.187	8249.71
947.493	8168.81
947.799	8241.8
948.105	8150.51
948.41	8071.41
948.716	8084.29
949.022	8035.93
949.327	8049.49
949.633	7906.9
949.938	7920
950.244	7911.19
950.549	7800.68
950.854	7779.67
951.16	7756.17
951.465	7718.43
951.77	7631.2
952.075	7716.85
952.38	7619.22
952.685	7585.78
952.99	7551.88
953.294	7505.55
953.599	7496.29
953.904	7444.54
954.209	7408.15
954.513	7435.72
954.818	7392.33
955.122	7411.32
955.426	7319.12
955.731	7318.66
956.035	7248.61
956.339	7229.63
956.643	7244.09
956.948	7144.43
957.252	7135.84
957.556	7146.46
957.86	7096.07
958.163	7008.39
958.467	7020.82
958.771	6970.88
959.075	6905.12
959.378	6884.32
959.682	6885.45
959.985	6910.99
960.289	6770.2
960.592	6762.75
960.896	6724.78
961.199	6756.64
961.502	6728.4
961.805	6663.54
962.108	6631
962.411	6631
962.714	6583.99
963.017	6562.75
963.32	6511.68
963.623	6506.03
963.926	6519.14
964.228	6424
964.531	6400.04
964.833	6416.31
965.136	6328.18
965.438	6320.95
965.741	6223.55
966.043	6253.15
966.345	6216.09
966.648	6179.03
966.95	6228.52
967.252	6166.15
967.554	6185.36
967.856	6140.16
968.158	6072.37
968.46	6021.52
968.761	6030.34
969.063	5996.21
969.365	6005.93
969.666	5902.43
969.968	5864.01
970.269	5860.62
970.571	5893.16
970.872	5838.7
971.174	5861.07
971.475	5773.85
971.776	5775.88
972.077	5735.2
972.378	5697.46
972.679	5675.54
972.98	5685.03
973.281	5673.96
973.582	5574.53
973.883	5575.88
974.183	5534.08
974.484	5513.51
974.785	5444.36
975.085	5465.15
975.386	5455.89
975.686	5401.88
975.986	5430.35
976.287	5345.61
976.587	5311.48
976.887	5344.03
977.187	5337.7
977.487	5313.52
977.787	5262.9
978.087	5235.33
978.387	5173.86
978.687	5198.04
978.987	5172.96
979.286	5136.35
979.586	5118.27
979.885	5065.84
980.185	5028.1
980.484	5005.5
980.784	5038.5
981.083	4973.19
981.382	4958.73
981.682	4944.04
981.981	4903.36
982.28	4948.78
982.579	4815
982.878	4889.12
983.177	4802.35
983.475	4888.67
983.774	4779.52
984.073	4759.18
984.372	4739.75
984.67	4685.06
984.969	4687.55
985.267	4659.3
985.566	4620.2
985.864	4584.5
986.162	4594.67
986.461	4549.7
986.759	4579.75
987.057	4520.54
987.355	4452.3
987.653	4464.05
987.951	4431.96
988.249	4427.21
988.547	4427.89
988.844	4392.41
989.142	4392.64
989.44	4354.22
989.737	4342.7
990.035	4306.99
990.332	4287.33
990.63	4296.37
990.927	4275.13
991.224	4247.33
991.521	4197.84
991.819	4171.4
992.116	4181.12
992.413	4179.54
992.71	4137.5
993.006	4136.15
993.303	4107.9
993.6	4103.15
993.897	4087.11
994.193	4049.82
994.49	4008.24
994.787	3961.46
995.083	3919.66
995.379	3947.9
995.676	3931.63
995.972	3878.08
996.268	3875.82
996.565	3853.44
996.861	3894.8
997.157	3818.19
997.453	3809.6
997.749	3802.37
998.044	3808.47
998.34	3721.92
998.636	3695.71
998.932	3722.37
999.227	3666.56
999.523	3693
999.818	3641.02
1000.114	3619.55
1000.409	3597.63
1000.704	3547.46
1001	3577.07
1001.295	3535.03
1001.59	3538.65
1001.885	3491.42
1002.18	3488.93
1002.475	3505.66
1002.77	3488.26
1003.065	3462.72
1003.359	3418.88
1003.654	3418.2
1003.949	3364.64
1004.243	3326.9
1004.538	3326.9
1004.832	3318.99
1005.127	3316.28
1005.421	3272.67
1005.715	3279.9
1006.009	3270.18
1006.304	3185.66
1006.598	3196.51
1006.892	3167.13
1007.186	3170.3
1007.48	3118.77
1007.773	3059.79
1008.067	3121.26
1008.361	3047.14
1008.655	3056.4
1008.948	3056.4
1009.242	3018.89
1009.535	3024.31
1009.829	2969.17
1010.122	2975.05
1010.415	2921.26
1010.708	2903.86
1011.001	2917.2
1011.295	2911.32
1011.588	2894.37
1011.881	2866.13
1012.173	2802.62
1012.466	2826.8
1012.759	2822.51
1013.052	2812.12
1013.344	2796.52
1013.637	2755.85
1013.93	2702.06
1014.222	2727.15
1014.514	2686.47
1014.807	2686.02
1015.099	2698.22
1015.391	2653.48
1015.683	2670.2
1015.976	2613.93
1016.268	2583.19
1016.56	2570.99
1016.851	2558.79
1017.143	2577.09
1017.435	2559.69
1017.727	2538.9
1018.018	2526.25
1018.31	2499.13
1018.602	2462.75
1018.893	2466.81
1019.185	2438.79
1019.476	2412.8
1019.767	2424.55
1020.058	2380.94
1020.35	2364.67
1020.641	2318.57
1020.932	2326.25
1021.223	2304.11
1021.514	2279.93
1021.804	2278.57
1022.095	2228.85
1022.386	2224.11
1022.677	2229.98
1022.967	2211.45
1023.258	2199.48
1023.548	2171.23
1023.839	2157.44
1024.129	2170.1
1024.419	2134.62
1024.709	2125.81
1025	2125.13
1025.29	2088.52
1025.58	2026.15
1025.87	2072.7
1026.16	2084
1026.449	2033.15
1026.739	2046.94
1027.029	2024.34
1027.319	1994.28
1027.608	2004.68
1027.898	1949.31
1028.187	1965.13
1028.477	1943.89
1028.766	1926.71
1029.055	1935.75
1029.344	1910.44
1029.634	1878.35
1029.923	1888.07
1030.212	1843.1
1030.501	1868.19
1030.79	1822.08
1031.078	1805.81
1031.367	1799.71
1031.656	1780.96
1031.945	1752.26
1032.233	1774.18
1032.522	1758.36
1032.81	1753.16
1033.099	1711.35
1033.387	1724.01
1033.675	1721.75
1033.963	1668.19
1034.251	1685.59
1034.54	1652.82
1034.828	1659.15
1035.116	1666.61
1035.403	1621.41
1035.691	1577.12
1035.979	1574.86
1036.267	1599.04
1036.554	1616.89
1036.842	1592.71
1037.129	1562.66
1037.417	1556.56
1037.704	1538.02
1037.992	1529.66
1038.279	1500.06
1038.566	1501.87
1038.853	1501.87
1039.14	1501.87
