Data from 18-4525_FLMS001491_005.txt Node
Date: Thu Apr 19 16:42:47 BST 2018
User: hsy
Spectrometer: FLMS00149
Trigger mode: 0
Integration Time (sec): 1.000000E-2
Scans to average: 10
Electric dark correction enabled: true
Nonlinearity correction enabled: false
Boxcar width: 0
XAxis mode: Wavelengths
Number of Pixels in Spectrum: 2048
>>>>>Begin Spectral Data<<<<<
341.393	10.47
341.776	10.47
342.16	10.47
342.543	-63.2
342.927	-54.84
343.31	-77.44
343.693	-69.53
344.077	-61.4
344.46	-60.49
344.843	-58.01
345.226	-26.6
345.61	-25.24
345.993	-13.26
346.376	-1.74
346.759	2.33
347.142	18.15
347.525	45.95
347.908	60.41
348.291	77.13
348.674	74.64
349.057	115.1
349.44	121.88
349.823	139.05
350.206	150.8
350.588	229.9
350.971	235.32
351.354	243.23
351.737	275.32
352.119	272.83
352.502	296.56
352.884	305.15
353.267	311.02
353.65	324.81
354.032	340.17
354.414	333.85
354.797	355.54
355.179	355.54
355.562	346.28
355.944	348.99
356.326	375.65
356.709	357.58
357.091	369.78
357.473	362.77
357.855	373.62
358.238	390.12
358.62	346.05
359.002	375.43
359.384	375.43
359.766	395.54
360.148	382.89
360.53	357.35
360.912	389.44
361.294	380.85
361.676	384.24
362.057	366.16
362.439	391.02
362.821	357.58
363.203	360.51
363.584	360.06
363.966	364.35
364.348	363.9
364.729	355.77
365.111	355.54
365.493	365.94
365.874	367.97
366.256	343.11
366.637	329.78
367.019	332.94
367.4	335.66
367.781	363.45
368.163	367.97
368.544	358.93
368.925	357.8
369.306	369.78
369.688	352.6
370.069	364.81
370.45	359.84
370.831	374.3
371.212	356.9
371.593	363
371.974	359.84
372.355	341.08
372.736	399.61
373.117	384.69
373.498	377.01
373.879	381.53
374.26	405.26
374.641	360.74
375.021	377.24
375.402	399.61
375.783	384.69
376.163	400.06
376.544	410
376.925	392.38
377.305	395.09
377.686	392.15
378.066	388.53
378.447	391.47
378.827	377.69
379.208	410.68
379.588	412.72
379.968	414.75
380.349	415.65
380.729	426.95
381.109	417.46
381.489	398.03
381.87	402.32
382.25	394.41
382.63	407.29
383.01	402.09
383.39	446.61
383.77	431.7
384.15	447.29
384.53	427.18
384.91	424.24
385.29	440.96
385.67	424.24
386.049	436.22
386.429	433.96
386.809	453.62
387.189	447.29
387.568	433.28
387.948	468.98
388.328	478.48
388.707	465.82
389.087	454.3
389.466	488.87
389.846	487.52
390.225	504.01
390.605	474.86
390.984	484.58
391.363	510.79
391.743	501.75
392.122	511.47
392.501	519.15
392.881	509.21
393.26	528.87
393.639	504.69
394.018	511.24
394.397	537.01
394.776	541.98
395.155	567.51
395.534	525.71
395.913	546.95
396.292	542.66
396.671	561.19
397.05	566.16
397.429	565.93
397.808	577.46
398.186	572.94
398.565	585.59
398.944	577
399.323	579.04
399.701	577.91
400.08	595.31
400.458	594.41
400.837	595.31
401.215	614.29
401.594	640.05
401.972	623.56
402.351	645.48
402.729	634.4
403.107	659.04
403.486	645.93
403.864	665.59
404.242	653.84
404.62	680.5
404.999	663.56
405.377	690.22
405.755	681.63
406.133	702.2
406.511	685.02
406.889	722.76
407.267	716.66
407.645	719.15
408.023	742.88
408.401	728.64
408.779	741.52
409.156	772.03
409.534	793.95
409.912	794.85
410.29	812.25
410.667	807.96
411.045	831.24
411.422	838.92
411.8	828.3
412.178	856.32
412.555	873.72
412.933	877.79
413.31	895.87
413.687	913.04
414.065	928.86
414.442	913.04
414.819	953.27
415.197	967.05
415.574	991.01
415.951	976.77
416.328	974.51
416.705	988.97
417.082	980.84
417.46	1028.74
417.837	1031.46
418.214	1031.68
418.591	1030.33
418.967	1042.53
419.344	1060.83
419.721	1056.54
420.098	1081.4
420.475	1088.4
420.852	1085.47
421.228	1094.73
421.605	1106.03
421.982	1127.95
422.358	1139.7
422.735	1141.51
423.111	1158.23
423.488	1214.05
423.864	1215.86
424.241	1203.88
424.617	1223.54
424.994	1191.45
425.37	1235.52
425.746	1256.31
426.123	1271.68
426.499	1275.07
426.875	1303.54
427.251	1351.45
427.627	1348.28
428.003	1369.3
428.379	1363.42
428.756	1384.67
429.132	1422.63
429.507	1404.33
429.883	1448.39
430.259	1414.5
430.635	1473.48
431.011	1495.17
431.387	1542.4
431.763	1528.17
432.138	1539.92
432.514	1569.07
432.89	1587.6
433.265	1640.03
433.641	1649.52
434.016	1673.7
434.392	1685
434.767	1707.14
435.143	1703.98
435.518	1746.47
435.894	1797.76
436.269	1813.81
436.644	1835.05
437.02	1842.73
437.395	1850.64
437.77	1882.96
438.145	1930.64
438.52	1901.72
438.895	1972.67
439.271	1977.42
439.646	2005.67
440.021	2021.94
440.395	2037.76
440.77	2011.54
441.145	2066
441.52	2078.66
441.895	2122.73
442.27	2111.2
442.645	2136.06
443.019	2141.94
443.394	2180.58
443.769	2171.54
444.143	2179.9
444.518	2214.48
444.892	2245.21
445.267	2220.13
445.641	2261.25
446.016	2296.28
446.39	2279.33
446.764	2282.72
447.139	2298.32
447.513	2324.53
447.887	2340.57
448.262	2345.09
448.636	2381.02
449.01	2419.67
449.384	2437.97
449.758	2484.98
450.132	2477.07
450.506	2505.09
450.88	2518.65
451.254	2499.44
451.628	2588.03
452.002	2604.3
452.376	2605.88
452.75	2664.63
453.123	2657.85
453.497	2703.5
453.871	2728.13
454.244	2770.39
454.618	2804.74
454.992	2855.59
455.365	2832.99
455.739	2940.33
456.112	2957.96
456.486	3025.53
456.859	3005.42
457.232	3066.43
457.606	3100.1
457.979	3151.85
458.352	3179.42
458.725	3242.47
459.099	3279.08
459.472	3312.07
459.845	3392.98
460.218	3412.86
460.591	3460.32
460.964	3415.57
461.337	3518.17
461.71	3564.95
462.083	3599.52
462.456	3653.99
462.829	3635.91
463.201	3706.41
463.574	3726.98
463.947	3837.48
464.32	3881.55
464.692	3875
465.065	3912.51
465.438	3935.56
465.81	4044.03
466.183	4049.91
466.555	4140.3
466.928	4189.11
467.3	4184.82
467.672	4272.05
468.045	4313.4
468.417	4322.89
468.789	4348.2
469.161	4451.7
469.534	4489.67
469.906	4551.82
470.278	4652.83
470.65	4632.27
471.022	4712.04
471.394	4811.24
471.766	4865.03
472.138	4966.49
472.51	5015.98
472.882	5108.18
473.253	5126.94
473.625	5195.41
473.997	5350.21
474.369	5336.2
474.74	5419.36
475.112	5519.25
475.484	5604.44
475.855	5693.48
476.227	5781.39
476.598	5866.13
476.97	5961.04
477.341	6077.42
477.713	6103.19
478.084	6209.62
478.455	6352.22
478.827	6443.74
479.198	6610.07
479.569	6636.28
479.94	6852.09
480.311	6875.14
480.682	7036.5
481.053	7120.11
481.424	7320.33
481.795	7387.67
482.166	7513.09
482.537	7604.62
482.908	7739.08
483.279	7863.59
483.65	8010.26
484.021	8219.06
484.391	8283.02
484.762	8425.84
485.133	8457.93
485.503	8612.5
485.874	8817.92
486.244	8928.42
486.615	9205.93
486.985	9301.97
487.356	9375.42
487.726	9478.24
488.097	9711.45
488.467	9821.73
488.837	9989.86
489.207	10140.14
489.578	10326.8
489.948	10460.13
490.318	10656.51
490.688	10735.83
491.058	10896.51
491.428	11122.04
491.798	11147.8
492.168	11445.87
492.538	11561.12
492.908	11690.61
493.278	11872.3
493.648	11943.49
494.017	12069.81
494.387	12321.33
494.757	12444.72
495.126	12563.13
495.496	12641.77
495.866	12815.55
496.235	12978.03
496.605	13054.19
496.974	13170.57
497.344	13431.13
497.713	13481.75
498.082	13591.58
498.452	13830.22
498.821	13898.24
499.19	13955.86
499.559	14109.76
499.928	14211.67
500.298	14401.95
500.667	14623.41
501.036	14553.59
501.405	14796.07
501.774	14750.64
502.143	15002.39
502.512	15123.74
502.88	15265.43
503.249	15268.37
503.618	15431.76
503.987	15494.8
504.356	15627.91
504.724	15794.91
505.093	15760.56
505.462	15907.45
505.83	15999.88
506.199	16199.42
506.567	16437.83
506.936	16388.34
507.304	16590.59
507.672	16670.37
508.041	16774.77
508.409	16896.58
508.777	16960.08
509.145	17166.17
509.514	17260.41
509.882	17331.59
510.25	17358.48
510.618	17578.59
510.986	17480.51
511.354	17705.37
511.722	17894.29
512.09	17976.55
512.458	17970.22
512.826	18146.49
513.193	18138.58
513.561	18327.72
513.929	18372.02
514.297	18589.19
514.664	18682.07
515.032	18772.91
515.4	18792.8
515.767	18904.43
516.135	19031.66
516.502	18947.6
516.869	19241.37
517.237	19339.45
517.604	19241.82
517.972	19562.27
518.339	19488.37
518.706	19583.96
519.073	19661.93
519.44	19751.87
519.808	19963.84
520.175	19983.27
520.542	20163.38
520.909	20214
521.276	20202.93
521.643	20590.49
522.009	20701.67
522.376	20793.87
522.743	20851.73
523.11	20958.84
523.477	21130.36
523.843	21167.2
524.21	21412.84
524.577	21555.66
524.943	21636.11
525.31	21638.6
525.676	21847.41
526.043	22054.41
526.409	22119.71
526.776	22252.82
527.142	22251.69
527.508	22351.8
527.874	22510.21
528.241	22528.97
528.607	22568.97
528.973	22837.89
529.339	22773.94
529.705	23073.59
530.071	23142.74
530.437	23116.3
530.803	23313.13
531.169	23320.81
531.535	23396.07
531.901	23410.75
532.267	23473.35
532.632	23584.31
532.998	23570.07
533.364	23645.1
533.73	23621.6
534.095	23792.89
534.461	23744.98
534.826	23712.22
535.192	23850.29
535.557	23920.35
535.923	23956.95
536.288	23948.37
536.653	24033.34
537.019	23841.48
537.384	24011.42
537.749	23992.66
538.114	24050.51
538.479	23994.92
538.845	24081.02
539.21	23918.31
539.575	24025.43
539.94	24007.35
540.305	24039.21
540.67	23958.76
541.034	24027.91
541.399	24088.7
541.764	24004.86
542.129	24031.3
542.494	23929.16
542.858	24096.61
543.223	24009.61
543.587	24040.34
543.952	23945.66
544.316	23934.13
544.681	23950.85
545.045	23892.32
545.41	24064.52
545.774	23852.32
546.138	23870.18
546.503	23969.16
546.867	23956.05
547.231	23965.99
547.595	23919.89
547.959	23998.31
548.324	23843.06
548.688	23887.35
549.052	23942.49
549.416	23861.59
549.779	23837.41
550.143	23776.62
550.507	23822.04
550.871	23756.06
551.235	23700.01
551.599	23888.48
551.962	23919.67
552.326	23875.38
552.689	23888.03
553.053	23671.54
553.417	23695.27
553.78	23876.28
554.143	23761.93
554.507	23768.26
554.87	23750.86
555.234	23818.88
555.597	23782.27
555.96	23918.54
556.323	23775.04
556.686	23748.82
557.05	23823.17
557.413	23868.14
557.776	23849.84
558.139	23959.89
558.502	23919.44
558.865	23866.34
559.228	24125.54
559.59	24018.2
559.953	24053
560.316	24131.19
560.679	24151.98
561.041	24108.14
561.404	24292.31
561.767	24442.14
562.129	24357.62
562.492	24455.47
562.854	24413.44
563.217	24499.99
563.579	24478.3
563.941	24593.55
564.304	24643.72
564.666	24843.03
565.028	24783.83
565.39	24791.06
565.753	24947.21
566.115	24946.31
566.477	25100.88
566.839	25132.52
567.201	25416.8
567.563	25260.88
567.925	25370.93
568.287	25389.23
568.648	25492.06
569.01	25672.84
569.372	25827.64
569.734	25718.94
570.095	25863.12
570.457	26096.33
570.819	26003.91
571.18	26095.43
571.542	26210.45
571.903	26272.37
572.265	26334.97
572.626	26479.15
572.987	26462.43
573.349	26638.24
573.71	26638.47
574.071	26851.34
574.432	26887.5
574.794	27075.74
575.155	27035.52
575.516	27032.35
575.877	27044.33
576.238	27038.68
576.599	27236.42
576.96	27359.58
577.32	27315.74
577.681	27293.59
578.042	27532.68
578.403	27485.9
578.763	27414.04
579.124	27505.11
579.485	27671.21
579.845	27728.38
580.206	27655.16
580.566	27638.21
580.927	27693.81
581.287	27812.45
581.648	27700.59
582.008	27921.14
582.368	27921.6
582.728	27814.48
583.089	27832.11
583.449	27774.26
583.809	27748.04
584.169	28004.98
584.529	27781.04
584.889	28071.2
585.249	27875.27
585.609	27678.89
585.969	27879.79
586.329	27856.06
586.688	27755.72
587.048	27764.99
587.408	27787.14
587.768	27703.3
588.127	27742.84
588.487	27713.01
588.846	27889.05
589.206	27555.73
589.565	27752.79
589.925	27780.81
590.284	27711.43
590.643	27690.87
591.003	27793.46
591.362	27883.41
591.721	27751.43
592.08	27663.07
592.44	27821.49
592.799	27689.06
593.158	27649.74
593.517	27594.15
593.876	27760.24
594.235	27629.63
594.593	27625.78
594.952	27592.79
595.311	27609.74
595.67	27562.06
596.029	27822.84
596.387	27713.92
596.746	27769.51
597.104	27659.68
597.463	27496.97
597.822	27618.33
598.18	27527.93
598.538	27477.99
598.897	27685.44
599.255	27456.52
599.613	27796.18
599.972	27560.48
600.33	27714.37
600.688	27603.19
601.046	27728.16
601.404	27753.24
601.762	27639.57
602.12	27685.22
602.478	27631.66
602.836	27819.45
603.194	27493.36
603.552	27698.55
603.91	27580.59
604.268	27729.51
604.625	27671.89
604.983	27830.07
605.341	27626.24
605.698	27808.6
606.056	27933.8
606.413	27775.39
606.771	27868.72
607.128	27784.88
607.485	27795.27
607.843	27802.28
608.2	27879.56
608.557	28047.92
608.914	27891.54
609.272	28146
609.629	28126.34
609.986	28273.45
610.343	28080.46
610.7	28232.77
611.057	28242.94
611.414	28228.25
611.771	28277.29
612.127	28361.81
612.484	28428.02
612.841	28411.75
613.198	28366.33
613.554	28274.13
613.911	28566.1
614.267	28484.07
614.624	28544.63
614.98	28461.24
615.337	28643.61
615.693	28602.93
616.05	28705.76
616.406	28713.21
616.762	28727.45
617.118	28781.69
617.475	28763.61
617.831	28785.08
618.187	28834.34
618.543	28870.27
618.899	28948.91
619.255	28965.41
619.611	29038.4
619.967	29034.56
620.323	29346.87
620.678	28971.96
621.034	29006.09
621.39	28957.05
621.746	29074.11
622.101	29361.11
622.457	29052.87
622.812	29220.32
623.168	29349.13
623.523	29361.33
623.879	29336.02
624.234	29204.95
624.589	29298.28
624.945	29360.88
625.3	29328.11
625.655	29415.34
626.01	29348.9
626.365	29337.38
626.72	29305.06
627.075	29267.78
627.43	29246.99
627.785	29153.2
628.14	29273.65
628.495	29219.87
628.85	29388.9
629.205	29184.39
629.559	29257.83
629.914	29141.9
630.269	29182.81
630.623	29098.06
630.978	29066.88
631.332	29208.34
631.687	29210.38
632.041	29096.48
632.396	29130.15
632.75	29016.03
633.104	28993.21
633.459	28894.9
633.813	28982.36
634.167	28875.7
634.521	28890.84
634.875	28831.4
635.229	28760.22
635.583	28702.82
635.937	28829.37
636.291	28702.37
636.645	28629.83
636.999	28584.63
637.352	28653.55
637.706	28401.58
638.06	28592.77
638.413	28485.65
638.767	28486.78
639.121	28558.87
639.474	28419.66
639.828	28495.59
640.181	28421.24
640.534	28400.91
640.888	28333.34
641.241	28199.1
641.594	28213.57
641.947	28309.16
642.301	28318.2
642.654	28324.52
643.007	28165.66
643.36	28291.08
643.713	28246.11
644.066	28287.91
644.419	28147.13
644.771	27757.98
645.124	27530.87
645.477	27648.84
645.83	27480.25
646.182	27597.99
646.535	27513.47
646.888	27487.48
647.24	27393.47
647.593	27496.75
647.945	27469.18
648.298	27313.25
648.65	27266.02
649.002	27135.63
649.355	27085.01
649.707	27019.93
650.059	26880.27
650.411	27472.79
650.763	27568.16
651.115	27945.32
651.467	27952.78
651.819	28005.66
652.171	27798.66
652.523	27730.64
652.875	27807.48
653.227	27663.52
653.578	27831.2
653.93	27869.62
654.282	27780.58
654.633	27873.01
654.985	27861.48
655.337	27917.3
655.688	27837.08
656.039	27909.85
656.391	27720.47
656.742	27699.46
657.094	27784.88
657.445	27854.25
657.796	27911.88
658.147	27858.1
658.498	27779
658.849	27927.92
659.2	27944.42
659.551	27798.44
659.902	28000.69
660.253	27939.67
660.604	27990.75
660.955	27983.74
661.306	28154.81
661.656	28019.22
662.007	28021.71
662.358	27984.87
662.708	28141.93
663.059	28139.44
663.409	27871.43
663.76	28130.18
664.11	28090.18
664.461	28143.51
664.811	28158.88
665.161	28183.96
665.511	27990.97
665.862	28073.23
666.212	28175.15
666.562	28165.21
666.912	28188.48
667.262	28057.86
667.612	28115.72
667.962	28182.83
668.312	28219.89
668.662	28199.56
669.011	28127.01
669.361	28168.14
669.711	28238.2
670.06	28065.1
670.41	28006.11
670.76	27941.03
671.109	28169.95
671.459	28122.5
671.808	28014.93
672.157	28050.63
672.507	27875.95
672.856	27908.94
673.205	28000.69
673.554	28039.56
673.904	27953.69
674.253	28106
674.602	27837.3
674.951	27500.36
675.3	27446.58
675.649	27907.59
675.998	27905.78
676.346	27845.21
676.695	27987.13
677.044	27707.36
677.393	27852.9
677.741	27901.48
678.09	27778.32
678.438	27696.07
678.787	27762.73
679.135	27632.79
679.484	27568.61
679.832	27620.81
680.181	27409.52
680.529	27486.81
680.877	27381.05
681.225	27432.8
681.573	27654.71
681.922	27456.3
682.27	27180.37
682.618	27250.65
682.966	27150.32
683.314	27298.34
683.661	27209.52
684.009	27100.15
684.357	26976.76
684.705	26903.54
685.053	26934.73
685.4	26862.64
685.748	26753.04
686.095	26850.66
686.443	26715.53
686.79	26632.36
687.138	26647.73
687.485	26678.92
687.832	26497.23
688.18	26515.76
688.527	26429.66
688.874	26264.69
689.221	26281.41
689.568	26018.37
689.915	26069.89
690.262	26108.08
690.609	26006.39
690.956	25834.19
691.303	25671.03
691.65	25633.07
691.997	25567.31
692.344	25466.29
692.69	25419.74
693.037	25320.08
693.383	25120.54
693.73	25121.9
694.077	25066.53
694.423	24951.5
694.769	24749.93
695.116	24768.91
695.462	24748.57
695.808	24585.41
696.155	24585.19
696.501	24354.23
696.847	24459.09
697.193	24217.96
697.539	24114.46
697.885	24090.28
698.231	23884.19
698.577	23982.72
698.923	23730.75
699.269	23604.2
699.614	23601.71
699.96	23505.22
700.306	23450.98
700.651	23315.39
700.997	23242.62
701.342	23136.41
701.688	22999.01
702.033	23022.06
702.379	22928.06
702.724	22877.21
703.069	22833.59
703.415	22575.07
703.76	22491.23
704.105	22395.41
704.45	22420.72
704.795	22300.5
705.14	22292.82
705.485	22255.53
705.83	22127.4
706.175	22191.58
706.52	22041.07
706.865	21941.19
707.209	21904.35
707.554	21931.47
707.899	21963.56
708.243	21808.76
708.588	21728.09
708.932	21603.34
709.277	21561.76
709.621	21537.81
709.966	21288.32
710.31	21500.07
710.654	21325.39
710.998	21303.24
711.342	21341.2
711.687	21286.29
712.031	21156.58
712.375	21161.77
712.719	21112.96
713.063	21071.61
713.407	21197.03
713.75	21029.8
714.094	21051.72
714.438	20980.54
714.782	20902.12
715.125	20895.79
715.469	20983.02
715.812	20780.54
716.156	20726.08
716.499	20848.56
716.843	20667.55
717.186	20721.11
717.53	20705.74
717.873	20877.26
718.216	20774.89
718.559	20657.38
718.902	20576.7
719.246	20640.88
719.589	20630.49
719.932	20534.45
720.275	20631.84
720.617	20604.05
720.96	20447.67
721.303	20557.95
721.646	20574.67
721.989	20484.73
722.331	20521.11
722.674	20481.57
723.016	20503.03
723.359	20462.13
723.701	20513.43
724.044	20359.76
724.386	20356.82
724.729	20452.64
725.071	20369.03
725.413	20424.17
725.755	20515.01
726.097	20359.08
726.439	20255.58
726.782	20390.49
727.124	20502.13
727.465	20430.72
727.807	20364.51
728.149	20465.52
728.491	20411.51
728.833	20457.39
729.175	20355.02
729.516	20368.12
729.858	20453.32
730.199	20471.62
730.541	20431.17
730.882	20471.85
731.224	20458.74
731.565	20484.73
731.906	20555.69
732.248	20674.33
732.589	20574.9
732.93	20575.12
733.271	20467.56
733.612	20612.18
733.953	20711.16
734.294	20713.2
734.635	20700.54
734.976	20836.13
735.317	20727.66
735.658	20750.03
735.999	20842.01
736.339	20825.29
736.68	20893.98
737.021	20939.41
737.361	21002.23
737.702	21037.03
738.042	21092.4
738.383	21091.27
738.723	21169.68
739.063	21202.68
739.404	21358.61
739.744	21278.38
740.084	21396.12
740.424	21444.25
740.764	21484.25
741.104	21674.08
741.444	21674.3
741.784	21651.93
742.124	21834.52
742.464	21876.56
742.804	21977.57
743.143	21991.36
743.483	22130.34
743.823	22165.59
744.162	22126.49
744.502	22439.25
744.841	22432.93
745.181	22669.31
745.52	22733.48
745.86	22865.68
746.199	22968.51
746.538	23042.4
746.877	23241.49
747.216	23310.64
747.556	23402.17
747.895	23737.3
748.234	23814.59
748.573	23945.43
748.911	24146.1
749.25	24271.75
749.589	24329.15
749.928	24737.95
750.267	24975.69
750.605	25031.5
750.944	25142.01
751.283	25264.72
751.621	25673.75
751.96	25790.58
752.298	25934.76
752.636	26165.03
752.975	26412.26
753.313	26451.35
753.651	26903.09
753.989	26995.97
754.327	27221.5
754.666	27300.37
755.004	27712.56
755.342	28034.81
755.679	28263.96
756.017	28247.24
756.355	28541.24
756.693	28794.79
757.031	29201.79
757.368	29191.17
757.706	29515.23
758.044	29735.11
758.381	29884.71
758.719	30075.66
759.056	30338.03
759.394	30480.4
759.731	30486.05
760.068	30908.86
760.405	31080.84
760.743	31183.66
761.08	31603.53
761.417	31761.04
761.754	31874.26
762.091	32064.09
762.428	32112.67
762.765	32291.65
763.102	32531.87
763.438	32564.41
763.775	32623.39
764.112	32918.53
764.449	33048.92
764.785	33205.3
765.122	33264.96
765.458	33264.05
765.795	33580.2
766.131	33698.39
766.467	33813.19
766.804	33718.28
767.14	33961.89
767.476	34125.5
767.812	34080.08
768.148	34426.74
768.485	34292.28
768.821	34210.47
769.157	34396.68
769.492	34405.27
769.828	34429.67
770.164	34405.49
770.5	34500.63
770.836	34634.19
771.171	34653.4
771.507	34742.21
771.842	34587.86
772.178	34694.3
772.513	34657.24
772.849	34647.52
773.184	34607.52
773.519	34688.65
773.855	34610.46
774.19	34594.42
774.525	34658.82
774.86	34604.13
775.195	34661.76
775.53	34603.91
775.865	34428.32
776.2	34380.18
776.535	34362.56
776.87	34433.29
777.205	34307.64
777.539	34208.89
777.874	34332.05
778.209	34133.86
778.543	34117.59
778.878	33916.92
779.212	34097.25
779.547	33973.87
779.881	33909.46
780.215	33785.62
780.55	34045.5
780.884	33775
781.218	33777.04
781.552	33772.06
781.886	33627.44
782.22	33457.5
782.554	33381.11
782.888	33073.55
783.222	33294.79
783.556	32928.7
783.889	33091.86
784.223	32817.06
784.557	32853.9
784.89	32942.26
785.224	32668.82
785.557	32639.66
785.891	32554.47
786.224	32448.48
786.558	32498.88
786.891	32289.62
787.224	32200.35
787.557	32100.92
787.891	32110.86
788.224	32032.22
788.557	32055.95
788.89	31800.14
789.223	31847.37
789.556	31673.59
789.888	31579.58
790.221	31484.89
790.554	31456.64
790.887	31439.92
791.219	31381.84
791.552	31264.56
791.884	31131.91
792.217	30918.35
792.549	30982.98
792.882	30607.85
793.214	30661.19
793.546	30763.56
793.879	30562.43
794.211	30382.32
794.543	30545.48
794.875	30374.41
795.207	30398.82
795.539	30314.53
795.871	30338.71
796.203	30164.7
796.535	29861.66
796.867	29964.25
797.198	29828.21
797.53	29776.24
797.862	29627.54
798.193	29677.71
798.525	29533.98
798.856	29613.53
799.188	29204.73
799.519	29159.08
799.85	29086.54
800.182	29109.36
800.513	29288.11
800.844	28841.35
801.175	29067.33
801.506	28883.6
801.837	28698.07
802.168	28742.14
802.499	28863.49
802.83	28673.44
803.161	28477.74
803.491	28455.59
803.822	28525.65
804.153	28390.74
804.483	28102.83
804.814	28105.32
805.145	28243.17
805.475	28150.52
805.805	28031.2
806.136	28054.25
806.466	27851.99
806.796	27904.87
807.126	27621.27
807.457	27705.78
807.787	27675.73
808.117	27609.29
808.447	27481.61
808.777	27583.75
809.107	27281.84
809.436	27404.1
809.766	27259.47
810.096	27398.22
810.426	27176.53
810.755	27226.02
811.085	27056.76
811.414	27204.78
811.744	27006.37
812.073	26986.25
812.403	26775.86
812.732	26649.31
813.061	26971.34
813.39	26680.73
813.719	26562.54
814.049	26803.43
814.378	26690.67
814.707	26534.51
815.036	26554.17
815.365	26395.31
815.693	26309.21
816.022	26376.78
816.351	26166.61
816.68	26067.18
817.008	26248.42
817.337	25988.54
817.665	26032.83
817.994	26069.22
818.322	25991.7
818.651	25927.98
818.979	25882.55
819.307	25899.28
819.636	25758.26
819.964	25817.92
820.292	25726.17
820.62	25784.25
820.948	25829.67
821.276	25884.14
821.604	25792.16
821.932	25974.3
822.259	25798.71
822.587	25773.86
822.915	25733.18
823.243	25788.32
823.57	25660.64
823.898	25866.96
824.225	25848.2
824.553	25713.52
824.88	25792.16
825.207	25888.2
825.535	25780.86
825.862	25935.43
826.189	25753.74
826.516	26021.99
826.843	26016.11
827.17	25943.12
827.497	25944.02
827.824	25930.24
828.151	26091.36
828.478	25918.03
828.805	26064.92
829.131	26009.1
829.458	26044.81
829.785	25835.78
830.111	25928.88
830.438	25977.92
830.764	25861.99
831.09	26105.37
831.417	25909.45
831.743	26151.02
832.069	25926.17
832.395	25928.88
832.722	25964.81
833.048	25834.65
833.374	25937.02
833.7	25805.95
834.026	25946.06
834.351	25880.29
834.677	25929.33
835.003	25779.96
835.329	25850.01
835.654	25798.26
835.98	25710.36
836.306	25902.44
836.631	25747.19
836.956	25941.31
837.282	25767.98
837.607	25656.12
837.932	25634.42
838.258	25560.08
838.583	25612.96
838.908	25516.24
839.233	25640.98
839.558	25385.39
839.883	25383.58
840.208	25210.71
840.533	25337.94
840.858	25374.32
841.182	25367.99
841.507	25263.14
841.832	25151.73
842.156	25183.14
842.481	25167.09
842.805	25026.08
843.13	25096.59
843.454	25134.1
843.778	24775.69
844.103	24870.6
844.427	24786.76
844.751	24864.05
845.075	24819.98
845.399	24669.93
845.723	24650.72
846.047	24679.2
846.371	24388.81
846.695	24412.54
847.019	24305.87
847.343	24140.68
847.666	24146.1
847.99	23958.31
848.313	23902.94
848.637	23857.52
848.96	23801.03
849.284	23738.88
849.607	23594.48
849.931	23538.66
850.254	23391.09
850.577	23219.12
850.9	23008.51
851.223	22999.47
851.546	23045.79
851.869	22911.56
852.192	23019.35
852.515	22810.32
852.838	22645.58
853.161	22696.42
853.483	22571.45
853.806	22482.42
854.129	22380.27
854.451	22406.94
854.774	22260.73
855.096	22237.45
855.419	22150.22
855.741	21952.04
856.063	21958.59
856.385	21897.12
856.708	21718.14
857.03	21694.87
857.352	21670.01
857.674	21697.58
857.996	21621.42
858.318	21476.57
858.64	21520.86
858.961	21373.52
859.283	21312.28
859.605	21238.16
859.926	21335.1
860.248	21262.34
860.57	21097.82
860.891	21171.27
861.212	20987.09
861.534	21098.5
861.855	20872.74
862.176	20949.8
862.498	20910.93
862.819	20872.06
863.14	20802.46
863.461	20766.3
863.782	20627.32
864.103	20595.24
864.424	20551.39
864.745	20660.77
865.065	20490.38
865.386	20381.68
865.707	20470.27
866.027	20484.96
866.348	20379.2
866.668	20428.91
866.989	20284.06
867.309	20235.92
867.63	20163.16
867.95	20168.13
868.27	20067.11
868.59	20174
868.91	20015.82
869.23	20048.81
869.55	19979.43
869.87	20022.59
870.19	19935.59
870.51	20002.03
870.83	19825.09
871.15	19922.71
871.469	19779.44
871.789	19881.36
872.109	19868.25
872.428	19708.03
872.748	19805.2
873.067	19701.93
873.386	19673.68
873.706	19663.73
874.025	19573.79
874.344	19544.64
874.663	19621.93
874.982	19537.18
875.301	19497.86
875.62	19380.58
875.939	19374.25
876.258	19432.78
876.577	19230.75
876.896	19280.69
877.214	19326.12
877.533	19324.08
877.852	19268.04
878.17	19259.23
878.489	19306.68
878.807	19162.96
879.125	19095.61
879.444	19030.76
879.762	18997.09
880.08	19132
880.398	18889.74
880.716	18841.84
881.034	18898.56
881.352	18890.42
881.67	18738.11
881.988	18778.11
882.306	18747.6
882.624	18649.75
882.941	18738.56
883.259	18585.12
883.577	18620.6
883.894	18473.94
884.212	18462.64
884.529	18433.94
884.846	18375.41
885.164	18372.24
885.481	18249.53
885.798	18308.74
886.115	18227.16
886.432	18198.91
886.75	18279.59
887.067	18169.54
887.383	18166.6
887.7	18076.43
888.017	17981.52
888.334	18041.18
888.651	17944.46
888.967	17834.18
889.284	17753.5
889.6	17769.55
889.917	17603.68
890.233	17690
890.55	17586.95
890.866	17545.37
891.182	17526.62
891.498	17464.7
891.815	17409.56
892.131	17343.57
892.447	17278.03
892.763	17214.08
893.079	17229.67
893.395	17151.94
893.71	17093.86
894.026	17088.89
894.342	17032.84
894.657	16851.6
894.973	16870.81
895.289	16947.87
895.604	16751.04
895.92	16695.9
896.235	16672.63
896.55	16633.08
896.865	16561.67
897.181	16448
897.496	16488.45
897.811	16323.94
898.126	16359.87
898.441	16317.38
898.756	16210.27
899.071	16177.05
899.386	16246.65
899.7	16001.91
900.015	15943.38
900.33	15876.04
900.644	15836.72
900.959	15791.29
901.273	15700.9
901.588	15705.19
901.902	15709.04
902.216	15596.27
902.531	15488.02
902.845	15453
903.159	15273.57
903.473	15304.3
903.787	15220.69
904.101	15260.46
904.415	15230.63
904.729	15142.5
905.042	15048.94
905.356	14980.47
905.67	14987.25
905.984	14995.38
906.297	14936.63
906.611	14827.48
906.924	14775.95
907.237	14711.77
907.551	14708.38
907.864	14443.08
908.177	14486.92
908.491	14460.03
908.804	14314.04
909.117	14288.06
909.43	14212.58
909.743	14154.73
910.056	14122.86
910.368	14022.75
910.681	13997.67
910.994	14004.9
911.307	13925.35
911.619	13696.21
911.932	13880.16
912.244	13683.78
912.557	13679.26
912.869	13601.97
913.181	13653.27
913.494	13506.16
913.806	13428.87
914.118	13412.15
914.43	13293.28
914.742	13260.29
915.054	13203.34
915.366	13115.66
915.678	13145.04
915.99	13023.68
916.302	13007.64
916.613	12885.61
916.925	12933.52
917.236	12910.69
917.548	12795.21
917.859	12787.76
918.171	12699.4
918.482	12626.86
918.794	12592.96
919.105	12580.98
919.416	12452.62
919.727	12433.64
920.038	12380.31
920.349	12291.5
920.66	12310.03
920.971	12269.58
921.282	12164.5
921.593	12119.3
921.903	12072.3
922.214	12039.3
922.525	12006.31
922.835	11904.39
923.146	11793.88
923.456	11860.78
923.767	11759.31
924.077	11706.88
924.387	11686.32
924.697	11615.58
925.008	11615.13
925.318	11531.07
925.628	11534
925.938	11416.95
926.248	11333.11
926.558	11260.79
926.867	11273.67
927.177	11246.78
927.487	11203.39
927.796	11123.62
928.106	11126.78
928.416	11061.7
928.725	11048.82
929.034	10913.91
929.344	10891.76
929.653	10902.83
929.962	10851.99
930.271	10743.52
930.581	10714.14
930.89	10696.29
931.199	10623.75
931.508	10649.51
931.817	10540.13
932.125	10560.24
932.434	10504.2
932.743	10392.11
933.051	10316.86
933.36	10332.45
933.669	10310.08
933.977	10225.56
934.286	10207.03
934.594	10105.79
934.902	10122.74
935.21	10041.84
935.519	10003.42
935.827	9983.31
936.135	9951.67
936.443	9859.47
936.751	9759.14
937.059	9804.33
937.367	9711
937.674	9721.4
937.982	9710.78
938.29	9654.73
938.597	9613.38
938.905	9485.02
939.213	9494.06
939.52	9469.65
939.827	9436.66
940.135	9386.26
940.442	9349.43
940.749	9322.09
941.056	9299.71
941.363	9240.28
941.67	9204.35
941.977	9135.2
942.284	9039.83
942.591	9073.73
942.898	9046.16
943.205	9009.55
943.511	8986.28
943.818	8964.13
944.125	8905.6
944.431	8801.65
944.738	8800.07
945.044	8705.38
945.35	8805.49
945.657	8660.63
945.963	8650.69
946.269	8599.84
946.575	8580.41
946.881	8507.87
947.187	8582.22
947.493	8420.19
947.799	8445.5
948.105	8387.65
948.41	8289.57
948.716	8301.1
949.022	8238.95
949.327	8245.05
949.633	8127.09
949.938	8117.6
950.244	8152.62
950.549	8055.9
950.854	8030.82
951.16	7979.97
951.465	7936.36
951.77	7958.05
952.075	7859.75
952.38	7885.96
952.685	7834.21
952.99	7756.93
953.294	7753.99
953.599	7717.61
953.904	7742.47
954.209	7622.02
954.513	7626.31
954.818	7616.14
955.122	7582.47
955.426	7509.03
955.731	7495.69
956.035	7424.06
956.339	7382.7
956.643	7395.58
956.948	7295.7
957.252	7317.39
957.556	7266.55
957.86	7228.58
958.163	7236.04
958.467	7214.12
958.771	7178.41
959.075	7132.99
959.378	7158.98
959.682	7117.17
959.985	7048.25
960.289	7031.52
960.592	7042.37
960.896	6934.8
961.199	6900
961.502	6907.01
961.805	6856.84
962.108	6799.89
962.411	6811.64
962.714	6709.05
963.017	6676.05
963.32	6670.63
963.623	6627.92
963.926	6640.35
964.228	6645.32
964.531	6589.73
964.833	6532.1
965.136	6515.83
965.438	6467.02
965.741	6464.31
966.043	6437.64
966.345	6397.19
966.648	6348.83
966.95	6360.36
967.252	6311.77
967.554	6331.43
967.856	6294.82
968.158	6245.33
968.46	6192.45
968.761	6177.99
969.063	6141.15
969.365	6140.7
969.666	6048.95
969.968	6075.62
970.269	5991.78
970.571	6019.57
970.872	5949.97
971.174	5955.62
971.475	5901.84
971.776	5934.38
972.077	5842.18
972.378	5822.97
972.679	5815.28
972.98	5800.6
973.281	5750.88
973.582	5705.91
973.883	5672.01
974.183	5660.94
974.484	5705.91
974.785	5627.27
975.085	5619.81
975.386	5609.87
975.686	5530.32
975.986	5518.57
976.287	5507.27
976.587	5471.34
976.887	5448.06
977.187	5430.21
977.487	5450.55
977.787	5382.75
978.087	5368.07
978.387	5347.27
978.687	5305.02
978.987	5269.54
979.286	5284
979.586	5263.44
979.885	5213.49
980.185	5156.32
980.484	5132.14
980.784	5130.11
981.083	5106.6
981.382	5123.33
981.682	5059.15
981.981	5006.04
982.28	4987.06
982.579	5019.83
982.878	4992.26
983.177	4938.7
983.475	4922.65
983.774	4915.65
984.073	4843.11
984.372	4793.16
984.67	4839.27
984.969	4802.66
985.267	4769.44
985.566	4771.24
985.864	4775.76
986.162	4693.96
986.461	4698.93
986.759	4656.67
987.057	4621.87
987.355	4666.61
987.653	4679.95
987.951	4571.25
988.249	4552.04
988.547	4554.08
988.844	4509.33
989.142	4500.97
989.44	4451.93
989.737	4423.23
990.035	4447.64
990.332	4411.25
990.63	4413.06
990.927	4383.68
991.224	4317.92
991.521	4291.94
991.819	4277.92
992.116	4284.7
992.413	4245.38
992.71	4251.94
993.006	4195.89
993.303	4193.41
993.6	4200.64
993.897	4145.5
994.193	4152.73
994.49	4140.75
994.787	4138.27
995.083	4072.73
995.379	4033.64
995.676	4040.42
995.972	4015.11
996.268	3985.95
996.565	3942.34
996.861	3978.05
997.157	3899.18
997.453	3896.92
997.749	3882.45
998.044	3851.49
998.34	3881.78
998.636	3824.6
998.932	3790.93
999.227	3775.34
999.523	3698.5
999.818	3723.14
1000.114	3697.15
1000.409	3712.06
1000.704	3688.34
1001	3654.21
1001.295	3670.71
1001.59	3630.94
1001.885	3608.79
1002.18	3580.99
1002.475	3539.86
1002.77	3526.31
1003.065	3521.11
1003.359	3493.54
1003.654	3470.04
1003.949	3465.29
1004.243	3410.15
1004.538	3352.75
1004.832	3399.3
1005.127	3385.07
1005.421	3343.49
1005.715	3340.55
1006.009	3305.97
1006.304	3305.52
1006.598	3249.93
1006.892	3249.02
1007.186	3249.48
1007.48	3243.15
1007.773	3168.8
1008.067	3184.85
1008.361	3144.85
1008.655	3134
1008.948	3119.99
1009.242	3092.87
1009.535	3073.44
1009.829	3040.89
1010.122	3034.12
1010.415	3011.97
1010.708	2977.62
1011.001	2953.67
1011.295	2966.09
1011.588	2964.51
1011.881	2929.26
1012.173	2916.38
1012.466	2899.2
1012.759	2891.97
1013.052	2862.37
1013.344	2822.37
1013.637	2832.31
1013.93	2825.53
1014.222	2783.73
1014.514	2721.13
1014.807	2715.93
1015.099	2725.65
1015.391	2686.55
1015.683	2703.5
1015.976	2652.43
1016.268	2657.4
1016.56	2636.16
1016.851	2637.52
1017.143	2622.6
1017.435	2575.6
1017.727	2544.18
1018.018	2547.57
1018.31	2544.86
1018.602	2531.76
1018.893	2503.96
1019.185	2486.78
1019.476	2485.43
1019.767	2428.71
1020.058	2424.19
1020.35	2438.42
1020.641	2382.83
1020.932	2385.77
1021.223	2340.35
1021.514	2315.49
1021.804	2319.56
1022.095	2295.15
1022.386	2294.93
1022.677	2249.95
1022.967	2244.76
1023.258	2266.9
1023.548	2215.83
1023.839	2205.44
1024.129	2180.8
1024.419	2177.87
1024.709	2169.73
1025	2161.37
1025.29	2166.34
1025.58	2159.56
1025.87	2095.38
1026.16	2095.38
1026.449	2094.48
1026.739	2073.91
1027.029	2070.52
1027.319	2026.46
1027.608	2030.98
1027.898	2009.74
1028.187	1985.56
1028.477	1987.14
1028.766	1962.05
1029.055	1904.88
1029.344	1927.7
1029.634	1924.31
1029.923	1918.66
1030.212	1885.9
1030.501	1896.07
1030.79	1880.02
1031.078	1858.78
1031.367	1853.36
1031.656	1826.01
1031.945	1807.03
1032.233	1802.28
1032.522	1755.73
1032.81	1762.51
1033.099	1765.45
1033.387	1754.83
1033.675	1731.55
1033.963	1726.8
1034.251	1743.3
1034.54	1689.97
1034.828	1686.13
1035.116	1645.68
1035.403	1667.82
1035.691	1637.09
1035.979	1633.47
1036.267	1639.35
1036.554	1600.03
1036.842	1597.77
1037.129	1585.57
1037.417	1601.16
1037.704	1578.33
1037.992	1551.22
1038.279	1530.43
1038.566	1526.58
1038.853	1526.58
1039.14	1526.58
