Data from 18-4525_FLMS001491_003.txt Node
Date: Thu Apr 19 16:42:40 BST 2018
User: hsy
Spectrometer: FLMS00149
Trigger mode: 0
Integration Time (sec): 1.000000E-2
Scans to average: 10
Electric dark correction enabled: true
Nonlinearity correction enabled: false
Boxcar width: 0
XAxis mode: Wavelengths
Number of Pixels in Spectrum: 2048
>>>>>Begin Spectral Data<<<<<
341.393	-21.74
341.776	-21.74
342.16	-21.74
342.543	-63.54
342.927	-54.05
343.31	-61.96
343.693	-53.37
344.077	-47.95
344.46	-81.62
344.843	-45.01
345.226	-30.1
345.61	-49.08
345.993	-11.12
346.376	-5.24
346.759	-1.85
347.142	30.24
347.525	50.58
347.908	59.17
348.291	66.4
348.674	77.47
349.057	103.46
349.44	123.12
349.823	144.13
350.206	168.77
350.588	240.63
350.971	256.22
351.354	223.91
351.737	276.11
352.119	265.26
352.502	286.05
352.884	305.03
353.267	307.75
353.65	337.58
354.032	335.99
354.414	346.84
354.797	342.32
355.179	330.8
355.562	341.19
355.944	360.63
356.326	380.74
356.709	366.28
357.091	373.28
357.473	376.67
357.855	380.06
358.238	390.91
358.62	361.98
359.002	358.59
359.384	358.59
359.766	373.96
360.148	378.25
360.53	376.22
360.912	379.61
361.294	397.91
361.676	367.63
362.057	376.67
362.439	367.86
362.821	372.38
363.203	375.99
363.584	377.35
363.966	353.85
364.348	363.34
364.729	381.87
365.111	333.06
365.493	372.6
365.874	362.66
366.256	354.3
366.637	380.29
367.019	343.45
367.4	357.46
367.781	385.03
368.163	350.68
368.544	355.65
368.925	357.24
369.306	349.78
369.688	380.51
370.069	350.91
370.45	340.74
370.831	366.05
371.212	367.41
371.593	364.69
371.974	362.66
372.355	365.82
372.736	378.93
373.117	382.55
373.498	357.24
373.879	357.46
374.26	376.9
374.641	372.6
375.021	352.72
375.402	374.64
375.783	377.12
376.163	387.29
376.544	377.57
376.925	375.77
377.305	380.06
377.686	385.71
378.066	400.63
378.447	386.16
378.827	386.16
379.208	392.04
379.588	396.78
379.968	414.64
380.349	409.89
380.729	416.67
381.109	412.6
381.489	409.66
381.87	417.8
382.25	407.63
382.63	408.99
383.01	404.69
383.39	409.89
383.77	434.97
384.15	408.31
384.53	432.94
384.91	442.88
385.29	431.81
385.67	426.39
386.049	458.93
386.429	442.21
386.809	447.4
387.189	450.79
387.568	448.53
387.948	446.5
388.328	463.45
388.707	475.43
389.087	464.8
389.466	465.93
389.846	472.71
390.225	465.03
390.605	491.47
390.984	492.15
391.363	495.54
391.743	499.15
392.122	496.22
392.501	498.25
392.881	505.03
393.26	522.43
393.639	507.29
394.018	498.02
394.397	517.46
394.776	524.01
395.155	531.47
395.534	524.46
395.913	550.23
396.292	534.41
396.671	540.28
397.05	541.41
397.429	537.8
397.808	559.94
398.186	557.46
398.565	564.91
398.944	573.5
399.323	559.72
399.701	575.76
400.08	581.41
400.458	594.52
400.837	596.33
401.215	596.78
401.594	622.99
401.972	618.02
402.351	625.48
402.729	655.53
403.107	624.8
403.486	631.13
403.864	645.82
404.242	650.56
404.62	648.53
404.999	636.55
405.377	662.99
405.755	663.44
406.133	673.39
406.511	697.34
406.889	707.51
407.267	723.78
407.645	708.41
408.023	730.56
408.401	744.8
408.779	753.61
409.156	757.45
409.534	761.29
409.912	766.72
410.29	792.48
410.667	816.66
411.045	770.78
411.422	787.96
411.8	806.72
412.178	828.86
412.555	842.2
412.933	875.41
413.31	877.22
413.687	884.91
414.065	900.05
414.442	886.71
414.819	890.56
415.197	956.32
415.574	937.33
415.951	935.53
416.328	937.56
416.705	969.42
417.082	974.62
417.46	985.24
417.837	1005.13
418.214	983.66
418.591	986.15
418.967	991.57
419.344	1016.2
419.721	1013.49
420.098	1045.13
420.475	1038.12
420.852	1047.39
421.228	1051.46
421.605	1065.01
421.982	1091.91
422.358	1099.14
422.735	1125.58
423.111	1115.86
423.488	1149.31
423.864	1153.15
424.241	1162.86
424.617	1169.19
424.994	1207.84
425.37	1221.17
425.746	1203.54
426.123	1220.49
426.499	1244.44
426.875	1252.58
427.251	1279.7
427.627	1317.21
428.003	1312.01
428.379	1337.78
428.756	1343.65
429.132	1375.06
429.507	1375.06
429.883	1375.74
430.259	1395.63
430.635	1409.19
431.011	1420.26
431.387	1492.12
431.763	1486.25
432.138	1489.41
432.514	1528.73
432.89	1541.84
433.265	1618.22
433.641	1594.72
434.016	1635.85
434.392	1633.59
434.767	1667.26
435.143	1690.31
435.518	1716.3
435.894	1731.21
436.269	1751.32
436.644	1765.33
437.02	1773.92
437.395	1783.41
437.77	1824.09
438.145	1891.66
438.52	1880.13
438.895	1915.84
439.271	1915.39
439.646	1958.32
440.021	1989.06
440.395	1953.58
440.77	1948.61
441.145	1963.07
441.52	2028.6
441.895	2025.89
442.27	2027.25
442.645	2065.67
443.019	2096.17
443.394	2097.53
443.769	2090.98
444.143	2113.35
444.518	2152.44
444.892	2168.94
445.267	2155.83
445.641	2161.03
446.016	2185.89
446.39	2216.85
446.764	2240.12
447.139	2238.32
447.513	2287.36
447.887	2243.74
448.262	2272.21
448.636	2323.96
449.01	2370.52
449.384	2346.11
449.758	2351.76
450.132	2401.93
450.506	2398.76
450.88	2455.26
451.254	2432.44
451.628	2510.63
452.002	2509.04
452.376	2573.68
452.75	2584.75
453.123	2563.51
453.497	2587.23
453.871	2631.98
454.244	2688.25
454.618	2715.59
454.992	2763.05
455.365	2775.25
455.739	2841.24
456.112	2867
456.486	2914.46
456.859	2939.77
457.232	2977.51
457.606	2986.09
457.979	3033.1
458.352	3071.97
458.725	3134.79
459.099	3160.78
459.472	3173.66
459.845	3255.47
460.218	3267.89
460.591	3327.33
460.964	3336.59
461.337	3381.11
461.71	3446.42
462.083	3541.11
462.456	3500.2
462.829	3476.7
463.201	3588.79
463.574	3620.65
463.947	3668.79
464.32	3734.32
464.692	3772.29
465.065	3819.29
465.438	3883.25
465.81	3899.97
466.183	3885.96
466.555	3996.46
466.928	4001.43
467.3	4014.77
467.672	4115.33
468.045	4215.67
468.417	4197.14
468.789	4248.66
469.161	4303.12
469.534	4334.76
469.906	4402.55
470.278	4493.4
470.65	4524.58
471.022	4527.07
471.394	4635.77
471.766	4746.5
472.138	4748.08
472.51	4854.75
472.882	4899.26
473.253	4928.42
473.625	5013.61
473.997	5090.45
474.369	5158.69
474.74	5224.23
475.112	5300.16
475.484	5405.24
475.855	5472.13
476.227	5502.41
476.598	5678.9
476.97	5676.42
477.341	5789.18
477.713	5946.47
478.084	6004.32
478.455	6122.51
478.827	6188.5
479.198	6331.54
479.569	6374.25
479.94	6526.57
480.311	6646.34
480.682	6740.57
481.053	6908.48
481.424	6998.42
481.795	7153.22
482.166	7210.39
482.537	7334.91
482.908	7456.71
483.279	7600.89
483.65	7705.52
484.021	7858.73
484.391	7961.78
484.762	8059.86
485.133	8150.03
485.503	8338.27
485.874	8470.47
486.244	8560.64
486.615	8736
486.985	8882.44
487.356	9086.95
487.726	9170.11
488.097	9307.51
488.467	9426.6
488.837	9673.83
489.207	9749.98
489.578	9933.48
489.948	10045.12
490.318	10215.06
490.688	10263.19
491.058	10366.69
491.428	10653.01
491.798	10708.6
492.168	10890.07
492.538	11002.61
492.908	11189.04
493.278	11332.54
493.648	11466.1
494.017	11569.37
494.387	11674.23
494.757	11825.86
495.126	12023.6
495.496	12009.13
495.866	12231.95
496.235	12461.1
496.605	12521.66
496.974	12591.26
497.344	12709.91
497.713	12892.73
498.082	12935.66
498.452	13050.69
498.821	13196.9
499.19	13307.63
499.559	13354.86
499.928	13536.78
500.298	13673.5
500.667	13791.69
501.036	13821.74
501.405	14042.75
501.774	14070.55
502.143	14236.42
502.512	14338.34
502.88	14345.12
503.249	14378.11
503.618	14636.18
503.987	14615.62
504.356	14801.6
504.724	14904.2
505.093	14961.6
505.462	15032.33
505.83	15113.46
506.199	15231.42
506.567	15389.16
506.936	15471.87
507.304	15672.54
507.672	15625.54
508.041	15698.3
508.409	15943.04
508.777	16024.4
509.145	16180.78
509.514	16162.47
509.882	16308.46
510.25	16345.29
510.618	16481.11
510.986	16497.6
511.354	16691.04
511.722	16903.24
512.09	17048.1
512.458	16816.46
512.826	17155.44
513.193	17080.19
513.561	17190.47
513.929	17245.38
514.297	17415.77
514.664	17471.59
515.032	17625.93
515.4	17710
515.767	17697.35
516.135	17857.79
516.502	17792.48
516.869	18047.84
517.237	18123.77
517.604	18061.86
517.972	18390.89
518.339	18343.2
518.706	18380.27
519.073	18411.68
519.44	18473.37
519.808	18784.32
520.175	18701.61
520.542	18881.27
520.909	19013.02
521.276	19066.35
521.643	19244.2
522.009	19318.09
522.376	19371.65
522.743	19514.7
523.11	19761.02
523.477	19936.38
523.843	19846.22
524.21	20078.75
524.577	20096.15
524.943	20251.63
525.31	20295.92
525.676	20470.61
526.043	20606.65
526.409	20635.35
526.776	20678.74
527.142	20893.65
527.508	20960.08
527.874	21062.68
528.241	21211.6
528.607	21181.77
528.973	21347.42
529.339	21309.45
529.705	21574.76
530.071	21720.29
530.437	21711.93
530.803	21846.16
531.169	21865.82
531.535	21916.22
531.901	21804.13
532.267	21944.92
532.632	22082.09
532.998	21958.48
533.364	22101.07
533.73	22217.68
534.095	22279.6
534.461	22273.95
534.826	22306.26
535.192	22337.22
535.557	22383.1
535.923	22434.17
536.288	22563.43
536.653	22529.53
537.019	22468.29
537.384	22433.27
537.749	22480.27
538.114	22462.87
538.479	22384.91
538.845	22436.88
539.21	22317.79
539.575	22352.59
539.94	22367.51
540.305	22461.51
540.67	22424.45
541.034	22439.14
541.399	22505.13
541.764	22501.74
542.129	22303.55
542.494	22346.49
542.858	22397.79
543.223	22326.6
543.587	22516.88
543.952	22271.69
544.316	22358.24
544.681	22305.59
545.045	22409.76
545.41	22346.71
545.774	22236.89
546.138	22245.02
546.503	22227.4
546.867	22168.64
547.231	22305.59
547.595	22376.32
547.959	22284.57
548.324	22221.07
548.688	22245.47
549.052	22171.13
549.416	22123.22
549.779	22211.13
550.143	22157.79
550.507	22234.18
550.871	22211.58
551.235	22122.99
551.599	22234.18
551.962	22268.07
552.326	22198.02
552.689	22172.48
553.053	21967.29
553.417	21942.88
553.78	22253.61
554.143	22186.49
554.507	22168.19
554.87	22191.24
555.234	22374.74
555.597	22090.68
555.96	22177.91
556.323	22157.34
556.686	22124.57
557.05	22259.03
557.413	22178.81
557.776	22155.08
558.139	22197.34
558.502	22171.13
558.865	22266.72
559.228	22343.1
559.59	22244.12
559.953	22217
560.316	22425.36
560.679	22351.01
561.041	22418.8
561.404	22514.17
561.767	22619.02
562.129	22534.28
562.492	22692.24
562.854	22655.86
563.217	22512.81
563.579	22756.87
563.941	22765.01
564.304	22877.77
564.666	22915.29
565.028	22929.52
565.39	22943.54
565.753	23050.2
566.115	22994.61
566.477	23226.69
566.839	23244.77
567.201	23393.24
567.563	23292.45
567.925	23423.3
568.287	23363.64
568.648	23503.97
569.01	23595.27
569.372	23764.76
569.734	23723.4
570.095	23903.96
570.457	23965.66
570.819	24039.55
571.18	23987.12
571.542	24195.25
571.903	24103.28
572.265	24218.08
572.626	24263.27
572.987	24418.52
573.349	24393.44
573.71	24522.25
574.071	24583.49
574.432	24708.46
574.794	24814.22
575.155	24815.8
575.516	24707.56
575.877	24920.21
576.238	24888.79
576.599	24960.43
576.96	25016.25
577.32	24998.62
577.681	25103.48
578.042	25237.03
578.403	25150.93
578.763	25196.58
579.124	25138.96
579.485	25418.27
579.845	25472.06
580.206	25341.89
580.566	25470.47
580.927	25463.24
581.287	25371.27
581.648	25402
582.008	25557.03
582.368	25478.84
582.728	25465.73
583.089	25537.59
583.449	25584.6
583.809	25513.41
584.169	25561.77
584.529	25497.14
584.889	25781.88
585.249	25473.86
585.609	25352.96
585.969	25625.05
586.329	25500.08
586.688	25548.89
587.048	25520.42
587.408	25444.71
587.768	25545.05
588.127	25527.2
588.487	25371.95
588.846	25673.41
589.206	25438.61
589.565	25379.18
589.925	25635.89
590.284	25497.82
590.643	25470.7
591.003	25449.01
591.362	25665.5
591.721	25480.42
592.08	25510.25
592.44	25534.65
592.799	25537.14
593.158	25252.18
593.517	25314.77
593.876	25397.03
594.235	25430.93
594.593	25360.65
594.952	25376.01
595.311	25369.69
595.67	25474.99
596.029	25458.5
596.387	25471.15
596.746	25540.3
597.104	25356.81
597.463	25396.13
597.822	25529
598.18	25365.39
598.538	25390.02
598.897	25501.66
599.255	25392.06
599.613	25540.98
599.972	25395.45
600.33	25459.18
600.688	25514.77
601.046	25406.97
601.404	25674.31
601.762	25510.47
602.12	25596.12
602.478	25440.19
602.836	25471.83
603.194	25425.28
603.552	25510.47
603.91	25387.31
604.268	25472.73
604.625	25526.97
604.983	25609
605.341	25452.17
605.698	25656.46
606.056	25769
606.413	25550.02
606.771	25684.25
607.128	25721.99
607.485	25532.17
607.843	25590.47
608.2	25755.66
608.557	25748.66
608.914	25655.78
609.272	25832.72
609.629	25936.9
609.986	26002.89
610.343	25809.67
610.7	26006.51
611.057	25961.99
611.414	25983.46
611.771	26025.71
612.127	26172.6
612.484	26081.08
612.841	26208.53
613.198	26044.92
613.554	26067.52
613.911	26183.45
614.267	26232.04
614.624	26165.15
614.98	26207.4
615.337	26378.02
615.693	26450.79
616.05	26370.79
616.406	26441.07
616.762	26372.6
617.118	26327.85
617.475	26457.57
617.831	26601.07
618.187	26540.05
618.543	26588.86
618.899	26745.02
619.255	26716.09
619.611	26743.21
619.967	26777.78
620.323	26901.62
620.678	26783.43
621.034	26759.93
621.39	26789.08
621.746	26738.69
622.101	27028.63
622.457	26806.71
622.812	26855.97
623.168	27024.56
623.523	26902.98
623.879	27063.2
624.234	26937.1
624.589	26984.33
624.945	27027.27
625.3	27031.56
625.655	27065.01
626.01	27072.69
626.365	27096.65
626.72	27032.92
627.075	26941.17
627.43	26879.7
627.785	27030.66
628.14	27024.78
628.495	26976.2
628.85	27109.75
629.205	26985.69
629.559	27051.22
629.914	26907.72
630.269	26988.4
630.623	26809.2
630.978	26787.28
631.332	27026.82
631.687	27031.56
632.041	26853.49
632.396	26846.48
632.75	26829.99
633.104	26844.68
633.459	26759.03
633.813	26651.46
634.167	26660.27
634.521	26682.87
634.875	26710.44
635.229	26710.89
635.583	26477.23
635.937	26544.57
636.291	26529.43
636.645	26483.1
636.999	26392.94
637.352	26557.23
637.706	26202.43
638.06	26404.46
638.413	26370.79
638.767	26273.62
639.121	26264.8
639.474	26266.16
639.828	26169.21
640.181	26273.84
640.534	26364.69
640.888	26240.62
641.241	25991.14
641.594	26073.62
641.947	26212.38
642.301	26072.49
642.654	26188.2
643.007	26060.52
643.36	26127.86
643.713	25943.46
644.066	26072.49
644.419	25906.85
644.771	25710.47
645.124	25429.8
645.477	25475.22
645.83	25451.49
646.182	25299.63
646.535	25374.21
646.888	25439.97
647.24	25317.26
647.593	25508.21
647.945	25546.18
648.298	25373.08
648.65	25157.94
649.002	24919.53
649.355	24991.62
649.707	24853.99
650.059	24741.68
650.411	25230.03
650.763	25545.27
651.115	25971.7
651.467	25732.16
651.819	25850.13
652.171	25739.62
652.523	25695.55
652.875	25666.85
653.227	25660.07
653.578	25825.49
653.93	25780.3
654.282	25640.41
654.633	25601.09
654.985	25747.76
655.337	25698.72
655.688	25755.44
656.039	25801.77
656.391	25627.53
656.742	25702.78
657.094	25740.07
657.445	25801.77
657.796	25747.08
658.147	25833.4
658.498	25867.75
658.849	25861.42
659.2	25855.77
659.551	25770.58
659.902	25986.17
660.253	25815.1
660.604	25987.52
660.955	25800.64
661.306	25966.28
661.656	25883.8
662.007	26072.49
662.358	26076.11
662.708	26036.56
663.059	26000.4
663.409	25968.99
663.76	26028.2
664.11	26097.35
664.461	26027.75
664.811	26127.63
665.161	25997.01
665.511	26016.22
665.862	26023.68
666.212	26093.51
666.562	26159.04
666.912	26070.68
667.262	26084.92
667.612	26132.38
667.962	26064.58
668.312	26080.85
668.662	26333.28
669.011	26231.58
669.361	26101.42
669.711	26106.84
670.06	25985.04
670.41	26081.31
670.76	26014.64
671.109	26117.91
671.459	26050.8
671.808	26004.7
672.157	26084.47
672.507	25923.57
672.856	25794.76
673.205	26014.19
673.554	25940.29
673.904	25858.26
674.253	26032.95
674.602	25843.12
674.951	25486.97
675.3	25439.97
675.649	25880.41
675.998	26020.29
676.346	26013.74
676.695	25950.91
677.044	25710.02
677.393	25775.33
677.741	25816.23
678.09	25673.86
678.438	25627.98
678.787	25811.48
679.135	25695.55
679.484	25512.28
679.832	25637.02
680.181	25619.62
680.529	25564.48
680.877	25478.61
681.225	25491.49
681.573	25518.38
681.922	25413.07
682.27	25318.39
682.618	25316.81
682.966	25203.59
683.314	25243.59
683.661	25147.09
684.009	25053.76
684.357	24975.35
684.705	24983.26
685.053	24924.95
685.4	24871.85
685.748	24804.5
686.095	24788.68
686.443	24704.84
686.79	24682.92
687.138	24698.29
687.485	24606.09
687.832	24495.36
688.18	24453.1
688.527	24289.49
688.874	24307.12
689.221	24210.62
689.568	24048.82
689.915	24093.11
690.262	24151.41
690.609	23903.51
690.956	23830.74
691.303	23910.29
691.65	23716.4
691.997	23682.95
692.344	23564.08
692.69	23455.84
693.037	23487.02
693.383	23213.36
693.73	23315.05
694.077	23188.05
694.423	23121.84
694.769	23159.35
695.116	22992.8
695.462	22819.47
695.808	22801.62
696.155	22893.37
696.501	22627.61
696.847	22678.68
697.193	22447.73
697.539	22441.4
697.885	22259.94
698.231	22261.97
698.577	22146.72
698.923	22148.53
699.269	21953.05
699.614	21980.62
699.96	21699.5
700.306	21727.75
700.651	21636.9
700.997	21497.92
701.342	21431.26
701.688	21382.9
702.033	21316.91
702.379	21250.02
702.724	21146.75
703.069	21224.48
703.415	20926.87
703.76	20849.35
704.105	20859.52
704.45	20915.34
704.795	20716.48
705.14	20632.41
705.485	20689.58
705.83	20576.82
706.175	20528.46
706.52	20452.75
706.865	20347.9
707.209	20285.07
707.554	20223.15
707.899	20152.65
708.243	20150.39
708.588	20073.78
708.932	19985.65
709.277	20102.25
709.621	19905.87
709.966	19795.82
710.31	19867.46
710.654	19709.72
710.998	19787.69
711.342	19722.6
711.687	19660.01
712.031	19644.64
712.375	19637.18
712.719	19541.14
713.063	19544.75
713.407	19572.55
713.75	19485.77
714.094	19502.04
714.438	19381.14
714.782	19397.41
715.125	19259.79
715.469	19433.34
715.812	19232.67
716.156	19270.86
716.499	19239.68
716.843	19230.19
717.186	19106.8
717.53	19317.19
717.873	19255.95
718.216	19279.22
718.559	19066.35
718.902	18979.35
719.246	19107.93
719.589	19114.94
719.932	18986.8
720.275	19092.56
720.617	19080.81
720.96	19006.24
721.303	19019.57
721.646	19062.51
721.989	19017.31
722.331	19073.35
722.674	19008.5
723.016	18979.8
723.359	18959.91
723.701	18985.22
724.044	18915.62
724.386	18823.87
724.729	19008.05
725.071	18964.88
725.413	18885.56
725.755	18852.8
726.097	18856.64
726.439	18917.2
726.782	18884.21
727.124	19043.07
727.465	18908.39
727.807	18845.34
728.149	18996.52
728.491	19083.07
728.833	19024.09
729.175	18902.51
729.516	18936.41
729.858	18982.28
730.199	19059.8
730.541	19055.5
730.882	19020.7
731.224	19054.82
731.565	19052.34
731.906	19030.64
732.248	19257.3
732.589	19056.41
732.93	19051.66
733.271	19151.09
733.612	19167.36
733.953	19328.04
734.294	19197.19
734.635	19235.16
734.976	19399.22
735.317	19227.25
735.658	19354.7
735.999	19428.6
736.339	19457.53
736.68	19449.62
737.021	19550.18
737.361	19474.25
737.702	19680.57
738.042	19557.41
738.383	19703.62
738.723	19776.84
739.063	19832.88
739.404	19910.17
739.744	19907.46
740.084	19911.98
740.424	20050.5
740.764	20090.5
741.104	20115.59
741.444	20230.84
741.784	20224.28
742.124	20383.38
742.464	20528.68
742.804	20484.84
743.143	20635.35
743.483	20696.59
743.823	20803.93
744.162	20897.26
744.502	21058.16
744.841	21134.09
745.181	21178.84
745.52	21292.28
745.86	21601.2
746.199	21689.1
746.538	21733.17
746.877	21892.04
747.216	22024.46
747.556	22262.2
747.895	22378.13
748.234	22489.08
748.573	22622.19
748.911	22748.51
749.25	22961.39
749.589	23035.28
749.928	23402.05
750.267	23611.54
750.605	23694.25
750.944	23889.95
751.283	24136.5
751.621	24371.75
751.96	24472.31
752.298	24798.85
752.636	25042.69
752.975	25166.98
753.313	25388.67
753.651	25706.17
753.989	25786.4
754.327	26083.79
754.666	26097.12
755.004	26537.11
755.342	26711.12
755.679	26963.99
756.017	27164.89
756.355	27510.65
756.693	27645.11
757.031	28073.57
757.368	28088.48
757.706	28370.29
758.044	28562.14
758.381	28867.9
758.719	29025.64
759.056	29321.45
759.394	29490.71
759.731	29530.93
760.068	29784.49
760.405	30058.15
760.743	30296.79
761.08	30521.41
761.417	30610.23
761.754	30791.24
762.091	31053.38
762.428	31089.99
762.765	31287.95
763.102	31637.77
763.438	31763.42
763.775	31774.26
764.112	32010.19
764.449	32235.04
764.785	32332.67
765.122	32452.89
765.458	32357.75
765.795	32513.9
766.131	32724.75
766.467	32956.15
766.804	32881.13
767.14	32979.2
767.476	33148.92
767.812	33248.35
768.148	33444.5
768.485	33460.77
768.821	33483.37
769.157	33411.28
769.492	33631.39
769.828	33728.79
770.164	33573.09
770.5	33701.44
770.836	33794.55
771.171	33905.73
771.507	33795
771.842	33858.5
772.178	33773.98
772.513	33829.12
772.849	33825.06
773.184	33998.39
773.519	34049.68
773.855	33873.64
774.19	33924.04
774.525	33929.69
774.86	33891.5
775.195	33885.17
775.53	33748.22
775.865	33691.05
776.2	33700.54
776.535	33604.5
776.87	33532.64
777.205	33533.77
777.539	33449.25
777.874	33632.75
778.209	33430.94
778.543	33433.43
778.878	33208.8
779.212	33351.85
779.547	33117.73
779.881	33199.54
780.215	32986.43
780.55	33150.27
780.884	32927.23
781.218	32873.22
781.552	33031.41
781.886	32780.56
782.22	32650.4
782.554	32618.08
782.888	32400.91
783.222	32452.89
783.556	32285.66
783.889	32294.02
784.223	32131.99
784.557	32078.89
784.89	32174.48
785.224	31951.21
785.557	31850.42
785.891	31914.82
786.224	31888.16
786.558	31835.73
786.891	31478
787.224	31367.72
787.557	31255.63
787.891	31231.9
788.224	31139.03
788.557	31233.49
788.89	31174.05
789.223	31086.15
789.556	30849.54
789.888	30861.52
790.221	30808.41
790.554	30676.89
790.887	30730
791.219	30451.13
791.552	30598.7
791.884	30406.84
792.217	30334.53
792.549	30179.73
792.882	29956.68
793.214	30047.08
793.546	30118.94
793.879	29855.44
794.211	29766.41
794.543	29861.32
794.875	29746.52
795.207	29660.19
795.539	29619.74
795.871	29629.24
796.203	29558.73
796.535	29240.09
796.867	29405.74
797.198	29156.25
797.53	29099.31
797.862	28958.97
798.193	28995.58
798.525	28831.29
798.856	29017.27
799.188	28568.92
799.519	28658.41
799.85	28576.16
800.182	28433.33
800.513	28523.28
800.844	28142.95
801.175	28449.61
801.506	28391.3
801.837	28078.99
802.168	28084.42
802.499	28183.4
802.83	28024.98
803.161	27784.09
803.491	27942.73
803.822	27993.12
804.153	27729.85
804.483	27582.51
804.814	27493.47
805.145	27704.99
805.475	27549.06
805.805	27309.3
806.136	27479.24
806.466	27176.42
806.796	27324.89
807.126	27064.33
807.457	27016.42
807.787	27150.2
808.117	27055.97
808.447	26988.85
808.777	26988.4
809.107	26861.17
809.436	26748.86
809.766	26702.31
810.096	26615.3
810.426	26528.53
810.755	26613.95
811.085	26529.43
811.414	26542.31
811.744	26401.75
812.073	26350.9
812.403	26190.68
812.732	26199.72
813.061	26291.24
813.39	26073.85
813.719	26023.23
814.049	26243.79
814.378	26153.62
814.707	25911.37
815.036	25956.79
815.365	25794.53
815.693	25736.46
816.022	25629.34
816.351	25628.44
816.68	25515.44
817.008	25594.99
817.337	25389.35
817.665	25470.47
817.994	25443.36
818.322	25530.81
818.651	25356.58
818.979	25277.49
819.307	25298.95
819.636	25226.64
819.964	25196.36
820.292	25270.48
820.62	25195.23
820.948	25196.58
821.276	25342.34
821.604	25258.5
821.932	25332.62
822.259	25229.8
822.587	25280.2
822.915	25228.9
823.243	25258.5
823.57	25099.86
823.898	25386.18
824.225	25117.72
824.553	25230.25
824.88	25249.46
825.207	25384.6
825.535	25133.53
825.862	25410.59
826.189	25206.75
826.516	25510.93
826.843	25376.92
827.17	25487.65
827.497	25439.51
827.824	25404.94
828.151	25487.65
828.478	25334.66
828.805	25540.75
829.131	25422.79
829.458	25481.55
829.785	25328.33
830.111	25349.8
830.438	25497.59
830.764	25489.68
831.09	25413.75
831.417	25374.66
831.743	25551.38
832.069	25392.74
832.395	25323.59
832.722	25534.43
833.048	25348.44
833.374	25549.12
833.7	25354.09
834.026	25380.99
834.351	25413.53
834.677	25449.46
835.003	25397.48
835.329	25362.68
835.654	25284.94
835.98	25067.32
836.306	25257.15
836.631	25218.5
836.956	25323.81
837.282	25296.92
837.607	25225.96
837.932	25167.88
838.258	25162.23
838.583	25077.49
838.908	24939.41
839.233	25036.14
839.558	24854.67
839.883	24923.6
840.208	24706.88
840.533	24918.85
840.858	24861.9
841.182	24867.78
841.507	24809.47
841.832	24622.36
842.156	24726.09
842.481	24705.75
842.805	24557.28
843.13	24467.11
843.454	24529.03
843.778	24437.96
844.103	24414.68
844.427	24249.49
844.751	24421.01
845.075	24372.42
845.399	24301.01
845.723	24019.67
846.047	24014.24
846.371	23911.42
846.695	23885.66
847.019	23753.23
847.343	23602.05
847.666	23662.84
847.99	23490.87
848.313	23448.61
848.637	23343.75
848.96	23292.68
849.284	23287.93
849.607	23010.88
849.931	23061.27
850.254	22980.37
850.577	22718.68
850.9	22708.29
851.223	22671.68
851.546	22478.46
851.869	22417.45
852.192	22482.98
852.515	22313.72
852.838	22195.76
853.161	22278.69
853.483	22012.71
853.806	22005.71
854.129	21917.12
854.451	21898.14
854.774	21762.32
855.096	21866.5
855.419	21735.43
855.741	21697.24
856.063	21518.04
856.385	21463.35
856.708	21466.06
857.03	21290.92
857.352	21368.44
857.674	21356.23
857.996	21114.2
858.318	21075.34
858.64	21031.27
858.961	20925.51
859.283	20947.2
859.605	20792.63
859.926	20897.94
860.248	20906.3
860.57	20792.86
860.891	20738.4
861.212	20656.36
861.534	20535.46
861.855	20492.98
862.176	20546.08
862.498	20466.54
862.819	20500.44
863.14	20447.56
863.461	20300.21
863.782	20287.33
864.103	20337.5
864.424	20293.89
864.745	20204.4
865.065	20138.41
865.386	20003.5
865.707	20133.44
866.027	20086.66
866.348	20078.07
866.668	20076.49
866.989	19959.43
867.309	19815.03
867.63	19825.43
867.95	19750.62
868.27	19720.8
868.59	19844.41
868.91	19806.67
869.23	19720.8
869.55	19673.56
869.87	19685.77
870.19	19502.04
870.51	19577.52
870.83	19492.78
871.15	19324.65
871.469	19331.2
871.789	19480.12
872.109	19409.16
872.428	19328.71
872.748	19416.62
873.067	19341.37
873.386	19219.57
873.706	19325.78
874.025	19305.66
874.344	19212.33
874.663	19190.41
874.982	19082.62
875.301	19104.09
875.62	19079
875.939	18988.61
876.258	19172.56
876.577	19024.32
876.896	18988.38
877.214	18948.84
877.533	19061.6
877.852	18954.26
878.17	18773.7
878.489	18890.08
878.807	18787.94
879.125	18815.96
879.444	18694.61
879.762	18714.49
880.08	18766.7
880.398	18562.63
880.716	18589.98
881.034	18533.48
881.352	18592.24
881.67	18472.24
881.988	18487.61
882.306	18325.8
882.624	18309.08
882.941	18339.14
883.259	18244
883.577	18300.27
883.894	18197.45
884.212	18195.41
884.529	18115.64
884.846	18006.72
885.164	18025.25
885.481	18013.04
885.798	17973.5
886.115	17913.61
886.432	18003.1
886.75	17790.22
887.067	17834.74
887.383	17752.03
887.7	17693.96
888.017	17581.64
888.334	17564.69
888.651	17528.99
888.967	17605.82
889.284	17398.82
889.6	17380.97
889.917	17340.97
890.233	17328.09
890.55	17289.45
890.866	17246.96
891.182	17194.53
891.498	17195.44
891.815	17063.24
892.131	16929.23
892.447	16972.84
892.763	16918.38
893.079	16814.66
893.395	16769.46
893.71	16784.15
894.026	16817.59
894.342	16780.08
894.657	16559.3
894.973	16602.23
895.289	16551.39
895.604	16439.53
895.92	16372.41
896.235	16350.94
896.55	16300.55
896.865	16164.73
897.181	16129.7
897.496	16162.24
897.811	16092.87
898.126	15989.59
898.441	16038.63
898.756	16063.26
899.071	15853.78
899.386	15882.03
899.7	15766.77
900.015	15616.72
900.33	15488.59
900.644	15500.79
900.959	15534.46
901.273	15495.6
901.588	15349.61
901.902	15360.46
902.216	15217.41
902.531	15278.88
902.845	15201.82
903.159	14993.46
903.473	15019.22
903.787	14954.14
904.101	14866.01
904.415	14914.59
904.729	14932.67
905.042	14796.63
905.356	14706.92
905.67	14654.49
905.984	14639.57
906.297	14590.31
906.611	14482.06
906.924	14378.34
907.237	14485
907.551	14432.12
907.864	14231.22
908.177	14188.51
908.491	14180.83
908.804	14092.02
909.117	13954.84
909.43	13962.53
909.743	13806.83
910.056	13934.96
910.368	13796.66
910.681	13784.23
910.994	13761.18
911.307	13637.11
911.619	13492.94
911.932	13567.06
912.244	13453.16
912.557	13398.02
912.869	13365.48
913.181	13323.68
913.494	13362.77
913.806	13212.49
914.118	13177.24
914.43	13103.34
914.742	13035.55
915.054	12898.83
915.366	12883.91
915.678	12922.78
915.99	12846.85
916.302	12701.77
916.613	12718.04
916.925	12641.21
917.236	12593.75
917.548	12555.79
917.859	12520.76
918.171	12466.75
918.482	12323.7
918.794	12362.12
919.105	12395.34
919.416	12258.39
919.727	12310.82
920.038	12211.61
920.349	12097.94
920.66	12001.9
920.971	12081.67
921.282	11979.08
921.593	11872.64
921.903	11845.3
922.214	11801.23
922.525	11762.81
922.835	11697.5
923.146	11746.32
923.456	11561.91
923.767	11606.21
924.077	11529.37
924.387	11518.07
924.697	11435.59
925.008	11386.55
925.318	11323.95
925.628	11328.25
925.938	11213
926.248	11202.83
926.558	11094.36
926.867	11083.06
927.177	11035.37
927.487	10960.12
927.796	10945.66
928.106	10987.92
928.416	10836.51
928.725	10841.93
929.034	10776.62
929.344	10777.75
929.653	10705.89
929.962	10623.86
930.271	10582.28
930.581	10558.55
930.89	10512
931.199	10455.05
931.508	10430.42
931.817	10440.59
932.125	10301.16
932.434	10286.24
932.743	10210.54
933.051	10126.47
933.36	10161.5
933.669	10062.07
933.977	10078.79
934.286	10020.26
934.594	9936.65
934.902	9920.37
935.21	9796.76
935.519	9873.14
935.827	9784.11
936.135	9680.83
936.443	9679.03
936.751	9613.49
937.059	9676.09
937.367	9544.79
937.674	9545.92
937.982	9534.62
938.29	9432.48
938.597	9528.97
938.905	9297.34
939.213	9321.97
939.52	9248.3
939.827	9297.34
940.135	9246.04
940.442	9154.07
940.749	9156.33
941.056	9102.54
941.363	9052.83
941.67	9042.88
941.977	8986.39
942.284	8918.59
942.591	8883.34
942.898	8867.97
943.205	8879.27
943.511	8778.03
943.818	8806.05
944.125	8747.07
944.431	8637.92
944.738	8626.4
945.044	8609.9
945.35	8574.2
945.657	8554.99
945.963	8502.78
946.269	8429.79
946.575	8443.35
946.881	8348.89
947.187	8361.77
947.493	8274.32
947.799	8294.88
948.105	8268.89
948.41	8208.78
948.716	8239.06
949.022	8182.12
949.327	8104.83
949.633	8020.31
949.938	7970.14
950.244	7989.58
950.549	7928.11
950.854	7883.14
951.16	7854.89
951.465	7827.55
951.77	7770.6
952.075	7736.03
952.38	7765.4
952.685	7711.17
952.99	7574.9
953.294	7591.4
953.599	7562.7
953.904	7533.32
954.209	7515.01
954.513	7530.16
954.818	7461.46
955.122	7421.46
955.426	7398.18
955.731	7391.18
956.035	7313.44
956.339	7273.21
956.643	7243.83
956.948	7219.43
957.252	7193.21
957.556	7148.7
957.86	7161.13
958.163	7113.89
958.467	7058.08
958.771	7056.27
959.075	7068.7
959.378	6978.76
959.682	6931.3
959.985	6903.5
960.289	6837.74
960.592	6817.63
960.896	6802.26
961.199	6794.58
961.502	6758.88
961.805	6757.52
962.108	6656.28
962.411	6701.7
962.714	6626.45
963.017	6627.58
963.32	6578.09
963.623	6554.14
963.926	6520.24
964.228	6511.42
964.531	6474.14
964.833	6454.93
965.136	6372.22
965.438	6357.98
965.741	6290.19
966.043	6309.85
966.345	6342.84
966.648	6266.01
966.95	6259.91
967.252	6215.84
967.554	6187.59
967.856	6162.96
968.158	6064.66
968.46	6093.13
968.761	6028.5
969.063	6054.49
969.365	6034.83
969.666	5997.09
969.968	5939.24
970.269	5904.66
970.571	5889.97
970.872	5894.04
971.174	5842.74
971.475	5821.27
971.776	5808.39
972.077	5761.84
972.378	5744.89
972.679	5681.84
972.98	5706.47
973.281	5682.97
973.582	5623.76
973.883	5616.31
974.183	5594.84
974.484	5543.31
974.785	5554.61
975.085	5529.08
975.386	5554.16
975.686	5452.02
975.986	5459.02
976.287	5454.73
976.587	5394.39
976.887	5360.49
977.187	5396.65
977.487	5337.44
977.787	5258.8
978.087	5238.01
978.387	5259.03
978.687	5262.42
978.987	5232.59
979.286	5165.7
979.586	5191.23
979.885	5121.86
980.185	5082.31
980.484	5041.63
980.784	5088.41
981.083	5005.7
981.382	5020.39
981.682	4991.92
981.981	5012.48
982.28	4977.68
982.579	4915.76
982.878	4895.87
983.177	4889.77
983.475	4909.43
983.774	4777.69
984.073	4811.36
984.372	4746.27
984.67	4777.91
984.969	4754.18
985.267	4707.86
985.566	4667.18
985.864	4635.32
986.162	4610.01
986.461	4602.55
986.759	4625.82
987.057	4604.36
987.355	4592.61
987.653	4497.01
987.951	4511.7
988.249	4483.46
988.547	4480.52
988.844	4436
989.142	4400.75
989.44	4399.16
989.737	4390.8
990.035	4409.56
990.332	4341.09
990.63	4300.86
990.927	4311.03
991.224	4309.45
991.521	4271.94
991.819	4267.19
992.116	4252.73
992.413	4197.14
992.71	4176.12
993.006	4179.06
993.303	4137.02
993.6	4108.32
993.897	4103.13
994.193	4052.51
994.49	4078.72
994.787	3983.13
995.083	4005.73
995.379	3989.91
995.676	3998.27
995.972	3980.19
996.268	3907.88
996.565	3932.51
996.861	3902.68
997.157	3850.93
997.453	3840.99
997.749	3805.28
998.044	3799.41
998.34	3808.45
998.636	3758.05
998.932	3721.44
999.227	3704.27
999.523	3651.61
999.818	3690.03
1000.114	3660.65
1000.409	3610.48
1000.704	3638.96
1001	3603.03
1001.295	3568.23
1001.59	3591.73
1001.885	3553.76
1002.18	3527.55
1002.475	3494.1
1002.77	3485.97
1003.065	3465.63
1003.359	3456.59
1003.654	3441
1003.949	3416.82
1004.243	3393.77
1004.538	3339.3
1004.832	3368.68
1005.127	3331.4
1005.421	3305.18
1005.715	3284.39
1006.009	3312.41
1006.304	3205.75
1006.598	3187.67
1006.892	3228.57
1007.186	3192.87
1007.48	3186.31
1007.773	3132.53
1008.067	3170.5
1008.361	3107.9
1008.655	3097.5
1008.948	3055.92
1009.242	3031.97
1009.535	3036.04
1009.829	3023.38
1010.122	2990.16
1010.415	2967.79
1010.708	2975.02
1011.001	2955.13
1011.295	2929.15
1011.588	2923.5
1011.881	2897.51
1012.173	2854.57
1012.466	2843.05
1012.759	2810.51
1013.052	2812.77
1013.344	2817.51
1013.637	2803.5
1013.93	2775.7
1014.222	2784.52
1014.514	2725.76
1014.807	2719.89
1015.099	2688.7
1015.391	2695.48
1015.683	2647.35
1015.976	2633.79
1016.268	2598.99
1016.56	2603.73
1016.851	2616.16
1017.143	2584.52
1017.435	2582.94
1017.727	2534.58
1018.018	2500
1018.31	2518.76
1018.602	2439.44
1018.893	2469.72
1019.185	2461.81
1019.476	2453.23
1019.767	2449.16
1020.058	2410.29
1020.35	2385.21
1020.641	2344.53
1020.932	2352.21
1021.223	2334.36
1021.514	2328.26
1021.804	2277.64
1022.095	2274.25
1022.386	2256.17
1022.677	2244.87
1022.967	2236.73
1023.258	2196.28
1023.548	2213.46
1023.839	2203.52
1024.129	2169.39
1024.419	2161.93
1024.709	2141.14
1025	2128.26
1025.29	2111.31
1025.58	2090.52
1025.87	2093.46
1026.16	2055.5
1026.449	2055.27
1026.739	2035.16
1027.029	2030.64
1027.319	1982.73
1027.608	1980.02
1027.898	1977.53
1028.187	1965.33
1028.477	1956.74
1028.766	1940.7
1029.055	1911.77
1029.344	1904.31
1029.634	1862.51
1029.923	1869.74
1030.212	1872.9
1030.501	1862.06
1030.79	1835.16
1031.078	1835.16
1031.367	1819.34
1031.656	1771.44
1031.945	1794.49
1032.233	1777.76
1032.522	1752.68
1032.81	1776.41
1033.099	1778.67
1033.387	1709.52
1033.675	1710.2
1033.963	1698.22
1034.251	1692.57
1034.54	1660.03
1034.828	1667.26
1035.116	1638.33
1035.403	1627.49
1035.691	1615.51
1035.979	1606.47
1036.267	1620.93
1036.554	1592.23
1036.842	1611.89
1037.129	1569.63
1037.417	1542.52
1037.704	1519.47
1037.992	1543.19
1038.279	1534.61
1038.566	1532.35
1038.853	1532.35
1039.14	1532.35
