Data from 18-4330_FLMS001491_010.txt Node
Date: Thu Apr 19 16:43:47 BST 2018
User: hsy
Spectrometer: FLMS00149
Trigger mode: 0
Integration Time (sec): 1.000000E-2
Scans to average: 10
Electric dark correction enabled: true
Nonlinearity correction enabled: false
Boxcar width: 0
XAxis mode: Wavelengths
Number of Pixels in Spectrum: 2048
>>>>>Begin Spectral Data<<<<<
341.393	-16.65
341.776	-16.65
342.16	-16.65
342.543	-69.53
342.927	-77.44
343.31	-64.79
343.693	-71.34
344.077	-76.31
344.46	-76.09
344.843	-34.28
345.226	-32.92
345.61	-25.01
345.993	-31.34
346.376	-15.97
346.759	29
347.142	26.74
347.525	44.82
347.908	58.15
348.291	112.16
348.674	76.9
349.057	80.29
349.44	113.74
349.823	135.21
350.206	153.06
350.588	210.23
350.971	236.22
351.354	263.79
351.737	272.15
352.119	294.07
352.502	299.72
352.884	330.23
353.267	308.99
353.65	321.19
354.032	350.57
354.414	343.11
354.797	320.06
355.179	363.9
355.562	381.98
355.944	375.2
356.326	370.68
356.709	372.26
357.091	394.86
357.473	403.9
357.855	371.59
358.238	392.6
358.62	383.11
359.002	386.5
359.384	386.5
359.766	379.95
360.148	370.46
360.53	372.72
360.912	379.27
361.294	382.43
361.676	370.91
362.057	375.65
362.439	356.9
362.821	390.57
363.203	381.08
363.584	373.85
363.966	374.98
364.348	372.26
364.729	383.56
365.111	358.48
365.493	367.52
365.874	374.75
366.256	360.74
366.637	379.04
367.019	378.14
367.4	357.8
367.781	333.62
368.163	374.98
368.544	340.85
368.925	366.61
369.306	373.39
369.688	383.34
370.069	369.1
370.45	365.94
370.831	375.2
371.212	383.34
371.593	389.89
371.974	395.99
372.355	360.74
372.736	366.61
373.117	394.64
373.498	358.93
373.879	377.46
374.26	403.22
374.641	374.98
375.021	390.12
375.402	374.75
375.783	388.31
376.163	407.74
376.544	403
376.925	393.28
377.305	399.38
377.686	406.39
378.066	392.6
378.447	411.81
378.827	407.74
379.208	417.91
379.588	412.26
379.968	406.61
380.349	406.61
380.729	427.4
381.109	409.1
381.489	410.23
381.87	436.9
382.25	417.91
382.63	443.22
383.01	448.42
383.39	441.41
383.77	437.8
384.15	450.68
384.53	439.61
384.91	450.68
385.29	450.91
385.67	452.04
386.049	464.24
386.429	460.17
386.809	457.46
387.189	454.52
387.568	476.22
387.948	490.68
388.328	456.1
388.707	490.68
389.087	482.32
389.466	499.49
389.846	496.55
390.225	505.14
390.605	515.76
390.984	493.84
391.363	526.16
391.743	535.88
392.122	520.51
392.501	537.23
392.881	534.07
393.26	517.57
393.639	523.9
394.018	550.56
394.397	553.5
394.776	554.63
395.155	561.64
395.534	569.1
395.913	569.1
396.292	588.08
396.671	585.82
397.05	596.44
397.429	596.21
397.808	595.08
398.186	610
398.565	601.64
398.944	602.31
399.323	616.33
399.701	628.75
400.08	625.59
400.458	626.27
400.837	647.29
401.215	626.27
401.594	648.64
401.972	665.82
402.351	636.89
402.729	667.62
403.107	666.95
403.486	690.67
403.864	692.93
404.242	718.02
404.62	707.85
404.999	717.57
405.377	710.56
405.755	746.04
406.133	758.92
406.511	746.04
406.889	777.68
407.267	787.62
407.645	778.13
408.023	819.71
408.401	810.9
408.779	817
409.156	847.73
409.534	828.07
409.912	851.57
410.29	894.28
410.667	893.15
411.045	932.25
411.422	942.42
411.8	923.21
412.178	972.02
412.555	996.43
412.933	982.87
413.31	965.02
413.687	1030.55
414.065	1026.48
414.442	1016.09
414.819	1033.72
415.197	1024
415.574	1092.02
415.951	1085.47
416.328	1100.83
416.705	1110.1
417.082	1099.02
417.46	1171.79
417.837	1132.02
418.214	1143.09
418.591	1146.03
418.967	1185.35
419.344	1200.49
419.721	1195.52
420.098	1215.41
420.475	1216.08
420.852	1219.02
421.228	1248.63
421.605	1283.65
421.982	1285.46
422.358	1283.65
422.735	1311.45
423.111	1318.23
423.488	1362.29
423.864	1351.22
424.241	1401.62
424.617	1416.3
424.994	1420.82
425.37	1420.37
425.746	1430.32
426.123	1472.57
426.499	1477.09
426.875	1524.32
427.251	1541.05
427.627	1563.19
428.003	1587.83
428.379	1603.19
428.756	1605.45
429.132	1632.8
429.507	1676.86
429.883	1673.25
430.259	1715.05
430.635	1766.8
431.011	1753.7
431.387	1769.06
431.763	1830.3
432.138	1807.25
432.514	1836.86
432.89	1843.19
433.265	1989.85
433.641	1957.99
434.016	1987.14
434.392	1998.66
434.767	2056.51
435.143	2045.44
435.518	2065.55
435.894	2167.7
436.269	2147.36
436.644	2185.32
437.02	2216.96
437.395	2220.58
437.77	2230.29
438.145	2303.06
438.52	2320.24
438.895	2374.47
439.271	2375.38
439.646	2397.3
440.021	2437.07
440.395	2464.19
440.77	2441.36
441.145	2515.26
441.52	2512.77
441.895	2525.43
442.27	2584.41
442.645	2567.69
443.019	2598.65
443.394	2609.49
443.769	2661.92
444.143	2651.53
444.518	2672.09
444.892	2685.42
445.267	2736.5
445.641	2741.92
446.016	2779.66
446.39	2800.45
446.764	2832.09
447.139	2805.65
447.513	2856.27
447.887	2865.98
448.262	2891.75
448.636	2887.23
449.01	2912.54
449.384	2936.26
449.758	2988.01
450.132	3073.21
450.506	3052.87
450.88	3087.9
451.254	3066.88
451.628	3143.94
452.002	3185.52
452.376	3244.51
452.75	3256.93
453.123	3269.36
453.497	3319.08
453.871	3368.12
454.244	3438.17
454.618	3463.93
454.992	3537.6
455.365	3536.25
455.739	3656.47
456.112	3615.57
456.486	3651.05
456.859	3703.48
457.232	3835.22
457.606	3819.63
457.979	3897.14
458.352	3930.36
458.725	3977.59
459.099	3996.58
459.472	4116.35
459.845	4131.94
460.218	4169.68
460.591	4216.23
460.964	4256.91
461.337	4335.78
461.71	4441.31
462.083	4471.14
462.456	4514.75
462.829	4474.53
463.201	4627.52
463.574	4579.61
463.947	4646.95
464.32	4742.09
464.692	4811.92
465.065	4865.71
465.438	4864.35
465.81	4943.9
466.183	4981.18
466.555	5079.26
466.928	5155.64
467.3	5099.37
467.672	5241.51
468.045	5297.56
468.417	5354.73
468.789	5389.53
469.161	5495.52
469.534	5531.22
469.906	5668.4
470.278	5659.36
470.65	5747.04
471.022	5891.89
471.394	5885.34
471.766	5947.03
472.138	6012.57
472.51	6230.42
472.882	6315.16
473.253	6290.75
473.625	6462.73
473.997	6578.65
474.369	6604.64
474.74	6696.39
475.112	6799.89
475.484	6923.28
475.855	6981.81
476.227	7102.93
476.598	7244.4
476.97	7234.23
477.341	7420.67
477.713	7518.52
478.084	7611.4
478.455	7826.76
478.827	7872.41
479.198	8116.92
479.569	8082.34
479.94	8320.3
480.311	8405.95
480.682	8589.22
481.053	8745.6
481.424	8881.19
481.795	8961.42
482.166	9037.35
482.537	9259.49
482.908	9440.5
483.279	9526.6
483.65	9715.75
484.021	9914.39
484.391	9974.5
484.762	10147.6
485.133	10205
485.503	10342.62
485.874	10654.71
486.244	10662.84
486.615	10844.98
486.985	11005.2
487.356	11218.76
487.726	11296.04
488.097	11547.11
488.467	11656.26
488.837	11867.78
489.207	11885.63
489.578	12141.67
489.948	12372.63
490.318	12443.59
490.688	12471.38
491.058	12733.07
491.428	12930.35
491.798	13022.55
492.168	13264.35
492.538	13321.53
492.908	13471.35
493.278	13725.13
493.648	13702.76
494.017	13917.67
494.387	13952.02
494.757	14048.51
495.126	14240.15
495.496	14365.57
495.866	14423.42
496.235	14590.2
496.605	14696.41
496.974	14731.66
497.344	14984.31
497.713	15078.77
498.082	15111.31
498.452	15196.51
498.821	15360.57
499.19	15399.89
499.559	15566.89
499.928	15680.11
500.298	15659.77
500.667	15741.58
501.036	15816.38
501.405	16029.03
501.774	15960.33
502.143	16086.43
502.512	16263.37
502.88	16347.44
503.249	16359.87
503.618	16433.76
503.987	16385.63
504.356	16593.53
504.724	16684.6
505.093	16703.13
505.462	16824.71
505.83	16878.04
506.199	17102.22
506.567	17288.66
506.936	17236.68
507.304	17340.18
507.672	17440.52
508.041	17439.84
508.409	17574.98
508.777	17718.47
509.145	17740.17
509.514	17726.84
509.882	17764.8
510.25	17996.89
510.618	18108.07
510.986	18017.22
511.354	18151.23
511.722	18414.28
512.09	18510.32
512.458	18324.79
512.826	18584.67
513.193	18532.01
513.561	18837.09
513.929	18753.7
514.297	18938.56
514.664	18989.85
515.032	19016.97
515.4	19148.49
515.767	19177.65
516.135	19334.25
516.502	19210.41
516.869	19475.04
517.237	19506.9
517.604	19381.93
517.972	19738.31
518.339	19746.22
518.706	19832.32
519.073	19860.34
519.44	19971.52
519.808	20097.62
520.175	20131.29
520.542	20326.54
520.909	20457.16
521.276	20377.16
521.643	20710.49
522.009	20785.29
522.376	20809.92
522.743	20899.63
523.11	21084.26
523.477	21262.79
523.843	21173.3
524.21	21407.19
524.577	21539.62
524.943	21724.02
525.31	21729.44
525.676	21915.43
526.043	22037.46
526.409	22080.85
526.776	22254.85
527.142	22268.64
527.508	22373.27
527.874	22491.91
528.241	22631.34
528.607	22645.8
528.973	22742.07
529.339	22653.71
529.705	23033.14
530.071	23066.81
530.437	23151.1
530.803	23160.14
531.169	23291.21
531.535	23259.35
531.901	23314.26
532.267	23359.91
532.632	23581.82
532.998	23465.22
533.364	23504.31
533.73	23679.45
534.095	23730.52
534.461	23640.13
534.826	23756.51
535.192	23850.74
535.557	23920.12
535.923	23809.61
536.288	23883.74
536.653	23944.53
537.019	23907.69
537.384	23871.99
537.749	23943.62
538.114	23898.2
538.479	23843.06
538.845	23993.34
539.21	23861.59
539.575	23981.81
539.94	23936.39
540.305	23949.95
540.67	23975.94
541.034	23918.76
541.399	23847.58
541.764	24046.22
542.129	23898.88
542.494	23897.75
542.858	23907.69
543.223	23832.89
543.587	23943.85
543.952	23879.67
544.316	23880.8
544.681	23649.84
545.045	23872.21
545.41	23915.15
545.774	23720.35
546.138	23717.19
546.503	23711.76
546.867	23753.8
547.231	23709.05
547.595	23653.01
547.959	23663.86
548.324	23596.29
548.688	23630.86
549.052	23668.83
549.416	23503.63
549.779	23503.63
550.143	23463.63
550.507	23669.28
550.871	23543.41
551.235	23483.97
551.599	23558.1
551.962	23570.75
552.326	23534.59
552.689	23502.73
553.053	23335.5
553.417	23318.55
553.78	23564.87
554.143	23570.75
554.507	23536.85
554.87	23424.77
555.234	23478.55
555.597	23419.34
555.96	23348.84
556.323	23345.9
556.686	23316.29
557.05	23518.32
557.413	23456.4
557.776	23490.07
558.139	23570.75
558.502	23510.86
558.865	23493.46
559.228	23621.82
559.59	23576.17
559.953	23540.69
560.316	23774.13
560.679	23663.18
561.041	23691.2
561.404	23761.93
561.767	24013
562.129	23853.91
562.492	23993.34
562.854	23977.52
563.217	23970.74
563.579	24055.71
563.941	24133.9
564.304	24252.99
564.666	24262.71
565.028	24342.71
565.39	24398.98
565.753	24480.33
566.115	24574.11
566.477	24575.24
566.839	24710.38
567.201	24873.31
567.563	24679.2
567.925	24888
568.287	24957.83
568.648	25005.51
569.01	25185.62
569.372	25433.3
569.734	25306.3
570.095	25571.15
570.457	25577.93
570.819	25544.71
571.18	25570.92
571.542	25725.27
571.903	25847.75
572.265	25955.55
572.626	26074.19
572.987	26044.81
573.349	26153.28
573.71	26264.69
574.071	26347.17
574.432	26485.93
574.794	26691.12
575.155	26608.41
575.516	26622.42
575.877	26737.22
576.238	26778.35
576.599	26925.24
576.96	26899.25
577.32	26935.63
577.681	26964.33
578.042	27158
578.403	27111
578.763	27187.6
579.124	27238.22
579.485	27373.14
579.845	27487.71
580.206	27294.95
580.566	27343.76
580.927	27412.46
581.287	27441.16
581.648	27410.88
582.008	27517.77
582.368	27389.41
582.728	27503.53
583.089	27615.84
583.449	27517.77
583.809	27466.69
584.169	27629.85
584.529	27469.4
584.889	27632.79
585.249	27606.35
585.609	27423.08
585.969	27618.78
586.329	27517.77
586.688	27542.17
587.048	27473.7
587.408	27503.75
587.768	27502.85
588.127	27477.31
588.487	27453.59
588.846	27560.02
589.206	27338.56
589.565	27255.4
589.925	27557.54
590.284	27440.71
590.643	27369.52
591.003	27494.71
591.362	27619.91
591.721	27496.3
592.08	27365
592.44	27434.6
592.799	27430.76
593.158	27367.71
593.517	27249.52
593.876	27385.79
594.235	27328.39
594.593	27346.24
594.952	27407.49
595.311	27234.83
595.67	27387.15
596.029	27563.87
596.387	27487.94
596.746	27575.39
597.104	27249.3
597.463	27300.14
597.822	27480.48
598.18	27379.01
598.538	27306.92
598.897	27664.65
599.255	27257.66
599.613	27701.04
599.972	27497.88
600.33	27567.48
600.688	27430.99
601.046	27369.07
601.404	27651.77
601.762	27597.54
602.12	27586.01
602.478	27469.4
602.836	27556.63
603.194	27301.27
603.552	27540.14
603.91	27407.94
604.268	27572.9
604.625	27430.76
604.983	27605.45
605.341	27347.15
605.698	27562.51
606.056	27717.99
606.413	27486.13
606.771	27584.88
607.128	27578.55
607.485	27585.11
607.843	27658.33
608.2	27736.74
608.557	27731.32
608.914	27621.27
609.272	27758.44
609.629	27837.08
609.986	28053.8
610.343	27955.49
610.7	27991.2
611.057	27943.52
611.414	27799.11
611.771	28086.34
612.127	28225.09
612.484	28167.24
612.841	28239.1
613.198	28080.24
613.554	28213.11
613.911	28383.28
614.267	28280
614.624	28325.2
614.98	28228.48
615.337	28498.53
615.693	28418.76
616.05	28424.86
616.406	28527.23
616.762	28441.58
617.118	28412.2
617.475	28525.65
617.831	28571.3
618.187	28594.8
618.543	28625.98
618.899	28776.94
619.255	28684.29
619.611	28774.46
619.967	28707.34
620.323	28867.11
620.678	28729.94
621.034	28744.63
621.39	28696.72
621.746	28868.24
622.101	29141.68
622.457	28812.65
622.812	28929.48
623.168	29023.04
623.523	29006.99
623.879	29185.74
624.234	28914.56
624.589	29143.26
624.945	29014.67
625.3	29039.76
625.655	29092.41
626.01	29033.21
626.365	29102.81
626.72	28957.28
627.075	29086.09
627.43	29077.72
627.785	29135.35
628.14	28893.77
628.495	28983.26
628.85	28995.01
629.205	29045.86
629.559	29201.34
629.914	29024.39
630.269	29059.65
630.623	28971.96
630.978	28804.28
631.332	29143.49
631.687	28999.31
632.041	28834.34
632.396	28955.69
632.75	28902.36
633.104	28801.8
633.459	28679.54
633.813	28860.1
634.167	28704.85
634.521	28832.08
634.875	28809.03
635.229	28587.79
635.583	28548.25
635.937	28402.04
636.291	28486.33
636.645	28512.77
636.999	28397.52
637.352	28481.58
637.706	28457.85
638.06	28511.41
638.413	28449.49
638.767	28283.39
639.121	28398.42
639.474	28315.26
639.828	28261.93
640.181	28239.33
640.534	28249.27
640.888	28200.23
641.241	28013.57
641.594	28112.33
641.947	28192.78
642.301	28082.95
642.654	28094.02
643.007	28024.42
643.36	28087.24
643.713	28128.6
644.066	28124.53
644.419	27987.13
644.771	27663.75
645.124	27326.81
645.477	27409.52
645.83	27324.78
646.182	27293.59
646.535	27332.01
646.888	27412.91
647.24	27262.86
647.593	27399.12
647.945	27318.45
648.298	27254.27
648.65	27186.25
649.002	27014.05
649.355	26931.57
649.707	26791.68
650.059	26840.04
650.411	27243.2
650.763	27422.17
651.115	27892.22
651.467	27728.61
651.819	27772
652.171	27706.91
652.523	27732.67
652.875	27617.2
653.227	27735.61
653.578	27851.32
653.93	27787.36
654.282	27675.28
654.633	27689.51
654.985	27841.82
655.337	27749.85
655.688	27682.73
656.039	27929.96
656.391	27614.94
656.742	27771.09
657.094	27792.56
657.445	27740.13
657.796	27924.53
658.147	27781.04
658.498	27883.41
658.849	27943.06
659.2	27912.78
659.551	27747.82
659.902	28082.72
660.253	27907.81
660.604	28191.87
660.955	27969.5
661.306	28138.09
661.656	28028.26
662.007	28060.8
662.358	27975.15
662.708	28080.24
663.059	27965.21
663.409	27948.04
663.76	28201.59
664.11	28223.51
664.461	28166.56
664.811	28208.82
665.161	28183.51
665.511	28079.33
665.862	28214.47
666.212	28302.38
666.562	28338.08
666.912	28242.49
667.262	28063.74
667.612	27976.06
667.962	28289.72
668.312	28104.19
668.662	28317.97
669.011	28261.02
669.361	28223.74
669.711	28263.51
670.06	28203.17
670.41	28119.33
670.76	28189.16
671.109	28281.13
671.459	28207.69
671.808	28140.35
672.157	28272.32
672.507	28092.67
672.856	28081.59
673.205	28049.73
673.554	28096.06
673.904	28119.33
674.253	28167.01
674.602	28039.79
674.951	27692.68
675.3	27547.59
675.649	27892.22
675.998	28024.64
676.346	27941.93
676.695	27888.15
677.044	27828.49
677.393	27906.68
677.741	28048.37
678.09	27859.9
678.438	27838.89
678.787	27874.59
679.135	27715.95
679.484	27559.35
679.832	27620.14
680.181	27685.22
680.529	27510.99
680.877	27498.56
681.225	27496.3
681.573	27738.1
681.922	27517.99
682.27	27374.27
682.618	27274.61
682.966	27188.96
683.314	27227.38
683.661	27194.38
684.009	27063.31
684.357	26995.29
684.705	27024.22
685.053	27034.61
685.4	26807.05
685.748	26704.45
686.095	26803.21
686.443	26453.61
686.79	26532.71
687.138	26580.16
687.485	26574.51
687.832	26359.83
688.18	26493.61
688.527	26342.2
688.874	26238.25
689.221	26256.56
689.568	26052.94
689.915	25970.24
690.262	26006.62
690.609	25868.54
690.956	25786.74
691.303	25680.75
691.65	25605.5
691.997	25551.94
692.344	25462.9
692.69	25396.01
693.037	25274.43
693.383	25096.81
693.73	25181.1
694.077	24939.75
694.423	24984.05
694.769	24853.2
695.116	24679.2
695.462	24558.52
695.808	24562.14
696.155	24596.71
696.501	24314.23
696.847	24423.38
697.193	24161.92
697.539	24146.55
697.885	24062.94
698.231	23917.41
698.577	23899.33
698.923	23774.13
699.269	23673.35
699.614	23546.57
699.96	23459.11
700.306	23367.14
700.651	23298.22
700.997	23154.49
701.342	23118.56
701.688	23033.14
702.033	22952.24
702.379	22960.82
702.724	22772.35
703.069	22794.5
703.415	22487.84
703.76	22553.6
704.105	22448.75
704.45	22408.29
704.795	22319.71
705.14	22346.38
705.485	22255.76
705.83	22072.03
706.175	22100.05
706.52	22083.33
706.865	21951.81
707.209	21914.97
707.554	21839.72
707.899	21732.83
708.243	21686.73
708.588	21595.66
708.932	21553.18
709.277	21400.64
709.621	21455.78
709.966	21419.39
710.31	21434.76
710.654	21269.79
710.998	21317.93
711.342	21260.3
711.687	21244.94
712.031	21053.3
712.375	21051.72
712.719	21048.56
713.063	21039.97
713.407	21164.03
713.75	21023.47
714.094	21149.8
714.438	20952.06
714.782	20969.91
715.125	20878.84
715.469	21031.38
715.812	20679.53
716.156	20742.35
716.499	20778.73
716.843	20846.75
717.186	20685.63
717.53	20746.87
717.873	20785.06
718.216	20729.02
718.559	20677.94
718.902	20580.09
719.246	20561.11
719.589	20567.67
719.932	20490.38
720.275	20607.89
720.617	20539.64
720.96	20537.38
721.303	20545.07
721.646	20602.69
721.989	20514.11
722.331	20597.5
722.674	20432.98
723.016	20503.94
723.359	20517.05
723.701	20545.29
724.044	20525.86
724.386	20444.96
724.729	20520.21
725.071	20564.95
725.413	20439.31
725.755	20498.74
726.097	20432.98
726.439	20481.34
726.782	20469.14
727.124	20657.38
727.465	20521.11
727.807	20532.41
728.149	20544.39
728.491	20650.6
728.833	20595.91
729.175	20663.03
729.516	20633.65
729.858	20620.77
730.199	20740.32
730.541	20728.11
730.882	20566.08
731.224	20639.08
731.565	20671.17
731.906	20763.37
732.248	20691.96
732.589	20755.68
732.93	20677.49
733.271	20835.23
733.612	20858.05
733.953	20896.02
734.294	20947.77
734.635	20807.21
734.976	21016.69
735.317	21020.31
735.658	21053.3
735.999	21008.33
736.339	21109.57
736.68	21203.13
737.021	21267.31
737.361	21182.11
737.702	21328.55
738.042	21304.6
738.383	21417.59
738.723	21468.66
739.063	21531.93
739.404	21627.07
739.744	21634.53
740.084	21714.08
740.424	21841.98
740.764	21953.62
741.104	22103.9
741.444	22043.78
741.784	22115.87
742.124	22282.87
742.464	22226.6
742.804	22366.94
743.143	22464.11
743.483	22539.14
743.823	22679.7
744.162	22839.7
744.502	22999.92
744.841	23071.1
745.181	23366.69
745.52	23397.42
745.86	23461.37
746.199	23590.64
746.538	23837.41
746.877	23878.31
747.216	24111.3
747.556	24310.62
747.895	24414.8
748.234	24585.86
748.573	24797.16
748.911	24887.1
749.25	25120.99
749.589	25224.49
749.928	25551.04
750.267	25720.52
750.605	25947.18
750.944	26033.28
751.283	26353.95
751.621	26636.43
751.96	26663.78
752.298	27007.04
752.636	27287.26
752.975	27486.81
753.313	27678.44
753.651	28184.64
753.989	28206.79
754.327	28557.51
754.666	28661.24
755.004	29034.11
755.342	29218.51
755.679	29477.04
756.017	29728.55
756.355	30010.81
756.693	30338.93
757.031	30616.67
757.368	30712.26
757.706	30925.81
758.044	31276.31
758.381	31510.43
758.719	31779.12
759.056	32106.12
759.394	32329.84
759.731	32417.07
760.068	32618.65
760.405	33021.8
760.743	32994.01
761.08	33308.57
761.417	33546.99
761.754	33654.1
762.091	33978.84
762.428	34008.67
762.765	34259.06
763.102	34576.11
763.438	34748.99
763.775	34760.96
764.112	35046.15
764.449	35156.43
764.785	35461.96
765.122	35370.89
765.458	35603.2
765.795	35777.43
766.131	36037.32
766.467	36015.17
766.804	36073.92
767.14	36198.89
767.476	36338.78
767.812	36457.64
768.148	36727.24
768.485	36710.07
768.821	36588.71
769.157	36649.05
769.492	36856.28
769.828	36934.24
770.164	36847.01
770.5	36825.32
770.836	36961.13
771.171	36903.51
771.507	37080
771.842	37021.02
772.178	37090.85
772.513	37060.79
772.849	37028.7
773.184	37221.01
773.519	37385.3
773.855	37147.57
774.19	37146.44
774.525	37101.47
774.86	37219.66
775.195	37139.21
775.53	37000.45
775.865	37092.88
776.2	36966.56
776.535	36681.37
776.87	36873.68
777.205	36735.38
777.539	36838.65
777.874	36918.87
778.209	36615.61
778.543	36602.27
778.878	36550.07
779.212	36668.03
779.547	36375.61
779.881	36502.61
780.215	36297.2
780.55	36435.5
780.884	36247.93
781.218	36254.71
781.552	36365.44
781.886	36106.92
782.22	35893.82
782.554	35873.25
782.888	35775.85
783.222	35725.23
783.556	35528.85
783.889	35524.79
784.223	35353.04
784.557	35444.11
784.89	35458.35
785.224	35163.67
785.557	35114.4
785.891	35161.86
786.224	35209.77
786.558	35122.08
786.891	34904.46
787.224	34691.36
787.557	34577.69
787.891	34628.31
788.224	34471.03
788.557	34454.98
788.89	34473.51
789.223	34418.83
789.556	34212.05
789.888	34207.76
790.221	34066.07
790.554	33875.56
790.887	33901.33
791.219	33772.29
791.552	33715.34
791.884	33646.19
792.217	33526.65
792.549	33446.2
792.882	33192.42
793.214	33175.92
793.546	33277.61
793.879	33013.21
794.211	32741.81
794.543	33006.89
794.875	32872.88
795.207	32765.99
795.539	32611.19
795.871	32697.06
796.203	32456.17
796.535	32330.97
796.867	32357.64
797.198	32251.65
797.53	32186.79
797.862	31947.71
798.193	32107.47
798.525	31837.2
798.856	32077.87
799.188	31646.7
799.519	31653.02
799.85	31575.29
800.182	31544.78
800.513	31604.89
800.844	31184.11
801.175	31367.83
801.506	31248.97
801.837	31242.86
802.168	31078.58
802.499	31121.51
802.83	30883.78
803.161	30855.08
803.491	30816.89
803.822	30855.98
804.153	30535.09
804.483	30447.63
804.814	30355.2
805.145	30552.26
805.475	30479.04
805.805	30361.76
806.136	30370.12
806.466	30115.89
806.796	30120.86
807.126	29871.6
807.457	29934.2
807.787	30033.63
808.117	29840.19
808.447	29792.73
808.777	29917.48
809.107	29551.16
809.436	29568.33
809.766	29579.63
810.096	29551.84
810.426	29423.48
810.755	29439.52
811.085	29296.93
811.414	29321.11
811.744	29285.4
812.073	29149.36
812.403	28985.75
812.732	28935.81
813.061	29054.67
813.39	28809.03
813.719	28798.41
814.049	28957.28
814.378	28860.1
814.707	28662.14
815.036	28635.48
815.365	28722.48
815.693	28337.63
816.022	28465.08
816.351	28349.61
816.68	28202.27
817.008	28422.83
817.337	28061.71
817.665	28221.25
817.994	28085.89
818.322	28219.22
818.651	27995.72
818.979	28098.99
819.307	28066.23
819.636	27978.77
819.964	27799.11
820.292	27972.22
820.62	27816.51
820.948	27937.19
821.276	28050.86
821.604	27968.37
821.932	27979.9
822.259	27941.71
822.587	27829.4
822.915	27848.6
823.243	27938.55
823.57	27782.62
823.898	28039.11
824.225	27857.87
824.553	27821.03
824.88	27978.32
825.207	27995.27
825.535	27872.33
825.862	28075.49
826.189	27990.07
826.516	28121.82
826.843	28079.33
827.17	28153.45
827.497	28027.13
827.824	28136.51
828.151	28168.37
828.478	27983.29
828.805	28243.62
829.131	28095.15
829.458	28250.18
829.785	27884.08
830.111	28076.17
830.438	28269.38
830.764	28212.66
831.09	28186.45
831.417	27891.31
831.743	28236.84
832.069	28181.48
832.395	28028.94
832.722	28121.82
833.048	28014.48
833.374	28194.58
833.7	28001.82
834.026	28085.66
834.351	27990.75
834.677	28151.19
835.003	27969.96
835.329	28044.3
835.654	27974.25
835.98	27765.44
836.306	27984.65
836.631	27828.04
836.956	28010.63
837.282	27878.89
837.607	27790.53
837.932	27780.36
838.258	27791.2
838.583	27716.86
838.908	27563.64
839.233	27721.6
839.558	27565.9
839.883	27539.69
840.208	27448.39
840.533	27479.57
840.858	27409.07
841.182	27488.61
841.507	27515.05
841.832	27372.01
842.156	27336.53
842.481	27330.43
842.805	27194.38
843.13	27186.7
843.454	27251.11
843.778	27083.65
844.103	26893.37
844.427	26966.37
844.751	26998.46
845.075	26991
845.399	26752.14
845.723	26657.22
846.047	26649.77
846.371	26466.49
846.695	26437.57
847.019	26451.13
847.343	26174.3
847.666	26163.22
847.99	25883.91
848.313	25967.52
848.637	25877.36
848.96	25731.6
849.284	25677.59
849.607	25520.76
849.931	25522.79
850.254	25301.55
850.577	25157.83
850.9	24989.02
851.223	24927.55
851.546	24978.62
851.869	24709.93
852.192	24938.85
852.515	24568.69
852.838	24462.03
853.161	24524.85
853.483	24317.4
853.806	24432.65
854.129	24221.81
854.451	24261.58
854.774	24075.14
855.096	24059.78
855.419	23964.19
855.741	23867.01
856.063	23784.08
856.385	23750.86
856.708	23663.4
857.03	23515.16
857.352	23611.43
857.674	23536.85
857.996	23378.21
858.318	23290.31
858.64	23384.77
858.961	23254.15
859.283	23123.76
859.605	23005.79
859.926	23112.68
860.248	22980.03
860.57	22793.37
860.891	22846.25
861.212	22773.71
861.534	22777.32
861.855	22596.31
862.176	22640.38
862.498	22578.69
862.819	22609.65
863.14	22461.17
863.461	22355.87
863.782	22335.3
864.103	22380.27
864.424	22342.08
864.745	22383.44
865.065	22134.86
865.386	22122.43
865.707	22118.36
866.027	22179.37
866.348	22079.04
866.668	22031.13
866.989	22035.42
867.309	21824.81
867.63	21846.5
867.95	21833.17
868.27	21722.89
868.59	21896.44
868.91	21847.41
869.23	21733.06
869.55	21614.42
869.87	21734.64
870.19	21693.51
870.51	21620.97
870.83	21571.71
871.15	21471.82
871.469	21423.69
871.789	21614.87
872.109	21578.03
872.428	21385.5
872.748	21448.09
873.067	21355.44
873.386	21326.74
873.706	21271.6
874.025	21226.63
874.344	21171.94
874.663	21280.87
874.982	21164.71
875.301	21120.87
875.62	20982.57
875.939	21044.04
876.258	21038.61
876.577	20902.35
876.896	20875.45
877.214	20868.22
877.533	20867.77
877.852	20915.23
878.17	20854.66
878.489	20896.24
878.807	20787.32
879.125	20704.38
879.444	20707.77
879.762	20639.75
880.08	20775.12
880.398	20520.44
880.716	20573.99
881.034	20587.33
881.352	20484.5
881.67	20371.51
881.988	20390.72
882.306	20319.31
882.624	20353.66
882.941	20225.75
883.259	20232.98
883.577	20150.5
883.894	20119.99
884.212	20095.59
884.529	20002.26
884.846	19918.87
885.164	19821.7
885.481	19757.52
885.798	19767.46
886.115	19680.01
886.432	19762.49
886.75	19576.05
887.067	19688.14
887.383	19530.4
887.7	19571.08
888.017	19373.57
888.334	19405.21
888.651	19345.78
888.967	19395.04
889.284	19300.81
889.6	19180.13
889.917	19106.23
890.233	19247.25
890.55	19110.08
890.866	19082.28
891.182	18979.23
891.498	19000.02
891.815	18842.74
892.131	18757.77
892.447	18740.82
892.763	18739.69
893.079	18592.58
893.395	18576.53
893.71	18536.98
894.026	18496.08
894.342	18374.73
894.657	18253.83
894.973	18214.96
895.289	18151.23
895.604	18167.28
895.92	18047.51
896.235	18043.21
896.55	17995.53
896.865	17941.07
897.181	17834.18
897.496	17805.48
897.811	17750.79
898.126	17659.95
898.441	17601.87
898.756	17603
899.071	17534.3
899.386	17587.4
899.7	17358.94
900.015	17209.11
900.33	17177.92
900.644	17237.58
900.959	17162.56
901.273	17041.43
901.588	17080.75
901.902	16968.44
902.216	16879.63
902.531	16841.21
902.845	16682.12
903.159	16576.13
903.473	16527.32
903.787	16561.44
904.101	16459.3
904.415	16493.65
904.729	16435.57
905.042	16228.8
905.356	16297.5
905.67	16157.16
905.984	16222.24
906.297	16087.56
906.611	15979.99
906.924	15893.89
907.237	15836.72
907.551	15804.4
907.864	15763.95
908.177	15779.77
908.491	15641.02
908.804	15430.63
909.117	15415.48
909.43	15363.06
909.743	15302.27
910.056	15320.8
910.368	15311.76
910.681	15208.94
910.994	15184.3
911.307	15116.06
911.619	14895.95
911.932	14985.67
912.244	14872.67
912.557	14852.34
912.869	14747.71
913.181	14715.62
913.494	14617.77
913.806	14535.28
914.118	14482.18
914.43	14407.38
914.742	14410.54
915.054	14296.42
915.366	14179.58
915.678	14245.57
915.99	14118.34
916.302	14098.46
916.613	13970.55
916.925	13978.46
917.236	13915.64
917.548	13890.33
917.859	13820.95
918.171	13727.85
918.482	13701.41
918.794	13584.35
919.105	13576.21
919.416	13531.01
919.727	13435.2
920.038	13510.22
920.349	13264.58
920.66	13302.09
920.971	13264.81
921.282	13173.51
921.593	13105.49
921.903	13053.51
922.214	13105.49
922.525	12949.11
922.835	12889
923.146	12749.11
923.456	12746.4
923.767	12695.33
924.077	12692.62
924.387	12721.54
924.697	12523.58
925.008	12587.31
925.318	12532.85
925.628	12507.31
925.938	12449.01
926.248	12331.27
926.558	12262.57
926.867	12255.79
927.177	12189.13
927.487	12133.99
927.796	12061.45
928.106	12009.7
928.416	11963.37
928.725	11947.33
929.034	11863.26
929.344	11881.11
929.653	11776.26
929.962	11696.03
930.271	11698.29
930.581	11587.56
930.89	11545.76
931.199	11481.12
931.508	11437.74
931.817	11372.65
932.125	11372.43
932.434	11270.06
932.743	11293.11
933.051	11195.03
933.36	11107.12
933.669	11073.23
933.977	11075.94
934.286	11086.78
934.594	10941.03
934.902	10958.65
935.21	10846.79
935.519	10825.55
935.827	10782.84
936.135	10673.91
936.443	10617.64
936.751	10525.67
937.059	10548.95
937.367	10556.63
937.674	10566.57
937.982	10531.32
938.29	10454.03
938.597	10427.59
938.905	10353.24
939.213	10252.23
939.52	10213.81
939.827	10266.92
940.135	10165.68
940.442	10118.67
940.749	10143.98
941.056	10077.32
941.363	10017.89
941.67	9890.43
941.977	9879.81
942.284	9834.39
942.591	9839.13
942.898	9826.7
943.205	9761.4
943.511	9698.12
943.818	9697.44
944.125	9524.57
944.431	9483.66
944.738	9544.45
945.044	9507.39
945.35	9413.61
945.657	9339.71
945.963	9287.51
946.269	9263.78
946.575	9257.91
946.881	9163.67
947.187	9175.42
947.493	9137.68
947.799	9116.67
948.105	9085.71
948.41	8941.53
948.716	8993.05
949.022	8951.47
949.327	8872.15
949.633	8797.13
949.938	8845.04
950.244	8760.29
950.549	8686.62
950.854	8636
951.16	8635.32
951.465	8537.25
951.77	8534.76
952.075	8500.86
952.38	8502.67
952.685	8486.18
952.99	8426.52
953.294	8376.12
953.599	8292.06
953.904	8297.71
954.209	8224.71
954.513	8231.94
954.818	8225.84
955.122	8108.56
955.426	8107.43
955.731	8095.9
956.035	8048.67
956.339	8007.54
956.643	7935.68
956.948	7860.65
957.252	7901.33
957.556	7905.4
957.86	7828.57
958.163	7818.62
958.467	7733.43
958.771	7721.9
959.075	7651.39
959.378	7625.63
959.682	7660.89
959.985	7574.33
960.289	7495.92
960.592	7519.19
960.896	7464.96
961.199	7456.37
961.502	7351.97
961.805	7368.24
962.108	7350.39
962.411	7227
962.714	7236.94
963.017	7257.51
963.32	7249.15
963.623	7196.04
963.926	7143.16
964.228	7090.28
964.531	7060.45
964.833	7105.65
965.136	6995.59
965.438	6997.17
965.741	6960.11
966.043	6955.37
966.345	6895.03
966.648	6822.49
966.95	6842.15
967.252	6781.81
967.554	6841.7
967.856	6766.45
968.158	6708.37
968.46	6675.83
968.761	6649.39
969.063	6626.79
969.365	6571.65
969.666	6577.07
969.968	6502.72
970.269	6477.19
970.571	6495.04
970.872	6370.07
971.174	6394.25
971.475	6407.36
971.776	6365.1
972.077	6266.8
972.378	6280.36
972.679	6246.46
972.98	6239.23
973.281	6171.66
973.582	6174.37
973.883	6143.19
974.183	6102.96
974.484	6093.02
974.785	6032.45
975.085	6077.42
975.386	6056.63
975.686	6000.82
975.986	5938.9
976.287	5946.81
976.587	5886.02
976.887	5873.14
977.187	5846.7
977.487	5811.44
977.787	5766.7
978.087	5733.48
978.387	5761.5
978.687	5719.47
978.987	5710.43
979.286	5666.36
979.586	5657.1
979.885	5609.41
980.185	5587.27
980.484	5542.98
980.784	5497.1
981.083	5516.99
981.382	5486.71
981.682	5492.36
981.981	5455.75
982.28	5382.3
982.579	5395.18
982.878	5340.72
983.177	5333.49
983.475	5321.51
983.774	5266.37
984.073	5243.1
984.372	5160.61
984.67	5165.58
984.969	5199.03
985.267	5209.43
985.566	5098.02
985.864	5107.28
986.162	5082.2
986.461	5054.4
986.759	5080.39
987.057	5000.62
987.355	4981.63
987.653	4974.4
987.951	4937.79
988.249	4941.86
988.547	4926.95
988.844	4815.09
989.142	4830
989.44	4795.88
989.737	4753.62
990.035	4787.52
990.332	4732.15
990.63	4683.56
990.927	4706.16
991.224	4674.52
991.521	4697.8
991.819	4622.1
992.116	4558.14
992.413	4559.27
992.71	4510.69
993.006	4525.6
993.303	4508.88
993.6	4523.34
993.897	4469.33
994.193	4454.19
994.49	4401.08
994.787	4374.87
995.083	4358.15
995.379	4342.56
995.676	4341.65
995.972	4307.98
996.268	4272.73
996.565	4241.54
996.861	4241.99
997.157	4233.86
997.453	4211.26
997.749	4159.51
998.044	4135.56
998.34	4078.83
998.636	4089
998.932	4092.17
999.227	4068.66
999.523	4042.22
999.818	4028.89
1000.114	3993.41
1000.409	3951.61
1000.704	3940.53
1001	3908.22
1001.295	3936.92
1001.59	3876.13
1001.885	3866.64
1002.18	3815.11
1002.475	3841.55
1002.77	3781.67
1003.065	3762.68
1003.359	3772.4
1003.654	3735.79
1003.949	3735.79
1004.243	3703.02
1004.538	3656.02
1004.832	3652.63
1005.127	3631.39
1005.421	3601.11
1005.715	3577.83
1006.009	3573.76
1006.304	3542.8
1006.598	3503.26
1006.892	3474.78
1007.186	3416.93
1007.48	3433.2
1007.773	3392.52
1008.067	3445.4
1008.361	3347.1
1008.655	3369.02
1008.948	3349.14
1009.242	3318.63
1009.535	3302.36
1009.829	3270.27
1010.122	3281.79
1010.415	3266.88
1010.708	3245.63
1011.001	3209.93
1011.295	3169.03
1011.588	3163.38
1011.881	3115.92
1012.173	3140.78
1012.466	3112.31
1012.759	3070.05
1013.052	3066.88
1013.344	3030.73
1013.637	3038.18
1013.93	3017.62
1014.222	2978.3
1014.514	2951.18
1014.807	2953.67
1015.099	2879.77
1015.391	2861.69
1015.683	2869.37
1015.976	2911.18
1016.268	2869.6
1016.56	2789.6
1016.851	2781.92
1017.143	2743.05
1017.435	2784.4
1017.727	2705.99
1018.018	2762.26
1018.31	2723.84
1018.602	2682.03
1018.893	2675.48
1019.185	2649.49
1019.476	2627.8
1019.767	2620.57
1020.058	2613.79
1020.35	2553
1020.641	2552.09
1020.932	2537.86
1021.223	2527.01
1021.514	2496.05
1021.804	2455.37
1022.095	2439.78
1022.386	2483.17
1022.677	2417.18
1022.967	2437.07
1023.258	2358.2
1023.548	2373.57
1023.839	2394.13
1024.129	2360.46
1024.419	2369.73
1024.709	2336.51
1025	2316.62
1025.29	2301.71
1025.58	2244.53
1025.87	2240.24
1026.16	2207.02
1026.449	2219.45
1026.739	2208.37
1027.029	2179
1027.319	2154.36
1027.608	2162.73
1027.898	2135.38
1028.187	2130.18
1028.477	2079.79
1028.766	2117.98
1029.055	2089.96
1029.344	2050.41
1029.634	2028.49
1029.923	2036.18
1030.212	1985.78
1030.501	2030.98
1030.79	1998.66
1031.078	1982.39
1031.367	1937.87
1031.656	1970.64
1031.945	1927.7
1032.233	1930.64
1032.522	1906.01
1032.81	1881.6
1033.099	1891.09
1033.387	1874.15
1033.675	1876.41
1033.963	1864.2
1034.251	1846.35
1034.54	1788.95
1034.828	1780.36
1035.116	1766.8
1035.403	1762.06
1035.691	1762.96
1035.979	1754.37
1036.267	1754.37
1036.554	1722.29
1036.842	1696.75
1037.129	1685.68
1037.417	1660.14
1037.704	1650.42
1037.992	1605.68
1038.279	1645
1038.566	1602.51
1038.853	1602.51
1039.14	1602.51
