Data from 18-4330_FLMS001491_006.txt Node
Date: Thu Apr 19 16:43:33 BST 2018
User: hsy
Spectrometer: FLMS00149
Trigger mode: 0
Integration Time (sec): 1.000000E-2
Scans to average: 10
Electric dark correction enabled: true
Nonlinearity correction enabled: false
Boxcar width: 0
XAxis mode: Wavelengths
Number of Pixels in Spectrum: 2048
>>>>>Begin Spectral Data<<<<<
341.393	-9.24
341.776	-9.24
342.16	-9.24
342.543	-57.15
342.927	-73.42
343.31	-68.44
343.693	-67.77
344.077	-67.99
344.46	-38.61
344.843	-66.64
345.226	-23.02
345.61	-41.78
345.993	-2.01
346.376	10.88
346.759	-2.46
347.142	42.74
347.525	28.95
347.908	57.2
348.291	64.89
348.674	79.8
349.057	94.26
349.44	123.87
349.823	134.04
350.206	188.05
350.588	202.51
350.971	248.16
351.354	247.25
351.737	263.3
352.119	280.02
352.502	287.93
352.884	306.91
353.267	322.96
353.65	341.94
354.032	330.87
354.414	353.92
354.797	349.4
355.179	344.88
355.562	363.41
355.944	364.76
356.326	370.19
356.709	375.16
357.091	363.63
357.473	367.48
357.855	383.52
358.238	390.07
358.62	379
359.002	386.46
359.384	357.76
359.766	354.82
360.148	379
360.53	370.41
360.912	365.67
361.294	360.92
361.676	366.12
362.057	375.39
362.439	371.09
362.821	373.58
363.203	373.58
363.584	375.16
363.966	393.24
364.348	375.16
364.729	366.57
365.111	357.53
365.493	371.32
365.874	331.77
366.256	341.94
366.637	359.11
367.019	372.67
367.4	377.65
367.781	363.18
368.163	335.16
368.544	367.25
368.925	334.93
369.306	339
369.688	367.48
370.069	361.83
370.45	372.67
370.831	335.61
371.212	355.05
371.593	371.09
371.974	358.89
372.355	350.98
372.736	381.26
373.117	369.74
373.498	345.33
373.879	362.73
374.26	353.92
374.641	364.99
375.021	393.24
375.402	378.1
375.783	365.67
376.163	391.88
376.544	388.27
376.925	385.55
377.305	385.33
377.686	379.45
378.066	397.53
378.447	398.44
378.827	404.76
379.208	394.37
379.588	404.99
379.968	387.59
380.349	393.46
380.729	397.31
381.109	415.16
381.489	389.17
381.87	417.87
382.25	438.89
382.63	395.05
383.01	420.13
383.39	424.65
383.77	426.46
384.15	417.42
384.53	446.12
384.91	436.4
385.29	440.24
385.67	433.69
386.049	453.12
386.429	442.73
386.809	463.74
387.189	457.87
387.568	448.38
387.948	468.49
388.328	481.37
388.707	464.2
389.087	491.31
389.466	471.43
389.846	482.05
390.225	467.13
390.605	463.52
390.984	498.55
391.363	497.19
391.743	502.84
392.122	500.13
392.501	484.54
392.881	513.24
393.26	508.49
393.639	499.22
394.018	513.24
394.397	503.52
394.776	548.94
395.155	512.33
395.534	530.86
395.913	529.96
396.292	549.84
396.671	550.07
397.05	530.18
397.429	562.5
397.808	551.43
398.186	557.98
398.565	562.95
398.944	570.63
399.323	577.87
399.701	558.88
400.08	583.52
400.458	601.82
400.837	593.91
401.215	594.36
401.594	617.19
401.972	619.45
402.351	617.41
402.729	634.59
403.107	645.44
403.486	656.73
403.864	655.15
404.242	650.86
404.62	659.9
404.999	676.85
405.377	688.15
405.755	677.07
406.133	701.48
406.511	697.64
406.889	711.42
407.267	735.6
407.645	704.19
408.023	734.92
408.401	769.05
408.779	766.11
409.156	769.5
409.534	779.67
409.912	803.62
410.29	810.18
410.667	841.14
411.045	867.12
411.422	850.4
411.8	855.15
412.178	883.39
412.555	876.39
412.933	910.29
413.31	897.63
413.687	914.58
414.065	921.59
414.442	983.28
414.819	962.26
415.197	968.14
415.574	1007.23
415.951	1006.78
416.328	1005.2
416.705	1017.4
417.082	998.87
417.46	1037.97
417.837	1052.43
418.214	1027.8
418.591	1064.86
418.967	1085.2
419.344	1122.03
419.721	1107.8
420.098	1113.22
420.475	1091.98
420.852	1138.76
421.228	1182.82
421.605	1145.53
421.982	1165.87
422.358	1184.18
422.735	1182.6
423.111	1219.21
423.488	1233.44
423.864	1239.32
424.241	1272.54
424.617	1279.09
424.994	1327.22
425.37	1292.42
425.746	1335.36
426.123	1342.14
426.499	1338.3
426.875	1344.4
427.251	1411.74
427.627	1418.07
428.003	1456.26
428.379	1470.72
428.756	1486.77
429.132	1499.42
429.507	1491.06
429.883	1513.89
430.259	1550.72
430.635	1578.74
431.011	1579.2
431.387	1601.79
431.763	1642.47
432.138	1695.12
432.514	1687.22
432.89	1685.86
433.265	1725.86
433.641	1771.28
434.016	1780.09
434.392	1828.23
434.767	1858.28
435.143	1886.08
435.518	1893.31
435.894	1918.4
436.269	1944.61
436.644	1968.11
437.02	1993.2
437.395	2010.6
437.77	2047.43
438.145	2091.72
438.52	2100.54
438.895	2133.31
439.271	2138.96
439.646	2192.51
440.021	2231.38
440.395	2204.49
440.77	2211.95
441.145	2223.25
441.52	2315
441.895	2295.56
442.27	2326.52
442.645	2322
443.019	2372.17
443.394	2376.24
443.769	2413.98
444.143	2398.16
444.518	2441.32
444.892	2419.63
445.267	2476.57
445.641	2491.26
446.016	2544.82
446.39	2516.12
446.764	2559.96
447.139	2548.21
447.513	2563.8
447.887	2558.38
448.262	2589.79
448.636	2664.36
449.01	2684.25
449.384	2702.33
449.758	2727.87
450.132	2785.94
450.506	2751.82
450.88	2785.27
451.254	2768.54
451.628	2850.12
452.002	2872.95
452.376	2895.09
452.75	2931.02
453.123	2961.53
453.497	2981.87
453.871	3027.97
454.244	3129.44
454.618	3115.65
454.992	3143
455.365	3188.87
455.739	3295.53
456.112	3297.34
456.486	3304.8
456.859	3329.88
457.232	3433.38
457.606	3430.45
457.979	3474.97
458.352	3543.44
458.725	3620.5
459.099	3643.77
459.472	3655.3
459.845	3725.81
460.218	3805.13
460.591	3783.88
460.964	3887.38
461.337	3941.62
461.71	3988.17
462.083	4038.57
462.456	4046.25
462.829	4051
463.201	4134.38
463.574	4142.07
463.947	4208.73
464.32	4246.02
464.692	4314.72
465.065	4353.81
465.438	4450.53
465.81	4465.9
466.183	4483.98
466.555	4602.17
466.928	4619.34
467.3	4608.95
467.672	4708.38
468.045	4807.13
468.417	4793.57
468.789	4856.62
469.161	4979.56
469.534	4944.08
469.906	5051.19
470.278	5128.25
470.65	5179.33
471.022	5268.14
471.394	5373.45
471.766	5366.21
472.138	5451.18
472.51	5603.95
472.882	5655.92
473.253	5736.37
473.625	5723.04
473.997	5896.6
474.369	5892.75
474.74	5959.42
475.112	6066.99
475.484	6131.17
475.855	6260.65
476.227	6293.87
476.598	6480.54
476.97	6520.53
477.341	6705.61
477.713	6705.39
478.084	6808.21
478.455	7029.9
478.827	7009.79
479.198	7192.16
479.569	7280.06
479.94	7477.12
480.311	7525.71
480.682	7659.04
481.053	7865.58
481.424	7962.76
481.795	8051.12
482.166	8138.8
482.537	8264.22
482.908	8406.13
483.279	8485.68
483.65	8760.7
484.021	8856.52
484.391	9009.96
484.762	9018.55
485.133	9160.47
485.503	9333.12
485.874	9528.14
486.244	9569.72
486.615	9770.39
486.985	9891.52
487.356	10081.35
487.726	10112.53
488.097	10354.56
488.467	10331.51
488.837	10609.69
489.207	10705.96
489.578	10918.61
489.948	11022.79
490.318	11214.42
490.688	11189.79
491.058	11414.64
491.428	11473.85
491.798	11603.56
492.168	11849.43
492.538	11872.71
492.908	12084.91
493.278	12187.05
493.648	12246.03
494.017	12424.33
494.387	12560.38
494.757	12645.8
495.126	12787.94
495.496	12850.31
495.866	12904.55
496.235	13077.42
496.605	13187.7
496.974	13212.79
497.344	13279.91
497.713	13450.97
498.082	13460.01
498.452	13596.51
498.821	13741.59
499.19	13756.5
499.559	13922.37
499.928	13981.81
500.298	14056.16
500.667	14163.95
501.036	14131.18
501.405	14360.33
501.774	14343.61
502.143	14439.87
502.512	14462.02
502.88	14631.28
503.249	14661.11
503.618	14657.04
503.987	14763.71
504.356	14848.68
504.724	14971.16
505.093	15024.72
505.462	15009.8
505.83	15094.55
506.199	15209.57
506.567	15367.99
506.936	15393.97
507.304	15471.71
507.672	15502.9
508.041	15623.35
508.409	15638.94
508.777	15704.7
509.145	15836.67
509.514	15888.42
509.882	16021.53
510.25	16000.06
510.618	16071.92
510.986	16124.58
511.354	16294.97
511.722	16382.65
512.09	16518.46
512.458	16534.73
512.826	16621.06
513.193	16705.8
513.561	16771.34
513.929	16835.29
514.297	16980.37
514.664	16975.18
515.032	16995.06
515.4	17161.61
515.767	17221.04
516.135	17211.55
516.502	17135.4
516.869	17461.49
517.237	17546.23
517.604	17401.6
517.972	17562.5
518.339	17644.54
518.706	17820.58
519.073	17677.3
519.44	17791.42
519.808	18016.5
520.175	18054.47
520.542	18141.7
520.909	18238.87
521.276	18221.7
521.643	18466.66
522.009	18432.54
522.376	18579.2
522.743	18609.26
523.11	18818.74
523.477	18938.74
523.843	18912.98
524.21	19190.03
524.577	19189.58
524.943	19248.34
525.31	19350.25
525.676	19561.55
526.043	19602.45
526.409	19696.46
526.776	19774.88
527.142	19762.22
527.508	19927.19
527.874	20121.31
528.241	20023.68
528.607	20126.5
528.973	20341.64
529.339	20238.59
529.705	20466.83
530.071	20533.5
530.437	20611.92
530.803	20646.04
531.169	20774.85
531.535	20729.2
531.901	20821.18
532.267	20714.29
532.632	20944.11
532.998	20945.47
533.364	21015.75
533.73	21037.67
534.095	21127.38
534.461	21104.56
534.826	21265.46
535.192	21215.06
535.557	21294.16
535.923	21188.85
536.288	21217.32
536.653	21239.7
537.019	21190.21
537.384	21270.66
537.749	21192.69
538.114	21233.14
538.479	21148.4
538.845	21267.49
539.21	21125.35
539.575	21186.14
539.94	21231.79
540.305	21301.62
540.67	21227.72
541.034	21176.87
541.399	21199.47
541.764	21187.72
542.129	21219.13
542.494	21179.36
542.858	21247.83
543.223	21090.1
543.587	21261.16
543.952	21117.44
544.316	21152.01
544.681	21021.17
545.045	21065.24
545.41	21051.68
545.774	21008.29
546.138	20988.85
546.503	21078.57
546.867	20880.61
547.231	21033.37
547.595	21026.59
547.959	20890.33
548.324	20862.3
548.688	20880.84
549.052	20918.57
549.416	20844.68
549.779	20731.46
550.143	20787.5
550.507	20884.68
550.871	20795.87
551.235	20756.32
551.599	20802.65
551.962	20817.79
552.326	20909.76
552.689	20793.61
553.053	20689.88
553.417	20681.97
553.78	20735.98
554.143	20753.38
554.507	20773.04
554.87	20633.84
555.234	20804.68
555.597	20605.14
555.96	20652.37
556.323	20782.98
556.686	20627.96
557.05	20761.74
557.413	20650.78
557.776	20623.89
558.139	20809.42
558.502	20768.97
558.865	20660.95
559.228	20853.27
559.59	20751.8
559.953	20675.42
560.316	20942.98
560.679	20943.66
561.041	20838.8
561.404	20986.6
561.767	21029.31
562.129	20991.34
562.492	21142.75
562.854	21082.86
563.217	21051
563.579	21140.04
563.941	21172.35
564.304	21250.09
564.666	21399.47
565.028	21349.98
565.39	21356.08
565.753	21448.96
566.115	21366.47
566.477	21598.33
566.839	21647.37
567.201	21691.66
567.563	21680.81
567.925	21804.65
568.287	21780.02
568.648	21879.45
569.01	22079.22
569.372	22167.81
569.734	22064.76
570.095	22205.32
570.457	22341.81
570.819	22283.06
571.18	22305.43
571.542	22489.83
571.903	22508.36
572.265	22631.07
572.626	22662.48
572.987	22714.01
573.349	22733.22
573.71	22830.84
574.071	22885.53
574.432	23110.38
574.794	23165.07
575.155	23139.53
575.516	23204.62
575.877	23313.77
576.238	23337.49
576.599	23383.59
576.96	23391.28
577.32	23438.51
577.681	23451.62
578.042	23603.93
578.403	23544.72
578.763	23654.55
579.124	23600.54
579.485	23840.53
579.845	23798.5
580.206	23716.69
580.566	23702.91
580.927	23723.7
581.287	23906.29
581.648	23875.33
582.008	23992.84
582.368	23915.11
582.728	24012.28
583.089	23932.51
583.449	23983.8
583.809	23962.34
584.169	24019.28
584.529	23975.9
584.889	24181.31
585.249	23947.65
585.609	23874.43
585.969	24003.69
586.329	23939.29
586.688	23932.05
587.048	24004.14
587.408	23940.42
587.768	23888.44
588.127	23943.35
588.487	23944.48
588.846	24100.41
589.206	23927.76
589.565	23905.61
589.925	23994.2
590.284	23953.07
590.643	23900.87
591.003	23941.32
591.362	23997.59
591.721	23941.77
592.08	23942.45
592.44	23913.75
592.799	23915.56
593.158	23991.04
593.517	23851.38
593.876	23960.53
594.235	24014.54
594.593	23886.63
594.952	23900.87
595.311	23883.02
595.67	23962.11
596.029	23978.83
596.387	24012.05
596.746	23979.51
597.104	23938.61
597.463	23867.42
597.822	23896.8
598.18	23899.96
598.538	23854.54
598.897	23971.83
599.255	23766.41
599.613	24094.08
599.972	24042.56
600.33	23967.53
600.688	23928.44
601.046	23916.91
601.404	23882.34
601.762	24006.85
602.12	24073.07
602.478	23985.39
602.836	23949.68
603.194	23871.04
603.552	24054.99
603.91	23937.7
604.268	23977.93
604.625	24023.58
604.983	24070.36
605.341	23838.95
605.698	24022
606.056	24189.45
606.413	23969.79
606.771	24163.91
607.128	24078.72
607.485	23952.39
607.843	24156
608.2	24158.04
608.557	24121.65
608.914	24150.81
609.272	24170.01
609.629	24320.07
609.986	24428.54
610.343	24291.82
610.7	24472.38
611.057	24322.1
611.414	24379.05
611.771	24458.37
612.127	24486.39
612.484	24527.97
612.841	24598.03
613.198	24475.09
613.554	24434.87
613.911	24586.73
614.267	24700.17
614.624	24606.84
614.98	24671.92
615.337	24845.7
615.693	24760.28
616.05	24751.69
616.406	24964.12
616.762	24755.31
617.118	24804.57
617.475	24929.54
617.831	24984.91
618.187	25004.79
618.543	24895.64
618.899	25082.08
619.255	25082.31
619.611	25047.96
619.967	25168.86
620.323	25286.37
620.678	25195.3
621.034	25065.58
621.39	25083.21
621.746	25179.03
622.101	25406.37
622.457	25207.73
622.812	25211.79
623.168	25287.5
623.523	25322.07
623.879	25290.89
624.234	25316.88
624.589	25300.15
624.945	25311
625.3	25332.47
625.655	25316.42
626.01	25337.67
626.365	25315.52
626.72	25385.12
627.075	25310.78
627.43	25346.71
627.785	25334.96
628.14	25219.93
628.495	25357.55
628.85	25371.34
629.205	25224.9
629.559	25388.29
629.914	25195.75
630.269	25329.76
630.623	25126.37
630.978	25206.6
631.332	25250.89
631.687	25191.23
632.041	25260.38
632.396	25150.33
632.75	25062.19
633.104	25148.97
633.459	24964.34
633.813	25117.11
634.167	25020.16
634.521	25047.96
634.875	24936.55
635.229	24883.89
635.583	24853.16
635.937	24882.54
636.291	24929.54
636.645	24830.34
636.999	24601.87
637.352	24828.75
637.706	24659.04
638.06	24744.69
638.413	24614.3
638.767	24599.61
639.121	24691.58
639.474	24582.66
639.828	24649.78
640.181	24502.66
640.534	24583.11
640.888	24525.26
641.241	24319.61
641.594	24450.23
641.947	24549.89
642.301	24466.28
642.654	24407.75
643.007	24422.66
643.36	24470.8
643.713	24384.7
644.066	24399.84
644.419	24271.25
644.771	24069.45
645.124	23848.44
645.477	23928.89
645.83	23897.25
646.182	23827.88
646.535	23873.52
646.888	23821.55
647.24	23735.9
647.593	23859.29
647.945	23818.61
648.298	23761.66
648.65	23656.58
649.002	23488.68
649.355	23481.9
649.707	23295.46
650.059	23424.72
650.411	23741.78
650.763	23869.46
651.115	24360.97
651.467	24200.07
651.819	24227.41
652.171	24041.2
652.523	24089.11
652.875	24144.93
653.227	24180.86
653.578	24276
653.93	24250.01
654.282	24142.44
654.633	24162.33
654.985	24174.08
655.337	24226.06
655.688	24049.79
656.039	24398.48
656.391	24124.37
656.742	24040.07
657.094	24065.84
657.445	24110.13
657.796	24228.77
658.147	24212.27
658.498	24326.17
658.849	24199.84
659.2	24294.08
659.551	24229
659.902	24337.24
660.253	24316
660.604	24379.27
660.955	24306.28
661.306	24384.7
661.656	24367.52
662.007	24528.2
662.358	24403.23
662.708	24436
663.059	24404.36
663.409	24269.22
663.76	24570
664.11	24553.96
664.461	24595.31
664.811	24554.41
665.161	24545.15
665.511	24394.19
665.862	24523.23
666.212	24566.16
666.562	24649.78
666.912	24558.48
667.262	24515.99
667.612	24531.81
667.962	24685.25
668.312	24596.22
668.662	24745.82
669.011	24700.4
669.361	24606.39
669.711	24658.36
670.06	24609.55
670.41	24606.16
670.76	24545.82
671.109	24729.1
671.459	24601.19
671.808	24459.5
672.157	24657.68
672.507	24527.07
672.856	24512.15
673.205	24506.5
673.554	24527.74
673.904	24447.97
674.253	24526.16
674.602	24444.13
674.951	24160.75
675.3	23964.6
675.649	24394.64
675.998	24466.96
676.346	24429.89
676.695	24342.67
677.044	24327.75
677.393	24255.89
677.741	24300.86
678.09	24331.82
678.438	24127.76
678.787	24268.54
679.135	24299.95
679.484	24123.69
679.832	24188.77
680.181	24147.64
680.529	23999.17
680.877	23937.7
681.225	23987.42
681.573	24055.44
681.922	23889.8
682.27	23795.56
682.618	23803.92
682.966	23833.75
683.314	23881.21
683.661	23732.51
684.009	23579.3
684.357	23572.74
684.705	23494.1
685.053	23578.62
685.4	23313.99
685.748	23368.45
686.095	23350.15
686.443	23154.45
686.79	23157.16
687.138	23222.47
687.485	23126.43
687.832	23113.54
688.18	23000.78
688.527	22971.85
688.874	22852.08
689.221	22899.99
689.568	22699.54
689.915	22566.89
690.262	22619.77
690.609	22481.7
690.956	22394.24
691.303	22381.36
691.65	22348.37
691.997	22215.72
692.344	22095.49
692.69	22027.7
693.037	22010.97
693.383	21945.67
693.73	21893.46
694.077	21760.36
694.423	21640.82
694.769	21610.53
695.116	21565.11
695.462	21421.16
695.808	21388.62
696.155	21340.94
696.501	21227.27
696.847	21201.73
697.193	20994.5
697.539	20990.21
697.885	20841.51
698.231	20826.6
698.577	20795.41
698.923	20742.31
699.269	20605.14
699.614	20411.24
699.96	20312.04
700.306	20215.32
700.651	20130.12
700.997	20139.84
701.342	19957.92
701.688	19995.66
702.033	19882.22
702.379	19986.85
702.724	19818.72
703.069	19726.97
703.415	19618.04
703.76	19572.39
704.105	19565.16
704.45	19466.41
704.795	19378.73
705.14	19247.66
705.485	19223.48
705.83	19057.38
706.175	19225.29
706.52	19136.02
706.865	18978.96
707.209	19011.05
707.554	18940.1
707.899	18965.18
708.243	18777.84
708.588	18781.91
708.932	18707.11
709.277	18766.77
709.621	18663.49
709.966	18605.19
710.31	18604.06
710.654	18371.3
710.998	18447.45
711.342	18534.23
711.687	18374.23
712.031	18288.13
712.375	18242.49
712.719	18187.35
713.063	18216.72
713.407	18287.91
713.75	18139.44
714.094	18104.18
714.438	18140.79
714.782	18064.19
715.125	17988.03
715.469	18198.65
715.812	17996.84
716.156	17987.8
716.499	17953
716.843	18016.96
717.186	17936.28
717.53	17997.07
717.873	18044.75
718.216	17929.27
718.559	17912.33
718.902	17705.55
719.246	17773.8
719.589	17921.14
719.932	17678.43
720.275	17821.71
720.617	17870.29
720.96	17710.07
721.303	17736.51
721.646	17807.02
721.989	17719.56
722.331	17774.25
722.674	17824.64
723.016	17818.77
723.359	17784.87
723.701	17762.05
724.044	17795.04
724.386	17715.95
724.729	17859.45
725.071	17877.75
725.413	17797.3
725.755	17769.73
726.097	17710.97
726.439	17740.8
726.782	17651.99
727.124	17809.05
727.465	17830.97
727.807	17817.86
728.149	17879.11
728.491	17695.83
728.833	17840.69
729.175	17907.81
729.516	17797.07
729.858	17859.22
730.199	17835.94
730.541	17809.5
730.882	17807.7
731.224	17936.51
731.565	17875.94
731.906	17899.9
732.248	17995.71
732.589	17919.11
732.93	18002.72
733.271	17982.61
733.612	18052.89
733.953	18120.23
734.294	18120
734.635	18059.67
734.976	18225.76
735.317	18236.84
735.658	18220.11
735.999	18260.79
736.339	18252.43
736.68	18401.58
737.021	18441.13
737.361	18413.1
737.702	18637.73
738.042	18589.14
738.383	18621.46
738.723	18783.04
739.063	18726.77
739.404	18834.79
739.744	18880.89
740.084	18873.43
740.424	18994.11
740.764	19070.26
741.104	19231.16
741.444	19290.82
741.784	19240.65
742.124	19404.72
742.464	19447.88
742.804	19520.64
743.143	19673.64
743.483	19775.55
743.823	19808.55
744.162	19890.8
744.502	20192.94
744.841	20082.44
745.181	20241.08
745.52	20326.95
745.86	20579.37
746.199	20768.52
746.538	20837.67
746.877	21036.76
747.216	21099.36
747.556	21281.95
747.895	21400.37
748.234	21575.96
748.573	21668.84
748.911	21756.07
749.25	22008.94
749.589	22088.04
749.928	22433.11
750.267	22714.69
750.605	22760.56
750.944	22972.53
751.283	23160.1
751.621	23481.67
751.96	23569.35
752.298	23726.86
752.636	23980.41
752.975	24178.6
753.313	24405.49
753.651	24800.73
753.989	24917.34
754.327	25127.5
754.666	25310.1
755.004	25682.97
755.342	25801.16
755.679	26133.35
756.017	26145.33
756.355	26610.85
756.693	26749.61
757.031	27081.58
757.368	27219.65
757.706	27552.07
758.044	27668.91
758.381	27848.11
758.719	28226.86
759.056	28392.28
759.394	28529.22
759.731	28714.75
760.068	28957.23
760.405	29259.37
760.743	29274.51
761.08	29770.54
761.417	29889.19
761.754	29991.78
762.091	30250.53
762.428	30303.41
762.765	30472.22
763.102	30805.32
763.438	30958.76
763.775	30945.88
764.112	31227.46
764.449	31345.87
764.785	31592.42
765.122	31636.94
765.458	31693.43
765.795	31918.06
766.131	32066.98
766.467	32140.88
766.804	32105.4
767.14	32305.85
767.476	32392.85
767.812	32511.49
768.148	32852.72
768.485	32793.52
768.821	32762.33
769.157	32791.48
769.492	32981.31
769.828	33113.96
770.164	32947.41
770.5	32916
770.836	33170.68
771.171	33100.17
771.507	33151.7
771.842	32981.99
772.178	33196.22
772.513	33206.39
772.849	33266.5
773.184	33192.6
773.519	33285.25
773.855	33173.39
774.19	33172.72
774.525	33241.41
774.86	33339.04
775.195	33240.51
775.53	33245.26
775.865	33158.25
776.2	33050.91
776.535	32962.55
776.87	33040.29
777.205	32911.25
777.539	32846.62
777.874	32965.72
778.209	32840.52
778.543	32968.65
778.878	32757.81
779.212	32889.78
779.547	32620.41
779.881	32733.18
780.215	32566.63
780.55	32721.88
780.884	32438.72
781.218	32491.83
781.552	32614.76
781.886	32377.48
782.22	32199.18
782.554	32132.06
782.888	31876.48
783.222	31929.13
783.556	31959.19
783.889	31858.85
784.223	31662.92
784.557	31689.14
784.89	31739.98
785.224	31498.86
785.557	31480.56
785.891	31468.13
786.224	31417.51
786.558	31364.63
786.891	31097.29
787.224	31055.26
787.557	31040.57
787.891	30917.86
788.224	30728.94
788.557	30730.29
788.89	30835.38
789.223	30748.37
789.556	30461.37
789.888	30479.23
790.221	30382.73
790.554	30355.16
790.887	30342.96
791.219	30132.57
791.552	30107.71
791.884	30044.66
792.217	30016.41
792.549	29813.48
792.882	29797.44
793.214	29596.76
793.546	29718.12
793.879	29503.66
794.211	29344.57
794.543	29533.94
794.875	29304.12
795.207	29387.28
795.539	29272.03
795.871	29345.92
796.203	29191.35
796.535	28972.83
796.867	28895.99
797.198	28830.91
797.53	28816.45
797.862	28609.9
798.193	28744.36
798.525	28577.58
798.856	28719.5
799.188	28218.95
799.519	28314.31
799.85	28202.22
800.182	28250.13
800.513	28322.22
800.844	27898.05
801.175	28161.55
801.506	28153.41
801.837	28036.13
802.168	27962
802.499	27844.49
802.83	27632.52
803.161	27665.52
803.491	27644.27
803.822	27758.85
804.153	27509.59
804.483	27406.99
804.814	27267.56
805.145	27210.16
805.475	27108.69
805.805	27246.09
806.136	27283.6
806.466	27014.69
806.796	27152.53
807.126	26776.5
807.457	26816.5
807.787	26971.3
808.117	26694.02
808.447	26726.56
808.777	26873.22
809.107	26482.72
809.436	26476.85
809.766	26549.61
810.096	26532.21
810.426	26314.36
810.755	26335.61
811.085	26192.56
811.414	26379.9
811.744	26190.98
812.073	26209.06
812.403	26153.24
812.732	25941.49
813.061	26188.94
813.39	25872.57
813.719	25840.7
814.049	25978.55
814.378	25965
814.707	25720.71
815.036	25764.77
815.365	25560.71
815.693	25581.73
816.022	25560.03
816.351	25429.19
816.68	25342.41
817.008	25397.33
817.337	25270.1
817.665	25266.03
817.994	25204.56
818.322	25329.76
818.651	25160.95
818.979	25028.97
819.307	25093.38
819.636	25010.67
819.964	24977.9
820.292	24962.76
820.62	25095.87
820.948	24998.69
821.276	25236.2
821.604	25022.87
821.932	25069.43
822.259	25052.48
822.587	25013.38
822.915	24874.18
823.243	25024
823.57	24939.94
823.898	24973.16
824.225	24983.78
824.553	25054.74
824.88	25123.44
825.207	25088.86
825.535	24972.03
825.862	25115.53
826.189	24979.03
826.516	25203.89
826.843	25242.98
827.17	25237.78
827.497	25210.66
827.824	25219.93
828.151	25214.28
828.478	25118.01
828.805	25209.99
829.131	25215.41
829.458	25138.12
829.785	25016.32
830.111	25203.89
830.438	25212.92
830.764	25217.22
831.09	25289.76
831.417	25135.19
831.743	25365.24
832.069	25205.47
832.395	25192.36
832.722	25195.3
833.048	25101.97
833.374	25271.23
833.7	25069.2
834.026	25146.94
834.351	25027.84
834.677	25114.4
835.003	25152.36
835.329	25046.15
835.654	25094.51
835.98	24940.84
836.306	25091.57
836.631	25049.09
836.956	25195.07
837.282	25092.02
837.607	24980.84
837.932	24948.3
838.258	24810.68
838.583	24968.86
838.908	24843.44
839.233	24930.22
839.558	24823.1
839.883	24677.35
840.208	24618.59
840.533	24625.6
840.858	24600.06
841.182	24631.47
841.507	24480.51
841.832	24474.41
842.156	24436.45
842.481	24359.39
842.805	24403
843.13	24225.38
843.454	24345.83
843.778	24187.19
844.103	24279.39
844.427	24087.98
844.751	24148.55
845.075	24168.88
845.399	23986.52
845.723	23924.14
846.047	23969.12
846.371	23778.61
846.695	23641.67
847.019	23625.85
847.343	23382.24
847.666	23392.41
847.99	23257.72
848.313	23082.59
848.637	23132.08
848.96	23043.49
849.284	23103.38
849.607	22869.48
849.931	22946.77
850.254	22731.18
850.577	22507.46
850.9	22426.78
851.223	22442.6
851.546	22304.3
851.869	22166.9
852.192	22446.22
852.515	22076.06
852.838	21971.2
853.161	21937.53
853.483	21820.47
853.806	21801.04
854.129	21817.53
854.451	21762.62
854.774	21568.95
855.096	21551.33
855.419	21376.64
855.741	21413.25
856.063	21331.44
856.385	21301.62
856.708	21292.12
857.03	21232.92
857.352	21133.71
857.674	21085.12
857.996	20925.81
858.318	20879.71
858.64	20820.5
858.961	20853.72
859.283	20695.98
859.605	20605.59
859.926	20629.09
860.248	20598.13
860.57	20528.53
860.891	20503.22
861.212	20491.92
861.534	20437.91
861.855	20205.82
862.176	20315.43
862.498	20267.07
862.819	20326.95
863.14	20264.13
863.461	20148.2
863.782	20046.51
864.103	20061.87
864.424	20026.39
864.745	20084.47
865.065	19931.93
865.386	19838.6
865.707	19914.76
866.027	19840.64
866.348	19848.32
866.668	19743.46
866.989	19791.6
867.309	19638.61
867.63	19677.48
867.95	19761.99
868.27	19542.11
868.59	19646.29
868.91	19466.64
869.23	19457.82
869.55	19435.9
869.87	19534.88
870.19	19363.81
870.51	19388.9
870.83	19417.14
871.15	19214.66
871.469	19307.77
871.789	19285.4
872.109	19302.8
872.428	19140.09
872.748	19269.8
873.067	19161.56
873.386	19146.87
873.706	19121.33
874.025	19039.3
874.344	18977.61
874.663	19083.82
874.982	18976.48
875.301	18958.85
875.62	18863.71
875.939	18820.55
876.258	18850.38
876.577	18741.91
876.896	18785.52
877.214	18660.33
877.533	18739.87
877.852	18683.15
878.17	18584.4
878.489	18626.21
878.807	18694
879.125	18541.46
879.444	18540.11
879.762	18474.34
880.08	18505.98
880.398	18355.7
880.716	18429.6
881.034	18403.39
881.352	18344.18
881.67	18302.82
881.988	18313.67
882.306	18232.54
882.624	18160.91
882.941	18039.33
883.259	18044.75
883.577	18059.44
883.894	17929.73
884.212	17898.09
884.529	17916.62
884.846	17987.58
885.164	17819.67
885.481	17763.4
885.798	17823.29
886.115	17614.03
886.432	17675.27
886.75	17633.46
887.067	17587.14
887.383	17595.05
887.7	17596.4
888.017	17407.93
888.334	17453.35
888.651	17394.15
888.967	17371.1
889.284	17233.93
889.6	17204.55
889.917	17181.5
890.233	17282.06
890.55	17200.71
890.866	17076.42
891.182	17008.17
891.498	17064.44
891.815	16943.31
892.131	16886.59
892.447	16761.62
892.763	16733.37
893.079	16669.42
893.395	16605.69
893.71	16609.31
894.026	16576.09
894.342	16614.96
894.657	16419.94
894.973	16509.65
895.289	16449.09
895.604	16329.32
895.92	16267.85
896.235	16240.28
896.55	16123.67
896.865	16139.49
897.181	16039.61
897.496	16094.75
897.811	15956.44
898.126	15907.86
898.441	15880.51
898.756	15825.37
899.071	15760.07
899.386	15745.15
899.7	15549.22
900.015	15476.91
900.33	15460.41
900.644	15459.28
900.959	15419.06
901.273	15400.98
901.588	15228.55
901.902	15278.72
902.216	15212.28
902.531	15146.97
902.845	15048.22
903.159	15030.14
903.473	14924.38
903.787	14895.46
904.101	14838.96
904.415	14826.31
904.729	14770.26
905.042	14677.38
905.356	14603.94
905.67	14616.14
905.984	14536.14
906.297	14542.24
906.611	14464.28
906.924	14285.08
907.237	14288.01
907.551	14267.68
907.864	14159.2
908.177	14151.29
908.491	14077.17
908.804	14010.28
909.117	13955.14
909.43	13833.56
909.743	13841.47
910.056	13787.69
910.368	13731.87
910.681	13629.95
910.994	13592.89
911.307	13524.64
911.619	13424.76
911.932	13389.28
912.244	13311.32
912.557	13291.43
912.869	13196.29
913.181	13162.39
913.494	13177.08
913.806	13099.57
914.118	13034.94
914.43	12995.84
914.742	12974.83
915.054	12868.16
915.366	12791.78
915.678	12771.9
915.99	12632.46
916.302	12580.49
916.613	12550.88
916.925	12590.66
917.236	12573.26
917.548	12460.72
917.859	12448.06
918.171	12426.59
918.482	12296.65
918.794	12258.91
919.105	12174.62
919.416	12174.62
919.727	12072.48
920.038	12056.43
920.349	11940.51
920.66	11955.87
920.971	11934.18
921.282	11930.56
921.593	11727.18
921.903	11688.31
922.214	11714.75
922.525	11662.09
922.835	11587.75
923.146	11528.99
923.456	11564.02
923.767	11451.7
924.077	11491.7
924.387	11443.12
924.697	11324.25
925.008	11303.91
925.318	11261.65
925.628	11222.56
925.938	11179.62
926.248	11137.36
926.558	11001.09
926.867	10973.98
927.177	10962
927.487	10920.87
927.796	10834.32
928.106	10810.14
928.416	10740.99
928.725	10742.8
929.034	10682.91
929.344	10687.2
929.653	10602.01
929.962	10448.12
930.271	10507.32
930.581	10507.32
930.89	10381
931.199	10369.25
931.508	10377.16
931.817	10220.55
932.125	10254
932.434	10241.11
932.743	10118.63
933.051	10130.38
933.36	10096.94
933.669	10012.87
933.977	9967.68
934.286	9985.08
934.594	9867.79
934.902	9855.14
935.21	9790.96
935.519	9742.37
935.827	9723.84
936.135	9705.99
936.443	9597.74
936.751	9474.81
937.059	9514.81
937.367	9458.08
937.674	9505.54
937.982	9440.01
938.29	9389.61
938.597	9424.87
938.905	9250.41
939.213	9309.61
939.52	9186.45
939.827	9303.96
940.135	9210.18
940.442	9111.65
940.749	9064.65
941.056	9083.41
941.363	8974.26
941.67	9015.84
941.977	8920.25
942.284	8829.4
942.591	8874.6
942.898	8855.84
943.205	8795.73
943.511	8713.47
943.818	8719.8
944.125	8654.26
944.431	8606.36
944.738	8547.37
945.044	8493.59
945.35	8438.45
945.657	8428.96
945.963	8442.29
946.269	8408.62
946.575	8367.04
946.881	8308.06
947.187	8273.48
947.493	8256.76
947.799	8213.82
948.105	8148.51
948.41	8056.31
948.716	8078.91
949.022	7981.97
949.327	7998.69
949.633	7917.79
949.938	7976.99
950.244	7921.85
950.549	7876.88
950.854	7795.08
951.16	7823.1
951.465	7753.27
951.77	7742.88
952.075	7634.4
952.38	7641.41
952.685	7625.36
952.99	7550.11
953.294	7598.92
953.599	7531.58
953.904	7446.61
954.209	7391.92
954.513	7401.19
954.818	7395.77
955.122	7372.26
955.426	7341.08
955.731	7292.72
956.035	7298.59
956.339	7214.53
956.643	7179.5
956.948	7106.28
957.252	7134.08
957.556	7057.24
957.86	7011.6
958.163	7056.79
958.467	6993.06
958.771	6997.13
959.075	7000.3
959.378	6831.94
959.682	6856.57
959.985	6836.01
960.289	6819.96
960.592	6763.24
960.896	6697.25
961.199	6682.11
961.502	6680.3
961.805	6675.33
962.108	6569.8
962.411	6654.32
962.714	6581.1
963.017	6596.01
963.32	6587.65
963.623	6529.8
963.926	6484.83
964.228	6393.76
964.531	6435.79
964.833	6366.41
965.136	6362.35
965.438	6271.5
965.741	6270.6
966.043	6242.8
966.345	6244.84
966.648	6252.75
966.95	6169.58
967.252	6113.54
967.554	6116.93
967.856	6103.82
968.158	6028.57
968.46	6066.08
968.761	6001
969.063	6006.42
969.365	5946.31
969.666	5948.35
969.968	5881.23
970.269	5875.35
970.571	5819.54
970.872	5839.42
971.174	5784.28
971.475	5750.84
971.776	5735.24
972.077	5706.77
972.378	5725.53
972.679	5604.63
972.98	5677.17
973.281	5581.58
973.582	5545.19
973.883	5529.6
974.183	5513.33
974.484	5512.88
974.785	5447.57
975.085	5495.25
975.386	5513.78
975.686	5395.59
975.986	5354.46
976.287	5365.99
976.587	5321.47
976.887	5354.92
977.187	5306.56
977.487	5295.03
977.787	5237.18
978.087	5231.98
978.387	5121.48
978.687	5101.59
978.987	5163.73
979.286	5065.66
979.586	5116.5
979.885	5094.81
980.185	5078.54
980.484	4975.49
980.784	5007.35
981.083	4987.24
981.382	4974.59
981.682	4936.4
981.981	4935.49
982.28	4892.55
982.579	4852.1
982.878	4907.02
983.177	4833.8
983.475	4764.2
983.774	4749.06
984.073	4735.04
984.372	4718.32
984.67	4735.27
984.969	4716.29
985.267	4714.48
985.566	4653.01
985.864	4641.04
986.162	4632.67
986.461	4577.76
986.759	4536.18
987.057	4512.45
987.355	4472.45
987.653	4447.82
987.951	4461.38
988.249	4385.9
988.547	4446.69
988.844	4411.89
989.142	4354.04
989.44	4353.36
989.737	4352
990.035	4306.58
990.332	4277.66
990.63	4277.66
990.927	4275.85
991.224	4237.43
991.521	4185.45
991.819	4164.21
992.116	4128.28
992.413	4141.61
992.71	4150.43
993.006	4110.88
993.303	4098.9
993.6	4057.32
993.897	4028.85
994.193	3996.08
994.49	3964.22
994.787	3982.97
995.083	3970.77
995.379	3970.77
995.676	3938.68
995.972	3923.77
996.268	3874.95
996.565	3873.82
996.861	3865.92
997.157	3840.61
997.453	3817.78
997.749	3771.23
998.044	3786.14
998.34	3787.5
998.636	3751.12
998.932	3700.72
999.227	3686.94
999.523	3695.52
999.818	3650.33
1000.114	3644.23
1000.409	3590.67
1000.704	3583.44
1001	3568.3
1001.295	3555.41
1001.59	3531.23
1001.885	3504.34
1002.18	3509.09
1002.475	3461.18
1002.77	3446.72
1003.065	3450.56
1003.359	3412.82
1003.654	3408.3
1003.949	3384.35
1004.243	3308.64
1004.538	3303.22
1004.832	3325.59
1005.127	3322.2
1005.421	3259.15
1005.715	3223.67
1006.009	3254.63
1006.304	3260.28
1006.598	3206.95
1006.892	3232.03
1007.186	3159.72
1007.48	3171.92
1007.773	3099.61
1008.067	3117.46
1008.361	3041.08
1008.655	3107.07
1008.948	3034.52
1009.242	3033.85
1009.535	3016.67
1009.829	2991.59
1010.122	2981.19
1010.415	2924.92
1010.708	2917.24
1011.001	2873.4
1011.295	2856.9
1011.588	2886.28
1011.881	2848.99
1012.173	2813.29
1012.466	2811.48
1012.759	2804.7
1013.052	2800.41
1013.344	2769.67
1013.637	2749.56
1013.93	2786.17
1014.222	2739.39
1014.514	2699.84
1014.807	2704.82
1015.099	2641.09
1015.391	2651.48
1015.683	2621.88
1015.976	2611.03
1016.268	2607.42
1016.56	2565.16
1016.851	2525.16
1017.143	2503.69
1017.435	2544.37
1017.727	2498.72
1018.018	2493.75
1018.31	2461.88
1018.602	2445.84
1018.893	2420.53
1019.185	2413.07
1019.476	2420.98
1019.767	2414.2
1020.058	2380.08
1020.35	2361.77
1020.641	2329.91
1020.932	2280.19
1021.223	2299.63
1021.514	2273.64
1021.804	2259.4
1022.095	2216.24
1022.386	2237.03
1022.677	2228.44
1022.967	2219.86
1023.258	2159.97
1023.548	2166.07
1023.839	2142.8
1024.129	2155.68
1024.419	2101.22
1024.709	2114.1
1025	2090.82
1025.29	2098.96
1025.58	2065.51
1025.87	2067.32
1026.16	2037.49
1026.449	2042.46
1026.739	2035.68
1027.029	2020.09
1027.319	2001.33
1027.608	1979.86
1027.898	1952.75
1028.187	1931.28
1028.477	1967.66
1028.766	1905.97
1029.055	1898.51
1029.344	1913.2
1029.634	1857.83
1029.923	1840.43
1030.212	1824.84
1030.501	1847.89
1030.79	1818.96
1031.078	1823.94
1031.367	1789.13
1031.656	1802.92
1031.945	1779.64
1032.233	1757.72
1032.522	1725.18
1032.81	1719.31
1033.099	1736.93
1033.387	1697.84
1033.675	1694
1033.963	1682.02
1034.251	1686.76
1034.54	1653.32
1034.828	1656.03
1035.116	1630.04
1035.403	1638.18
1035.691	1622.36
1035.979	1568.12
1036.267	1587.56
1036.554	1570.38
1036.842	1548.01
1037.129	1537.39
1037.417	1562.93
1037.704	1548.91
1037.992	1539.65
1038.279	1505.07
1038.566	1503.04
1038.853	1503.04
1039.14	1503.04
