Data from 18-4330_FLMS001491_009.txt Node
Date: Thu Apr 19 16:43:44 BST 2018
User: hsy
Spectrometer: FLMS00149
Trigger mode: 0
Integration Time (sec): 1.000000E-2
Scans to average: 10
Electric dark correction enabled: true
Nonlinearity correction enabled: false
Boxcar width: 0
XAxis mode: Wavelengths
Number of Pixels in Spectrum: 2048
>>>>>Begin Spectral Data<<<<<
341.393	-21.99
341.776	-21.99
342.16	-21.99
342.543	-66.74
342.927	-54.53
343.31	-80.07
343.693	-44.59
344.077	-66.51
344.46	-57.7
344.843	-39.62
345.226	-53.85
345.61	-39.17
345.993	-13.63
346.376	2.19
346.759	10.78
347.142	43.77
347.525	46.93
347.908	35.86
348.291	71.11
348.674	78.8
349.057	105.69
349.44	114.05
349.823	125.58
350.206	181.62
350.588	192.47
350.971	241.05
351.354	243.31
351.737	262.75
352.119	295.29
352.502	297.77
352.884	286.93
353.267	302.97
353.65	335.06
354.032	326.47
354.414	342.97
354.797	336.42
355.179	327.15
355.562	341.84
355.944	357.21
356.326	363.31
356.709	368.28
357.091	366.47
357.473	377.77
357.855	354.04
358.238	364.67
358.62	386.59
359.002	371.9
359.384	369.19
359.766	371.9
360.148	379.58
360.53	368.51
360.912	370.99
361.294	361.95
361.676	359.92
362.057	389.07
362.439	358.79
362.821	360.6
363.203	387.04
363.584	356.08
363.966	352.46
364.348	346.36
364.729	379.81
365.111	361.5
365.493	333.48
365.874	347.26
366.256	347.94
366.637	353.59
367.019	360.15
367.4	369.19
367.781	345.01
368.163	350.2
368.544	366.25
368.925	348.39
369.306	343.2
369.688	352.24
370.069	370.32
370.45	354.5
370.831	357.21
371.212	364.67
371.593	354.72
371.974	347.72
372.355	371.67
372.736	381.61
373.117	340.71
373.498	363.08
373.879	367.38
374.26	356.3
374.641	376.19
375.021	353.82
375.402	376.87
375.783	364.89
376.163	401.5
376.544	374.83
376.925	381.39
377.305	372.8
377.686	393.59
378.066	391.11
378.447	388.17
378.827	395.17
379.208	410.54
379.588	395.4
379.968	384.1
380.349	410.54
380.729	413.48
381.109	393.14
381.489	407.6
381.87	429.07
382.25	407.15
382.63	403.08
383.01	421.39
383.39	437.66
383.77	415.74
384.15	434.95
384.53	418
384.91	432.46
385.29	409.86
385.67	433.36
386.049	439.24
386.429	446.92
386.809	453.48
387.189	449.18
387.568	443.53
387.948	459.8
388.328	440.6
388.707	462.06
389.087	456.19
389.466	462.06
389.846	453.25
390.225	469.07
390.605	475.17
390.984	487.83
391.363	486.92
391.743	484.44
392.122	505.45
392.501	504.55
392.881	502.52
393.26	488.28
393.639	512.01
394.018	510.88
394.397	514.94
394.776	510.88
395.155	520.59
395.534	516.75
395.913	523.31
396.292	536.19
396.671	539.8
397.05	566.92
397.429	547.49
397.808	547.26
398.186	558.56
398.565	570.76
398.944	575.06
399.323	570.76
399.701	585.22
400.08	592
400.458	593.59
400.837	601.72
401.215	626.58
401.594	603.53
401.972	615.96
402.351	623.64
402.729	637.88
403.107	639.46
403.486	647.6
403.864	639.69
404.242	635.84
404.62	659.35
404.999	641.95
405.377	676.07
405.755	674.49
406.133	691.44
406.511	689.18
406.889	712.23
407.267	727.59
407.645	710.19
408.023	736.41
408.401	762.85
408.779	741.15
409.156	765.11
409.534	792.68
409.912	783.86
410.29	809.4
410.667	806.24
411.045	813.69
411.422	843.97
411.8	874.71
412.178	861.15
412.555	861.6
412.933	892.34
413.31	932.11
413.687	927.59
414.065	932.33
414.442	932.79
414.819	947.48
415.197	954.48
415.574	984.08
415.951	980.24
416.328	999.23
416.705	996.29
417.082	1016.4
417.46	1037.64
417.837	1033.35
418.214	1047.59
418.591	1037.42
418.967	1044.65
419.344	1067.25
419.721	1083.74
420.098	1091.43
420.475	1112.44
420.852	1107.47
421.228	1124.19
421.605	1158.99
421.982	1137.75
422.358	1169.62
422.735	1196.73
423.111	1224.53
423.488	1224.53
423.864	1270.86
424.241	1250.52
424.617	1278.77
424.994	1319.89
425.37	1312.66
425.746	1306.79
426.123	1341.14
426.499	1349.27
426.875	1376.62
427.251	1397.63
427.627	1414.13
428.003	1432.21
428.379	1471.08
428.756	1476.27
429.132	1485.09
429.507	1503.62
429.883	1521.47
430.259	1530.96
430.635	1598.53
431.011	1587.23
431.387	1625.42
431.763	1668.59
432.138	1633.56
432.514	1658.64
432.89	1705.87
433.265	1728.7
433.641	1774.35
434.016	1760.56
434.392	1806.21
434.767	1865.42
435.143	1855.7
435.518	1897.51
435.894	1928.01
436.269	1931.4
436.644	1990.84
437.02	1990.84
437.395	2021.35
437.77	2041.23
438.145	2089.14
438.52	2137.27
438.895	2124.85
439.271	2127.33
439.646	2160.55
440.021	2209.36
440.395	2218.63
440.77	2205.97
441.145	2246.2
441.52	2251.62
441.895	2317.38
442.27	2307.89
442.645	2283.26
443.019	2354.22
443.394	2380.88
443.769	2394.22
444.143	2359.64
444.518	2431.05
444.892	2412.07
445.267	2471.5
445.641	2469.24
446.016	2469.92
446.39	2527.77
446.764	2521.9
447.139	2526.19
447.513	2544.95
447.887	2622.23
448.262	2600.31
448.636	2645.96
449.01	2638.96
449.384	2704.49
449.758	2708.33
450.132	2762.79
450.506	2733.42
450.88	2796.01
451.254	2816.13
451.628	2819.74
452.002	2863.13
452.376	2871.04
452.75	2921.66
453.123	2945.39
453.497	2998.27
453.871	3035.33
454.244	3069.91
454.618	3052.5
454.992	3186.74
455.365	3209.79
455.739	3253.4
456.112	3295.89
456.486	3321.2
456.859	3313.29
457.232	3422.89
457.606	3446.17
457.979	3463.12
458.352	3529.1
458.725	3607.74
459.099	3601.42
459.472	3651.58
459.845	3726.61
460.218	3736.33
460.591	3795.08
460.964	3853.39
461.337	3934.06
461.71	3938.81
462.083	4003.44
462.456	4004.8
462.829	4037.11
463.201	4122.98
463.574	4098.35
463.947	4166.6
464.32	4247.05
464.692	4269.2
465.065	4341.51
465.438	4385.58
465.81	4461.73
466.183	4447.27
466.555	4595.29
466.928	4611.33
467.3	4601.16
467.672	4645.46
468.045	4743.08
468.417	4802.51
468.789	4859.91
469.161	4882.96
469.534	5005.9
469.906	5026.46
470.278	5082.06
470.65	5136.52
471.022	5259.45
471.394	5325.44
471.766	5353.69
472.138	5460.12
472.51	5531.08
472.882	5606.79
473.253	5665.54
473.625	5751.19
473.997	5849.95
474.369	5873.45
474.74	5930.39
475.112	6038.87
475.484	6130.39
475.855	6251.74
476.227	6266.43
476.598	6447.22
476.97	6520.44
477.341	6653.77
477.713	6748.9
478.084	6776.25
478.455	6967.88
478.827	7016.47
479.198	7236.8
479.569	7221.43
479.94	7429.34
480.311	7491.03
480.682	7663.23
481.053	7836.79
481.424	7932.38
481.795	7937.57
482.166	8191.58
482.537	8196.55
482.908	8384.34
483.279	8463.66
483.65	8675.86
484.021	8815.29
484.391	8890.54
484.762	9049.41
485.133	9040.6
485.503	9217.99
485.874	9415.73
486.244	9486.46
486.615	9739.56
486.985	9765.32
487.356	10027.01
487.726	10120.57
488.097	10291.18
488.467	10264.97
488.837	10542.93
489.207	10606.2
489.578	10848.01
489.948	10918.74
490.318	11070.15
490.688	11200.99
491.058	11346.52
491.428	11470.14
491.798	11525.5
492.168	11752.84
492.538	11893.85
492.908	12010.91
493.278	12153.73
493.648	12151.93
494.017	12308.76
494.387	12434.86
494.757	12569.77
495.126	12695.19
495.496	12747.84
495.866	12901.51
496.235	12973.15
496.605	13092.47
496.974	13143.99
497.344	13264.44
497.713	13349.41
498.082	13520.03
498.452	13507.37
498.821	13612
499.19	13587.37
499.559	13820.36
499.928	13891.32
500.298	13915.72
500.667	14066
501.036	14086.11
501.405	14172.44
501.774	14244.75
502.143	14335.6
502.512	14340.57
502.88	14526.55
503.249	14521.81
503.618	14554.12
503.987	14708.47
504.356	14665.08
504.724	14803.16
505.093	14793.66
505.462	14974
505.83	14917.96
506.199	15095.8
506.567	15250.6
506.936	15287.44
507.304	15410.82
507.672	15417.83
508.041	15403.14
508.409	15632.96
508.777	15661.44
509.145	15733.53
509.514	15714.09
509.882	15811.04
510.25	15834.32
510.618	16104.59
510.986	15929.45
511.354	16044.03
511.722	16147.3
512.09	16341.65
512.458	16364.02
512.826	16423.68
513.193	16408.99
513.561	16531.02
513.929	16683.56
514.297	16693.28
514.664	16827.28
515.032	16940.5
515.4	16957.9
515.767	17004.45
516.135	17077.22
516.502	16902.54
516.869	17166.71
517.237	17357.89
517.604	17111.34
517.972	17480.37
518.339	17439.7
518.706	17460.94
519.073	17578.9
519.44	17557.66
519.808	17750.42
520.175	17703.64
520.542	17949.97
520.909	18057.31
521.276	18006.91
521.643	18223.18
522.009	18236.96
522.376	18382.5
522.743	18359.22
523.11	18630.4
523.477	18733.45
523.843	18771.19
524.21	18859.09
524.577	19016.38
524.943	19042.82
525.31	19155.36
525.676	19290.5
526.043	19334.79
526.409	19281
526.776	19557.83
527.142	19610.49
527.508	19642.58
527.874	19831.72
528.241	19753.76
528.607	19887.99
528.973	20147.87
529.339	20037.14
529.705	20173.86
530.071	20196.46
530.437	20332.73
530.803	20405.04
531.169	20428.77
531.535	20450.92
531.901	20457.24
532.267	20511.25
532.632	20506.28
532.998	20532.95
533.364	20684.13
533.73	20569.33
534.095	20808.65
534.461	20713.74
534.826	20794.86
535.192	20946.05
535.557	20920.74
535.923	20987.63
536.288	20891.81
536.653	20932.94
537.019	20729.33
537.384	20823.56
537.749	20903.79
538.114	20818.82
538.479	20833.96
538.845	20922.32
539.21	20806.39
539.575	20866.27
539.94	20812.94
540.305	21014.52
540.67	20869.44
541.034	20754.19
541.399	20830.12
541.764	20808.42
542.129	20788.31
542.494	20760.51
542.858	20829.89
543.223	20664.02
543.587	20762.1
543.952	20599.16
544.316	20706.5
544.681	20681.19
545.045	20700.85
545.41	20638.26
545.774	20554.42
546.138	20493.63
546.503	20555.1
546.867	20490.01
547.231	20602.33
547.595	20550.8
547.959	20473.74
548.324	20398.94
548.688	20426.74
549.052	20350.35
549.416	20319.17
549.779	20310.13
550.143	20354.2
550.507	20436.23
550.871	20417.92
551.235	20263.13
551.599	20433.29
551.962	20345.16
552.326	20300.19
552.689	20318.27
553.053	20094.54
553.417	20264.03
553.78	20449.11
554.143	20219.96
554.507	20226.97
554.87	20198.27
555.234	20218.61
555.597	20152.17
555.96	20133.86
556.323	20179.51
556.686	20048.67
557.05	20188.1
557.413	20191.49
557.776	20089.12
558.139	20247.08
558.502	20243.69
558.865	20163.02
559.228	20191.94
559.59	20272.39
559.953	20209.79
560.316	20379.28
560.679	20262.45
561.041	20324.37
561.404	20405.49
561.767	20503.8
562.129	20423.35
562.492	20478.71
562.854	20449.79
563.217	20466.96
563.579	20441.88
563.941	20529.56
564.304	20658.82
564.666	20729.55
565.028	20677.13
565.39	20631.25
565.753	20762.77
566.115	20854.52
566.477	20946.27
566.839	20911.92
567.201	21126.83
567.563	21060.17
567.925	21146.49
568.287	21241.86
568.648	21362.76
569.01	21330.89
569.372	21411.57
569.734	21497.44
570.095	21625.8
570.457	21650.66
570.819	21786.48
571.18	21711.45
571.542	21895.4
571.903	21800.49
572.265	22007.03
572.626	22038.22
572.987	22077.99
573.349	22269.85
573.71	22203.64
574.071	22356.86
574.432	22386.46
574.794	22556.85
575.155	22542.16
575.516	22467.81
575.877	22658.99
576.238	22688.6
576.599	22781.7
576.96	22724.98
577.32	22724.3
577.681	22691.08
578.042	22978.76
578.403	23106.89
578.763	22955.26
579.124	22976.05
579.485	23115.71
579.845	23091.07
580.206	23216.27
580.566	23120
580.927	23070.74
581.287	23174.46
581.648	23223.5
582.008	23226.66
582.368	23326.1
582.728	23216.49
583.089	23188.25
583.449	23275.93
583.809	23303.05
584.169	23440.89
584.529	23250.84
584.889	23449.03
585.249	23341.91
585.609	23080
585.969	23338.52
586.329	23302.82
586.688	23384.17
587.048	23354.12
587.408	23287.9
587.768	23283.84
588.127	23185.76
588.487	23078.19
588.846	23367.22
589.206	23144.18
589.565	23123.16
589.925	23279.54
590.284	23187.57
590.643	23174.01
591.003	23195.48
591.362	23262.37
591.721	23147.8
592.08	23139.43
592.44	23277.06
592.799	23209.49
593.158	23252.43
593.517	23096.5
593.876	23148.7
594.235	23197.06
594.593	23073.9
594.952	23125.2
595.311	23055.82
595.67	23233.44
596.029	23203.39
596.387	23187.34
596.746	23225.53
597.104	23195.93
597.463	23078.64
597.822	23060.79
598.18	23067.12
598.538	23082.26
598.897	23110.51
599.255	23073.67
599.613	23226.66
599.972	23118.19
600.33	23094.92
600.688	23123.84
601.046	23181.01
601.404	23296.94
601.762	23175.82
602.12	23200.22
602.478	23282.71
602.836	23207.68
603.194	23010.4
603.552	23160.68
603.91	23145.76
604.268	23214.91
604.625	23177.63
604.983	23165.42
605.341	23065.09
605.698	23237.28
606.056	23444.96
606.413	23209.49
606.771	23269.15
607.128	23287.9
607.485	23200.68
607.843	23195.03
608.2	23358.19
608.557	23371.97
608.914	23359.99
609.272	23350.5
609.629	23587.33
609.986	23536.94
610.343	23529.25
610.7	23704.16
611.057	23552.53
611.414	23503.72
611.771	23602.25
612.127	23647.22
612.484	23732.19
612.841	23715.92
613.198	23656.71
613.554	23763.6
613.911	23770.6
614.267	23870.04
614.624	23735.8
614.98	23853.77
615.337	24015.57
615.693	23974.67
616.05	23921.56
616.406	24043.82
616.762	23966.53
617.118	23982.8
617.475	23960.43
617.831	24189.58
618.187	24090.14
618.543	24143.93
618.899	24256.01
619.255	24230.7
619.611	24153.42
619.967	24272.74
620.323	24411.49
620.678	24202.23
621.034	24140.09
621.39	24272.29
621.746	24229.12
622.101	24472.28
622.457	24359.97
622.812	24415.78
623.168	24517.93
623.523	24476.12
623.879	24598.83
624.234	24482
624.589	24453.3
624.945	24608.1
625.3	24545.72
625.655	24497.36
626.01	24505.95
626.365	24488.1
626.72	24602.45
627.075	24421.66
627.43	24522.45
627.785	24562.22
628.14	24474.09
628.495	24478.16
628.85	24641.09
629.205	24460.08
629.559	24431.83
629.914	24434.32
630.269	24498.04
630.623	24344.37
630.978	24301.89
631.332	24366.97
631.687	24368.78
632.041	24348.22
632.396	24402.9
632.75	24293.53
633.104	24357.48
633.459	24203.13
633.813	24190.25
634.167	24206.75
634.521	24139.86
634.875	24305.73
635.229	24132.85
635.583	24008.56
635.937	23997.26
636.291	23972.41
636.645	24043.14
636.999	23973.31
637.352	24041.78
637.706	23919.75
638.06	24058.73
638.413	23963.14
638.767	23832.75
639.121	23874.33
639.474	23760.43
639.828	23759.76
640.181	23835.69
640.534	23879.08
640.888	23729.47
641.241	23642.47
641.594	23653.09
641.947	23667.1
642.301	23593.66
642.654	23639.08
643.007	23545.07
643.36	23532.42
643.713	23599.76
644.066	23708.46
644.419	23558.18
644.771	23385.3
645.124	23202.94
645.477	23087.46
645.83	23045.43
646.182	23054.01
646.535	23080.45
646.888	23142.15
647.24	22986.44
647.593	23155.48
647.945	23067.8
648.298	22983.73
648.65	22914.81
649.002	22744.64
649.355	22672.55
649.707	22598.88
650.059	22628.26
650.411	23133.11
650.763	23208.13
651.115	23496.26
651.467	23474.79
651.819	23441.12
652.171	23349.15
652.523	23465.08
652.875	23449.26
653.227	23363.83
653.578	23602.25
653.93	23448.35
654.282	23425.75
654.633	23306.66
654.985	23486.77
655.337	23432.31
655.688	23577.16
656.039	23599.08
656.391	23446.09
656.742	23423.27
657.094	23368.35
657.445	23552.53
657.796	23512.53
658.147	23447.67
658.498	23531.29
658.849	23664.84
659.2	23510.5
659.551	23512.08
659.902	23642.7
660.253	23508.92
660.604	23638.86
660.955	23575.81
661.306	23684.73
661.656	23657.39
662.007	23676.37
662.358	23748.23
662.708	23788
663.059	23729.47
663.409	23600.66
663.76	23662.58
664.11	23748.01
664.461	23857.38
664.811	23964.05
665.161	23889.92
665.511	23777.84
665.862	23838.4
666.212	23845.4
666.562	23916.81
666.912	23852.18
667.262	23858.74
667.612	23858.06
667.962	23985.29
668.312	23789.13
668.662	23944.84
669.011	23773.54
669.361	23842.24
669.711	23965.4
670.06	23849.25
670.41	23838.17
670.76	23844.73
671.109	23946.42
671.459	23936.93
671.808	23934.44
672.157	23757.27
672.507	23737.84
672.856	23810.15
673.205	23759.53
673.554	23808.79
673.904	23654
674.253	23843.37
674.602	23699.65
674.951	23435.7
675.3	23273.22
675.649	23752.07
675.998	23672.75
676.346	23713.43
676.695	23606.99
677.044	23615.13
677.393	23579.87
677.741	23654
678.09	23558.41
678.438	23480.67
678.787	23475.7
679.135	23480.44
679.484	23270.73
679.832	23419.88
680.181	23301.01
680.529	23424.62
680.877	23267.79
681.225	23239.77
681.573	23392.76
681.922	23033.45
682.27	23196.61
682.618	23099.21
682.966	22989.16
683.314	22990.29
683.661	23056.05
684.009	22927.91
684.357	22807.24
684.705	22736.96
685.053	22800.69
685.4	22738.09
685.748	22651.09
686.095	22582.84
686.443	22488.38
686.79	22517.76
687.138	22445.44
687.485	22483.41
687.832	22400.02
688.18	22236.18
688.527	22195.5
688.874	22117.77
689.221	22172.91
689.568	21952.8
689.915	21992.12
690.262	22001.61
690.609	21944.44
690.956	21809.53
691.303	21722.75
691.65	21640.94
691.997	21546.26
692.344	21520.49
692.69	21443.43
693.037	21375.86
693.383	21197.79
693.73	21240.27
694.077	20998.25
694.423	21048.64
694.769	20994.41
695.116	20963.22
695.462	20761.87
695.808	20782.89
696.155	20746.73
696.501	20432.39
696.847	20586.73
697.193	20401.88
697.539	20400.52
697.885	20224.71
698.231	20150.36
698.577	20193.07
698.923	19978.39
699.269	19815.45
699.614	19830.37
699.96	19726.42
700.306	19694.55
700.651	19630.37
700.997	19544.95
701.342	19370.72
701.688	19442.13
702.033	19197.39
702.379	19303.6
702.724	19170.95
703.069	19271.74
703.415	19005.76
703.76	18943.39
704.105	18887.34
704.45	18822.26
704.795	18785.65
705.14	18640.8
705.485	18662.26
705.83	18517.41
706.175	18599.44
706.52	18511.76
706.865	18462.95
707.209	18308.15
707.554	18240.35
707.899	18288.71
708.243	18107.48
708.588	18113.35
708.932	18036.52
709.277	18040.58
709.621	18034.94
709.966	17888.72
710.31	17943.64
710.654	17853.92
710.998	17849.63
711.342	17815.96
711.687	17702.06
712.031	17661.16
712.375	17668.39
712.719	17667.26
713.063	17599.24
713.407	17745
713.75	17592.24
714.094	17582.07
714.438	17480.15
714.782	17535.74
715.125	17452.58
715.469	17528.51
715.812	17360.6
716.156	17413.93
716.499	17455.52
716.843	17440.6
717.186	17314.28
717.53	17476.76
717.873	17362.64
718.216	17351.34
718.559	17290.32
718.902	17232.92
719.246	17313.6
719.589	17202.87
719.932	17304.79
720.275	17260.27
720.617	17324.9
720.96	17284.9
721.303	17329.87
721.646	17238.12
721.989	17172.13
722.331	17341.62
722.674	17133.04
723.016	17182.53
723.359	17146.6
723.701	17230.21
724.044	17184.56
724.386	17131.46
724.729	17267.27
725.071	17166.71
725.413	17175.52
725.755	17287.84
726.097	17288.51
726.439	17200.16
726.782	17152.02
727.124	17268.18
727.465	17241.74
727.807	17215.97
728.149	17327.16
728.491	17248.97
728.833	17297.78
729.175	17356.99
729.516	17320.6
729.858	17206.93
730.199	17344.11
730.541	17385.01
730.882	17393.82
731.224	17353.82
731.565	17399.25
731.906	17339.59
732.248	17485.8
732.589	17485.57
732.93	17466.14
733.271	17539.81
733.612	17541.62
733.953	17600.82
734.294	17663.65
734.635	17619.58
734.976	17697.77
735.317	17667.71
735.658	17808.27
735.999	17742.06
736.339	17801.27
736.68	17902.06
737.021	18031.55
737.361	17936.41
737.702	18104.31
738.042	18089.85
738.383	18116.97
738.723	18245.33
739.063	18217.76
739.404	18311.09
739.744	18462.04
740.084	18406.9
740.424	18675.37
740.764	18643.06
741.104	18722.83
741.444	18692.09
741.784	18739.1
742.124	18844.63
742.464	18949.04
742.804	18935.25
743.143	19208.92
743.483	19271.06
743.823	19303.83
744.162	19365.3
744.502	19570.94
744.841	19568.91
745.181	19860.65
745.52	19879.86
745.86	20117.82
746.199	20173.64
746.538	20300.64
746.877	20538.15
747.216	20710.35
747.556	20753.73
747.895	21026.5
748.234	20991.92
748.573	21235.76
748.911	21358.24
749.25	21615.63
749.589	21745.35
749.928	21874.16
750.267	22093.13
750.605	22359.79
750.944	22566.12
751.283	22707.58
751.621	23017.86
751.96	23097.18
752.298	23353.89
752.636	23562.93
752.975	23926.53
753.313	23960.88
753.651	24430.93
753.989	24506.63
754.327	24766.96
754.666	24786.62
755.004	25256.21
755.342	25492.14
755.679	25708.41
756.017	25925.12
756.355	26195.62
756.693	26322.63
757.031	26719.23
757.368	26753.58
757.706	27199.21
758.044	27244.86
758.381	27566.89
758.719	27696.38
759.056	28050.94
759.394	28202.35
759.731	28315.8
760.068	28501.55
760.405	28785.39
760.743	29011.37
761.08	29353.73
761.417	29426.95
761.754	29528.64
762.091	29835.3
762.428	29958.01
762.765	30114.39
763.102	30341.28
763.438	30454.95
763.775	30565.91
764.112	30924.99
764.449	30995.5
764.785	31178.32
765.122	31249.73
765.458	31353.46
765.795	31527.24
766.131	31745.76
766.467	31808.81
766.804	31748.47
767.14	31903.72
767.476	31972.65
767.812	32059.43
768.148	32389.81
768.485	32283.83
768.821	32297.39
769.157	32323.6
769.492	32552.29
769.828	32530.37
770.164	32537.6
770.5	32693.31
770.836	32767.88
771.171	32844.49
771.507	32801.33
771.842	32717.49
772.178	32756.81
772.513	32864.6
772.849	32790.71
773.184	32882.45
773.519	32805.85
773.855	32884.04
774.19	32874.09
774.525	32760.65
774.86	32919.74
775.195	32987.76
775.53	32931.49
775.865	32700.99
776.2	32568.56
776.535	32511.62
776.87	32569.69
777.205	32588.9
777.539	32521.11
777.874	32643.82
778.209	32313.66
778.543	32577.38
778.878	32272.3
779.212	32440.21
779.547	32265.97
779.881	32261.91
780.215	32100.55
780.55	32145.3
780.884	32040.44
781.218	31955.7
781.552	32119.76
781.886	31896.72
782.22	31861.92
782.554	31595.93
782.888	31457.41
783.222	31531.08
783.556	31430.52
783.889	31419.89
784.223	31111.43
784.557	31244.53
784.89	31390.06
785.224	31126.57
785.557	30986.01
785.891	31002.5
786.224	30911.43
786.558	30821.94
786.891	30711.21
787.224	30543.53
787.557	30437.1
787.891	30562.52
788.224	30313.48
788.557	30377.89
788.89	30354.39
789.223	30389.41
789.556	30120.72
789.888	30120.49
790.221	30003.43
790.554	29883.66
790.887	29890.89
791.219	29689.32
791.552	29741.52
791.884	29739.26
792.217	29603.9
792.549	29507.4
792.882	29251.82
793.214	29234.87
793.546	29152.84
793.879	29154.64
794.211	28909.45
794.543	29067.41
794.875	28958.26
795.207	28954.42
795.539	28939.96
795.871	28911.03
796.203	28663.13
796.535	28454.55
796.867	28538.16
797.198	28428.11
797.53	28364.16
797.862	28200.77
798.193	28311.28
798.525	28202.35
798.856	28125.29
799.188	27863.15
799.519	27823.6
799.85	27732.31
800.182	27789.93
800.513	27753.78
800.844	27503.39
801.175	27668.58
801.506	27561.46
801.837	27330.06
802.168	27407.57
802.499	27429.72
802.83	27209.84
803.161	27083.96
803.491	27206.45
803.822	27217.52
804.153	26908.83
804.483	26854.59
804.814	26719.45
805.145	26856.17
805.475	26909.96
805.805	26690.53
806.136	26754.71
806.466	26629.29
806.796	26643.52
807.126	26421.38
807.457	26440.59
807.787	26412.34
808.117	26238.79
808.447	26297.99
808.777	26255.51
809.107	26082.86
809.436	26018.23
809.766	26122.18
810.096	26170.77
810.426	25920.38
810.755	26017.55
811.085	25866.59
811.414	25852.36
811.744	25804
812.073	25764.9
812.403	25611.01
812.732	25686.03
813.061	25757.67
813.39	25390
813.719	25494.63
814.049	25571.01
814.378	25499.82
814.707	25337.12
815.036	25350.68
815.365	25154.75
815.693	25090.8
816.022	25111.36
816.351	24952.27
816.68	24939.61
817.008	25090.57
817.337	24802.44
817.665	24762.22
817.994	24820.97
818.322	24885.38
818.651	24759.05
818.979	24756.34
819.307	24814.42
819.636	24724.93
819.964	24622.33
820.292	24594.76
820.62	24611.49
820.948	24614.42
821.276	24818.94
821.604	24569.9
821.932	24719.73
822.259	24674.08
822.587	24598.6
822.915	24634.08
823.243	24689.9
823.57	24706.85
823.898	24665.95
824.225	24675.66
824.553	24610.36
824.88	24581.43
825.207	24757.24
825.535	24577.81
825.862	24744.36
826.189	24568.55
826.516	24898.03
826.843	24807.86
827.17	24839.95
827.497	24761.54
827.824	24900.74
828.151	24894.19
828.478	24740.75
828.805	24864.59
829.131	24876.79
829.458	24769.9
829.785	24576.91
830.111	24745.49
830.438	24761.54
830.764	24747.75
831.09	24830.01
831.417	24769.45
831.743	24890.12
832.069	24624.14
832.395	24704.36
832.722	24920.63
833.048	24665.95
833.374	24937.13
833.7	24721.99
834.026	24794.76
834.351	24714.76
834.677	24692.84
835.003	24798.37
835.329	24690.13
835.654	24729
835.98	24655.78
836.306	24685.38
836.631	24609.9
836.956	24767.19
837.282	24652.84
837.607	24561.54
837.932	24634.08
838.258	24556.8
838.583	24497.36
838.908	24410.36
839.233	24490.58
839.558	24413.98
839.883	24376.69
840.208	24222.12
840.533	24363.81
840.858	24245.62
841.182	24354.77
841.507	24358.84
841.832	24207.2
842.156	24128.33
842.481	24179.18
842.805	24065.51
843.13	23900.77
843.454	24129.01
843.778	23871.39
844.103	23898.06
844.427	23851.73
844.751	23863.93
845.075	23720.44
845.399	23643.6
845.723	23534.45
846.047	23654.67
846.371	23304.63
846.695	23315.47
847.019	23325.42
847.343	23110.96
847.666	23105.54
847.99	22996.16
848.313	22860.8
848.637	22798.2
848.96	22763.85
849.284	22784.64
849.607	22490.64
849.931	22504.2
850.254	22343.75
850.577	22229.63
850.9	22095.17
851.223	22028.05
851.546	21941.5
851.869	21845.23
852.192	22011.78
852.515	21798.23
852.838	21600.94
853.161	21637.33
853.483	21562.07
853.806	21390.1
854.129	21451.57
854.451	21317.79
854.774	21082.31
855.096	21112.59
855.419	21051.58
855.741	21128.64
856.063	20940.62
856.385	20981.52
856.708	20779.95
857.03	20806.61
857.352	20813.85
857.674	20727.97
857.996	20664.92
858.318	20530.91
858.64	20520.07
858.961	20461.54
859.283	20472.39
859.605	20357.13
859.926	20371.82
860.248	20234.88
860.57	20175.67
860.891	20210.47
861.212	20127.08
861.534	20020.65
861.855	19963.02
862.176	20002.34
862.498	19913.76
862.819	19902.68
863.14	19804.61
863.461	19781.78
863.782	19707.43
864.103	19749.47
864.424	19682.35
864.745	19690.94
865.065	19665.85
865.386	19517.38
865.707	19546.31
866.027	19578.85
866.348	19572.3
866.668	19421.34
866.989	19469.7
867.309	19326.43
867.63	19332.3
867.95	19349.7
868.27	19201.68
868.59	19429.25
868.91	19241.91
869.23	19196.94
869.55	19035.36
869.87	19197.16
870.19	19097.28
870.51	19157.62
870.83	19116.49
871.15	18949.71
871.469	18952.88
871.789	19014.57
872.109	18877.85
872.428	18925.76
872.748	18971.86
873.067	18883.95
873.386	18824.75
873.706	18937.74
874.025	18831.98
874.344	18752.66
874.663	18714.24
874.982	18694.13
875.301	18694.35
875.62	18591.53
875.939	18591.98
876.258	18589.27
876.577	18427.92
876.896	18563.74
877.214	18398.09
877.533	18568.03
877.852	18477.18
878.17	18468.14
878.489	18503.62
878.807	18333.46
879.125	18283.97
879.444	18339.11
879.762	18226.34
880.08	18426.11
880.398	18183.41
880.716	18124.2
881.034	18063.86
881.352	18106.57
881.67	17999.46
881.988	18122.16
882.306	17991.09
882.624	17966.01
882.941	17915.62
883.259	17805.11
883.577	17785
883.894	17748.62
884.212	17757.88
884.529	17705.45
884.846	17654.61
885.164	17556.76
885.481	17551.56
885.798	17570.77
886.115	17476.53
886.432	17428.85
886.75	17515.63
887.067	17377.55
887.383	17293.03
887.7	17295.07
888.017	17142.08
888.334	17157.67
888.651	17014.85
888.967	17145.92
889.284	17040.39
889.6	16982.76
889.917	16899.6
890.233	16908.41
890.55	16841.07
890.866	16882.2
891.182	16775.53
891.498	16761.75
891.815	16669.55
892.131	16566.95
892.447	16527.86
892.763	16563.56
893.079	16376.45
893.395	16399.05
893.71	16353.62
894.026	16255.1
894.342	16264.36
894.657	16251.48
894.973	16149.79
895.289	16174.42
895.604	16024.14
895.92	16006.74
896.235	15869.34
896.55	15894.88
896.865	15792.28
897.181	15814.43
897.496	15839.96
897.811	15708.44
898.126	15651.72
898.441	15566.07
898.756	15613.53
899.071	15442.69
899.386	15577.37
899.7	15322.01
900.015	15355.01
900.33	15125.63
900.644	15204.5
900.959	15118.18
901.273	15106.65
901.588	15004.51
901.902	14969.71
902.216	14955.69
902.531	14966.54
902.845	14827.11
903.159	14686.77
903.473	14658.75
903.787	14624.63
904.101	14550.06
904.415	14532.43
904.729	14454.24
905.042	14362.26
905.356	14383.51
905.67	14260.57
905.984	14287.46
906.297	14209.05
906.611	14121.37
906.924	14104.19
907.237	14089.95
907.551	14014.7
907.864	13805.89
908.177	13923.41
908.491	13921.37
908.804	13732.9
909.117	13748.49
909.43	13694.71
909.743	13509.63
910.056	13663.52
910.368	13450.65
910.681	13489.07
910.994	13322.52
911.307	13307.6
911.619	13199.36
911.932	13210.88
912.244	13143.09
912.557	13133.6
912.869	12978.57
913.181	12962.98
913.494	12991
913.806	12881.4
914.118	12784.68
914.43	12792.59
914.742	12765.92
915.054	12682.99
915.366	12629.2
915.678	12615.64
915.99	12511.01
916.302	12492.26
916.613	12389.89
916.925	12411.58
917.236	12415.65
917.548	12262.21
917.859	12216.56
918.171	12123
918.482	12063.57
918.794	12072.61
919.105	12020.63
919.416	11925.49
919.727	11887.3
920.038	11859.5
920.349	11787.19
920.66	11791.48
920.971	11796.68
921.282	11674.42
921.593	11612.28
921.903	11557.82
922.214	11423.81
922.525	11409.8
922.835	11425.62
923.146	11381.55
923.456	11365.96
923.767	11287.09
924.077	11293.19
924.387	11146.75
924.697	11150.82
925.008	11118.28
925.318	11053.2
925.628	11014.33
925.938	10985.86
926.248	10870.6
926.558	10854.11
926.867	10868.34
927.177	10812.98
927.487	10789.48
927.796	10633.1
928.106	10730.49
928.416	10622.47
928.725	10553.32
929.034	10572.31
929.344	10490.28
929.653	10492.76
929.962	10339.54
930.271	10326.21
930.581	10249.15
930.89	10268.13
931.199	10247.12
931.508	10133
931.817	10131.87
932.125	10078.99
932.434	10026.56
932.743	9934.36
933.051	9888.26
933.36	9875.83
933.669	9911.31
933.977	9785.43
934.286	9810.52
934.594	9698.21
934.902	9688.71
935.21	9675.16
935.519	9518.78
935.827	9575.95
936.135	9527.81
936.443	9528.04
936.751	9426.8
937.059	9401.04
937.367	9360.81
937.674	9335.96
937.982	9334.15
938.29	9293.02
938.597	9238.56
938.905	9131.67
939.213	9074.04
939.52	9095.96
939.827	9099.58
940.135	8968.28
940.442	8932.8
940.749	8947.49
941.056	8972.8
941.363	8842.63
941.67	8883.99
941.977	8834.5
942.284	8747.5
942.591	8730.1
942.898	8633.6
943.205	8620.27
943.511	8579.36
943.818	8565.13
944.125	8498.91
944.431	8394.06
944.738	8453.27
945.044	8421.63
945.35	8278.58
945.657	8309.99
945.963	8238.81
946.269	8232.93
946.575	8232.26
946.881	8192.03
947.187	8229.54
947.493	8119.04
947.799	8007.18
948.105	8003.33
948.41	7972.15
948.716	7953.39
949.022	7938.7
949.327	7830.68
949.633	7845.15
949.938	7810.8
950.244	7801.76
950.549	7664.81
950.854	7655.32
951.16	7676.79
951.465	7612.84
951.77	7592.72
952.075	7600.63
952.38	7547.08
952.685	7503.01
952.99	7481.09
953.294	7451.26
953.599	7408.1
953.904	7388.66
954.209	7354.31
954.513	7354.09
954.818	7243.58
955.122	7238.38
955.426	7205.39
955.731	7194.09
956.035	7160.19
956.339	7067.31
956.643	7078.39
956.948	7016.02
957.252	7017.82
957.556	6981.67
957.86	6980.54
958.163	6946.87
958.467	6957.49
958.771	6885.17
959.075	6808.34
959.378	6832.29
959.682	6799.3
959.985	6672.52
960.289	6714.56
960.592	6705.74
960.896	6693.99
961.199	6615.8
961.502	6608.34
961.805	6563.37
962.108	6460.55
962.411	6529.48
962.714	6465.97
963.017	6436.37
963.32	6531.96
963.623	6364.28
963.926	6347.79
964.228	6338.97
964.531	6312.53
964.833	6261.23
965.136	6209.03
965.438	6191.63
965.741	6180.56
966.043	6177.17
966.345	6097.17
966.648	6129.03
966.95	6080.22
967.252	6100.79
967.554	6081.58
967.856	6021.01
968.158	6002.94
968.46	5969.26
968.761	5954.12
969.063	5899.44
969.365	5878.64
969.666	5832.09
969.968	5767.91
970.269	5796.16
970.571	5725.2
970.872	5696.28
971.174	5710.06
971.475	5712.77
971.776	5655.83
972.077	5606.56
972.378	5600.69
972.679	5582.16
972.98	5600.01
973.281	5518.65
973.582	5550.97
973.883	5522.72
974.183	5507.81
974.484	5444.98
974.785	5399.56
975.085	5407.7
975.386	5364.53
975.686	5328.83
975.986	5325.89
976.287	5283.63
976.587	5257.87
976.887	5277.53
977.187	5213.35
977.487	5193.47
977.787	5219.68
978.087	5149.17
978.387	5110.3
978.687	5127.7
978.987	5051.77
979.286	5091.09
979.586	5082.73
979.885	4958.9
980.185	4959.12
980.484	4961.38
980.784	4927.48
981.083	4864.89
981.382	4920.03
981.682	4863.08
981.981	4861.5
982.28	4826.02
982.579	4806.81
982.878	4800.93
983.177	4751.22
983.475	4765.23
983.774	4710.77
984.073	4703.99
984.372	4701.05
984.67	4676.19
984.969	4619.69
985.267	4608.17
985.566	4572.46
985.864	4561.62
986.162	4515.52
986.461	4495.18
986.759	4474.61
987.057	4457.67
987.355	4462.18
987.653	4409.76
987.951	4399.81
988.249	4418.34
988.547	4329.31
988.844	4368.4
989.142	4326.14
989.44	4318.69
989.737	4253.83
990.035	4234.17
990.332	4239.82
990.63	4216.77
990.927	4227.39
991.224	4219.48
991.521	4193.72
991.819	4132.25
992.116	4137.67
992.413	4130.89
992.71	4047.05
993.006	4066.94
993.303	4029.2
993.6	4035.76
993.897	4009.54
994.193	4006.15
994.49	3990.56
994.787	3997.34
995.083	3905.59
995.379	3903.1
995.676	3878.92
995.972	3879.6
996.268	3893.61
996.565	3792.82
996.861	3805.93
997.157	3789.89
997.453	3778.14
997.749	3749.21
998.044	3680.96
998.34	3711.92
998.636	3671.02
998.932	3660.17
999.227	3641.42
999.523	3605.71
999.818	3614.07
1000.114	3552.15
1000.409	3526.39
1000.704	3545.82
1001	3516.45
1001.295	3451.36
1001.59	3464.25
1001.885	3461.99
1002.18	3439.16
1002.475	3407.3
1002.77	3395.32
1003.065	3345.38
1003.359	3392.61
1003.654	3323.68
1003.949	3302.44
1004.243	3310.12
1004.538	3271.03
1004.832	3247.75
1005.127	3265.15
1005.421	3245.27
1005.715	3206.4
1006.009	3192.61
1006.304	3138.15
1006.598	3149.23
1006.892	3123.01
1007.186	3105.61
1007.48	3099.73
1007.773	3089.79
1008.067	3067.42
1008.361	3002.34
1008.655	2993.97
1008.948	2999.4
1009.242	2957.59
1009.535	2987.87
1009.829	2992.85
1010.122	2939.97
1010.415	2914.43
1010.708	2863.58
1011.001	2875.79
1011.295	2880.98
1011.588	2812.96
1011.881	2826.75
1012.173	2785.84
1012.466	2807.99
1012.759	2803.7
1013.052	2765.51
1013.344	2711.95
1013.637	2711.5
1013.93	2713.98
1014.222	2671.95
1014.514	2662.46
1014.807	2647.09
1015.099	2626.98
1015.391	2601.89
1015.683	2557.83
1015.976	2573.87
1016.268	2586.53
1016.56	2546.98
1016.851	2566.19
1017.143	2495.91
1017.435	2505.4
1017.727	2451.16
1018.018	2453.88
1018.31	2454.1
1018.602	2416.59
1018.893	2413.65
1019.185	2393.76
1019.476	2354.44
1019.767	2342.92
1020.058	2372.52
1020.35	2344.05
1020.641	2333.88
1020.932	2293.2
1021.223	2308.8
1021.514	2279.64
1021.804	2234.22
1022.095	2221.79
1022.386	2229.48
1022.677	2175.01
1022.967	2194
1023.258	2163.26
1023.548	2157.16
1023.839	2155.13
1024.129	2125.07
1024.419	2104.96
1024.709	2095.69
1025	2097.95
1025.29	2107.22
1025.58	2042.81
1025.87	2034.23
1026.16	2053.21
1026.449	2038.97
1026.739	2028.12
1027.029	1985.19
1027.319	1970.5
1027.608	1958.52
1027.898	1937.73
1028.187	1955.13
1028.477	1906.77
1028.766	1903.83
1029.055	1862.71
1029.344	1847.56
1029.634	1848.02
1029.923	1818.64
1030.212	1827.45
1030.501	1824.97
1030.79	1772.54
1031.078	1803.72
1031.367	1784.97
1031.656	1766.89
1031.945	1750.62
1032.233	1753.78
1032.522	1743.61
1032.81	1700.68
1033.099	1727.34
1033.387	1664.97
1033.675	1687.57
1033.963	1648.93
1034.251	1653.9
1034.54	1639.89
1034.828	1608.02
1035.116	1605.99
1035.403	1610.28
1035.691	1596.5
1035.979	1584.07
1036.267	1567.35
1036.554	1570.51
1036.842	1533.22
1037.129	1528.25
1037.417	1506.33
1037.704	1525.31
1037.992	1518.53
1038.279	1468.82
1038.566	1511.98
1038.853	1511.98
1039.14	1511.98
