Data from 18-4330_FLMS001491_003.txt Node
Date: Thu Apr 19 16:43:24 BST 2018
User: hsy
Spectrometer: FLMS00149
Trigger mode: 0
Integration Time (sec): 1.000000E-2
Scans to average: 10
Electric dark correction enabled: true
Nonlinearity correction enabled: false
Boxcar width: 0
XAxis mode: Wavelengths
Number of Pixels in Spectrum: 2048
>>>>>Begin Spectral Data<<<<<
341.393	-12.15
341.776	-12.15
342.16	-12.15
342.543	-62.31
342.927	-63.44
343.31	-76.78
343.693	-88.08
344.077	-54.86
344.46	-60.28
344.843	-54.41
345.226	-42.65
345.61	-24.58
345.993	-21.64
346.376	6.38
346.759	12.71
347.142	35.31
347.525	55.87
347.908	50.45
348.291	81.41
348.674	61.98
349.057	119.15
349.44	119.15
349.823	132.48
350.206	193.95
350.588	212.71
350.971	241.63
351.354	277.79
351.737	276.43
352.119	273.27
352.502	286.38
352.884	322.31
353.267	317.79
353.65	327.96
354.032	358.69
354.414	333.16
354.797	364.79
355.179	339.03
355.562	365.47
355.944	354.85
356.326	372.02
356.709	368.63
357.091	377.45
357.473	382.65
357.855	361.63
358.238	378.13
358.62	355.3
359.002	379.48
359.384	368.41
359.766	369.31
360.148	374.96
360.53	362.76
360.912	356.88
361.294	362.53
361.676	369.31
362.057	374.51
362.439	368.86
362.821	376.77
363.203	356.21
363.584	358.92
363.966	372.93
364.348	371.8
364.729	359.14
365.111	358.69
365.493	358.24
365.874	356.66
366.256	345.36
366.637	339.03
367.019	348.07
367.4	346.26
367.781	364.79
368.163	354.62
368.544	347.39
368.925	363.89
369.306	362.08
369.688	347.17
370.069	369.76
370.45	347.84
370.831	380.39
371.212	378.35
371.593	374.28
371.974	356.88
372.355	369.76
372.736	391.91
373.117	395.53
373.498	388.29
373.879	367.28
374.26	362.98
374.641	362.08
375.021	380.61
375.402	362.76
375.783	394.85
376.163	387.16
376.544	393.27
376.925	379.71
377.305	389.42
377.686	377
378.066	369.76
378.447	412.48
378.827	399.14
379.208	412.7
379.588	400.72
379.968	387.84
380.349	414.28
380.729	393.49
381.109	394.4
381.489	398.24
381.87	413.83
382.25	408.18
382.63	401.18
383.01	418.35
383.39	430.33
383.77	414.06
384.15	419.48
384.53	426.26
384.91	424
385.29	413.15
385.67	451.34
386.049	449.99
386.429	432.36
386.809	462.19
387.189	449.99
387.568	435.07
387.948	444.56
388.328	473.04
388.707	463.77
389.087	473.04
389.466	479.59
389.846	457.45
390.225	468.97
390.605	462.87
390.984	484.56
391.363	517.33
391.743	478.46
392.122	499.48
392.501	492.25
392.881	509.65
393.26	520.49
393.639	528.63
394.018	528.86
394.397	532.02
394.776	538.35
395.155	504.22
395.534	529.99
395.913	554.39
396.292	546.26
396.671	570.66
397.05	588.06
397.429	566.14
397.808	550.1
398.186	588.29
398.565	554.84
398.944	585.13
399.323	591.45
399.701	565.24
400.08	597.55
400.458	592.81
400.837	611.57
401.215	602.75
401.594	606.14
401.972	629.19
402.351	633.26
402.729	646.82
403.107	651.34
403.486	646.82
403.864	626.03
404.242	650.43
404.62	667.38
404.999	684.11
405.377	696.99
405.755	692.24
406.133	684.78
406.511	725.46
406.889	709.42
407.267	717.33
407.645	736.53
408.023	747.38
408.401	764.78
408.779	778.12
409.156	786.48
409.534	785.57
409.912	799.13
410.29	813.37
410.667	826.7
411.045	851.79
411.422	841.39
411.8	862.18
412.178	851.79
412.555	898.34
412.933	909.41
413.31	919.35
413.687	923.2
414.065	950.77
414.442	971.78
414.819	957.09
415.197	966.58
415.574	981.95
415.951	1023.31
416.328	999.13
416.705	1007.71
417.082	1033.02
417.46	1016.53
417.837	1053.81
418.214	1058.56
418.591	1075.28
418.967	1083.64
419.344	1076.19
419.721	1097.2
420.098	1103.3
420.475	1128.84
420.852	1148.73
421.228	1169.74
421.605	1153.92
421.982	1210.19
422.358	1191.44
422.735	1208.39
423.111	1226.46
423.488	1277.09
423.864	1254.71
424.241	1266.92
424.617	1284.77
424.994	1303.3
425.37	1339.23
425.746	1347.37
426.123	1341.26
426.499	1393.92
426.875	1376.52
427.251	1410.87
427.627	1421.71
428.003	1495.16
428.379	1459
428.756	1491.54
429.132	1483.63
429.507	1511.2
429.883	1502.84
430.259	1543.74
430.635	1588.49
431.011	1589.17
431.387	1631.88
431.763	1653.8
432.138	1674.14
432.514	1715.27
432.89	1694.25
433.265	1755.04
433.641	1789.16
434.016	1804.75
434.392	1842.49
434.767	1865.09
435.143	1879.78
435.518	1893.11
435.894	1924.98
436.269	1978.76
436.644	2005.88
437.02	2007.69
437.395	2045.2
437.77	2078.65
438.145	2100.11
438.52	2121.36
438.895	2177.4
439.271	2112.77
439.646	2180.11
440.021	2231.86
440.395	2238.87
440.77	2215.59
441.145	2269.38
441.52	2348.24
441.895	2308.24
442.27	2368.36
442.645	2333.1
443.019	2400.67
443.394	2406.55
443.769	2399.77
444.143	2437.96
444.518	2463.95
444.892	2468.24
445.267	2485.19
445.641	2487
446.016	2549.37
446.39	2538.29
446.764	2550.5
447.139	2578.97
447.513	2605.86
447.887	2618.07
448.262	2632.3
448.636	2611.29
449.01	2709.14
449.384	2683.6
449.758	2731.51
450.132	2759.08
450.506	2791.17
450.88	2792.3
451.254	2781.9
451.628	2854.22
452.002	2874.11
452.376	2910.26
452.75	2933.54
453.123	2960.43
453.497	3021.9
453.871	3009.47
454.244	3115
454.618	3138.05
454.992	3194.1
455.365	3213.98
455.739	3285.85
456.112	3295.34
456.486	3374.21
456.859	3362
457.232	3463.02
457.606	3414.66
457.979	3527.87
458.352	3597.25
458.725	3560.87
459.099	3685.38
459.472	3684.93
459.845	3785.72
460.218	3767.42
460.591	3828.88
460.964	3877.92
461.337	3931.93
461.71	3995.66
462.083	4009.22
462.456	4086.05
462.829	4047.63
463.201	4171.7
463.574	4192.26
463.947	4252.37
464.32	4297.12
464.692	4336.67
465.065	4418.47
465.438	4430.9
465.81	4492.59
466.183	4549.32
466.555	4610.78
466.928	4662.98
467.3	4669.31
467.672	4722.87
468.045	4853.26
468.417	4851
468.789	4926.48
469.161	4964.22
469.534	5036.99
469.906	5070.88
470.278	5125.8
470.65	5242.18
471.022	5297.77
471.394	5360.82
471.766	5437.88
472.138	5513.36
472.51	5584.99
472.882	5679
473.253	5694.37
473.625	5836.06
473.997	5922.84
474.369	5961.93
474.74	6057.07
475.112	6116.28
475.484	6189.27
475.855	6350.85
476.227	6393.79
476.598	6547.91
476.97	6589.26
477.341	6720.33
477.713	6803.49
478.084	6834.23
478.455	7042.58
478.827	7083.49
479.198	7263.37
479.569	7310.37
479.94	7494.77
480.311	7600.99
480.682	7743.81
481.053	7911.26
481.424	8003.91
481.795	8105.61
482.166	8266.51
482.537	8360.74
482.908	8550.11
483.279	8623.33
483.65	8811.8
484.021	8982.19
484.391	9045.47
484.762	9140.61
485.133	9169.98
485.503	9391.9
485.874	9508.96
486.244	9638
486.615	9875.28
486.985	9901.72
487.356	10066.68
487.726	10110.53
488.097	10451.53
488.467	10528.82
488.837	10728.14
489.207	10799.32
489.578	10955.25
489.948	11057.84
490.318	11281.79
490.688	11282.02
491.058	11456.93
491.428	11665.29
491.798	11741.89
492.168	11977.37
492.538	11992.74
492.908	12145.27
493.278	12397.92
493.648	12317.47
494.017	12503.91
494.387	12687.18
494.757	12740.51
495.126	12949.55
495.496	12865.71
495.866	13075.42
496.235	13112.03
496.605	13229.99
496.974	13331.68
497.344	13458.23
497.713	13543.2
498.082	13549.53
498.452	13690.09
498.821	13885.12
499.19	13873.36
499.559	13944.55
499.928	14072.91
500.298	14071.55
500.667	14211.66
501.036	14184.99
501.405	14395.16
501.774	14362.62
502.143	14573.23
502.512	14641.25
502.88	14728.03
503.249	14679.22
503.618	14813.9
503.987	14899.33
504.356	14929.38
504.724	15051.64
505.093	15148.81
505.462	15135.25
505.83	15173.22
506.199	15283.5
506.567	15474.23
506.936	15409.82
507.304	15582.47
507.672	15680.77
508.041	15712.19
508.409	15773.65
508.777	15894.1
509.145	15929.81
509.514	16033.76
509.882	16054.55
510.25	16097.49
510.618	16223.81
510.986	16255
511.354	16382.9
511.722	16566.17
512.09	16487.08
512.458	16477.36
512.826	16631.71
513.193	16631.71
513.561	16817.24
513.929	16897.92
514.297	17025.82
514.664	17067.4
515.032	17064.47
515.4	17253.39
515.767	17322.31
516.135	17260.85
516.502	17197.12
516.869	17512.14
517.237	17539.48
517.604	17444.57
517.972	17750.78
518.339	17762.53
518.706	17729.76
519.073	17848.17
519.44	17841.85
519.808	18065.12
520.175	18024.44
520.542	18196.87
520.909	18240.71
521.276	18235.28
521.643	18461.27
522.009	18568.38
522.376	18622.62
522.743	18712.78
523.11	18937.41
523.477	18992.1
523.843	19037.07
524.21	19177.41
524.577	19317.51
524.943	19407.68
525.31	19510.5
525.676	19646.55
526.043	19690.61
526.409	19712.98
526.776	19903.04
527.142	19889.7
527.508	19932.19
527.874	20183.25
528.241	20174.67
528.607	20360.2
528.973	20431.16
529.339	20421.67
529.705	20515.9
530.071	20662.34
530.437	20640.19
530.803	20702.79
531.169	20843.35
531.535	20804.93
531.901	20905.27
532.267	20960.18
532.632	20993.18
532.998	20964.7
533.364	21013.97
533.73	20982.78
534.095	21200.63
534.461	21109.33
534.826	21196.34
535.192	21161.99
535.557	21254.41
535.923	21161.31
536.288	21299.84
536.653	21347.07
537.019	21146.62
537.384	21218.03
537.749	21239.27
538.114	21286.73
538.479	21208.99
538.845	21304.81
539.21	21190.46
539.575	21257.8
539.94	21250.35
540.305	21403.79
540.67	21259.16
541.034	21181.42
541.399	21187.52
541.764	21225.94
542.129	21103.91
542.494	21225.94
542.858	21181.42
543.223	21077.92
543.587	21125.15
543.952	21053.06
544.316	21112.04
544.681	20943.91
545.045	21136.68
545.41	21052.84
545.774	20945.04
546.138	20960.18
546.503	20945.27
546.867	20853.52
547.231	20967.41
547.595	20919.05
547.959	21027.75
548.324	20839.06
548.688	20849
549.052	20816.68
549.416	20756.57
549.779	20788.66
550.143	20734.43
550.507	20816.01
550.871	20765.16
551.235	20733.07
551.599	20900.07
551.962	20830.92
552.326	20697.37
552.689	20687.2
553.053	20579.18
553.417	20614.88
553.78	20664.37
554.143	20666.63
554.507	20648.78
554.87	20719.06
555.234	20736.91
555.597	20548.89
555.96	20604.26
556.323	20586.41
556.686	20632.06
557.05	20662.79
557.413	20618.27
557.776	20522.91
558.139	20680.87
558.502	20660.76
558.865	20528.56
559.228	20784.37
559.59	20799.74
559.953	20663.92
560.316	20879.73
560.679	20759.96
561.041	20907.3
561.404	20927.42
561.767	21080.63
562.129	20957.7
562.492	21022.1
562.854	21002.22
563.217	21069.33
563.579	21106.17
563.941	21124.7
564.304	21250.8
564.666	21312.72
565.028	21302.55
565.39	21300.74
565.753	21433.17
566.115	21473.16
566.477	21555.87
566.839	21597.68
567.201	21893.04
567.563	21763.55
567.925	21785.7
568.287	21930.1
568.648	21935.52
569.01	22114.28
569.372	22218.23
569.734	22216.87
570.095	22333.48
570.457	22441.95
570.819	22344.78
571.18	22477.88
571.542	22592.68
571.903	22554.27
572.265	22743.41
572.626	22757.65
572.987	22741.15
573.349	22985.67
573.71	23012.78
574.071	23191.31
574.432	23331.42
574.794	23350.63
575.155	23296.85
575.516	23278.09
575.877	23424.3
576.238	23546.33
576.599	23528.48
576.96	23536.84
577.32	23578.19
577.681	23721.01
578.042	23770.05
578.403	23653.9
578.763	23801.24
579.124	23796.49
579.485	23903.16
579.845	24026.09
580.206	23837.17
580.566	23938.18
580.927	24012.08
581.287	23982.48
581.648	23927.56
582.008	24015.47
582.368	24061.57
582.728	24105.19
583.089	24116.03
583.449	24075.13
583.809	24027.22
584.169	24273.99
584.529	24162.81
584.889	24181.79
585.249	24123.72
585.609	24038.07
585.969	24170.49
586.329	24054.57
586.688	24210.49
587.048	24039.2
587.408	24102.47
587.768	24133.66
588.127	24111.29
588.487	24144.96
588.846	24205.3
589.206	24027
589.565	24003.49
589.925	24157.16
590.284	24081.91
590.643	24065.64
591.003	24062.7
591.362	24199.42
591.721	24059.99
592.08	24217.72
592.44	24203.94
592.799	24084.17
593.158	24170.72
593.517	24025.41
593.876	24136.6
594.235	23959.88
594.593	24039.65
594.952	24159.42
595.311	24086.43
595.67	24025.87
596.029	24212.3
596.387	24153.32
596.746	24236.26
597.104	24027.9
597.463	23949.94
597.822	24167.1
598.18	24113.32
598.538	24020.67
598.897	24210.27
599.255	23968.01
599.613	24264.28
599.972	24042.59
600.33	24170.49
600.688	24009.37
601.046	24068.35
601.404	24187.67
601.762	24076.94
602.12	24271.96
602.478	24189.7
602.836	24233.09
603.194	24007.79
603.552	24074.45
603.91	24068.8
604.268	23990.16
604.625	24104.73
604.983	24220.66
605.341	24059.31
605.698	24289.36
606.056	24373.88
606.413	24183.83
606.771	24352.86
607.128	24282.36
607.485	24196.71
607.843	24154.22
608.2	24352.18
608.557	24373.88
608.914	24239.65
609.272	24391.05
609.629	24505.63
609.986	24563.03
610.343	24502.46
610.7	24646.64
611.057	24510.6
611.414	24548.34
611.771	24594.66
612.127	24755.79
612.484	24706.98
612.841	24681.22
613.198	24754.43
613.554	24636.24
613.911	24909.91
614.267	24865.39
614.624	24721.21
614.98	24862.23
615.337	25056.12
615.693	24946.75
616.05	24905.62
616.406	25154.42
616.762	25039.62
617.118	25061.32
617.475	24986.52
617.831	25232.84
618.187	25203.91
618.543	25165.72
618.899	25370.91
619.255	25269.45
619.611	25330.69
619.967	25421.76
620.323	25393.51
620.678	25243.69
621.034	25315.32
621.39	25344.93
621.746	25294.53
622.101	25591.25
622.457	25364.14
622.812	25479.61
623.168	25443.23
623.523	25509.67
623.879	25461.31
624.234	25577.69
624.589	25447.97
624.945	25514.41
625.3	25553.73
625.655	25579.04
626.01	25566.39
626.365	25676.22
626.72	25471.48
627.075	25530.46
627.43	25480.29
627.785	25540.63
628.14	25558.71
628.495	25590.8
628.85	25547.41
629.205	25453.4
629.559	25580.85
629.914	25508.99
630.269	25457.92
630.623	25431.7
630.978	25412.72
631.332	25514.19
631.687	25377.02
632.041	25410.46
632.396	25475.09
632.75	25286.62
633.104	25268.77
633.459	25259.73
633.813	25274.65
634.167	25215.89
634.521	25259.28
634.875	25288.43
635.229	25276.68
635.583	25015.22
635.937	25067.87
636.291	24979.29
636.645	25099.28
636.999	24903.58
637.352	25067.19
637.706	24897.25
638.06	24996.24
638.413	24914.88
638.767	24904.03
639.121	24964.82
639.474	24727.77
639.828	24780.65
640.181	24859.97
640.534	24766.64
640.888	24734.77
641.241	24590.6
641.594	24660.65
641.947	24719.63
642.301	24595.79
642.654	24713.98
643.007	24605.51
643.36	24607.55
643.713	24676.24
644.066	24799.18
644.419	24579.07
644.771	24186.09
645.124	24100.67
645.477	24148.35
645.83	23999.65
646.182	24020.89
646.535	23944.51
646.888	24129.59
647.24	24052.08
647.593	24210.72
647.945	24031.29
648.298	23914.68
648.65	23834.91
649.002	23737.06
649.355	23699.77
649.707	23581.36
650.059	23677.17
650.411	23957.17
650.763	24094.79
651.115	24645.06
651.467	24399.87
651.819	24515.12
652.171	24429.92
652.523	24325.29
652.875	24442.8
653.227	24365.74
653.578	24434.22
653.93	24406.65
654.282	24361.22
654.633	24369.13
654.985	24385.18
655.337	24427.21
655.688	24421.11
656.039	24507.21
656.391	24196.93
656.742	24448
657.094	24352.41
657.445	24373.43
657.796	24480.77
658.147	24402.58
658.498	24487.32
658.849	24594.21
659.2	24501.56
659.551	24433.99
659.902	24524.38
660.253	24413.2
660.604	24556.47
660.955	24481.9
661.306	24678.5
661.656	24541.11
662.007	24544.27
662.358	24615.68
662.708	24725.28
663.059	24703.81
663.409	24430.37
663.76	24716.02
664.11	24734.77
664.461	24649.8
664.811	24677.83
665.161	24744.72
665.511	24692.74
665.862	24689.35
666.212	24810.93
666.562	24864.71
666.912	24768.9
667.262	24706.53
667.612	24699.07
667.962	24812.06
668.312	24757.15
668.662	24977.7
669.011	24882.79
669.361	24835.34
669.711	24857.93
670.06	24771.61
670.41	24674.66
670.76	24731.38
671.109	24873.75
671.459	24778.16
671.808	24686.41
672.157	24744.72
672.507	24672.4
672.856	24641.89
673.205	24577.26
673.554	24889.8
673.904	24546.3
674.253	24768.22
674.602	24561.9
674.951	24385.18
675.3	24175.24
675.649	24553.99
675.998	24698.84
676.346	24592.4
676.695	24591.5
677.044	24418.62
677.393	24469.7
677.741	24596.25
678.09	24450.94
678.438	24371.17
678.787	24452.07
679.135	24454.78
679.484	24205.97
679.832	24203.26
680.181	24175.92
680.529	24188.35
680.877	24165.75
681.225	24215.24
681.573	24286.42
681.922	24100.21
682.27	24075.36
682.618	24069.93
682.966	23916.04
683.314	24080.78
683.661	23907.45
684.009	23842.37
684.357	23766.44
684.705	23650.73
685.053	23634.69
685.4	23575.03
685.748	23568.7
686.095	23511.08
686.443	23509.27
686.79	23381.59
687.138	23493.68
687.485	23355.37
687.832	23308.6
688.18	23179.79
688.527	23077.64
688.874	23151.31
689.221	23071.31
689.568	22969.17
689.915	22872.22
690.262	22779.34
690.609	22776.41
690.956	22560.59
691.303	22694.6
691.65	22572.8
691.997	22367.38
692.344	22371.22
692.69	22147.72
693.037	22207.38
693.383	21984.11
693.73	22121.96
694.077	21938.46
694.423	21953.6
694.769	21788.41
695.116	21853.95
695.462	21673.16
695.808	21501.41
696.155	21597.68
696.501	21345.71
696.847	21431.13
697.193	21193.85
697.539	21264.13
697.885	21054.64
698.231	20944.59
698.577	20952.73
698.923	20950.47
699.269	20730.36
699.614	20672.06
699.96	20549.12
700.306	20489.46
700.651	20440.87
700.997	20343.48
701.342	20392.06
701.688	20239.75
702.033	20245.4
702.379	20190.94
702.724	19992.53
703.069	20114.78
703.415	19734.9
703.76	19833.43
704.105	19780.78
704.45	19740.1
704.795	19607.22
705.14	19482.93
705.485	19508.47
705.83	19403.39
706.175	19443.84
706.52	19416.04
706.865	19376.5
707.209	19203.85
707.554	19161.81
707.899	19156.39
708.243	18969.5
708.588	18940.35
708.932	18882.72
709.277	18871.2
709.621	18796.62
709.966	18610.87
710.31	18732.9
710.654	18574.26
710.998	18632.56
711.342	18627.59
711.687	18607.25
712.031	18540.59
712.375	18445.22
712.719	18446.35
713.063	18372.45
713.407	18497.88
713.75	18372.91
714.094	18297.88
714.438	18368.39
714.782	18253.81
715.125	18306.92
715.469	18361.38
715.812	18214.72
716.156	18199.58
716.499	18211.56
716.843	18174.95
717.186	18185.12
717.53	18188.96
717.873	18191.44
718.216	18175.17
718.559	18153.93
718.902	18011.56
719.246	18108.73
719.589	18022.63
719.932	17971.56
720.275	18154.83
720.617	18055.85
720.96	18062.41
721.303	18078.23
721.646	18074.84
721.989	18013.59
722.331	18083.65
722.674	18050.43
723.016	18030.77
723.359	17959.36
723.701	18020.37
724.044	17960.71
724.386	17877.33
724.729	18075.74
725.071	18021.05
725.413	17958
725.755	18081.16
726.097	17962.97
726.439	18011.56
726.782	17985.8
727.124	17967.04
727.465	18106.25
727.807	17998
728.149	18030.32
728.491	17959.58
728.833	18113.48
729.175	17978.57
729.516	18068.51
729.858	18103.76
730.199	18181.05
730.541	18165.68
730.882	18116.42
731.224	18104.89
731.565	18068.06
731.906	18193.02
732.248	18226.47
732.589	18216.07
732.93	18240.48
733.271	18181.5
733.612	18277.54
733.953	18390.99
734.294	18315.73
734.635	18388.95
734.976	18548.27
735.317	18393.47
735.658	18433.7
735.999	18513.92
736.339	18590.3
736.68	18617.87
737.021	18657.42
737.361	18687.47
737.702	18775.83
738.042	18731.54
738.383	18948.48
738.723	18957.75
739.063	18872.1
739.404	19122.27
739.744	19021.7
740.084	19062.15
740.424	19257.63
740.764	19292.2
741.104	19498.53
741.444	19373.33
741.784	19462.37
742.124	19574.23
742.464	19709.14
742.804	19717.73
743.143	19784.62
743.483	20030.04
743.823	20022.13
744.162	20149.13
744.502	20304.16
744.841	20443.59
745.181	20574.88
745.52	20566.97
745.86	20789.57
746.199	20863.69
746.538	21031.14
746.877	21292.6
747.216	21425.48
747.556	21405.6
747.895	21671.35
748.234	21796.55
748.573	21839.93
748.911	22253.26
749.25	22267.95
749.589	22343.88
749.928	22706.13
750.267	23019.79
750.605	23072.9
750.944	23145.89
751.283	23358.09
751.621	23757.62
751.96	23744.06
752.298	24134.11
752.636	24291.17
752.975	24610.48
753.313	24755.11
753.651	25136.34
753.989	25243.01
754.327	25563
754.666	25516.9
755.004	25944.69
755.342	26243.21
755.679	26366.59
756.017	26563.2
756.355	26985.11
756.693	27077.54
757.031	27479.33
757.368	27685.88
757.706	27860.11
758.044	27976.04
758.381	28265.75
758.719	28575.58
759.056	28959.07
759.394	29134.66
759.731	29233.41
760.068	29542.78
760.405	29823.23
760.743	29778.48
761.08	30258.02
761.417	30280.39
761.754	30519.93
762.091	30695.07
762.428	30863.43
762.765	31005.12
763.102	31358.55
763.438	31649.39
763.775	31494.82
764.112	31680.35
764.449	31933.91
764.785	32260.45
765.122	32206.67
765.458	32254.8
765.795	32571.18
766.131	32680.1
766.467	32743.38
766.804	32705.19
767.14	32905.41
767.476	33028.34
767.812	33250.71
768.148	33400.08
768.485	33527.76
768.821	33178.85
769.157	33448.22
769.492	33534.77
769.828	33591.72
770.164	33653.86
770.5	33747.19
770.836	33763.46
771.171	33799.85
771.507	33902.22
771.842	33653.86
772.178	33866.96
772.513	33887.08
772.849	33999.84
773.184	34137.46
773.519	34060.18
773.855	33899.96
774.19	34038.94
774.525	33877.13
774.86	33995.09
775.195	34071.7
775.53	33926.4
775.865	33847.53
776.2	33876.91
776.535	33561.66
776.87	33732.95
777.205	33798.04
777.539	33659.06
777.874	33678.49
778.209	33604.37
778.543	33529.34
778.878	33432.17
779.212	33461.32
779.547	33276.02
779.881	33418.39
780.215	33137.26
780.55	33330.71
780.884	33096.81
781.218	33113.08
781.552	33195.34
781.886	33118.06
782.22	32976.82
782.554	32838.97
782.888	32629.93
783.222	32598.07
783.556	32510.61
783.889	32515.59
784.223	32302.48
784.557	32302.48
784.89	32448.47
785.224	32212.54
785.557	32142.94
785.891	32153.56
786.224	32111.53
786.558	32130.74
786.891	31895.26
787.224	31757.41
787.557	31599
787.891	31687.58
788.224	31535.05
788.557	31605.55
788.89	31554.48
789.223	31462.51
789.556	31236.75
789.888	31262.96
790.221	31150.2
790.554	30935.97
790.887	30975.06
791.219	31025.46
791.552	30813.48
791.884	30795.63
792.217	30618.91
792.549	30582.08
792.882	30411.23
793.214	30333.72
793.546	30328.75
793.879	30184.8
794.211	29987.97
794.543	30115.87
794.875	30074.29
795.207	30064.35
795.539	29895.54
795.871	29963.56
796.203	29911.59
796.535	29664.36
796.867	29631.14
797.198	29538.94
797.53	29527.64
797.862	29313.18
798.193	29361.77
798.525	29138.05
798.856	29330.58
799.188	29035.45
799.519	28921.78
799.85	28810.37
800.182	28801.56
800.513	28858.28
800.844	28545.29
801.175	28776.93
801.506	28721.34
801.837	28467.33
802.168	28494.67
802.499	28507.1
802.83	28265.53
803.161	28250.39
803.491	28208.81
803.822	28222.14
804.153	28028.7
804.483	27908.93
804.814	27751.19
805.145	27881.36
805.475	27887.01
805.805	27675.49
806.136	27748.93
806.466	27606.79
806.796	27560.01
807.126	27531.76
807.457	27517.53
807.787	27485.89
808.117	27353.46
808.447	27282.05
808.777	27324.76
809.107	27090.87
809.436	27014.04
809.766	27012
810.096	27018.56
810.426	26909.63
810.755	26935.62
811.085	26859.69
811.414	26928.16
811.744	26713.93
812.073	26738.11
812.403	26623.76
812.732	26562.52
813.061	26681.84
813.39	26409.08
813.719	26394.62
814.049	26517.33
814.378	26452.69
814.707	26295.41
815.036	26324.56
815.365	26236.2
815.693	25982.42
816.022	25998.47
816.351	26023.1
816.68	25812.03
817.008	25935.87
817.337	25667.86
817.665	25777.23
817.994	25703.11
818.322	25843.44
818.651	25724.8
818.979	25598.48
819.307	25593.73
819.636	25548.76
819.964	25416.56
820.292	25520.74
820.62	25407.98
820.948	25583.11
821.276	25628.54
821.604	25447.97
821.932	25601.64
822.259	25456.56
822.587	25549.89
822.915	25487.3
823.243	25590.34
823.57	25424.02
823.898	25555.32
824.225	25524.81
824.553	25560.74
824.88	25466.73
825.207	25679.16
825.535	25571.81
825.862	25641.64
826.189	25566.39
826.516	25837.12
826.843	25756.22
827.17	25810.45
827.497	25661.3
827.824	25661.75
828.151	25919.37
828.478	25661.75
828.805	25891.81
829.131	25755.99
829.458	25847.51
829.785	25629.21
830.111	25846.83
830.438	25864.46
830.764	25790.11
831.09	25859.26
831.417	25656.11
831.743	25868.3
832.069	25685.93
832.395	25748.08
832.722	25756.22
833.048	25600.97
833.374	25827.17
833.7	25583.34
834.026	25692.04
834.351	25679.16
834.677	25638.93
835.003	25639.38
835.329	25653.85
835.654	25569.33
835.98	25475.32
836.306	25603.9
836.631	25555.32
836.956	25704.01
837.282	25579.27
837.607	25548.31
837.932	25432.38
838.258	25396
838.583	25368.65
838.908	25366.4
839.233	25348.09
839.558	25342.67
839.883	25297.7
840.208	25136.34
840.533	25205.95
840.858	25216.12
841.182	25175.89
841.507	25151.94
841.832	25021.09
842.156	24947.65
842.481	24960.08
842.805	24927.54
843.13	24901.32
843.454	24899.29
843.778	24693.87
844.103	24751.72
844.427	24629.92
844.751	24697.26
845.075	24608
845.399	24694.55
845.723	24375.91
846.047	24523.03
846.371	24273.54
846.695	24178.86
847.019	24100.89
847.343	24034.23
847.666	23909.03
847.99	23772.54
848.313	23701.13
848.637	23755.36
848.96	23643.73
849.284	23617.29
849.607	23436.73
849.931	23364.19
850.254	23250.52
850.577	23120.8
850.9	22965.55
851.223	23044.2
851.546	22915.84
851.869	22797.2
852.192	22911.77
852.515	22602.17
852.838	22565.56
853.161	22460.71
853.483	22347.49
853.806	22245.12
854.129	22288.96
854.451	22232.24
854.774	22081.96
855.096	22192.02
855.419	21948.63
855.741	21946.37
856.063	21849.65
856.385	21816.43
856.708	21691.01
857.03	21740.5
857.352	21638.81
857.674	21619.15
857.996	21417.12
858.318	21399.27
858.64	21430
858.961	21294.41
859.283	21273.4
859.605	21121.08
859.926	21177.8
860.248	21141.42
860.57	21005.15
860.891	20983.23
861.212	20924.03
861.534	20863.91
861.855	20786.63
862.176	20844.25
862.498	20768.78
862.819	20715.67
863.14	20690.59
863.461	20593.87
863.782	20599.97
864.103	20542.79
864.424	20486.07
864.745	20496.01
865.065	20453.3
865.386	20318.39
865.707	20352.52
866.027	20335.34
866.348	20345.74
866.668	20378.73
866.989	20215.8
867.309	20044.5
867.63	20159.07
867.95	20155.91
868.27	20027.33
868.59	20088.57
868.91	19872.3
869.23	19976.93
869.55	19957.95
869.87	20025.07
870.19	19903.04
870.51	19816.26
870.83	19814.45
871.15	19750.72
871.469	19663.72
871.789	19814.9
872.109	19668.92
872.428	19676.15
872.748	19664.62
873.067	19641.8
873.386	19669.14
873.706	19597.51
874.025	19478.41
874.344	19465.76
874.663	19562.71
874.982	19438.64
875.301	19387.34
875.62	19369.72
875.939	19270.51
876.258	19396.16
876.577	19241.36
876.896	19217.86
877.214	19236.16
877.533	19039.1
877.852	19315.03
878.17	19240.91
878.489	19119.55
878.807	19033.91
879.125	18977.86
879.444	19046.34
879.762	18986.22
880.08	19025.32
880.398	18914.81
880.716	18938.32
881.034	18802.27
881.352	18824.65
881.67	18703.52
881.988	18638.89
882.306	18636.85
882.624	18689.96
882.941	18613.13
883.259	18548.27
883.577	18569.74
883.894	18493.13
884.212	18401.61
884.529	18238.22
884.846	18235.28
885.164	18202.52
885.481	18093.82
885.798	18120.94
886.115	18065.8
886.432	18120.94
886.75	18127.04
887.067	18063.99
887.383	17957.32
887.7	17962.75
888.017	17864.9
888.334	17839.14
888.651	17777.67
888.967	17761.4
889.284	17644.79
889.6	17636.43
889.917	17612.02
890.233	17513.49
890.55	17517.11
890.866	17483.44
891.182	17445.47
891.498	17383.55
891.815	17237.12
892.131	17240.73
892.447	17235.76
892.763	17212.03
893.079	17091.58
893.395	17105.37
893.71	17033.73
894.026	16984.24
894.342	16869.9
894.657	16739.96
894.973	16777.92
895.289	16739.96
895.604	16747.64
895.92	16638.94
896.235	16602.78
896.55	16495.44
896.865	16437.59
897.181	16473.3
897.496	16410.25
897.811	16320.08
898.126	16216.58
898.441	16203.47
898.756	16175.68
899.071	15989.01
899.386	16154.43
899.7	15939.07
900.015	15848.91
900.33	15799.87
900.644	15658.4
900.959	15737.5
901.273	15667.22
901.588	15666.76
901.902	15467.22
902.216	15457.73
902.531	15466.54
902.845	15306.32
903.159	15214.12
903.473	15280.78
903.787	15168.02
904.101	15058.64
904.415	15144.97
904.729	15014.58
905.042	14883.51
905.356	14966.44
905.67	14825.88
905.984	14823.17
906.297	14821.81
906.611	14668.6
906.924	14676.51
907.237	14680.8
907.551	14630.41
907.864	14509.51
908.177	14420.02
908.491	14418.66
908.804	14304.09
909.117	14254.14
909.43	14121.49
909.743	14097.09
910.056	14080.82
910.368	14034.26
910.681	13987.71
910.994	13843.08
911.307	13850.09
911.619	13719.92
911.932	13772.8
912.244	13549.3
912.557	13663.43
912.869	13532.36
913.181	13533.03
913.494	13497.78
913.806	13389.53
914.118	13373.04
914.43	13265.7
914.742	13186.15
915.054	13101.41
915.366	13197.45
915.678	13025.25
915.99	13065.25
916.302	12879.72
916.613	12885.37
916.925	12828.65
917.236	12812.15
917.548	12694.19
917.859	12754.3
918.171	12627.07
918.482	12547.98
918.794	12473.85
919.105	12555.21
919.416	12378.71
919.727	12442.89
920.038	12307.76
920.349	12229.34
920.66	12195.67
920.971	12150.92
921.282	12138.95
921.593	12066.41
921.903	11986.86
922.214	11988.67
922.525	11920.87
922.835	11850.82
923.146	11733.76
923.456	11751.61
923.767	11664.38
924.077	11590.26
924.387	11711.61
924.697	11538.28
925.008	11603.82
925.318	11502.58
925.628	11427.55
925.938	11410.15
926.248	11305.97
926.558	11210.16
926.867	11208.35
927.177	11202.93
927.487	11145.75
927.796	11077.51
928.106	11140.78
928.416	10964.51
928.725	10937.4
929.034	10865.76
929.344	10903.5
929.653	10825.76
929.962	10825.31
930.271	10745.08
930.581	10668.7
930.89	10663.73
931.199	10569.72
931.508	10563.17
931.817	10595.71
932.125	10457.63
932.434	10428.93
932.743	10285.44
933.051	10310.52
933.36	10339.45
933.669	10214.03
933.977	10202.05
934.286	10192.33
934.594	10074.37
934.902	10020.58
935.21	10012.22
935.519	9987.36
935.827	9869.63
936.135	9809.29
936.443	9730.2
936.751	9794.6
937.059	9836.18
937.367	9720.03
937.674	9696.07
937.982	9602.29
938.29	9621.5
938.597	9516.64
938.905	9495.17
939.213	9439.58
939.52	9430.77
939.827	9443.88
940.135	9342.41
940.442	9327.49
940.749	9256.99
941.056	9295.63
941.363	9151.23
941.67	9113.49
941.977	9113.94
942.284	9061.06
942.591	8993.94
942.898	9003.89
943.205	8999.37
943.511	8906.26
943.818	8981.97
944.125	8813.38
944.431	8734.52
944.738	8739.26
945.044	8718.25
945.35	8729.54
945.657	8604.8
945.963	8606.38
946.269	8558.25
946.575	8563.9
946.881	8498.14
947.187	8500.62
947.493	8399.38
947.799	8385.82
948.105	8330.01
948.41	8220.86
948.716	8315.09
949.022	8170.24
949.327	8245.26
949.633	8109.22
949.938	8140.41
950.244	8106.28
950.549	8101.09
950.854	7991.71
951.16	7968.43
951.465	7882.56
951.77	7862.45
952.075	7859.96
952.38	7830.81
952.685	7780.19
952.99	7756.91
953.294	7799.63
953.599	7716.92
953.904	7673.08
954.209	7606.86
954.513	7626.07
954.818	7542.01
955.122	7551.27
955.426	7553.3
955.731	7462.46
956.035	7377.72
956.339	7418.62
956.643	7380.88
956.948	7362.57
957.252	7272.41
957.556	7287.32
957.86	7242.58
958.163	7232.86
958.467	7138.17
958.771	7171.62
959.075	7088.68
959.378	7057.72
959.682	7072.64
959.985	7017.95
960.289	6934.79
960.592	6859.99
960.896	6881.23
961.199	6844.85
961.502	6882.81
961.805	6773.44
962.108	6775.25
962.411	6758.52
962.714	6670.39
963.017	6659.99
963.32	6653.44
963.623	6648.47
963.926	6612.76
964.228	6585.87
964.531	6592.88
964.833	6532.77
965.136	6487.8
965.438	6390.17
965.741	6382.94
966.043	6386.1
966.345	6365.31
966.648	6328.48
966.95	6344.52
967.252	6323.05
967.554	6254.81
967.856	6221.59
968.158	6172.1
968.46	6166.22
968.761	6158.76
969.063	6100.46
969.365	6099.56
969.666	6059.78
969.968	5983.63
970.269	6000.35
970.571	6020.69
970.872	5936.62
971.174	5900.69
971.475	5876.29
971.776	5860.02
972.077	5812.79
972.378	5808.72
972.679	5784.54
972.98	5759.23
973.281	5751.77
973.582	5745.67
973.883	5710.64
974.183	5658.89
974.484	5657.08
974.785	5651.66
975.085	5582.51
975.386	5581.6
975.686	5544.77
975.986	5524.43
976.287	5476.75
976.587	5398.33
976.887	5433.59
977.187	5401.5
977.487	5407.6
977.787	5392.91
978.087	5281.27
978.387	5331.89
978.687	5282.18
978.987	5284.44
979.286	5206.47
979.586	5189.98
979.885	5213.25
980.185	5161.28
980.484	5129.41
980.784	5105.46
981.083	5060.94
981.382	5087.83
981.682	5059.58
981.981	5049.64
982.28	5020.94
982.579	4935.52
982.878	4982.75
983.177	4895.97
983.475	4914.05
983.774	4860.04
984.073	4901.17
984.372	4820.95
984.67	4784.79
984.969	4790.44
985.267	4763.1
985.566	4760.84
985.864	4733.94
986.162	4708.86
986.461	4689.65
986.759	4663.21
987.057	4603.55
987.355	4592.03
987.653	4573.72
987.951	4541.63
988.249	4524.23
988.547	4491.92
988.844	4512.71
989.142	4509.77
989.44	4465.7
989.737	4447.4
990.035	4442.88
990.332	4376.44
990.63	4385.03
990.927	4363.56
991.224	4328.98
991.521	4294.41
991.819	4291.24
992.116	4257.8
992.413	4269.1
992.71	4235.65
993.006	4230.45
993.303	4198.82
993.6	4169.21
993.897	4139.83
994.193	4161.08
994.49	4124.02
994.787	4052.61
995.083	4037.69
995.379	4077.01
995.676	3983
995.972	3982.55
996.268	3985.49
996.565	3952.72
996.861	3951.14
997.157	3914.76
997.453	3909.56
997.749	3832.05
998.044	3829.11
998.34	3844.25
998.636	3830.01
998.932	3799.96
999.227	3758.83
999.523	3744.14
999.818	3710.24
1000.114	3716.34
1000.409	3725.61
1000.704	3641.99
1001	3657.59
1001.295	3582.11
1001.59	3610.13
1001.885	3559.96
1002.18	3570.81
1002.475	3526.07
1002.77	3546.18
1003.065	3512.05
1003.359	3471.15
1003.654	3445.39
1003.949	3431.83
1004.243	3439.06
1004.538	3397.03
1004.832	3376.24
1005.127	3384.83
1005.421	3339.63
1005.715	3333.08
1006.009	3244.49
1006.304	3236.58
1006.598	3281.55
1006.892	3236.36
1007.186	3191.16
1007.48	3233.64
1007.773	3214.89
1008.067	3180.54
1008.361	3107.09
1008.655	3075
1008.948	3098.51
1009.242	3108.68
1009.535	3093.53
1009.829	3041.33
1010.122	2989.58
1010.415	2965.85
1010.708	2976.48
1011.001	2951.17
1011.295	2953.43
1011.588	2931.28
1011.881	2894.22
1012.173	2881.34
1012.466	2870.04
1012.759	2866.65
1013.052	2898.29
1013.344	2795.24
1013.637	2822.13
1013.93	2778.51
1014.222	2762.02
1014.514	2766.54
1014.807	2776.71
1015.099	2701.45
1015.391	2689.25
1015.683	2693.32
1015.976	2659.2
1016.268	2669.36
1016.56	2662.13
1016.851	2619.65
1017.143	2588.46
1017.435	2570.61
1017.727	2548.69
1018.018	2520.89
1018.31	2529.03
1018.602	2522.48
1018.893	2491.74
1019.185	2443.61
1019.476	2468.24
1019.767	2418.07
1020.058	2432.08
1020.35	2418.75
1020.641	2365.64
1020.932	2369.03
1021.223	2346.44
1021.514	2353.21
1021.804	2287.23
1022.095	2281.58
1022.386	2288.36
1022.677	2237.51
1022.967	2261.92
1023.258	2234.57
1023.548	2236.61
1023.839	2202.03
1024.129	2221.24
1024.419	2163.16
1024.709	2140.34
1025	2142.6
1025.29	2120.68
1025.58	2105.09
1025.87	2086.56
1026.16	2080.68
1026.449	2062.83
1026.739	2046.1
1027.029	2043.17
1027.319	2033.45
1027.608	2011.53
1027.898	1991.87
1028.187	1970.4
1028.477	1927.69
1028.766	1950.29
1029.055	1945.99
1029.344	1969.27
1029.634	1904.87
1029.923	1902.61
1030.212	1862.61
1030.501	1834.13
1030.79	1864.41
1031.078	1836.84
1031.367	1840.69
1031.656	1807.24
1031.945	1814.02
1032.233	1797.3
1032.522	1780.8
1032.81	1746.9
1033.099	1765.43
1033.387	1739.9
1033.675	1726.34
1033.963	1729.28
1034.251	1695.38
1034.54	1675.49
1034.828	1676.4
1035.116	1682.95
1035.403	1681.14
1035.691	1633.23
1035.979	1619.45
1036.267	1615.61
1036.554	1601.14
1036.842	1610.41
1037.129	1581.94
1037.417	1562.73
1037.704	1568.38
1037.992	1538.55
1038.279	1502.39
1038.566	1514.37
1038.853	1514.37
1039.14	1514.37
