Data from 18-4530_FLMS001491_006.txt Node
Date: Thu Apr 19 16:44:16 BST 2018
User: hsy
Spectrometer: FLMS00149
Trigger mode: 0
Integration Time (sec): 1.000000E-2
Scans to average: 10
Electric dark correction enabled: true
Nonlinearity correction enabled: false
Boxcar width: 0
XAxis mode: Wavelengths
Number of Pixels in Spectrum: 2048
>>>>>Begin Spectral Data<<<<<
341.393	-0.82
341.776	-0.82
342.16	-0.82
342.543	-55.28
342.927	-76.3
343.31	-68.61
343.693	-67.26
344.077	-69.07
344.46	-50.54
344.843	-25
345.226	-51.89
345.61	-14.83
345.993	-32.91
346.376	8.22
346.759	-2.4
347.142	21.33
347.525	32.85
347.908	58.39
348.291	63.13
348.674	89.8
349.057	108.78
349.44	141.78
349.823	150.14
350.206	173.87
350.588	208.44
350.971	228.33
351.354	255.9
351.737	253.86
352.119	283.47
352.502	308.1
352.884	287.76
353.267	308.78
353.65	320.75
354.032	323.01
354.414	333.64
354.797	334.77
355.179	349.45
355.562	368.21
355.944	366.63
356.326	367.98
356.709	353.07
357.091	369.11
357.473	381.09
357.855	384.93
358.238	388.32
358.62	389.91
359.002	396.46
359.384	370.92
359.766	363.92
360.148	372.96
360.53	389
360.912	372.96
361.294	374.99
361.676	367.31
362.057	387.65
362.439	364.14
362.821	377.25
363.203	345.16
363.584	365.72
363.966	359.85
364.348	372.96
364.729	360.08
365.111	356.69
365.493	383.8
365.874	361.88
366.256	362.11
366.637	366.18
367.019	360.3
367.4	352.17
367.781	359.4
368.163	369.79
368.544	351.94
368.925	360.98
369.306	350.58
369.688	359.4
370.069	376.8
370.45	370.7
370.831	363.24
371.212	364.59
371.593	378.61
371.974	364.82
372.355	367.08
372.736	381.09
373.117	362.56
373.498	362.79
373.879	385.84
374.26	379.06
374.641	382.22
375.021	370.02
375.402	395.55
375.783	380.87
376.163	386.74
376.544	393.52
376.925	384.26
377.305	400.98
377.686	396.91
378.066	379.28
378.447	406.63
378.827	415.89
379.208	382.45
379.588	400.3
379.968	416.34
380.349	390.58
380.729	418.15
381.109	392.39
381.489	407.53
381.87	411.83
382.25	400.07
382.63	421.32
383.01	418.38
383.39	415.22
383.77	419.51
384.15	439.62
384.53	421.99
384.91	438.04
385.29	450.24
385.67	440.3
386.049	460.64
386.429	425.16
386.809	451.6
387.189	450.02
387.568	473.97
387.948	459.06
388.328	473.07
388.707	454.08
389.087	450.69
389.466	468.55
389.846	485.5
390.225	476.68
390.605	483.46
390.984	483.69
391.363	494.08
391.743	503.57
392.122	512.84
392.501	494.31
392.881	498.38
393.26	497.02
393.639	518.04
394.018	523.46
394.397	518.72
394.776	528.43
395.155	518.26
395.534	533.86
395.913	551.71
396.292	557.81
396.671	526.4
397.05	534.08
397.429	571.37
397.808	581.99
398.186	558.71
398.565	551.93
398.944	563.91
399.323	574.31
399.701	570.01
400.08	574.98
400.458	591.71
400.837	565.49
401.215	598.49
401.594	626.28
401.972	611.59
402.351	626.96
402.729	635.77
403.107	606.85
403.486	626.51
403.864	625.61
404.242	630.58
404.62	635.55
404.999	674.42
405.377	651.59
405.755	664.7
406.133	669.67
406.511	676.23
406.889	669.22
407.267	707.64
407.645	718.26
408.023	722.55
408.401	714.64
408.779	726.39
409.156	754.64
409.534	723.91
409.912	782.89
410.29	766.39
410.667	776.34
411.045	790.8
411.422	792.38
411.8	794.87
412.178	833.51
412.555	837.58
412.933	829.67
413.31	854.07
413.687	856.11
414.065	870.57
414.442	865.15
414.819	873.73
415.197	902.89
415.574	922.77
415.951	898.37
416.328	899.72
416.705	931.59
417.082	953.96
417.46	936.78
417.837	950.12
418.214	973.84
418.591	942.66
418.967	984.24
419.344	1002.09
419.721	999.38
420.098	1001.41
420.475	1007.06
420.852	1028.53
421.228	1027.18
421.605	1037.35
421.982	1062.88
422.358	1078.93
422.735	1066.72
423.111	1075.99
423.488	1094.75
423.864	1100.62
424.241	1121.86
424.617	1132.94
424.994	1148.98
425.37	1167.29
425.746	1162.31
426.123	1181.75
426.499	1180.84
426.875	1175.87
427.251	1230.33
427.627	1232.14
428.003	1245.25
428.379	1289.32
428.756	1282.99
429.132	1305.81
429.507	1310.11
429.883	1309.2
430.259	1365.25
430.635	1370.9
431.011	1387.39
431.387	1404.57
431.763	1424.45
432.138	1412.25
432.514	1476.2
432.89	1458.13
433.265	1487.73
433.641	1481.63
434.016	1519.82
434.392	1553.94
434.767	1577.22
435.143	1585.81
435.518	1608.63
435.894	1619.93
436.269	1638.46
436.644	1649.31
437.02	1688.63
437.395	1676.65
437.77	1706.03
438.145	1767.95
438.52	1769.53
438.895	1779.47
439.271	1798.23
439.646	1808.62
440.021	1868.96
440.395	1840.71
440.77	1839.13
441.145	1863.54
441.52	1896.31
441.895	1863.76
442.27	1872.13
442.645	1905.57
443.019	1925.01
443.394	1927.04
443.769	1966.36
444.143	1925.91
444.518	1986.93
444.892	2019.24
445.267	2008.85
445.641	2009.07
446.016	2007.72
446.39	2062.4
446.764	2048.84
447.139	2072.8
447.513	2094.72
447.887	2099.92
448.262	2075.74
448.636	2133.59
449.01	2144.21
449.384	2171.55
449.758	2200.93
450.132	2174.94
450.506	2195.06
450.88	2230.53
451.254	2217.43
451.628	2267.6
452.002	2303.75
452.376	2353.24
452.75	2360.25
453.123	2373.58
453.497	2390.53
453.871	2428.27
454.244	2478.66
454.618	2539.23
454.992	2541.26
455.365	2530.41
455.739	2611.54
456.112	2630.75
456.486	2643.18
456.859	2640.69
457.232	2732.44
457.606	2729.73
457.979	2775.38
458.352	2808.82
458.725	2830.97
459.099	2845.66
459.472	2897.86
459.845	2978.09
460.218	2984.64
460.591	3035.03
460.964	3028.48
461.337	3077.07
461.71	3162.94
462.083	3162.04
462.456	3190.51
462.829	3171.75
463.201	3272.99
463.574	3273.67
463.947	3284.29
464.32	3376.95
464.692	3375.82
465.065	3414.68
465.438	3439.32
465.81	3525.87
466.183	3522.48
466.555	3585.3
466.928	3640.44
467.3	3655.13
467.672	3724.05
468.045	3745.97
468.417	3768.57
468.789	3763.6
469.161	3830.04
469.534	3915.01
469.906	3979.87
470.278	3996.82
470.65	4031.39
471.022	4102.58
471.394	4185.74
471.766	4225.28
472.138	4238.39
472.51	4368.11
472.882	4400.2
473.253	4461.44
473.625	4538.04
473.997	4613.97
474.369	4619.62
474.74	4639.74
475.112	4746.63
475.484	4835.66
475.855	4890.13
476.227	4978.03
476.598	5104.81
476.97	5154.75
477.341	5199.27
477.713	5315.88
478.084	5336.44
478.455	5493.05
478.827	5505.93
479.198	5666.83
479.569	5686.04
479.94	5813.94
480.311	5874.73
480.682	6026.59
481.053	6095.52
481.424	6237.21
481.795	6342.29
482.166	6400.14
482.537	6458.9
482.908	6572.79
483.279	6703.64
483.65	6816.85
484.021	6928.94
484.391	7009.84
484.762	7042.16
485.133	7181.82
485.503	7263.17
485.874	7397.63
486.244	7497.51
486.615	7594.69
486.985	7675.82
487.356	7856.38
487.726	8027.22
488.097	8127.33
488.467	8175.01
488.837	8339.3
489.207	8433.99
489.578	8593.53
489.948	8630.37
490.318	8847.54
490.688	8863.13
491.058	8963.24
491.428	9091.37
491.798	9287.75
492.168	9380.86
492.538	9436.67
492.908	9571.36
493.278	9746.72
493.648	9712.37
494.017	9881.86
494.387	9988.07
494.757	10050.89
495.126	10187.39
495.496	10221.51
495.866	10364.33
496.235	10408.62
496.605	10545.12
496.974	10677.32
497.344	10785.79
497.713	10806.81
498.082	10869.63
498.452	10998.44
498.821	11093.58
499.19	11114.82
499.559	11183.07
499.928	11275.27
500.298	11380.8
500.667	11507.8
501.036	11444.3
501.405	11556.39
501.774	11574.7
502.143	11677.29
502.512	11826.89
502.88	11891.98
503.249	11906.89
503.618	11979.43
503.987	12106.89
504.356	12149.82
504.724	12277.5
505.093	12276.82
505.462	12411.96
505.83	12421.68
506.199	12496.48
506.567	12683.14
506.936	12652.41
507.304	12767.66
507.672	12932.63
508.041	12899.86
508.409	13061.89
508.777	13189.79
509.145	13246.06
509.514	13177.59
509.882	13401.54
510.25	13422.56
510.618	13498.03
510.986	13488.32
511.354	13684.02
511.722	13772.38
512.09	13901.64
512.458	13882.21
512.826	14015.54
513.193	14024.8
513.561	14093.05
513.929	14112.03
514.297	14383.21
514.664	14380.5
515.032	14526.26
515.4	14542.3
515.767	14634.95
516.135	14754.95
516.502	14692.81
516.869	14818.9
517.237	14954.95
517.604	14878.11
517.972	15175.28
518.339	15201.04
518.706	15203.07
519.073	15228.38
519.44	15385.89
519.808	15628.37
520.175	15583.86
520.542	15745.21
520.909	15764.87
521.276	15864.07
521.643	16042.6
522.009	16091.41
522.376	16208.25
522.743	16265.19
523.11	16469.71
523.477	16645.3
523.843	16713.09
524.21	16845.52
524.577	16977.94
524.943	17045.74
525.31	17084.83
525.676	17336.35
526.043	17442.34
526.409	17395.33
526.776	17698.38
527.142	17679.62
527.508	17823.57
527.874	17930.69
528.241	17944.47
528.607	18120.96
528.973	18231.24
529.339	18341.07
529.705	18497.9
530.071	18595.75
530.437	18692.47
530.803	18845.24
531.169	18808.4
531.535	18813.83
531.901	18988.74
532.267	18991.22
532.632	19181.28
532.998	19184.44
533.364	19272.8
533.73	19376.07
534.095	19489.29
534.461	19615.16
534.826	19580.36
535.192	19632.34
535.557	19727.02
535.923	19710.98
536.288	19832.11
536.653	19950.07
537.019	19824.42
537.384	19978.77
537.749	20012.44
538.114	19999.56
538.479	20000.01
538.845	19915.04
539.21	20028.03
539.575	20051.53
539.94	20128.37
540.305	20274.35
540.67	20195.94
541.034	20246.56
541.399	20173.79
541.764	20265.09
542.129	20398.64
542.494	20419.43
542.858	20426.89
543.223	20332.21
543.587	20512.09
543.952	20480.68
544.316	20522.71
544.681	20416.72
545.045	20516.83
545.41	20592.54
545.774	20550.28
546.138	20539.21
546.503	20623.5
546.867	20644.97
547.231	20631.63
547.595	20690.39
547.959	20755.92
548.324	20633.44
548.688	20783.27
549.052	20782.82
549.416	20699.65
549.779	20817.84
550.143	20792.31
550.507	20921.12
550.871	21038.4
551.235	20872.53
551.599	21068.23
551.962	21089.93
552.326	21146.65
552.689	21131.96
553.053	20976.93
553.417	21158.85
553.78	21333.76
554.143	21317.04
554.507	21213.54
554.87	21385.29
555.234	21372.63
555.597	21266.64
555.96	21362.69
556.323	21458.73
556.686	21429.13
557.05	21644.26
557.413	21563.81
557.776	21620.76
558.139	21703.24
558.502	21778.27
558.865	21831.15
559.228	22067.75
559.59	21936.23
559.953	22061.2
560.316	22278.82
560.679	22109.11
561.041	22225.26
561.404	22306.62
561.767	22591.58
562.129	22462.77
562.492	22623.44
562.854	22601.3
563.217	22616.21
563.579	22735.31
563.941	22814.17
564.304	22973.49
564.666	23226.59
565.028	23036.54
565.39	23197.67
565.753	23371.45
566.115	23481.05
566.477	23551.1
566.839	23712
567.201	23808.27
567.563	23677.2
567.925	24048.94
568.287	23989.74
568.648	24115.16
569.01	24391.08
569.372	24541.81
569.734	24483.06
570.095	24595.14
570.457	24774.8
570.819	24746.1
571.18	24851.86
571.542	25082.82
571.903	25001.69
572.265	25267.67
572.626	25398.51
572.987	25456.36
573.349	25551.73
573.71	25679.86
574.071	25748.56
574.432	26008.21
574.794	26111.04
575.155	26023.58
575.516	26052.51
575.877	26227.19
576.238	26139.51
576.599	26255.44
576.96	26398.71
577.32	26484.36
577.681	26503.12
578.042	26659.27
578.403	26703.11
578.763	26654.07
579.124	26817.23
579.485	27010.45
579.845	27033.05
580.206	26911.69
580.566	26984.69
580.927	27143.1
581.287	27181.74
581.648	27197.56
582.008	27317.78
582.368	27370.44
582.728	27312.13
583.089	27290.21
583.449	27325.24
583.809	27269.65
584.169	27371.12
584.529	27278.69
584.889	27515.75
585.249	27497.89
585.609	27323.89
585.969	27457.89
586.329	27377.67
586.688	27450.44
587.048	27295.64
587.408	27519.59
587.768	27339.48
588.127	27493.37
588.487	27398.91
588.846	27637.32
589.206	27276.2
589.565	27326.6
589.925	27560.04
590.284	27411.79
590.643	27347.16
591.003	27406.14
591.362	27624.44
591.721	27488.4
592.08	27359.14
592.44	27439.59
592.799	27494.5
593.158	27429.87
593.517	27288.18
593.876	27586.93
594.235	27396.2
594.593	27426.48
594.952	27409.76
595.311	27221.74
595.67	27397.78
596.029	27617.89
596.387	27557.55
596.746	27606.36
597.104	27497.21
597.463	27447.27
597.822	27583.31
598.18	27421.96
598.538	27469.19
598.897	27649.08
599.255	27441.17
599.613	27722.75
599.972	27610.88
600.33	27508.29
600.688	27438.01
601.046	27441.17
601.404	27698.11
601.762	27544.67
602.12	27663.99
602.478	27696.76
602.836	27645.23
603.194	27445.46
603.552	27607.49
603.91	27547.38
604.268	27665.12
604.625	27573.6
604.983	27694.5
605.341	27606.82
605.698	27725.23
606.056	27880.03
606.413	27624.67
606.771	27910.31
607.128	27690.2
607.485	27704.89
607.843	27720.94
608.2	27803.65
608.557	27943.98
608.914	27919.8
609.272	27985.11
609.629	28067.82
609.986	27990.99
610.343	28070.08
610.7	28255.16
611.057	28211.77
611.414	28196.86
611.771	28248.83
612.127	28378.77
612.484	28282.05
612.841	28349.62
613.198	28242.73
613.554	28241.15
613.911	28419.22
614.267	28449.51
614.624	28553.91
614.98	28577.19
615.337	28642.04
615.693	28480.01
616.05	28588.94
616.406	28746.22
616.762	28618.32
617.118	28727.01
617.475	28709.61
617.831	28764.53
618.187	28810.4
618.543	28874.35
618.899	29063.73
619.255	28874.81
619.611	29001.58
619.967	29029.38
620.323	29166.32
620.678	28832.1
621.034	28950.96
621.39	29041.58
621.746	29134.91
622.101	29296.49
622.457	29124.97
622.812	29210.62
623.168	29281.8
623.523	29145.99
623.879	29341.91
624.234	29276.15
624.589	29289.94
624.945	29268.92
625.3	29323.83
625.655	29263.95
626.01	29411.29
626.365	29265.76
626.72	29146.66
627.075	29162.71
627.43	29233.67
627.785	29232.99
628.14	29336.04
628.495	29279.09
628.85	29304.62
629.205	29223.5
629.559	29354.57
629.914	29263.04
630.269	29208.36
630.623	29150.5
630.978	29077.29
631.332	29150.96
631.687	29105.31
632.041	29197.06
632.396	29119.32
632.75	29113.9
633.104	29060.56
633.459	28894.24
633.813	28978.53
634.167	28925.43
634.521	28901.47
634.875	28883.17
635.229	28804.07
635.583	28656.28
635.937	28660.57
636.291	28679.1
636.645	28685.88
636.999	28574.02
637.352	28572.67
637.706	28511.2
638.06	28666
638.413	28447.7
638.767	28335.38
639.121	28466.45
639.474	28389.17
639.828	28356.63
640.181	28281.6
640.534	28397.3
640.888	28242.28
641.241	28060.14
641.594	28167.03
641.947	28133.36
642.301	28097.65
642.654	28158.21
643.007	28018.33
643.36	28149.85
643.713	28037.31
644.066	28265.56
644.419	28075.28
644.771	27667.61
645.124	27456.09
645.477	27564.11
645.83	27467.39
646.182	27422.19
646.535	27410.21
646.888	27462.87
647.24	27255.87
647.593	27501.51
647.945	27354.17
648.298	27295.86
648.65	27177.9
649.002	26978.58
649.355	26825.14
649.707	26701.08
650.059	26700.63
650.411	27236.43
650.763	27327.28
651.115	27889.52
651.467	27689.3
651.819	27706.25
652.171	27734.72
652.523	27575.63
652.875	27525.91
653.227	27486.14
653.578	27711.67
653.93	27609.08
654.282	27528.4
654.633	27495.18
654.985	27595.07
655.337	27517.33
655.688	27639.13
656.039	27706.47
656.391	27404.34
656.742	27512.36
657.094	27549.19
657.445	27627.61
657.796	27608.17
658.147	27415.64
658.498	27521.17
658.849	27575.86
659.2	27425.58
659.551	27493.15
659.902	27687.94
660.253	27508.06
660.604	27578.79
660.955	27520.04
661.306	27669.64
661.656	27562.52
662.007	27518.46
662.358	27602.3
662.708	27668.74
663.059	27630.09
663.409	27469.64
663.76	27759.35
664.11	27753.71
664.461	27870.54
664.811	27699.47
665.161	27750.99
665.511	27667.83
665.862	27748.06
666.212	27826.25
666.562	27853.82
666.912	27793.03
667.262	27578.34
667.612	27618.57
667.962	27665.8
668.312	27650.88
668.662	27855.17
669.011	27801.84
669.361	27698.57
669.711	27795.06
670.06	27694.05
670.41	27691.33
670.76	27642.52
671.109	27753.93
671.459	27767.94
671.808	27674.39
672.157	27712.58
672.507	27573.6
672.856	27532.69
673.205	27583.54
673.554	27596.2
673.904	27465.58
674.253	27778.34
674.602	27499.93
674.951	27220.16
675.3	26971.13
675.649	27494.05
675.998	27471
676.346	27554.16
676.695	27590.55
677.044	27176.77
677.393	27295.86
677.741	27461.06
678.09	27441.85
678.438	27395.52
678.787	27366.14
679.135	27354.85
679.484	27259.48
679.832	27309.65
680.181	27237.11
680.529	27112.14
680.877	27114.4
681.225	27068.07
681.573	27226.49
681.922	27146.26
682.27	26926.61
682.618	26997.12
682.966	26910.79
683.314	26828.08
683.661	26814.97
684.009	26754.86
684.357	26705.37
684.705	26659.5
685.053	26552.15
685.4	26552.61
685.748	26431.48
686.095	26460.41
686.443	26238.72
686.79	26239.39
687.138	26264.93
687.485	26121.66
687.832	25956.92
688.18	25958.95
688.527	25919.18
688.874	25804.83
689.221	25882.12
689.568	25626.53
689.915	25636.25
690.262	25604.38
690.609	25511.05
690.956	25385.86
691.303	25462.69
691.65	25315.8
691.997	25283.04
692.344	25102.93
692.69	25019.99
693.037	25041.91
693.383	24712.2
693.73	24828.13
694.077	24707.68
694.423	24530.74
694.769	24436.96
695.116	24507.69
695.462	24382.95
695.808	24328.71
696.155	24248.26
696.501	24137.3
696.847	24104.08
697.193	23937.08
697.539	24080.13
697.885	23707.48
698.231	23810.98
698.577	23661.16
698.923	23634.27
699.269	23478.56
699.614	23392.92
699.96	23348.4
700.306	23317.44
700.651	23154.73
700.997	23116.77
701.342	23049.87
701.688	22881.29
702.033	22936.43
702.379	22807.17
702.724	22699.15
703.069	22668.64
703.415	22405.37
703.76	22514.97
704.105	22534.18
704.45	22379.38
704.795	22316.33
705.14	22258.48
705.485	22117.47
705.83	22039.96
706.175	22013.29
706.52	22007.87
706.865	21944.82
707.209	21843.13
707.554	21858.49
707.899	21773.07
708.243	21717.25
708.588	21626.63
708.932	21596.58
709.277	21542.34
709.621	21369.24
709.966	21305.06
710.31	21401.78
710.654	21267.77
710.998	21277.94
711.342	21424.15
711.687	21255.12
712.031	21115.91
712.375	21049.02
712.719	21046.09
713.063	20961.79
713.407	21113.65
713.75	21019.65
714.094	20962.7
714.438	20854.23
714.782	20851.97
715.125	20795.02
715.469	20905.07
715.812	20608.36
716.156	20708.92
716.499	20812.19
716.843	20709.82
717.186	20701.46
717.53	20808.35
717.873	20748.24
718.216	20644.06
718.559	20524.97
718.902	20498.53
719.246	20480.22
719.589	20484.07
719.932	20339.21
720.275	20401.81
720.617	20455.37
720.96	20359.1
721.303	20406.78
721.646	20496.04
721.989	20285.43
722.331	20399.77
722.674	20261.02
723.016	20330.4
723.359	20270.06
723.701	20334.01
724.044	20356.16
724.386	20196.16
724.729	20251.3
725.071	20225.09
725.413	20254.24
725.755	20181.48
726.097	20216.73
726.439	20212.43
726.782	20255.37
727.124	20320.45
727.465	20167.69
727.807	20197.07
728.149	20261.7
728.491	20210.85
728.833	20170.63
729.175	20297.63
729.516	20202.72
729.858	20163.62
730.199	20297.18
730.541	20097.64
730.882	20167.46
731.224	20311.42
731.565	20227.12
731.906	20211.98
732.248	20244.75
732.589	20224.86
732.93	20170.4
733.271	20234.58
733.612	20372.88
733.953	20376.5
734.294	20382.83
734.635	20300.12
734.976	20356.39
735.317	20380.34
735.658	20417.85
735.999	20432.09
736.339	20403.62
736.68	20463.73
737.021	20621.24
737.361	20472.77
737.702	20669.15
738.042	20615.14
738.383	20649.03
738.723	20675.25
739.063	20607.45
739.404	20773.32
739.744	20765.64
740.084	20814.23
740.424	20913.66
740.764	20895.81
741.104	20966.31
741.444	20982.81
741.784	20981.45
742.124	21074.11
742.464	21025.97
742.804	21193.65
743.143	21277.72
743.483	21381.67
743.823	21310.71
744.162	21528.56
744.502	21554.32
744.841	21474.1
745.181	21651.94
745.52	21729.23
745.86	21883.58
746.199	21922.22
746.538	21930.13
746.877	22154.76
747.216	22276.34
747.556	22104.36
747.895	22284.24
748.234	22502.32
748.573	22519.72
748.911	22667.74
749.25	22721.3
749.589	22780.5
749.928	23044.9
750.267	23174.16
750.605	23220.72
750.944	23338
751.283	23484.89
751.621	23665.23
751.96	23741.61
752.298	23805.56
752.636	23939.57
752.975	24108.6
753.313	24239.67
753.651	24603.96
753.989	24469.05
754.327	24652.32
754.666	24705.88
755.004	24898.41
755.342	25099.09
755.679	25178.86
756.017	25321.68
756.355	25461.56
756.693	25668.56
757.031	25789.46
757.368	25785.62
757.706	26101.77
758.044	26083.24
758.381	26278.26
758.719	26312.16
759.056	26525.04
759.394	26545.6
759.731	26527.3
760.068	26739.49
760.405	26979.49
760.743	26903.33
761.08	27120.05
761.417	27185.36
761.754	27307.16
762.091	27298.8
762.428	27483.43
762.765	27418.12
763.102	27706.93
763.438	27692.92
763.775	27641.62
764.112	27885.45
764.449	27946.24
764.785	27933.14
765.122	27926.13
765.458	27945.79
765.795	27970.65
766.131	28124.54
766.467	28110.08
766.804	28043.64
767.14	28002.74
767.476	28087.93
767.812	28095.39
768.148	28248.16
768.485	28251.32
768.821	28165.67
769.157	28085.67
769.492	28249.29
769.828	28225.33
770.164	28066.69
770.5	28127.03
770.836	28315.72
771.171	28216.74
771.507	28108.95
771.842	27945.11
772.178	28037.09
772.513	28114.83
772.849	28043.87
773.184	28009.52
773.519	27866.7
773.855	27698.34
774.19	27828.96
774.525	27795.06
774.86	27796.19
775.195	27767.49
775.53	27633.03
775.865	27587.61
776.2	27513.94
776.535	27360.72
776.87	27326.82
777.205	27313.49
777.539	27340.61
777.874	27363.43
778.209	27106.94
778.543	27202.76
778.878	27077.11
779.212	27088.86
779.547	26859.49
779.881	26914.41
780.215	26789.44
780.55	26874.18
780.884	26686.61
781.218	26631.25
781.552	26713.96
781.886	26541.76
782.22	26400.75
782.554	26318.26
782.888	26095.22
783.222	26102.9
783.556	26030.36
783.889	25922.57
784.223	25783.59
784.557	25772.97
784.89	25804.15
785.224	25631.73
785.557	25507.89
785.891	25492.07
786.224	25511.28
786.558	25420.66
786.891	25370.72
787.224	25188.35
787.557	25237.39
787.891	25077.39
788.224	25144.51
788.557	25080.78
788.89	25032.19
789.223	24846.44
789.556	24712.88
789.888	24705.42
790.221	24541.13
790.554	24501.36
790.887	24447.58
791.219	24454.81
791.552	24353.34
791.884	24149.51
792.217	24253.68
792.549	24078.32
792.882	23953.35
793.214	23934.82
793.546	23922.17
793.879	23698.22
794.211	23570.09
794.543	23745
794.875	23659.12
795.207	23505.68
795.539	23430.66
795.871	23535.74
796.203	23334.39
796.535	23269.98
796.867	23197.89
797.198	23124.22
797.53	23068.4
797.862	22864.34
798.193	22854.63
798.525	22838.58
798.856	22890.78
799.188	22608.3
799.519	22560.17
799.85	22453.73
800.182	22433.17
800.513	22481.3
800.844	22202.89
801.175	22353.85
801.506	22371.25
801.837	22280.4
802.168	22254.87
802.499	22243.12
802.83	22045.15
803.161	21922.45
803.491	22058.94
803.822	21996.34
804.153	21724.26
804.483	21677.03
804.814	21577.6
805.145	21718.61
805.475	21677.71
805.805	21580.99
806.136	21628.89
806.466	21441.55
806.796	21393.19
807.126	21230.04
807.457	21359.98
807.787	21270.49
808.117	21196.14
808.447	21176.03
808.777	21260.99
809.107	21082.92
809.436	21071.85
809.766	21037.72
810.096	21082.92
810.426	20905.3
810.755	20964.96
811.085	20852.64
811.414	20816.71
811.744	20713.44
812.073	20715.47
812.403	20669.82
812.732	20588.47
813.061	20510.28
813.39	20354.8
813.719	20429.38
814.049	20527.91
814.378	20455.14
814.707	20312.77
815.036	20323.17
815.365	20171.98
815.693	20087.47
816.022	20108.71
816.351	20059.67
816.68	20006.79
817.008	20027.81
817.337	19835.72
817.665	19838.66
817.994	19930.63
818.322	19908.71
818.651	19823.07
818.979	19777.64
819.307	19837.3
819.636	19756.63
819.964	19631.66
820.292	19698.32
820.62	19659.45
820.948	19647.7
821.276	19721.37
821.604	19628.27
821.932	19699.68
822.259	19689.74
822.587	19646.57
822.915	19688.15
823.243	19689.51
823.57	19574.26
823.898	19679.57
824.225	19659.91
824.553	19688.15
824.88	19682.05
825.207	19745.78
825.535	19647.48
825.862	19687.7
826.189	19602.73
826.516	19675.27
826.843	19724.09
827.17	19795.04
827.497	19744.2
827.824	19725.89
828.151	19833.69
828.478	19630.53
828.805	19911.65
829.131	19762.5
829.458	19720.47
829.785	19593.24
830.111	19666.91
830.438	19704.88
830.764	19665.78
831.09	19760.7
831.417	19631.21
831.743	19720.47
832.069	19664.65
832.395	19638.21
832.722	19750.75
833.048	19526.35
833.374	19719.34
833.7	19615.39
834.026	19655.16
834.351	19596.86
834.677	19625.33
835.003	19516.18
835.329	19591.43
835.654	19481.61
835.98	19476.86
836.306	19463.53
836.631	19369.74
836.956	19521.83
837.282	19426.01
837.607	19390.76
837.932	19412.46
838.258	19271.89
838.583	19360.71
838.908	19321.84
839.233	19253.82
839.558	19386.24
839.883	19168.17
840.208	19133.37
840.533	19058.11
840.858	19162.97
841.182	19140.15
841.507	19153.25
841.832	19079.58
842.156	18998.91
842.481	19022.64
842.805	19036.19
843.13	18889.31
843.454	18890.21
843.778	18695.19
844.103	18777.44
844.427	18732.47
844.751	18718.24
845.075	18696.77
845.399	18644.34
845.723	18583.1
846.047	18623.32
846.371	18443.67
846.695	18322.31
847.019	18329.77
847.343	18241.86
847.666	18197.8
847.99	18104.92
848.313	18064.47
848.637	18024.02
848.96	17887.07
849.284	17903.79
849.607	17678.94
849.931	17699.28
850.254	17672.84
850.577	17539.28
850.9	17404.82
851.223	17409.8
851.546	17288.9
851.869	17129.35
852.192	17353.3
852.515	17099.52
852.838	17052.52
853.161	16995.8
853.483	16855.91
853.806	16935.91
854.129	16818.63
854.451	16824.5
854.774	16724.16
855.096	16591.29
855.419	16649.59
855.741	16543.83
856.063	16466.32
856.385	16434
856.708	16413.21
857.03	16424.51
857.352	16331.18
857.674	16264.74
857.996	16287.57
858.318	16075.82
858.64	16184.74
858.961	16118.98
859.283	16055.48
859.605	16008.03
859.926	15997.18
860.248	15900.46
860.57	15842.61
860.891	15855.26
861.212	15719.22
861.534	15680.58
861.855	15667.92
862.176	15658.2
862.498	15711.99
862.819	15751.31
863.14	15608.26
863.461	15546.12
863.782	15527.13
864.103	15567.13
864.424	15510.64
864.745	15494.82
865.065	15410.53
865.386	15367.14
865.707	15363.52
866.027	15404.2
866.348	15273.58
866.668	15377.99
866.989	15334.82
867.309	15244.66
867.63	15170.53
867.95	15284.88
868.27	15045.34
868.59	15203.75
868.91	15108.84
869.23	15151.55
869.55	15066.36
869.87	15218.67
870.19	15130.99
870.51	15035.85
870.83	15016.41
871.15	14919.69
871.469	14908.62
871.789	14882.41
872.109	14941.16
872.428	14968.73
872.748	14848.51
873.067	14813.93
873.386	14776.87
873.706	14810.32
874.025	14730.09
874.344	14712.24
874.663	14748.4
874.982	14677.66
875.301	14625.91
875.62	14607.16
875.939	14621.62
876.258	14694.16
876.577	14527.84
876.896	14523.32
877.214	14597.67
877.533	14528.97
877.852	14459.82
878.17	14446.26
878.489	14488.74
878.807	14470.66
879.125	14443.09
879.444	14392.25
879.762	14312.25
880.08	14399.25
880.398	14295.3
880.716	14342.76
881.034	14241.97
881.352	14234.96
881.67	14111.58
881.988	14145.02
882.306	14147.74
882.624	14148.41
882.941	13992.26
883.259	13951.13
883.577	13893.5
883.894	13932.83
884.212	13845.6
884.529	13893.5
884.846	13877.23
885.164	13786.61
885.481	13843.11
885.798	13766.28
886.115	13660.97
886.432	13712.72
886.75	13682.89
887.067	13695.32
887.383	13600.63
887.7	13609.67
888.017	13451.26
888.334	13547.3
888.651	13477.24
888.967	13458.26
889.284	13395.21
889.6	13379.62
889.917	13392.5
890.233	13271.83
890.55	13316.12
890.866	13292.39
891.182	13216.01
891.498	13200.87
891.815	13094.66
892.131	13080.42
892.447	13079.51
892.763	12963.81
893.079	12917.49
893.395	12876.58
893.71	12886.53
894.026	12900.76
894.342	12843.81
894.657	12723.59
894.973	12778.73
895.289	12663.93
895.604	12639.53
895.92	12599.08
896.235	12561.56
896.55	12536.93
896.865	12507.33
897.181	12447.44
897.496	12419.19
897.811	12354.11
898.126	12341.46
898.441	12297.84
898.756	12267.33
899.071	12127.9
899.386	12202.7
899.7	12109.6
900.015	12059.43
900.33	12022.14
900.644	11895.59
900.959	12018.07
901.273	11934.69
901.588	11880.9
901.902	11770.85
902.216	11728.36
902.531	11745.54
902.845	11700.12
903.159	11600.68
903.473	11568.82
903.787	11507.35
904.101	11507.58
904.415	11471.87
904.729	11417.86
905.042	11366.57
905.356	11368.37
905.67	11321.59
905.984	11337.64
906.297	11192.11
906.611	11154.37
906.924	11154.14
907.237	11140.58
907.551	11099.45
907.864	11000.93
908.177	11046.57
908.491	10920.02
908.804	10825.34
909.117	10879.35
909.43	10838.67
909.743	10697.66
910.056	10726.13
910.368	10666.24
910.681	10645.23
910.994	10616.53
911.307	10554.38
911.619	10395.07
911.932	10495.85
912.244	10397.33
912.557	10413.6
912.869	10277.55
913.181	10286.59
913.494	10216.99
913.806	10145.58
914.118	10130.67
914.43	10120.95
914.742	10053.83
915.054	10025.36
915.366	9995.53
915.678	9932.03
915.99	9882.99
916.302	9854.51
916.613	9786.04
916.925	9845.93
917.236	9769.32
917.548	9704.01
917.859	9744.01
918.171	9659.04
918.482	9557.8
918.794	9579.27
919.105	9470.57
919.416	9376.34
919.727	9425.15
920.038	9343.34
920.349	9360.06
920.66	9320.74
920.971	9347.86
921.282	9260.41
921.593	9205.04
921.903	9145.38
922.214	9066.51
922.525	9099.05
922.835	9085.72
923.146	9014.76
923.456	8960.98
923.767	8948.78
924.077	8931.38
924.387	8860.42
924.697	8762.34
925.008	8821.32
925.318	8730.7
925.628	8745.17
925.938	8633.76
926.248	8684.15
926.558	8626.52
926.867	8532.29
927.177	8577.71
927.487	8472.86
927.796	8453.87
928.106	8450.03
928.416	8399.19
928.725	8403.25
929.034	8307.44
929.344	8356.48
929.653	8293.88
929.962	8189.25
930.271	8197.84
930.581	8178.63
930.89	8096.6
931.199	8056.82
931.508	8103.37
931.817	8062.7
932.125	8076.03
932.434	7911.52
932.743	7911.52
933.051	7862.25
933.36	7867
933.669	7816.38
933.977	7838.97
934.286	7789.94
934.594	7765.76
934.902	7724.18
935.21	7587.46
935.519	7580.22
935.827	7525.31
936.135	7511.75
936.443	7472.2
936.751	7438.08
937.059	7455.48
937.367	7382.72
937.674	7390.4
937.982	7370.06
938.29	7294.36
938.597	7295.03
938.905	7248.71
939.213	7213.45
939.52	7220.23
939.827	7170.29
940.135	7166.45
940.442	7105.43
940.749	7108.15
941.056	7078.77
941.363	7016.17
941.67	7007.13
941.977	6971.43
942.284	6950.86
942.591	6886.91
942.898	6890.3
943.205	6873.35
943.511	6792.9
943.818	6823.41
944.125	6755.84
944.431	6738.89
944.738	6703.41
945.044	6714.94
945.35	6636.52
945.657	6640.36
945.963	6572.34
946.269	6606.92
946.575	6564.43
946.881	6514.04
947.187	6501.83
947.493	6386.36
947.799	6441.72
948.105	6371.89
948.41	6361.05
948.716	6307.72
949.022	6296.42
949.327	6332.35
949.633	6192.92
949.938	6243.99
950.244	6209.41
950.549	6208.51
950.854	6053.48
951.16	6122.86
951.465	6038.8
951.77	6096.65
952.075	6057.78
952.38	6044.22
952.685	6030.21
952.99	5926.71
953.294	5920.16
953.599	5937.78
953.904	5843.09
954.209	5822.08
954.513	5875.86
954.818	5806.94
955.122	5825.69
955.426	5729.65
955.731	5808.07
956.035	5721.52
956.339	5688.75
956.643	5650.33
956.948	5589.32
957.252	5632.03
957.556	5578.7
957.86	5568.75
958.163	5564.68
958.467	5517.23
958.771	5460.05
959.075	5486.27
959.378	5458.7
959.682	5437.46
959.985	5374.86
960.289	5340.51
960.592	5311.36
960.896	5369.66
961.199	5300.06
961.502	5277.46
961.805	5251.25
962.108	5167.41
962.411	5220.74
962.714	5116.79
963.017	5176.9
963.32	5131.02
963.623	5096.45
963.926	5137.12
964.228	5149.33
964.531	5107.75
964.833	5064.58
965.136	5012.16
965.438	4972.16
965.741	4953.17
966.043	4905.72
966.345	4935.77
966.648	4911.59
966.95	4880.86
967.252	4842.22
967.554	4877.7
967.856	4843.35
968.158	4796.12
968.46	4778.94
968.761	4750.69
969.063	4712.28
969.365	4729.9
969.666	4722.9
969.968	4642.22
970.269	4626.18
970.571	4580.98
970.872	4604.26
971.174	4557.48
971.475	4546.86
971.776	4536.91
972.077	4544.82
972.378	4481.32
972.679	4531.94
972.98	4465.5
973.281	4434.09
973.582	4432.74
973.883	4423.25
974.183	4355
974.484	4397.03
974.785	4336.02
975.085	4319.97
975.386	4311.61
975.686	4287.88
975.986	4279.75
976.287	4310.03
976.587	4240.2
976.887	4183.93
977.187	4213.08
977.487	4221.22
977.787	4183.7
978.087	4134.21
978.387	4110.94
978.687	4143.93
978.987	4052.18
979.286	4071.62
979.586	4056.02
979.885	4038.85
980.185	3990.49
980.484	3960.21
980.784	3998.4
981.083	3970.83
981.382	3925.18
981.682	3975.57
981.981	3939.64
982.28	3926.31
982.579	3840.21
982.878	3870.27
983.177	3843.15
983.475	3846.99
983.774	3799.76
984.073	3735.35
984.372	3724.28
984.67	3762.25
984.969	3752.98
985.267	3743.94
985.566	3698.52
985.864	3665.3
986.162	3664.17
986.461	3648.35
986.759	3623.94
987.057	3573.1
987.355	3595.47
987.653	3591.4
987.951	3567.45
988.249	3569.71
988.547	3543.72
988.844	3475.25
989.142	3522.7
989.44	3496.04
989.737	3500.33
990.035	3466.43
990.332	3464.63
990.63	3418.3
990.927	3429.6
991.224	3381.46
991.521	3380.11
991.819	3356.83
992.116	3395.02
992.413	3307.34
992.71	3308.47
993.006	3310.05
993.303	3263.73
993.6	3292.65
993.897	3249.04
994.193	3225.54
994.49	3234.8
994.787	3210.17
995.083	3171.98
995.379	3166.78
995.676	3184.86
995.972	3138.99
996.268	3135.37
996.565	3135.82
996.861	3107.8
997.157	3088.82
997.453	3066.22
997.749	3055.15
998.044	3001.14
998.34	2992.32
998.636	3000.91
998.932	3005.88
999.227	2957.97
999.523	2944.87
999.818	2946.45
1000.114	2938.09
1000.409	2885.66
1000.704	2890.4
1001	2872.1
1001.295	2863.51
1001.59	2842.95
1001.885	2831.65
1002.18	2810.18
1002.475	2785.32
1002.77	2790.97
1003.065	2778.77
1003.359	2725.66
1003.654	2745.55
1003.949	2696.29
1004.243	2706.91
1004.538	2687.25
1004.832	2702.84
1005.127	2698.54
1005.421	2643.18
1005.715	2649.28
1006.009	2658.32
1006.304	2576.29
1006.598	2547.59
1006.892	2545.33
1007.186	2546.68
1007.48	2504.65
1007.773	2531.77
1008.067	2497.87
1008.361	2507.14
1008.655	2503.3
1008.948	2459.68
1009.242	2439.12
1009.535	2438.89
1009.829	2417.42
1010.122	2414.48
1010.415	2409.96
1010.708	2374.26
1011.001	2365.45
1011.295	2363.86
1011.588	2351.21
1011.881	2335.84
1012.173	2340.36
1012.466	2317.09
1012.759	2303.08
1013.052	2258.33
1013.344	2242.96
1013.637	2246.81
1013.93	2246.58
1014.222	2198.22
1014.514	2226.24
1014.807	2173.59
1015.099	2175.62
1015.391	2157.77
1015.683	2121.61
1015.976	2130.2
1016.268	2116.64
1016.56	2115.28
1016.851	2078.45
1017.143	2059.69
1017.435	2032.57
1017.727	2045.91
1018.018	2068.5
1018.31	2032.57
1018.602	2013.82
1018.893	1990.54
1019.185	1977.89
1019.476	1960.26
1019.767	1946.47
1020.058	1940.82
1020.35	1921.62
1020.641	1916.19
1020.932	1897.44
1021.223	1913.25
1021.514	1897.21
1021.804	1846.36
1022.095	1871
1022.386	1844.56
1022.677	1845.69
1022.967	1826.25
1023.258	1831.45
1023.548	1811.79
1023.839	1803.65
1024.129	1782.86
1024.419	1762.3
1024.709	1756.2
1025	1737.67
1025.29	1736.08
1025.58	1693.37
1025.87	1718.91
1026.16	1680.94
1026.449	1700.61
1026.739	1675.97
1027.029	1639.14
1027.319	1625.58
1027.608	1630.78
1027.898	1607.05
1028.187	1621.96
1028.477	1623.09
1028.766	1605.01
1029.055	1555.3
1029.344	1571.34
1029.634	1545.13
1029.923	1520.72
1030.212	1519.37
1030.501	1534.51
1030.79	1536.32
1031.078	1511.23
1031.367	1487.28
1031.656	1479.14
1031.945	1482.76
1032.233	1456.77
1032.522	1457
1032.81	1441.63
1033.099	1427.17
1033.387	1427.84
1033.675	1408.18
1033.963	1395.98
1034.251	1407.28
1034.54	1373.38
1034.828	1350.33
1035.116	1361.4
1035.403	1376.77
1035.691	1353.27
1035.979	1335.64
1036.267	1326.6
1036.554	1323.21
1036.842	1316.21
1037.129	1286.38
1037.417	1299.71
1037.704	1278.24
1037.992	1263.33
1038.279	1255.42
1038.566	1277.79
1038.853	1277.79
1039.14	1277.79
