Data from 18-4530_FLMS001491_003.txt Node
Date: Thu Apr 19 16:44:08 BST 2018
User: hsy
Spectrometer: FLMS00149
Trigger mode: 0
Integration Time (sec): 1.000000E-2
Scans to average: 10
Electric dark correction enabled: true
Nonlinearity correction enabled: false
Boxcar width: 0
XAxis mode: Wavelengths
Number of Pixels in Spectrum: 2048
>>>>>Begin Spectral Data<<<<<
341.393	-11.09
341.776	-11.09
342.16	-11.09
342.543	-69.39
342.927	-71.2
343.31	-75.72
343.693	-71.88
344.077	-56.28
344.46	-72.1
344.843	-47.92
345.226	-54.25
345.61	-44.08
345.993	-14.48
346.376	-4.76
346.759	13.54
347.142	31.17
347.525	33.43
347.908	45.18
348.291	93.09
348.674	117.27
349.057	107.78
349.44	146.2
349.823	130.6
350.206	191.62
350.588	219.87
350.971	229.81
351.354	254.22
351.737	275.01
352.119	275.23
352.502	293.09
352.884	317.04
353.267	314.78
353.65	350.26
354.032	345.51
354.414	349.58
354.797	347.1
355.179	343.03
355.562	355.91
355.944	353.87
356.326	362.24
356.709	378.51
357.091	352.52
357.473	347.55
357.855	380.09
358.238	378.73
358.62	379.18
359.002	361.33
359.384	371.95
359.766	372.86
360.148	386.19
360.53	376.47
360.912	383.48
361.294	359.07
361.676	364.27
362.057	383.7
362.439	362.69
362.821	374.44
363.203	378.06
363.584	367.89
363.966	356.36
364.348	357.72
364.729	358.39
365.111	363.14
365.493	349.58
365.874	351.16
366.256	356.59
366.637	380.77
367.019	369.47
367.4	345.29
367.781	357.26
368.163	356.81
368.544	356.81
368.925	351.84
369.306	353.42
369.688	355.91
370.069	358.62
370.45	370.15
370.831	377.15
371.212	372.86
371.593	370.6
371.974	346.64
372.355	376.7
372.736	343.71
373.117	346.87
373.498	380.77
373.879	364.04
374.26	367.66
374.641	357.04
375.021	374.44
375.402	373.31
375.783	365.85
376.163	403.82
376.544	397.04
376.925	390.94
377.305	378.96
377.686	397.26
378.066	379.86
378.447	403.37
378.827	396.13
379.208	411.05
379.588	383.25
379.968	403.37
380.349	390.94
380.729	412.63
381.109	410.37
381.489	431.16
381.87	411.05
382.25	410.6
382.63	412.4
383.01	423.48
383.39	450.37
383.77	408.56
384.15	423.93
384.53	427.32
384.91	435.23
385.29	459.63
385.67	439.52
386.049	446.98
386.429	449.69
386.809	433.65
387.189	473.65
387.568	450.37
387.948	446.53
388.328	469.8
388.707	470.03
389.087	459.86
389.466	470.93
389.846	495.11
390.225	496.7
390.605	465.06
390.984	487.66
391.363	488.56
391.743	497.83
392.122	514.32
392.501	517.26
392.881	524.04
393.26	499.18
393.639	502.35
394.018	524.04
394.397	538.5
394.776	521.33
395.155	547.99
395.534	542.57
395.913	544.15
396.292	543.25
396.671	547.77
397.05	558.16
397.429	577.6
397.808	550.03
398.186	575.79
398.565	579.41
398.944	562.46
399.323	575.34
399.701	566.52
400.08	595.22
400.458	572.4
400.837	570.37
401.215	606.3
401.594	624.6
401.972	618.95
402.351	615.34
402.729	611.72
403.107	619.4
403.486	640.65
403.864	616.24
404.242	637.71
404.62	642.68
404.999	676.13
405.377	672.74
405.755	663.25
406.133	678.61
406.511	670.93
406.889	693.98
407.267	675.67
407.645	676.8
408.023	709.57
408.401	748.44
408.779	728.1
409.156	757.03
409.534	741.66
409.912	766.97
410.29	769.68
410.667	789.8
411.045	785.95
411.422	799.29
411.8	796.12
412.178	801.55
412.555	824.82
412.933	829.79
413.31	841.55
413.687	868.21
414.065	887.19
414.442	848.78
414.819	885.61
415.197	896.91
415.574	908.89
415.951	895.56
416.328	913.41
416.705	956.57
417.082	941.88
417.46	928.1
417.837	964.25
418.214	961.09
418.591	977.81
418.967	981.65
419.344	986.4
419.721	982.56
420.098	1007.19
420.475	1001.09
420.852	1008.32
421.228	1017.81
421.605	1032.73
421.982	1059.17
422.358	1065.04
422.735	1081.77
423.111	1072.05
423.488	1095.55
423.864	1100.75
424.241	1121.09
424.617	1124.48
424.994	1125.38
425.37	1162.44
425.746	1143.91
426.123	1178.03
426.499	1170.58
426.875	1192.04
427.251	1217.13
427.627	1238.15
428.003	1277.69
428.379	1260.97
428.756	1268.65
429.132	1282.89
429.507	1311.14
429.883	1332.15
430.259	1334.19
430.635	1373.51
431.011	1349.55
431.387	1387.97
431.763	1411.93
432.138	1408.54
432.514	1468.42
432.89	1451.93
433.265	1492.83
433.641	1496.9
434.016	1522.88
434.392	1561.53
434.767	1549.55
435.143	1596.78
435.518	1591.81
435.894	1666.83
436.269	1649.66
436.644	1647.17
437.02	1634.75
437.395	1684.91
437.77	1724.01
438.145	1724.23
438.52	1725.14
438.895	1779.6
439.271	1765.36
439.646	1802.65
440.021	1835.19
440.395	1862.54
440.77	1834.29
441.145	1853.95
441.52	1888.75
441.895	1893.5
442.27	1916.09
442.645	1884.46
443.019	1904.57
443.394	1974.62
443.769	1951.35
444.143	1937.56
444.518	1983.44
444.892	2017.11
445.267	1985.24
445.641	1995.64
446.016	2040.84
446.39	2044
446.764	2046.26
447.139	2070.67
447.513	2091.91
447.887	2090.78
448.262	2126.71
448.636	2135.3
449.01	2144.79
449.384	2178.01
449.758	2208.06
450.132	2242.86
450.506	2224.56
450.88	2267.5
451.254	2242.64
451.628	2286.48
452.002	2317.89
452.376	2313.82
452.75	2368.74
453.123	2380.04
453.497	2402.18
453.871	2404.67
454.244	2473.14
454.618	2489.64
454.992	2559.24
455.365	2551.56
455.739	2606.7
456.112	2630.43
456.486	2630.2
456.859	2647.37
457.232	2738.9
457.606	2752.91
457.979	2805.56
458.352	2828.61
458.725	2836.3
459.099	2871.32
459.472	2870.42
459.845	2944.77
460.218	2955.39
460.591	2990.19
460.964	3042.84
461.337	3084.65
461.71	3137.98
462.083	3215.27
462.456	3213.69
462.829	3196.29
463.201	3289.62
463.574	3246.91
463.947	3355.6
464.32	3359.45
464.692	3391.31
465.065	3439.22
465.438	3458.65
465.81	3481.02
466.183	3544.98
466.555	3582.72
466.928	3606.67
467.3	3657.29
467.672	3675.37
468.045	3737.51
468.417	3781.81
468.789	3836.04
469.161	3832.88
469.534	3904.74
469.906	3967.57
470.278	4003.5
470.65	4046.89
471.022	4072.42
471.394	4167.56
471.766	4207.78
472.138	4241.68
472.51	4350.61
472.882	4413.88
473.253	4429.02
473.625	4454.11
473.997	4605.97
474.369	4632.86
474.74	4639.41
475.112	4765.28
475.484	4798.05
475.855	4895.9
476.227	4938.16
476.598	5075.11
476.97	5080.08
477.341	5186.52
477.713	5252.96
478.084	5293.63
478.455	5511.25
478.827	5459.73
479.198	5614.08
479.569	5638.48
479.94	5841.87
480.311	5922.09
480.682	6024.01
481.053	6156.89
481.424	6238.01
481.795	6294.74
482.166	6368.41
482.537	6427.61
482.908	6588.06
483.279	6707.15
483.65	6783.08
484.021	6883.42
484.391	6964.77
484.762	7062.63
485.133	7134.26
485.503	7261.72
485.874	7470.07
486.244	7497.64
486.615	7645.89
486.985	7734.02
487.356	7901.92
487.726	7915.26
488.097	8108.7
488.467	8217.62
488.837	8319.09
489.207	8415.81
489.578	8565.41
489.948	8689.7
490.318	8828
490.688	8807.89
491.058	9032.29
491.428	9125.62
491.798	9232.29
492.168	9386.41
492.538	9471.6
492.908	9572.16
493.278	9670.92
493.648	9753.18
494.017	9922.89
494.387	9996.79
494.757	10064.58
495.126	10079.95
495.496	10320.17
495.866	10383.22
496.235	10489.43
496.605	10553.83
496.974	10601.29
497.344	10735.97
497.713	10800.15
498.082	10832.92
498.452	10886.25
498.821	11088.06
499.19	11115.4
499.559	11243.08
499.928	11254.61
500.298	11318.56
500.667	11486.69
501.036	11515.39
501.405	11577.08
501.774	11591.77
502.143	11721.03
502.512	11812.33
502.88	11897.3
503.249	11961.25
503.618	12048.48
503.987	12096.62
504.356	12140.46
504.724	12267.01
505.093	12293.9
505.462	12415.48
505.83	12354.69
506.199	12532.54
506.567	12612.54
506.936	12641.69
507.304	12866.31
507.672	12908.12
508.041	12920.32
508.409	13058.17
508.777	13163.26
509.145	13269.02
509.514	13165.97
509.882	13302.23
510.25	13365.74
510.618	13508.78
510.986	13541.55
511.354	13633.07
511.722	13653.86
512.09	13814.99
512.458	13858.15
512.826	13977.47
513.193	14093.17
513.561	14051.59
513.929	14117.81
514.297	14341.98
514.664	14326.16
515.032	14390.79
515.4	14584.91
515.767	14588.3
516.135	14685.7
516.502	14629.21
516.869	14830.78
517.237	15009.76
517.604	14949.2
517.972	15032.36
518.339	15118.91
518.706	15274.61
519.073	15283.65
519.44	15311.22
519.808	15436.19
520.175	15596.19
520.542	15715.05
520.909	15847.03
521.276	15836.41
521.643	15969.96
522.009	15987.81
522.376	16073.24
522.743	16297.41
523.11	16469.84
523.477	16603.84
523.843	16589.15
524.21	16811.75
524.577	16896.49
524.943	16927.45
525.31	16958.41
525.676	17206.09
526.043	17358.85
526.409	17447.66
526.776	17635
527.142	17604.27
527.508	17760.42
527.874	17913.19
528.241	17901.89
528.607	18089.91
528.973	18218.49
529.339	18201.99
529.705	18372.16
530.071	18518.82
530.437	18593.62
530.803	18620.51
531.169	18754.75
531.535	18735.09
531.901	18760.62
532.267	18840.62
532.632	19068.41
532.998	19007.4
533.364	19050.33
533.73	19205.58
534.095	19357.22
534.461	19281.29
534.826	19359.25
535.192	19527.83
535.557	19553.14
535.923	19549.3
536.288	19706.59
536.653	19695.51
537.019	19663.65
537.384	19716.76
537.749	19751.78
538.114	19863.42
538.479	19782.52
538.845	19775.74
539.21	19763.31
539.575	19910.2
539.94	19949.07
540.305	19911.55
540.67	19866.13
541.034	19946.81
541.399	20009.18
541.764	20064.54
542.129	19993.81
542.494	20103.64
542.858	20150.64
543.223	20057.76
543.587	20270.19
543.952	20071.77
544.316	20175.73
544.681	20169.17
545.045	20242.39
545.41	20323.97
545.774	20312.22
546.138	20329.62
546.503	20352.9
546.867	20341.82
547.231	20375.5
547.595	20512.44
547.959	20416.17
548.324	20452.1
548.688	20421.14
549.052	20571.42
549.416	20461.14
549.779	20556.96
550.143	20559.22
550.507	20630.63
550.871	20624.53
551.235	20576.62
551.599	20768.71
551.962	20657.07
552.326	20790.63
552.689	20720.35
553.053	20661.59
553.417	20775.71
553.78	20874.01
554.143	20828.59
554.507	20938.42
554.87	20994.69
555.234	21152.88
555.597	20880.11
555.96	21081.01
556.323	21166.43
556.686	21047.34
557.05	21290.73
557.413	21250.27
557.776	21224.74
558.139	21428.35
558.502	21279.2
558.865	21433.55
559.228	21532.53
559.59	21575.01
559.953	21480.78
560.316	21815.01
560.679	21769.58
561.041	21923.25
561.404	22038.5
561.767	22189.01
562.129	21993.53
562.492	22256.35
562.854	22230.59
563.217	22317.59
563.579	22336.35
563.941	22496.34
564.304	22598.04
564.666	22803.68
565.028	22649.11
565.39	22808.88
565.753	23020.85
566.115	23003.22
566.477	23163.9
566.839	23175.65
567.201	23367.51
567.563	23361.63
567.925	23532.02
568.287	23512.36
568.648	23687.05
569.01	23742.41
569.372	24079.35
569.734	24005.46
570.095	24066.25
570.457	24217.88
570.819	24380.59
571.18	24269.4
571.542	24461.04
571.903	24623.75
572.265	24652.9
572.626	24865.09
572.987	24889.05
573.349	25031.19
573.71	25274.35
574.071	25196.61
574.432	25332.2
574.794	25651.29
575.155	25503.27
575.516	25448.36
575.877	25582.14
576.238	25641.35
576.599	25879.76
576.96	25834.79
577.32	25880.44
577.681	26112.75
578.042	26210.82
578.403	26270.03
578.763	26136.02
579.124	26242.46
579.485	26442.91
579.845	26398.61
580.206	26351.38
580.566	26424.38
580.927	26589.8
581.287	26625.5
581.648	26505.05
582.008	26783.46
582.368	26667.99
582.728	26762.45
583.089	26781.65
583.449	26712.73
583.809	26791.82
584.169	26825.95
584.529	26723.35
584.889	26967.64
585.249	26864.59
585.609	26677.7
585.969	26857.36
586.329	26790.02
586.688	26832.27
587.048	26865.04
587.408	26856.23
587.768	26859.62
588.127	26832.95
588.487	26772.39
588.846	27104.13
589.206	26738.72
589.565	26793.41
589.925	26932.16
590.284	26800.41
590.643	26806.51
591.003	26839.28
591.362	27050.35
591.721	26877.7
592.08	26849.22
592.44	26962.89
592.799	26936
593.158	26894.65
593.517	26865.49
593.876	26966.73
594.235	26832.5
594.593	26818.94
594.952	26890.8
595.311	26767.19
595.67	26935.32
596.029	27041.31
596.387	26996.79
596.746	26995.21
597.104	26722.9
597.463	26810.13
597.822	27038.82
598.18	26877.02
598.538	26888.09
598.897	27003.12
599.255	26868.21
599.613	27173.06
599.972	26911.14
600.33	26961.99
600.688	26966.28
601.046	26904.14
601.404	27051.03
601.762	26993.4
602.12	27092.15
602.478	27132.15
602.836	26990.69
603.194	26877.47
603.552	27062.78
603.91	26913.4
604.268	26899.84
604.625	27034.3
604.983	27206.95
605.341	27018.71
605.698	27120.18
606.056	27255.09
606.413	27093.06
606.771	27200.85
607.128	27183
607.485	27205.6
607.843	27150.46
608.2	27325.82
608.557	27439.26
608.914	27282.43
609.272	27365.37
609.629	27499.15
609.986	27535.31
610.343	27460.51
610.7	27664.12
611.057	27624.34
611.414	27539.6
611.771	27664.12
612.127	27669.77
612.484	27714.29
612.841	27839.71
613.198	27634.74
613.554	27689.43
613.911	27851.46
614.267	27872.7
614.624	27851.91
614.98	27964
615.337	28083.54
615.693	28029.98
616.05	28004.45
616.406	28049.64
616.762	28116.99
617.118	28046.25
617.475	28067.04
617.831	28106.37
618.187	28171.45
618.543	28225.91
618.899	28360.14
619.255	28350.65
619.611	28327.15
619.967	28431.78
620.323	28536.18
620.678	28496.86
621.034	28476.07
621.39	28379.58
621.746	28446.92
622.101	28648.27
622.457	28306.59
622.812	28586.58
623.168	28483.3
623.523	28521.5
623.879	28561.04
624.234	28523.3
624.589	28563.3
624.945	28583.64
625.3	28615.28
625.655	28577.31
626.01	28685.56
626.365	28746.35
626.72	28491.89
627.075	28552
627.43	28638.1
627.785	28606.69
628.14	28658.22
628.495	28575.96
628.85	28567.14
629.205	28443.98
629.559	28603.98
629.914	28524.66
630.269	28466.58
630.623	28370.09
630.978	28301.39
631.332	28502.29
631.687	28601.72
632.041	28390.65
632.396	28454.38
632.75	28335.74
633.104	28364.89
633.459	28139.58
633.813	28286.25
634.167	28217.32
634.521	28227.72
634.875	28248.28
635.229	28144.33
635.583	28047.84
635.937	27985.01
636.291	28120.83
636.645	27930.55
636.999	27951.57
637.352	27956.99
637.706	27789.76
638.06	27952.92
638.413	27809.88
638.767	27821.4
639.121	27862.08
639.474	27689.2
639.828	27737.11
640.181	27630.67
640.534	27743.89
640.888	27479.26
641.241	27448.76
641.594	27559.04
641.947	27535.53
642.301	27452.6
642.654	27453.95
643.007	27471.35
643.36	27543.44
643.713	27413.95
644.066	27591.35
644.419	27136.45
644.771	27006.96
645.124	26719.74
645.477	26782.56
645.83	26732.62
646.182	26658.72
646.535	26701.43
646.888	26697.36
647.24	26733.07
647.593	26868.88
647.945	26634.54
648.298	26596.57
648.65	26506.86
649.002	26281.33
649.355	26315.45
649.707	26043.14
650.059	26185.51
650.411	26511.38
650.763	26754.31
651.115	27211.25
651.467	27011.25
651.819	27133.28
652.171	26999.95
652.523	26938.49
652.875	26884.7
653.227	26882.22
653.578	27080.63
653.93	26937.81
654.282	26842.22
654.633	26834.76
654.985	26937.58
655.337	26938.03
655.688	26879.05
656.039	27014.64
656.391	26798.15
656.742	26806.51
657.094	26852.39
657.445	26936.45
657.796	26981.65
658.147	26902.33
658.498	27106.17
658.849	26986.85
659.2	27029.11
659.551	26904.59
659.902	27175.77
660.253	26921.54
660.604	27120.85
660.955	26828.21
661.306	27127.86
661.656	26848.55
662.007	27076.79
662.358	27041.31
662.708	27126.05
663.059	26979.84
663.409	26902.56
663.76	26987.3
664.11	27111.59
664.461	27008.09
664.811	27112.27
665.161	27034.53
665.511	27047.41
665.862	27077.24
666.212	27100.74
666.562	27246.28
666.912	27123.79
667.262	27091.93
667.612	27054.42
667.962	27162.89
668.312	26945.72
668.662	27202.21
669.011	27143.23
669.361	27022.1
669.711	27091.93
670.06	26997.24
670.41	27090.57
670.76	26931.71
671.109	27110.01
671.459	26982.55
671.808	27064.58
672.157	27100.74
672.507	26886.51
672.856	26883.35
673.205	26871.37
673.554	26953.85
673.904	26769
674.253	26959.5
674.602	26947.3
674.951	26601.32
675.3	26414.66
675.649	26886.51
675.998	26963.8
676.346	26917.02
676.695	26935.77
677.044	26732.62
677.393	26773.75
677.741	26892.16
678.09	26726.06
678.438	26687.65
678.787	26701.66
679.135	26678.83
679.484	26569.46
679.832	26533.07
680.181	26450.82
680.529	26432.06
680.877	26453.98
681.225	26380.08
681.573	26606.07
681.922	26374.21
682.27	26306.64
682.618	26494.43
682.966	26204.04
683.314	26270.03
683.661	26165.4
684.009	26214.89
684.357	25945.74
684.705	26060.32
685.053	26143.25
685.4	25824.39
685.748	25775.58
686.095	25702.81
686.443	25573.1
686.79	25658.07
687.138	25684.73
687.485	25474.34
687.832	25360.22
688.18	25494.68
688.527	25373.1
688.874	25232.32
689.221	25281.36
689.568	25029.84
689.915	24987.8
690.262	25025.54
690.609	24920.01
690.956	24720.92
691.303	24810.41
691.65	24662.16
691.997	24655.16
692.344	24426.91
692.69	24445.9
693.037	24400.7
693.383	24177.2
693.73	24317.54
694.077	24095.4
694.423	23982.86
694.769	23981.95
695.116	23868.74
695.462	23751
695.808	23737.67
696.155	23685.46
696.501	23660.15
696.847	23606.82
697.193	23456.54
697.539	23420.61
697.885	23266.94
698.231	23219.94
698.577	23053.39
698.923	23026.95
699.269	22929.1
699.614	22843.23
699.96	22760.52
700.306	22821.98
700.651	22638.71
700.997	22572.95
701.342	22457.47
701.688	22400.3
702.033	22336.8
702.379	22260.64
702.724	22120.53
703.069	22198.5
703.415	21962.8
703.76	21983.14
704.105	21984.27
704.45	21881.9
704.795	21745.4
705.14	21692.3
705.485	21727.55
705.83	21563.26
706.175	21676.7
706.52	21497.05
706.865	21408.24
707.209	21434.68
707.554	21263.61
707.899	21324.4
708.243	21165.53
708.588	21110.17
708.932	21087.79
709.277	21034.46
709.621	21046.66
709.966	20920.11
710.31	20949.72
710.654	20723.28
710.998	20810.96
711.342	20824.52
711.687	20721.02
712.031	20683.96
712.375	20565.55
712.719	20546.11
713.063	20456.85
713.407	20598.99
713.75	20496.62
714.094	20460.24
714.438	20362.16
714.782	20354.25
715.125	20321.26
715.469	20479.9
715.812	20238.1
716.156	20259.34
716.499	20154.48
716.843	20222.05
717.186	20079.46
717.53	20213.92
717.873	20163.07
718.216	20187.93
718.559	20122.39
718.902	19921.5
719.246	20038.1
719.589	19973.92
719.932	19968.95
720.275	20002.4
720.617	20080.81
720.96	20095.5
721.303	19959.69
721.646	20045.56
721.989	19914.72
722.331	19945
722.674	19864.32
723.016	19926.69
723.359	19758.79
723.701	19834.27
724.044	19821.16
724.386	19754.95
724.729	19746.13
725.071	19841.27
725.413	19828.62
725.755	19800.82
726.097	19768.05
726.439	19721.95
726.782	19671.33
727.124	19779.8
727.465	19752.91
727.807	19676.08
728.149	19782.97
728.491	19831.55
728.833	19824.1
729.175	19824.78
729.516	19738.9
729.858	19765.79
730.199	19851.89
730.541	19869.29
730.882	19734.83
731.224	19843.53
731.565	19715.17
731.906	19816.41
732.248	19866.36
732.589	19776.64
732.93	19773.7
733.271	19855.51
733.612	19815.28
733.953	19874.04
734.294	19822.74
734.635	19925.56
734.976	19969.18
735.317	19889.18
735.658	19949.07
735.999	19987.48
736.339	19904.55
736.68	20018.89
737.021	20040.36
737.361	20018.67
737.702	20140.25
738.042	20096.18
738.383	20096.63
738.723	20269.74
739.063	20174.6
739.404	20522.38
739.744	20293.24
740.084	20273.58
740.424	20488.49
740.764	20368.49
741.104	20573
741.444	20547.92
741.784	20447.81
742.124	20608.94
742.464	20628.6
742.804	20711.98
743.143	20688.48
743.483	20761.02
743.823	20852.09
744.162	20836.05
744.502	21013.44
744.841	21070.62
745.181	21252.31
745.52	21262.25
745.86	21358.97
746.199	21516.26
746.538	21416.82
746.877	21649.81
747.216	21699.08
747.556	21817.49
747.895	21974.78
748.234	21926.64
748.573	22108.33
748.911	22079.41
749.25	22183.36
749.589	22292.28
749.928	22524.59
750.267	22771.36
750.605	22668.99
750.944	22862.44
751.283	23031.47
751.621	23132.03
751.96	23088.64
752.298	23354.85
752.636	23621.29
752.975	23543.77
753.313	23727.95
753.651	24019.92
753.989	23975.17
754.327	24195.96
754.666	24139.92
755.004	24356.86
755.342	24590.75
755.679	24761.82
756.017	24960.69
756.355	25121.13
756.693	25147.12
757.031	25390.73
757.368	25342.37
757.706	25641.57
758.044	25559.99
758.381	25774.68
758.719	25923.82
759.056	26129.02
759.394	26131.73
759.731	26103.25
760.068	26334.21
760.405	26508.89
760.743	26462.57
761.08	26723.58
761.417	26805.16
761.754	26936.68
762.091	27045.15
762.428	26968.32
762.765	27149.55
763.102	27386.16
763.438	27344.13
763.775	27353.84
764.112	27510.22
764.449	27540.96
764.785	27724.45
765.122	27464.8
765.458	27530.11
765.795	27697.79
766.131	27839.71
766.467	27896.43
766.804	27879.25
767.14	27875.64
767.476	27759.48
767.812	27789.09
768.148	28076.76
768.485	27976.2
768.821	27782.31
769.157	27742.31
769.492	27851.91
769.828	27962.87
770.164	27680.84
770.5	27785.02
770.836	27865.92
771.171	27757.22
771.507	27869.54
771.842	27536.44
772.178	27762.65
772.513	27753.38
772.849	27600.39
773.184	27640.16
773.519	27701.4
773.855	27518.81
774.19	27545.02
774.525	27534.18
774.86	27472.94
775.195	27585.7
775.53	27338.7
775.865	27270.68
776.2	27178.25
776.535	27071.59
776.87	27109.1
777.205	27035.66
777.539	26846.06
777.874	27073.85
778.209	26760.41
778.543	26889.9
778.878	26558.61
779.212	26668.44
779.547	26464.15
779.881	26610.59
780.215	26354.55
780.55	26357.48
780.884	26228.67
781.218	26274.55
781.552	26269.13
781.886	26202.91
782.22	26093.76
782.554	25854
782.888	25832.53
783.222	25760.66
783.556	25741.68
783.889	25596.83
784.223	25538.3
784.557	25505.76
784.89	25500.11
785.224	25336.04
785.557	25183.73
785.891	25246.1
786.224	25252.88
786.558	25175.37
786.891	25112.32
787.224	25016.5
787.557	24752.78
787.891	24828.49
788.224	24628.26
788.557	24710.97
788.89	24679.56
789.223	24545.56
789.556	24426.24
789.888	24468.04
790.221	24294.94
790.554	24185.79
790.887	24180.59
791.219	24112.35
791.552	24094.04
791.884	24116.19
792.217	23998.22
792.549	23938.34
792.882	23687.95
793.214	23723.43
793.546	23642.53
793.879	23453.38
794.211	23403.89
794.543	23483.44
794.875	23423.32
795.207	23386.26
795.539	23375.42
795.871	23268.53
796.203	23153.73
796.535	22901.3
796.867	23005.26
797.198	22863.34
797.53	22856.79
797.862	22785.15
798.193	22725.49
798.525	22510.81
798.856	22735.89
799.188	22336.12
799.519	22238.5
799.85	22323.47
800.182	22258.38
800.513	22287.99
800.844	22020.65
801.175	22226.07
801.506	22123.47
801.837	21932.74
802.168	21975.91
802.499	21989.24
802.83	21806.19
803.161	21711.05
803.491	21734.56
803.822	21798.06
804.153	21586.76
804.483	21437.16
804.814	21377.95
805.145	21425.19
805.475	21385.86
805.805	21392.42
806.136	21397.16
806.466	21277.62
806.796	21271.29
807.126	21124.85
807.457	21066.78
807.787	21120.33
808.117	20942.94
808.447	20949.49
808.777	21014.8
809.107	20787.69
809.436	20758.31
809.766	20788.37
810.096	20718.31
810.426	20662.27
810.755	20689.16
811.085	20602.61
811.414	20638.77
811.744	20454.36
812.073	20394.93
812.403	20360.58
812.732	20233.58
813.061	20363.07
813.39	20194.94
813.719	20168.04
814.049	20391.54
814.378	20165.33
814.707	20100.25
815.036	20113.58
815.365	19969.18
815.693	19939.35
816.022	19951.55
816.351	19778
816.68	19817.09
817.008	19766.92
817.337	19608.96
817.665	19679.02
817.994	19629.75
818.322	19728.51
818.651	19617.32
818.979	19502.75
819.307	19553.82
819.636	19489.64
819.964	19368.97
820.292	19526.25
820.62	19486.93
820.948	19385.46
821.276	19608.74
821.604	19417.78
821.932	19532.81
822.259	19412.58
822.587	19489.42
822.915	19345.24
823.243	19456.2
823.57	19321.74
823.898	19479.7
824.225	19339.59
824.553	19383.21
824.88	19475.18
825.207	19462.52
825.535	19311.12
825.862	19434.5
826.189	19360.61
826.516	19442.19
826.843	19483.32
827.17	19461.85
827.497	19462.75
827.824	19462.75
828.151	19560.15
828.478	19428.18
828.805	19573.48
829.131	19556.31
829.458	19577.1
829.785	19415.07
830.111	19396.31
830.438	19536.2
830.764	19491.22
831.09	19502.3
831.417	19414.84
831.743	19554.05
832.069	19438.8
832.395	19438.34
832.722	19448.97
833.048	19366.48
833.374	19469.76
833.7	19342.98
834.026	19380.04
834.351	19296.43
834.677	19435.86
835.003	19314.28
835.329	19322.87
835.654	19302.98
835.98	19157.22
836.306	19351.34
836.631	19249.2
836.956	19390.21
837.282	19299.14
837.607	19195.87
837.932	19192.25
838.258	19135.3
838.583	19132.14
838.908	19073.16
839.233	19057.11
839.558	19036.55
839.883	19053.5
840.208	18867.51
840.533	18972.14
840.858	18926.95
841.182	18986.83
841.507	18963.56
841.832	18825.25
842.156	18818.02
842.481	18834.29
842.805	18741.41
843.13	18712.71
843.454	18715.65
843.778	18585.03
844.103	18655.77
844.427	18538.71
844.751	18621.19
845.075	18496.9
845.399	18333.06
845.723	18367.19
846.047	18453.74
846.371	18245.16
846.695	18263.91
847.019	18094.43
847.343	18143.24
847.666	18053.3
847.99	17856.47
848.313	17895.33
848.637	17898.05
848.96	17936.01
849.284	17759.97
849.607	17608.34
849.931	17616.7
850.254	17488.11
850.577	17308.91
850.9	17319.53
851.223	17289.7
851.546	17184.62
851.869	17061.01
852.192	17140.33
852.515	17148.24
852.838	16902.37
853.161	16837.51
853.483	16797.28
853.806	16860.11
854.129	16784.86
854.451	16726.78
854.774	16585.99
855.096	16564.07
855.419	16511.19
855.741	16401.36
856.063	16383.06
856.385	16281.59
856.708	16327.47
857.03	16197.53
857.352	16271.65
857.674	16202.5
857.996	16169.5
858.318	15973.58
858.64	16063.07
858.961	16054.03
859.283	15922.28
859.605	15911.43
859.926	15786.01
860.248	15852.45
860.57	15764.54
860.891	15685
861.212	15653.81
861.534	15602.97
861.855	15538.11
862.176	15588.73
862.498	15592.12
862.819	15602.74
863.14	15499.24
863.461	15486.81
863.782	15406.13
864.103	15367.72
864.424	15363.42
864.745	15286.82
865.065	15349.41
865.386	15207.27
865.707	15285.46
866.027	15242.52
866.348	15155.75
866.668	15183.77
866.989	15130.66
867.309	15000.27
867.63	15009.99
867.95	15028.29
868.27	15008.86
868.59	15018.35
868.91	14947.16
869.23	14893.38
869.55	14910.55
869.87	14927.28
870.19	14844.12
870.51	14827.84
870.83	14878.01
871.15	14845.47
871.469	14722.54
871.789	14847.73
872.109	14750.78
872.428	14723.67
872.748	14790.33
873.067	14724.57
873.386	14716.21
873.706	14666.49
874.025	14580.85
874.344	14520.51
874.663	14578.13
874.982	14619.26
875.301	14477.57
875.62	14494.97
875.939	14437.57
876.258	14403.67
876.577	14349.89
876.896	14479.83
877.214	14321.19
877.533	14350.12
877.852	14299.04
878.17	14271.02
878.489	14295.88
878.807	14236.22
879.125	14249.55
879.444	14225.6
879.762	14225.83
880.08	14215.88
880.398	14198.03
880.716	14114.64
881.034	14059.05
881.352	14078.03
881.67	14050.69
881.988	14039.16
882.306	13951.48
882.624	14017.92
882.941	13880.07
883.259	13851.37
883.577	13878.27
883.894	13800.3
884.212	13855.44
884.529	13742.45
884.846	13680.76
885.164	13678.95
885.481	13645.05
885.798	13655.45
886.115	13549.01
886.432	13579.29
886.75	13497.71
887.067	13529.12
887.383	13511.27
887.7	13469.24
888.017	13320.09
888.334	13366.41
888.651	13275.57
888.967	13236.93
889.284	13242.35
889.6	13194.22
889.917	13193.09
890.233	13148.57
890.55	13073.77
890.866	13138.17
891.182	13050.72
891.498	13016.59
891.815	12966.42
892.131	12957.39
892.447	12921.23
892.763	12858.63
893.079	12823.6
893.395	12828.58
893.71	12813.43
894.026	12736.6
894.342	12677.17
894.657	12547.23
894.973	12537.06
895.289	12591.75
895.604	12473.78
895.92	12450.96
896.235	12412.77
896.55	12395.37
896.865	12324.86
897.181	12321.92
897.496	12232.43
897.811	12270.85
898.126	12228.82
898.441	12147.46
898.756	12163.06
899.071	12013.23
899.386	12102.49
899.7	11975.26
900.015	11883.29
900.33	11812.78
900.644	11889.62
900.959	11806.68
901.273	11791.54
901.588	11732.33
901.902	11696.4
902.216	11623.41
902.531	11567.59
902.845	11590.19
903.159	11429.52
903.473	11505.22
903.787	11384.77
904.101	11323.3
904.415	11369.18
904.729	11241.27
905.042	11218.9
905.356	11304.77
905.67	11201.05
905.984	11137.09
906.297	11069.98
906.611	11060.03
906.924	10998.57
907.237	10961.73
907.551	10980.04
907.864	10850.32
908.177	10907.95
908.491	10869.98
908.804	10743.88
909.117	10710.89
909.43	10596.32
909.743	10561.74
910.056	10587.5
910.368	10538.24
910.681	10482.87
910.994	10475.42
911.307	10365.14
911.619	10348.19
911.932	10310.45
912.244	10228.42
912.557	10281.07
912.869	10243.11
913.181	10141.19
913.494	10173.5
913.806	10172.83
914.118	10051.7
914.43	9984.58
914.742	9975.09
915.054	9886.96
915.366	9860.52
915.678	9835.66
915.99	9748.66
916.302	9714.98
916.613	9693.97
916.925	9670.92
917.236	9698.26
917.548	9623.24
917.859	9635.21
918.171	9575.1
918.482	9463.01
918.794	9485.61
919.105	9479.06
919.416	9365.62
919.727	9386.18
920.038	9299.85
920.349	9244.71
920.66	9180.76
920.971	9210.82
921.282	9160.65
921.593	9100.31
921.903	9040.65
922.214	9037.94
922.525	8978.28
922.835	8951.39
923.146	8911.16
923.456	8885.18
923.767	8870.49
924.077	8837.04
924.387	8750.49
924.697	8748.91
925.008	8703.94
925.318	8659.65
925.628	8676.14
925.938	8615.35
926.248	8493.77
926.558	8471.85
926.867	8469.37
927.177	8458.97
927.487	8460.33
927.796	8358.41
928.106	8423.04
928.416	8344.85
928.725	8260.11
929.034	8207.23
929.344	8202.93
929.653	8186.89
929.962	8118.19
930.271	8092.2
930.581	8050.17
930.89	7954.8
931.199	7999.1
931.508	7914.13
931.817	7916.16
932.125	7988.7
932.434	7861.7
932.743	7770.85
933.051	7790.74
933.36	7753.68
933.669	7641.14
933.977	7703.96
934.286	7640.01
934.594	7640.01
934.902	7629.62
935.21	7561.37
935.519	7530.64
935.827	7575.83
936.135	7463.07
936.443	7402.96
936.751	7403.41
937.059	7365.89
937.367	7356.63
937.674	7319.57
937.982	7269.63
938.29	7304.43
938.597	7255.84
938.905	7090.65
939.213	7126.35
939.52	7136.52
939.827	7140.82
940.135	7104.21
940.442	7034.15
940.749	6950.99
941.056	6939.92
941.363	6949.41
941.67	6958
941.977	6897.66
942.284	6847.94
942.591	6833.48
942.898	6814.27
943.205	6756.42
943.511	6733.37
943.818	6792.8
944.125	6660.6
944.431	6664.22
944.738	6590.32
945.044	6543.99
945.35	6594.84
945.657	6541.51
945.963	6459.25
946.269	6434.84
946.575	6472.36
946.881	6454.73
947.187	6422.87
947.493	6376.09
947.799	6326.15
948.105	6322.98
948.41	6277.79
948.716	6317.11
949.022	6216.77
949.327	6202.76
949.633	6144.46
949.938	6191.01
950.244	6166.15
950.549	6090.67
950.854	6029.43
951.16	6038.92
951.465	6026.72
951.77	5999.6
952.075	5982.2
952.38	5963.9
952.685	5960.51
952.99	5884.35
953.294	5899.72
953.599	5829.21
953.904	5803.68
954.209	5786.73
954.513	5754.86
954.818	5738.82
955.122	5727.29
955.426	5648.88
955.731	5622.66
956.035	5603.23
956.339	5639.84
956.643	5623.11
956.948	5551.7
957.252	5555.77
957.556	5565.04
957.86	5498.6
958.163	5507.19
958.467	5450.01
958.771	5456.57
959.075	5400.3
959.378	5352.61
959.682	5347.19
959.985	5364.59
960.289	5326.4
960.592	5281.65
960.896	5278.27
961.199	5275.78
961.502	5188.1
961.805	5216.12
962.108	5150.13
962.411	5153.52
962.714	5133.86
963.017	5089.34
963.32	5129.12
963.623	5106.52
963.926	5035.11
964.228	5004.15
964.531	4980.19
964.833	5005.96
965.136	4924.15
965.438	4917.14
965.741	4909.24
966.043	4895.68
966.345	4819.07
966.648	4803.7
966.95	4782.01
967.252	4797.83
967.554	4774.32
967.856	4791.95
968.158	4749.92
968.46	4735.68
968.761	4651.39
969.063	4680.99
969.365	4679.41
969.666	4646.64
969.968	4614.33
970.269	4627.21
970.571	4562.35
970.872	4563.03
971.174	4515.57
971.475	4565.74
971.776	4506.31
972.077	4499.3
972.378	4478.29
972.679	4443.94
972.98	4455.69
973.281	4396.71
973.582	4376.82
973.883	4358.97
974.183	4330.95
974.484	4317.39
974.785	4294.34
975.085	4258.4
975.386	4299.76
975.686	4244.85
975.986	4216.82
976.287	4231.74
976.587	4214.11
976.887	4171.18
977.187	4193.32
977.487	4140.44
977.787	4137.5
978.087	4110.61
978.387	4081.23
978.687	4076.04
978.987	4067.68
979.286	4002.37
979.586	4035.13
979.885	3967.34
980.185	3944.74
980.484	3912.88
980.784	3923.95
981.083	3915.82
981.382	3880.34
981.682	3920.33
981.981	3857.29
982.28	3838.98
982.579	3793.11
982.878	3828.59
983.177	3816.16
983.475	3792.2
983.774	3732.54
984.073	3743.39
984.372	3711.07
984.67	3728.02
984.969	3716.27
985.267	3682.37
985.566	3638.99
985.864	3656.84
986.162	3585.88
986.461	3594.24
986.759	3615.71
987.057	3554.69
987.355	3583.39
987.653	3546.79
987.951	3522.83
988.249	3496.62
988.547	3496.84
988.844	3471.98
989.142	3487.8
989.44	3456.17
989.737	3438.09
990.035	3406.22
990.332	3359.45
990.63	3373.23
990.927	3379.78
991.224	3371.42
991.521	3362.84
991.819	3345.43
992.116	3325.77
992.413	3300.69
992.71	3279.9
993.006	3246.23
993.303	3228.6
993.6	3254.36
993.897	3228.6
994.193	3230.18
994.49	3205.78
994.787	3168.94
995.083	3121.26
995.379	3114.48
995.676	3116.74
995.972	3111.54
996.268	3095.72
996.565	3052.56
996.861	3024.77
997.157	3014.6
997.453	3041.26
997.749	3000.58
998.044	2961.94
998.34	2993.13
998.636	2937.99
998.932	2949.06
999.227	2912.68
999.523	2948.38
999.818	2892.11
1000.114	2890.31
1000.409	2815.05
1000.704	2854.6
1001	2799.01
1001.295	2807.37
1001.59	2789.74
1001.885	2800.59
1002.18	2810.76
1002.475	2747.48
1002.77	2758.78
1003.065	2766.69
1003.359	2723.3
1003.654	2708.16
1003.949	2680.82
1004.243	2719.01
1004.538	2659.8
1004.832	2656.19
1005.127	2610.09
1005.421	2606.47
1005.715	2625.68
1006.009	2591.78
1006.304	2547.04
1006.598	2585.23
1006.892	2547.49
1007.186	2542.52
1007.48	2492.35
1007.773	2511.33
1008.067	2497.55
1008.361	2474.95
1008.655	2416.19
1008.948	2455.97
1009.242	2443.76
1009.535	2407.61
1009.829	2401.28
1010.122	2390.21
1010.415	2366.7
1010.708	2325.35
1011.001	2332.35
1011.295	2342.98
1011.588	2306.59
1011.881	2291.23
1012.173	2260.72
1012.466	2291.9
1012.759	2217.78
1013.052	2265.69
1013.344	2230.66
1013.637	2244.67
1013.93	2228.18
1014.222	2222.53
1014.514	2181.62
1014.807	2147.27
1015.099	2130.55
1015.391	2140.27
1015.683	2107.28
1015.976	2123.09
1016.268	2103.66
1016.56	2101.17
1016.851	2067.28
1017.143	2052.59
1017.435	2041.74
1017.727	2035.19
1018.018	2039.25
1018.31	2020.5
1018.602	1963.55
1018.893	1979.59
1019.185	1964.23
1019.476	1954.51
1019.767	1913.16
1020.058	1919.48
1020.35	1902.53
1020.641	1939.14
1020.932	1889.65
1021.223	1869.09
1021.514	1875.19
1021.804	1853.95
1022.095	1832.71
1022.386	1786.61
1022.677	1809.43
1022.967	1806.04
1023.258	1801.07
1023.548	1768.3
1023.839	1773.05
1024.129	1752.93
1024.419	1766.72
1024.709	1712.26
1025	1730.56
1025.29	1729.88
1025.58	1710.22
1025.87	1692.82
1026.16	1688.3
1026.449	1682.43
1026.739	1658.02
1027.029	1603.11
1027.319	1667.96
1027.608	1634.97
1027.898	1603.56
1028.187	1598.81
1028.477	1598.14
1028.766	1590.23
1029.055	1561.98
1029.344	1538.25
1029.634	1550
1029.923	1550.45
1030.212	1493.96
1030.501	1513.17
1030.79	1479.27
1031.078	1495.99
1031.367	1481.08
1031.656	1476.11
1031.945	1458.93
1032.233	1452.6
1032.522	1430.68
1032.81	1437.69
1033.099	1416.22
1033.387	1423.23
1033.675	1410.8
1033.963	1393.62
1034.251	1375.99
1034.54	1358.82
1034.828	1386.16
1035.116	1350.01
1035.403	1336
1035.691	1322.89
1035.979	1313.17
1036.267	1323.34
1036.554	1321.31
1036.842	1258.26
1037.129	1282.66
1037.417	1282.66
1037.704	1262.1
1037.992	1238.6
1038.279	1229.11
1038.566	1247.64
1038.853	1247.64
1039.14	1247.64
