Data from 18-4530_FLMS001491_001.txt Node
Date: Thu Apr 19 16:44:02 BST 2018
User: hsy
Spectrometer: FLMS00149
Trigger mode: 0
Integration Time (sec): 1.000000E-2
Scans to average: 10
Electric dark correction enabled: true
Nonlinearity correction enabled: false
Boxcar width: 0
XAxis mode: Wavelengths
Number of Pixels in Spectrum: 2048
>>>>>Begin Spectral Data<<<<<
341.393	-4.82
341.776	-4.82
342.16	-4.82
342.543	-68.09
342.927	-83.91
343.31	-76.45
343.693	-71.26
344.077	-57.7
344.46	-55.44
344.843	-50.46
345.226	-48.43
345.61	-23.57
345.993	-17.02
346.376	-8.66
346.759	26.14
347.142	-6.62
347.525	27.73
347.908	82.87
348.291	66.37
348.674	84.67
349.057	127.84
349.44	118.57
349.823	155.86
350.206	171.68
350.588	226.59
350.971	224.1
351.354	257.78
351.737	263.88
352.119	269.75
352.502	276.53
352.884	297.55
353.267	299.13
353.65	326.47
354.032	316.53
354.414	334.38
354.797	316.76
355.179	347.94
355.562	348.39
355.944	347.26
356.326	347.72
356.709	341.84
357.091	365.57
357.473	359.92
357.855	381.16
358.238	363.99
358.62	366.93
359.002	370.54
359.384	370.99
359.766	363.08
360.148	375.74
360.53	366.47
360.912	359.02
361.294	347.72
361.676	365.12
362.057	378
362.439	376.87
362.821	353.82
363.203	363.99
363.584	356.3
363.966	355.17
364.348	326.93
364.729	369.41
365.111	346.36
365.493	342.75
365.874	338.45
366.256	372.8
366.637	346.81
367.019	366.25
367.4	363.08
367.781	364.89
368.163	366.25
368.544	373.03
368.925	353.37
369.306	354.72
369.688	358.34
370.069	355.17
370.45	356.08
370.831	359.92
371.212	371.9
371.593	363.76
371.974	347.26
372.355	361.05
372.736	345.68
373.117	387.72
373.498	359.92
373.879	343.42
374.26	343.2
374.641	365.8
375.021	363.76
375.402	360.82
375.783	382.52
376.163	383.2
376.544	392.69
376.925	394.5
377.305	403.76
377.686	373.03
378.066	382.52
378.447	387.72
378.827	399.92
379.208	388.39
379.588	385
379.968	400.37
380.349	374.61
380.729	411.22
381.109	407.15
381.489	398.79
381.87	406.92
382.25	413.93
382.63	414.61
383.01	433.82
383.39	401.27
383.77	411.22
384.15	428.39
384.53	439.24
384.91	439.47
385.29	455.28
385.67	452.12
386.049	428.62
386.429	457.54
386.809	438.11
387.189	439.47
387.568	447.83
387.948	446.47
388.328	447.38
388.707	445.79
389.087	449.64
389.466	462.74
389.846	479.24
390.225	486.02
390.605	470.88
390.984	484.89
391.363	488.73
391.743	493.93
392.122	475.62
392.501	488.5
392.881	497.54
393.26	506.81
393.639	491.89
394.018	502.29
394.397	512.46
394.776	524.21
395.155	544.55
395.534	519.24
395.913	517.2
396.292	538.9
396.671	525.34
397.05	530.76
397.429	527.83
397.808	561.27
398.186	537.32
398.565	549.75
398.944	556.3
399.323	547.49
399.701	573.93
400.08	559.91
400.458	570.99
400.837	573.25
401.215	573.02
401.594	601.95
401.972	595.85
402.351	600.37
402.729	597.65
403.107	627.48
403.486	609.4
403.864	631.33
404.242	634.71
404.62	631.55
404.999	642.4
405.377	665.67
405.755	673.58
406.133	646.92
406.511	678.1
406.889	693.47
407.267	696.41
407.645	703.87
408.023	697.54
408.401	688.27
408.779	720.36
409.156	720.59
409.534	735.73
409.912	717.88
410.29	758.33
410.667	773.92
411.045	773.47
411.422	779.57
411.8	794.48
412.178	814.15
412.555	806.69
412.933	826.57
413.31	840.36
413.687	856.63
414.065	855.05
414.442	846.91
414.819	877.87
415.197	875.84
415.574	881.49
415.951	879.45
416.328	882.62
416.705	921.49
417.082	904.54
417.46	931.88
417.837	936.85
418.214	946.57
418.591	956.97
418.967	959.68
419.344	967.59
419.721	976.63
420.098	978.21
420.475	985.67
420.852	1020.92
421.228	1012.78
421.605	1040.81
421.982	997.19
422.358	1044.42
422.735	1047.81
423.111	1061.14
423.488	1096.4
423.864	1079
424.241	1126
424.617	1101.37
424.994	1125.1
425.37	1116.06
425.746	1154.7
426.123	1176.4
426.499	1145.21
426.875	1183.4
427.251	1208.26
427.627	1223.17
428.003	1228.15
428.379	1257.3
428.756	1247.81
429.132	1266.79
429.507	1270.18
429.883	1298.43
430.259	1316.73
430.635	1365.32
431.011	1366.45
431.387	1345.66
431.763	1379.78
432.138	1403.28
432.514	1423.85
432.89	1446.22
433.265	1466.11
433.641	1508.59
434.016	1509.49
434.392	1520.12
434.767	1542.71
435.143	1569.83
435.518	1570.28
435.894	1589.72
436.269	1604.86
436.644	1662.94
437.02	1656.61
437.395	1663.39
437.77	1704.97
438.145	1746.32
438.52	1702.26
438.895	1732.99
439.271	1753.33
439.646	1757.62
440.021	1819.54
440.395	1819.32
440.77	1802.37
441.145	1801.92
441.52	1884.63
441.895	1860.9
442.27	1892.76
442.645	1874.91
443.019	1944.06
443.394	1921.91
443.769	1931.63
444.143	1918.07
444.518	1954.91
444.892	1964.17
445.267	1946.54
445.641	1997.84
446.016	1985.87
446.39	2024.06
446.764	2048.24
447.139	2033.77
447.513	2072.42
447.887	2047.56
448.262	2077.84
448.636	2094.34
449.01	2149.48
449.384	2155.8
449.758	2135.69
450.132	2194.9
450.506	2185.63
450.88	2195.35
451.254	2201
451.628	2248.68
452.002	2299.76
452.376	2314.22
452.75	2325.74
453.123	2351.05
453.497	2368.23
453.871	2363.26
454.244	2451.84
454.618	2491.39
454.992	2496.36
455.365	2493.88
455.739	2567.55
456.112	2608.9
456.486	2612.52
456.859	2617.04
457.232	2707.43
457.606	2702.91
457.979	2780.65
458.352	2777.94
458.725	2813.41
459.099	2846.41
459.472	2884.6
459.845	2932.51
460.218	2965.28
460.591	2960.08
460.964	3037.36
461.337	3052.28
461.71	3124.59
462.083	3111.26
462.456	3139.73
462.829	3172.95
463.201	3201.43
463.574	3248.21
463.947	3305.38
464.32	3309.22
464.692	3339.28
465.065	3394.42
465.438	3442.1
465.81	3485.04
466.183	3508.99
466.555	3584.47
466.928	3602.77
467.3	3600.06
467.672	3665.82
468.045	3751.02
468.417	3725.03
468.789	3729.55
469.161	3788.76
469.534	3846.83
469.906	3933.39
470.278	3936.32
470.65	4010.9
471.022	4076.21
471.394	4113.04
471.766	4154.85
472.138	4220.84
472.51	4304.22
472.882	4352.13
473.253	4416.54
473.625	4451.79
473.997	4564.56
474.369	4613.37
474.74	4626.7
475.112	4714.16
475.484	4772.91
475.855	4840.03
476.227	4926.35
476.598	5078.89
476.97	5076.86
477.341	5192.79
477.713	5257.42
478.084	5274.82
478.455	5513.23
478.827	5442.5
479.198	5588.93
479.569	5614.7
479.94	5781.25
480.311	5843.84
480.682	5971.3
481.053	6165.42
481.424	6208.58
481.795	6239.99
482.166	6323.83
482.537	6464.17
482.908	6557.5
483.279	6627.55
483.65	6804.27
484.021	6835.46
484.391	6955.45
484.762	7052.4
485.133	7102.57
485.503	7214.43
485.874	7390.47
486.244	7395.44
486.615	7611.03
486.985	7754.53
487.356	7825.26
487.726	7915.43
488.097	8094.86
488.467	8172.82
488.837	8348.64
489.207	8378.92
489.578	8546.15
489.948	8602.42
490.318	8769.64
490.688	8855.52
491.058	8945.46
491.428	9098.45
491.798	9193.59
492.168	9413.92
492.538	9499.57
492.908	9541.37
493.278	9664.31
493.648	9695.95
494.017	9913.34
494.387	9969.38
494.757	10005.77
495.126	10125.99
495.496	10203.05
495.866	10429.26
496.235	10431.29
496.605	10575.02
496.974	10568.47
497.344	10721.68
497.713	10755.35
498.082	10878.51
498.452	10900.21
498.821	11008.68
499.19	11091.62
499.559	11208
499.928	11288.67
500.298	11405.96
500.667	11498.61
501.036	11490.47
501.405	11605.05
501.774	11625.61
502.143	11740.19
502.512	11734.31
502.88	11890.46
503.249	11885.04
503.618	12017.69
503.987	12125.26
504.356	12217.24
504.724	12295.65
505.093	12289.78
505.462	12324.8
505.83	12441.18
506.199	12572.71
506.567	12750.78
506.936	12718.01
507.304	12871.23
507.672	12960.94
508.041	12973.83
508.409	13048.85
508.777	13174.27
509.145	13285.23
509.514	13249.52
509.882	13329.75
510.25	13418.56
510.618	13559.8
510.986	13589.18
511.354	13683.86
511.722	13851.77
512.09	13904.87
512.458	13874.82
512.826	14052.89
513.193	14079.11
513.561	14156.85
513.929	14207.47
514.297	14395.48
514.664	14384.86
515.032	14498.76
515.4	14517.74
515.767	14567.68
516.135	14713.67
516.502	14650.84
516.869	14944.17
517.237	14976.26
517.604	14911.63
517.972	15100.55
518.339	15312.07
518.706	15363.82
519.073	15310.71
519.44	15390.26
519.808	15602.23
520.175	15655.79
520.542	15757.48
520.909	15769.91
521.276	15901.66
521.643	16056
522.009	16123.35
522.376	16324.02
522.743	16369.44
523.11	16553.39
523.477	16662.32
523.843	16694.86
524.21	16909.09
524.577	17114.28
524.943	17101.4
525.31	17217.56
525.676	17229.76
526.043	17489.64
526.409	17397.89
526.776	17609.64
527.142	17697.09
527.508	17792.91
527.874	18007.82
528.241	18097.76
528.607	18130.75
528.973	18322.61
529.339	18167.14
529.705	18467.01
530.071	18543.17
530.437	18593.11
530.803	18662.72
531.169	18857.06
531.535	18890.05
531.901	18935.02
532.267	18943.16
532.632	19181.35
532.998	19052.76
533.364	19151.29
533.73	19319.87
534.095	19380.66
534.461	19374.34
534.826	19493.43
535.192	19536.59
535.557	19716.93
535.923	19636.02
536.288	19751.05
536.653	19817.94
537.019	19683.71
537.384	19863.14
537.749	19701.11
538.114	19854.77
538.479	19854.1
538.845	19976.35
539.21	19908.33
539.575	20008.89
539.94	20020.42
540.305	20054.32
540.67	20050.7
541.034	20082.79
541.399	20046.18
541.764	20223.8
542.129	20166.4
542.494	20271.26
542.858	20270.13
543.223	20166.63
543.587	20318.94
543.952	20187.2
544.316	20261.77
544.681	20242.79
545.045	20431.26
545.41	20415.21
545.774	20292.05
546.138	20276.68
546.503	20456.79
546.867	20438.71
547.231	20582.21
547.595	20504.47
547.959	20530.69
548.324	20438.71
548.688	20603.46
549.052	20579.28
549.416	20581.54
549.779	20701.76
550.143	20676.9
550.507	20733.4
550.871	20747.18
551.235	20739.5
551.599	20825.82
551.962	20844.35
552.326	20848.42
552.689	20801.42
553.053	20751.47
553.417	20911.7
553.78	21005.93
554.143	21066.95
554.507	21099.04
554.87	21047.74
555.234	21174.97
555.597	21242.08
555.96	21172.93
556.323	21296.32
556.686	21332.25
557.05	21370.89
557.413	21381.51
557.776	21467.61
558.139	21627.84
558.502	21562.3
558.865	21463.09
559.228	21676.87
559.59	21703.54
559.953	21640.94
560.316	21886.81
560.679	21950.99
561.041	21981.5
561.404	22192.34
561.767	22200.7
562.129	22123.19
562.492	22261.26
562.854	22277.99
563.217	22405.67
563.579	22480.02
563.941	22533.12
564.304	22714.59
564.666	22954.58
565.028	22835.49
565.39	22982.6
565.753	23116.38
566.115	23139.89
566.477	23202.03
566.839	23495.36
567.201	23481.57
567.563	23485.64
567.925	23552.98
568.287	23794.78
568.648	23792.07
569.01	24012.63
569.372	24126.3
569.734	24132.4
570.095	24342.11
570.457	24479.96
570.819	24427.76
571.18	24507.76
571.542	24747.75
571.903	24620.52
572.265	24812.61
572.626	24922.21
572.987	25055.99
573.349	25244.92
573.71	25373.73
574.071	25394.29
574.432	25524.46
574.794	25822.75
575.155	25642.19
575.516	25773.04
575.877	25835.86
576.238	25815.75
576.599	26023.65
576.96	26034.5
577.32	26239.92
577.681	26270.88
578.042	26350.87
578.403	26338.9
578.763	26419.8
579.124	26630.42
579.485	26630.87
579.845	26678.32
580.206	26616.86
580.566	26633.35
580.927	26678.32
581.287	26793.12
581.648	26636.07
582.008	26808.04
582.368	26949.96
582.728	26755.61
583.089	26695.5
583.449	26919.9
583.809	26989.05
584.169	27155.37
584.529	26951.31
584.889	27153.79
585.249	26993.8
585.609	26821.82
585.969	27097.52
586.329	26902.72
586.688	27089.61
587.048	27039.9
587.408	26975.49
587.768	27004.87
588.127	26915.38
588.487	26966.23
588.846	27079.9
589.206	26890.07
589.565	26820.02
589.925	27083.06
590.284	26869.73
590.643	26991.08
591.003	26846.68
591.362	27005.55
591.721	26977.98
592.08	27049.39
592.44	27093.23
592.799	26961.71
593.158	27010.97
593.517	26889.84
593.876	27026.34
594.235	26993.8
594.593	27014.59
594.952	26933.23
595.311	27016.62
595.67	27069.73
596.029	27128.93
596.387	27123.06
596.746	27236.28
597.104	27027.47
597.463	27043.51
597.822	27090.74
598.18	26984.08
598.538	26970.29
598.897	27103.85
599.255	26968.49
599.613	27240.34
599.972	27038.09
600.33	26983.17
600.688	26950.63
601.046	27079.44
601.404	27212.32
601.762	27212.32
602.12	27187.92
602.478	27167.58
602.836	27309.49
603.194	27213
603.552	27207.8
603.91	27116.05
604.268	27109.05
604.625	27077.41
604.983	27153.79
605.341	27108.37
605.698	27288.25
606.056	27327.12
606.413	27250.29
606.771	27393.56
607.128	27328.7
607.485	27244.18
607.843	27255.48
608.2	27423.16
608.557	27484.4
608.914	27433.56
609.272	27483.5
609.629	27677.39
609.986	27622.71
610.343	27658.86
610.7	27782.25
611.057	27791.97
611.414	27728.01
611.771	27764.17
612.127	27765.08
612.484	27804.17
612.841	27925.3
613.198	27765.3
613.554	27732.76
613.911	28013.88
614.267	28106.31
614.624	28020.89
614.98	28176.14
615.337	28259.75
615.693	28262.01
616.05	28170.04
616.406	28395.79
616.762	28153.31
617.118	28182.92
617.475	28249.58
617.831	28441.44
618.187	28330.03
618.543	28415
618.899	28522.34
619.255	28579.06
619.611	28462.46
619.967	28723.47
620.323	28720.3
620.678	28573.42
621.034	28558.05
621.39	28576.81
621.746	28536.58
622.101	28807.53
622.457	28555.34
622.812	28746.29
623.168	28826.97
623.523	28791.26
623.879	28839.17
624.234	28679.85
624.589	28804.82
624.945	28741.09
625.3	28776.8
625.655	28765.5
626.01	28743.81
626.365	28934.31
626.72	28747.65
627.075	28766.63
627.43	28737.25
627.785	28758.5
628.14	28708.1
628.495	28784.94
628.85	28806.86
629.205	28629.91
629.559	28846.85
629.914	28772.96
630.269	28654.32
630.623	28576.81
630.978	28452.51
631.332	28669.91
631.687	28638.95
632.041	28595.56
632.396	28566.41
632.75	28478.73
633.104	28604.6
633.459	28363.48
633.813	28489.58
634.167	28435.11
634.521	28473.08
634.875	28418.84
635.229	28437.6
635.583	28156.48
635.937	28303.14
636.291	28205.52
636.645	28143.37
636.999	28096.82
637.352	28154.67
637.706	27966.2
638.06	28194.89
638.413	27935.69
638.767	27957.16
639.121	27847.56
639.474	27869.25
639.828	27692.08
640.181	27761.46
640.534	27874.68
640.888	27782.7
641.241	27609.15
641.594	27641.24
641.947	27644.85
642.301	27621.12
642.654	27720.56
643.007	27534.8
643.36	27735.02
643.713	27506.55
644.066	27717.84
644.419	27491.18
644.771	27149.72
645.124	26913.8
645.477	26839.9
645.83	26943.4
646.182	26930.07
646.535	26844.42
646.888	26885.78
647.24	26822.27
647.593	26988.37
647.945	26910.18
648.298	26723.75
648.65	26474.04
649.002	26501.38
649.355	26372.8
649.707	26260.93
650.059	26250.76
650.411	26602.85
650.763	26871.31
651.115	27283.28
651.467	27242.38
651.819	27260.68
652.171	27251.87
652.523	27026.34
652.875	27140.46
653.227	27016.17
653.578	27207.58
653.93	27273.34
654.282	27117.41
654.633	26930.52
654.985	27078.77
655.337	26988.82
655.688	27150.85
656.039	27134.13
656.391	26902.27
656.742	26994.25
657.094	27086.9
657.445	27114.92
657.796	27099.1
658.147	27159.44
658.498	27162.83
658.849	27225.2
659.2	27105.21
659.551	26996.06
659.902	27182.72
660.253	27020.69
660.604	27232.21
660.955	27037.64
661.306	27191.53
661.656	27121.48
662.007	27139.55
662.358	27156.73
662.708	27142.04
663.059	27133.91
663.409	26958.54
663.76	27121.7
664.11	27144.3
664.461	27189.95
664.811	27264.98
665.161	27321.47
665.511	27146.33
665.862	27224.75
666.212	27322.6
666.562	27268.36
666.912	27354.69
667.262	27165.77
667.612	27237.18
667.962	27402.6
668.312	27132.1
668.662	27365.54
669.011	27276.95
669.361	27178.42
669.711	27306.56
670.06	27217.74
670.41	27145.2
670.76	27139.33
671.109	27314.69
671.459	27072.66
671.808	27197.86
672.157	27217.74
672.507	27080.8
672.856	27090.74
673.205	26957.64
673.554	27050.97
673.904	27052.1
674.253	27188.37
674.602	27020.46
674.951	26661.38
675.3	26598.55
675.649	26971.88
675.998	27020.46
676.346	27019.33
676.695	26953.8
677.044	26831.99
677.393	26826.57
677.741	26835.83
678.09	26889.39
678.438	26843.97
678.787	26877.19
679.135	26867.25
679.484	26622.28
679.832	26672
680.181	26693.92
680.529	26542.51
680.877	26565.78
681.225	26613.01
681.573	26719.9
681.922	26460.48
682.27	26393.59
682.618	26477.2
682.966	26441.72
683.314	26404.43
683.661	26354.26
684.009	26299.8
684.357	26156.98
684.705	26130.77
685.053	26137.32
685.4	25967.16
685.748	25794.96
686.095	25926.71
686.443	25706.15
686.79	25801.74
687.138	25721.06
687.485	25699.14
687.832	25588.18
688.18	25454.4
688.527	25371.92
688.874	25375.99
689.221	25405.14
689.568	25248.53
689.915	25045.82
690.262	25190.23
690.609	25028.2
690.956	24888.77
691.303	24904.13
691.65	24774.87
691.997	24761.99
692.344	24622.78
692.69	24564.48
693.037	24524.93
693.383	24386.63
693.73	24514.54
694.077	24283.36
694.423	24295.34
694.769	24194.1
695.116	24151.84
695.462	23919.07
695.808	23957.27
696.155	23964.5
696.501	23731.51
696.847	23776.03
697.193	23529.71
697.539	23619.87
697.885	23461.69
698.231	23458.52
698.577	23258.75
698.923	23264.85
699.269	23058.98
699.614	22975.37
699.96	22925.2
700.306	22950.96
700.651	22750.74
700.997	22646.79
701.342	22664.42
701.688	22550.97
702.033	22492.45
702.379	22505.55
702.724	22319.79
703.069	22371.09
703.415	22076.64
703.76	22132.45
704.105	22167.93
704.45	22055.85
704.795	21953.7
705.14	21903.08
705.485	21830.09
705.83	21677.33
706.175	21829.86
706.52	21736.08
706.865	21613.37
707.209	21499.93
707.554	21483.88
707.899	21541.51
708.243	21391.91
708.588	21359.82
708.932	21240.05
709.277	21355.3
709.621	21215.87
709.966	21048.19
710.31	21074.86
710.654	20807.74
710.998	20992.82
711.342	20957.8
711.687	20873.28
712.031	20796.22
712.375	20696.56
712.719	20728.88
713.063	20744.47
713.407	20728.2
713.75	20647.97
714.094	20545.38
714.438	20644.58
714.782	20524.59
715.125	20494.31
715.469	20628.99
715.812	20347.42
716.156	20407.3
716.499	20507.41
716.843	20408.88
717.186	20220.19
717.53	20495.44
717.873	20372.05
718.216	20324.37
718.559	20312.39
718.902	20075.79
719.246	20262.45
719.589	20140.87
719.932	20122.79
720.275	20116.24
720.617	20110.81
720.96	20056.35
721.303	20120.98
721.646	20147.87
721.989	20102.9
722.331	20017.03
722.674	20009.35
723.016	20100.87
723.359	19993.53
723.701	20034.43
724.044	20049.12
724.386	19935.22
724.729	20018.84
725.071	20014.09
725.413	20013.19
725.755	19985.62
726.097	19926.64
726.439	19892.51
726.782	19977.71
727.124	20028.1
727.465	20016.13
727.807	19939.07
728.149	19953.98
728.491	19877.37
728.833	19894.32
729.175	19921.67
729.516	19909.46
729.858	19889.58
730.199	20058.39
730.541	19940.42
730.882	19942.91
731.224	20025.39
731.565	19922.8
731.906	19939.74
732.248	19979.29
732.589	19912.85
732.93	19894.32
733.271	20010.48
733.612	19965.73
733.953	20084.37
734.294	20081.89
734.635	20007.31
734.976	20096.35
735.317	20073.3
735.658	20085.28
735.999	20124.6
736.339	20028.78
736.68	20170.92
737.021	20138.61
737.361	20202.56
737.702	20207.99
738.042	20217.93
738.383	20201.88
738.723	20317.59
739.063	20348.32
739.404	20450.47
739.744	20372.73
740.084	20497.02
740.424	20518.49
740.764	20473.52
741.104	20641.65
741.444	20646.39
741.784	20600.52
742.124	20734.75
742.464	20718.71
742.804	20821.08
743.143	20857.01
743.483	20931.13
743.823	20871.92
744.162	21102.88
744.502	20996.89
744.841	21089.32
745.181	21320.5
745.52	21306.71
745.86	21394.4
746.199	21475.3
746.538	21658.34
746.877	21700.15
747.216	21694.27
747.556	21867.38
747.895	21952.12
748.234	22113.25
748.573	22023.31
748.911	22284.54
749.25	22378.1
749.589	22467.14
749.928	22553.46
750.267	22690.86
750.605	22838.88
750.944	22960.68
751.283	23062.6
751.621	23211.97
751.96	23228.92
752.298	23322.25
752.636	23526.77
752.975	23655.58
753.313	23738.51
753.651	24039.75
753.989	24088.79
754.327	24173.98
754.666	24196.58
755.004	24529.23
755.342	24708.66
755.679	24890.57
756.017	24888.77
756.355	25000.18
756.693	25114.3
757.031	25429.77
757.368	25371.92
757.706	25625.47
758.044	25692.14
758.381	25808.97
758.719	25901.85
759.056	25991.79
759.394	26172.12
759.731	26139.13
760.068	26317.2
760.405	26609.4
760.743	26629.29
761.08	26719.68
761.417	26706.8
761.754	26857.3
762.091	26972.78
762.428	27191.3
762.765	27096.62
763.102	27308.36
763.438	27283.96
763.775	27334.8
764.112	27403.95
764.449	27443.28
764.785	27546.55
765.122	27604.18
765.458	27600.79
765.795	27758.3
766.131	27836.71
766.467	27864.96
766.804	27724.17
767.14	27807.56
767.476	27762.82
767.812	27876.48
768.148	27928.46
768.485	27882.81
768.821	27867.45
769.157	27902.25
769.492	27778.18
769.828	27949.03
770.164	27745.41
770.5	27847.11
770.836	27919.2
771.171	27788.13
771.507	27884.62
771.842	27785.64
772.178	27899.53
772.513	27773.21
772.849	27866.99
773.184	27690.27
773.519	27662.7
773.855	27617.51
774.19	27665.87
774.525	27535.25
774.86	27589.26
775.195	27526.44
775.53	27435.82
775.865	27316.95
776.2	27243.51
776.535	27158.99
776.87	27228.82
777.205	27033.57
777.539	27063.17
777.874	27166.9
778.209	26790.64
778.543	26961.71
778.878	26726.91
779.212	26737.08
779.547	26665.22
779.881	26599.68
780.215	26512.68
780.55	26561.49
780.884	26362.85
781.218	26348.62
781.552	26384.77
781.886	26222.97
782.22	26229.07
782.554	26051
782.888	26016.87
783.222	25944.33
783.556	25793.15
783.889	25731.46
784.223	25549.54
784.557	25536.21
784.89	25733.49
785.224	25602.42
785.557	25408.75
785.891	25266.84
786.224	25346.83
786.558	25180.06
786.891	25021.64
787.224	25005.15
787.557	24959.05
787.891	24839.28
788.224	24740.97
788.557	24750.01
788.89	24775.32
789.223	24768.32
789.556	24515.67
789.888	24454.2
790.221	24484.26
790.554	24331.49
790.887	24412.17
791.219	24119.75
791.552	24126.98
791.884	24186.19
792.217	24032.52
792.549	23866.87
792.882	23706.88
793.214	23673.21
793.546	23777.61
793.879	23661.68
794.211	23421.46
794.543	23539.65
794.875	23494
795.207	23421.46
795.539	23324.74
795.871	23383.5
796.203	23176.5
796.535	23097.4
796.867	23097.4
797.198	22948.7
797.53	22888.14
797.862	22731.31
798.193	22920
798.525	22708.71
798.856	22762.04
799.188	22444.54
799.519	22361.83
799.85	22265.33
800.182	22423.07
800.513	22350.08
800.844	22139.69
801.175	22304.43
801.506	22195.05
801.837	22085.9
802.168	22119.57
802.499	22049.97
802.83	21910.99
803.161	21854.95
803.491	21848.85
803.822	21940.14
804.153	21751.67
804.483	21593.94
804.814	21655.86
805.145	21571.79
805.475	21586.93
805.805	21471
806.136	21454.28
806.466	21470.1
806.796	21397.11
807.126	21238.24
807.457	21182.42
807.787	21211.58
808.117	21109.88
808.447	21030.11
808.777	21041.64
809.107	20887.06
809.436	20899.72
809.766	20840.96
810.096	20816.11
810.426	20650.46
810.755	20701.31
811.085	20604.81
811.414	20599.84
811.744	20512.84
812.073	20513.74
812.403	20454.08
812.732	20286.63
813.061	20509.67
813.39	20340.19
813.719	20280.3
814.049	20374.31
814.378	20338.38
814.707	20217.02
815.036	20195.78
815.365	20062.23
815.693	19970.03
816.022	19973.64
816.351	19863.36
816.68	19773.19
817.008	19924.83
817.337	19670.82
817.665	19776.81
817.994	19745.85
818.322	19938.16
818.651	19721.44
818.979	19645.97
819.307	19605.97
819.636	19536.82
819.964	19477.16
820.292	19572.75
820.62	19420.89
820.948	19575.46
821.276	19603.26
821.604	19526.2
821.932	19638.74
822.259	19453.88
822.587	19456.14
822.915	19514.22
823.243	19578.4
823.57	19504.05
823.898	19594.22
824.225	19423.15
824.553	19499.08
824.88	19515.8
825.207	19551.96
825.535	19510.15
825.862	19438.74
826.189	19472.86
826.516	19615.68
826.843	19630.37
827.17	19616.36
827.497	19724.38
827.824	19561.67
828.151	19713.54
828.478	19638.06
828.805	19684.38
829.131	19579.08
829.458	19614.1
829.785	19425.41
830.111	19542.69
830.438	19573.43
830.764	19628.34
831.09	19603.93
831.417	19547.21
831.743	19616.59
832.069	19686.42
832.395	19522.13
832.722	19577.49
833.048	19541.34
833.374	19636.02
833.7	19458.63
834.026	19626.08
834.351	19470.83
834.677	19402.13
835.003	19391.06
835.329	19388.35
835.654	19442.58
835.98	19360.55
836.306	19473.54
836.631	19334.11
836.956	19456.59
837.282	19462.69
837.607	19336.37
837.932	19344.05
838.258	19317.16
838.583	19346.77
838.908	19166.88
839.233	19248.91
839.558	19049.6
839.883	19221.8
840.208	19029.94
840.533	19001.92
840.858	19114
841.182	18999.43
841.507	19000.79
841.832	18935.02
842.156	18935.02
842.481	18861.13
842.805	18832.2
843.13	18816.38
843.454	18785.2
843.778	18633.56
844.103	18719.21
844.427	18658.87
844.751	18600.12
845.075	18554.92
845.399	18485.77
845.723	18359.22
846.047	18348.83
846.371	18347.92
846.695	18271.77
847.019	18223.86
847.343	18104.54
847.666	18076.06
847.99	17928.27
848.313	17872.68
848.637	17920.59
848.96	17877.43
849.284	17758.78
849.607	17616.19
849.931	17562.63
850.254	17557.66
850.577	17436.31
850.9	17337.55
851.223	17328.74
851.546	17253.04
851.869	17019.59
852.192	17246.71
852.515	17044
852.838	16944.57
853.161	16968.52
853.483	16856.89
853.806	16759.94
854.129	16771.69
854.451	16791.13
854.774	16664.8
855.096	16610.57
855.419	16552.26
855.741	16476.33
856.063	16461.19
856.385	16357.47
856.708	16397.46
857.03	16349.1
857.352	16380.06
857.674	16249.9
857.996	16213.74
858.318	16123.57
858.64	16180.52
858.961	16020.98
859.283	15962.67
859.605	15823.02
859.926	15932.17
860.248	15858.27
860.57	15780.76
860.891	15854.65
861.212	15736.24
861.534	15786.86
861.855	15658.95
862.176	15706.41
862.498	15555.45
862.819	15710.7
863.14	15562.68
863.461	15554.77
863.782	15449.24
864.103	15474.32
864.424	15367.66
864.745	15429.35
865.065	15457.38
865.386	15195.24
865.707	15330.37
866.027	15370.6
866.348	15303.03
866.668	15304.39
866.989	15209.25
867.309	15153.88
867.63	15187.55
867.95	15127.44
868.27	15075.24
868.59	15082.24
868.91	15062.58
869.23	15036.82
869.55	14981.68
869.87	15064.62
870.19	15004.28
870.51	14983.72
870.83	14867.11
871.15	14910.05
871.469	14885.87
871.789	14906.2
872.109	14854.91
872.428	14807.45
872.748	14793.21
873.067	14767.45
873.386	14751.86
873.706	14767.68
874.025	14669.83
874.344	14623.73
874.663	14726.1
874.982	14526.1
875.301	14640.45
875.62	14432.54
875.939	14472.54
876.258	14496.27
876.577	14427.35
876.896	14404.75
877.214	14457.4
877.533	14425.09
877.852	14352.55
878.17	14430.06
878.489	14336.05
878.807	14307.12
879.125	14264.41
879.444	14298.54
879.762	14279.33
880.08	14184.64
880.398	14254.47
880.716	14280.46
881.034	14072.33
881.352	14082.95
881.67	14156.85
881.988	14034.36
882.306	14020.8
882.624	14000.69
882.941	13875.95
883.259	13969.73
883.577	13918.89
883.894	13911.43
884.212	13870.3
884.529	13817.42
884.846	13762.05
885.164	13681.6
885.481	13675.05
885.798	13663.52
886.115	13556.86
886.432	13653.36
886.75	13538.33
887.067	13670.76
887.383	13568.16
887.7	13529.74
888.017	13414.49
888.334	13364.32
888.651	13329.07
888.967	13313.93
889.284	13210.66
889.6	13228.73
889.917	13233.25
890.233	13223.99
890.55	13160.71
890.866	13160.94
891.182	13098.79
891.498	13040.26
891.815	12967.5
892.131	12919.59
892.447	12913.49
892.763	12919.36
893.079	12837.56
893.395	12787.39
893.71	12808.18
894.026	12829.87
894.342	12755.07
894.657	12610.67
894.973	12654.51
895.289	12662.65
895.604	12568.64
895.92	12519.6
896.235	12484.12
896.55	12492.26
896.865	12401.64
897.181	12458.13
897.496	12424.69
897.811	12322.77
898.126	12227.4
898.441	12208.65
898.756	12229.66
899.071	12180.63
899.386	12077.13
899.7	12065.37
900.015	11907.19
900.33	11850.47
900.644	11824.25
900.959	11883.46
901.273	11877.36
901.588	11851.82
901.902	11728.43
902.216	11743.12
902.531	11665.16
902.845	11601.66
903.159	11510.14
903.473	11497.48
903.787	11428.33
904.101	11445.28
904.415	11377.03
904.729	11335.9
905.042	11351.27
905.356	11305.85
905.67	11247.09
905.984	11246.41
906.297	11195.57
906.611	11120.77
906.924	11076.7
907.237	11137.04
907.551	11044.38
907.864	10962.58
908.177	10976.14
908.491	10867.89
908.804	10843.94
909.117	10767.1
909.43	10608.92
909.743	10740.21
910.056	10667.45
910.368	10595.81
910.681	10581.12
910.994	10541.8
911.307	10434.23
911.619	10396.72
911.932	10442.59
912.244	10225.42
912.557	10361.01
912.869	10256.83
913.181	10203.05
913.494	10234.46
913.806	10041.02
914.118	10060
914.43	10031.76
914.742	10003.06
915.054	9968.03
915.366	9944.75
915.678	9862.95
915.99	9899.56
916.302	9818.88
916.613	9735.49
916.925	9763.06
917.236	9683.29
917.548	9634.03
917.859	9598.32
918.171	9547.93
918.482	9503.41
918.794	9457.08
919.105	9473.58
919.416	9446.46
919.727	9419.79
920.038	9340.47
920.349	9281.49
920.66	9251.44
920.971	9236.07
921.282	9166.02
921.593	9174.83
921.903	9088.28
922.214	9166.92
922.525	9087.6
922.835	9043.08
923.146	8941.39
923.456	8886.02
923.767	8840.37
924.077	8785.24
924.387	8860.04
924.697	8780.49
925.008	8755.18
925.318	8744.11
925.628	8691.9
925.938	8672.47
926.248	8580.95
926.558	8513.83
926.867	8441.52
927.177	8496.88
927.487	8448.75
927.796	8359.48
928.106	8398.13
928.416	8407.62
928.725	8307.51
929.034	8285.81
929.344	8285.81
929.653	8216.66
929.962	8131.24
930.271	8192.26
930.581	8134.63
930.89	8088.53
931.199	8013.5
931.508	7961.53
931.817	7945.71
932.125	7964.69
932.434	7890.34
932.743	7851.47
933.051	7827.97
933.36	7851.93
933.669	7777.35
933.977	7676.11
934.286	7665.72
934.594	7637.02
934.902	7584.59
935.21	7566.74
935.519	7573.06
935.827	7430.47
936.135	7500.07
936.443	7443.8
936.751	7382.79
937.059	7395.89
937.367	7299.4
937.674	7399.28
937.982	7285.84
938.29	7310.02
938.597	7311.83
938.905	7146.86
939.213	7162.9
939.52	7164.71
939.827	7181.44
940.135	7127.88
940.442	7070.93
940.749	7057.37
941.056	7072.29
941.363	6950.48
941.67	7016.02
941.977	6905.06
942.284	6903.02
942.591	6841.33
942.898	6765.63
943.205	6790.26
943.511	6780.99
943.818	6821.67
944.125	6747.1
944.431	6680.21
944.738	6698.28
945.044	6661.68
945.35	6590.26
945.657	6586.2
945.963	6577.61
946.269	6541
946.575	6502.13
946.881	6434.79
947.187	6447.9
947.493	6377.84
947.799	6410.61
948.105	6371.06
948.41	6335.36
948.716	6293.55
949.022	6247.9
949.327	6194.79
949.633	6187.56
949.938	6175.81
950.244	6203.83
950.549	6116.83
950.854	6107.11
951.16	6106.44
951.465	6021.01
951.77	6002.48
952.075	5976.27
952.38	6004.74
952.685	5897.63
952.99	5837.52
953.294	5882.71
953.599	5844.75
953.904	5835.71
954.209	5795.03
954.513	5831.41
954.818	5770.63
955.122	5770.63
955.426	5722.72
955.731	5698.99
956.035	5707.8
956.339	5651.08
956.643	5568.82
956.948	5544.64
957.252	5590.52
957.556	5544.19
957.86	5497.41
958.163	5501.71
958.467	5498.77
958.771	5455.15
959.075	5423.52
959.378	5386.45
959.682	5392.33
959.985	5369.73
960.289	5283.41
960.592	5340.81
960.896	5259
961.199	5220.36
961.502	5201.6
961.805	5200.7
962.108	5172
962.411	5168.38
962.714	5075.95
963.017	5161.6
963.32	5118.44
963.623	5100.36
963.926	5112.56
964.228	5047.71
964.531	5013.36
964.833	4979.91
965.136	4979.01
965.438	4957.77
965.741	4949.86
966.043	4915.28
966.345	4856.3
966.648	4860.37
966.95	4844.1
967.252	4802.51
967.554	4804.32
967.856	4797.32
968.158	4741.05
968.46	4752.35
968.761	4726.58
969.063	4716.42
969.365	4703.99
969.666	4663.31
969.968	4630.09
970.269	4605.46
970.571	4591.22
970.872	4615.63
971.174	4542.86
971.475	4518.91
971.776	4458.12
972.077	4488.85
972.378	4435.74
972.679	4442.75
972.98	4426.71
973.281	4385.8
973.582	4406.82
973.883	4351
974.183	4386.71
974.484	4296.09
974.785	4334.28
975.085	4286.37
975.386	4285.24
975.686	4264.9
975.986	4235.3
976.287	4265.58
976.587	4208.63
976.887	4202.76
977.187	4146.04
977.487	4174.28
977.787	4128.86
978.087	4056.32
978.387	4122.53
978.687	4114.85
978.987	4079.37
979.286	4026.04
979.586	4036.21
979.885	4027.17
980.185	3968.86
980.484	3965.7
980.784	3947.4
981.083	3947.4
981.382	3913.95
981.682	3915.76
981.981	3884.12
982.28	3849.55
982.579	3856.55
982.878	3885.25
983.177	3848.19
983.475	3842.54
983.774	3784.01
984.073	3732.71
984.372	3755.54
984.67	3754.63
984.969	3725.71
985.267	3701.08
985.566	3691.13
985.864	3662.88
986.162	3645.94
986.461	3634.41
986.759	3610.46
987.057	3608.87
987.355	3563.45
987.653	3539.05
987.951	3522.77
988.249	3483.68
988.547	3504.92
988.844	3466.73
989.142	3499.5
989.44	3473.06
989.737	3440.29
990.035	3473.74
990.332	3426.73
990.63	3425.6
990.927	3395.32
991.224	3358.94
991.521	3367.3
991.819	3317.13
992.116	3297.24
992.413	3269.45
992.71	3236.91
993.006	3292.72
993.303	3208.88
993.6	3262.22
993.897	3223.35
994.193	3192.61
994.49	3207.75
994.787	3172.95
995.083	3166.63
995.379	3096.8
995.676	3139.73
995.972	3101.09
996.268	3116.01
996.565	3085.95
996.861	3070.81
997.157	3006.63
997.453	3036.01
997.749	3056.12
998.044	2992.39
998.34	2990.13
998.636	2964.15
998.932	2983.58
999.227	2962.34
999.523	2927.76
999.818	2915.11
1000.114	2873.53
1000.409	2887.76
1000.704	2822.91
1001	2837.59
1001.295	2825.39
1001.59	2838.05
1001.885	2796.92
1002.18	2788.78
1002.475	2755.11
1002.77	2807.31
1003.065	2734.32
1003.359	2748.33
1003.654	2733.87
1003.949	2684.38
1004.243	2677.6
1004.538	2628.33
1004.832	2626.53
1005.127	2659.07
1005.421	2636.02
1005.715	2631.95
1006.009	2635.11
1006.304	2586.75
1006.598	2573.65
1006.892	2552.86
1007.186	2537.72
1007.48	2569.58
1007.773	2495.23
1008.067	2494.55
1008.361	2482.58
1008.655	2456.36
1008.948	2454.33
1009.242	2453.2
1009.535	2439.87
1009.829	2400.77
1010.122	2386.53
1010.415	2400.54
1010.708	2366.65
1011.001	2325.97
1011.295	2339.3
1011.588	2308.57
1011.881	2276.03
1012.173	2288.68
1012.466	2271.51
1012.759	2252.98
1013.052	2257.95
1013.344	2237.16
1013.637	2230.61
1013.93	2237.61
1014.222	2231.51
1014.514	2157.84
1014.807	2186.31
1015.099	2207.78
1015.391	2135.92
1015.683	2110.61
1015.976	2096.37
1016.268	2078.74
1016.56	2099.99
1016.851	2062.25
1017.143	2042.14
1017.435	2103.83
1017.727	2036.26
1018.018	2004.17
1018.31	2015.02
1018.602	2023.83
1018.893	1984.06
1019.185	1979.09
1019.476	1946.54
1019.767	1967.79
1020.058	1910.61
1020.35	1913.1
1020.641	1909.26
1020.932	1919.88
1021.223	1854.12
1021.514	1844.63
1021.804	1864.97
1022.095	1833.33
1022.386	1820.22
1022.677	1803.5
1022.967	1812.09
1023.258	1778.64
1023.548	1775.7
1023.839	1729.83
1024.129	1754.23
1024.419	1738.64
1024.709	1747.45
1025	1716.72
1025.29	1704.52
1025.58	1683.73
1025.87	1671.75
1026.16	1662.26
1026.449	1708.59
1026.739	1634.24
1027.029	1607.34
1027.319	1631.3
1027.608	1627.68
1027.898	1585.42
1028.187	1590.62
1028.477	1607.57
1028.766	1559.66
1029.055	1558.76
1029.344	1561.02
1029.634	1541.58
1029.923	1521.47
1030.212	1518.99
1030.501	1520.79
1030.79	1502.26
1031.078	1482.83
1031.367	1495.94
1031.656	1458.2
1031.945	1438.54
1032.233	1457.74
1032.522	1434.24
1032.81	1458.42
1033.099	1445.77
1033.387	1394.47
1033.675	1415.03
1033.963	1397.18
1034.251	1408.03
1034.54	1410.97
1034.828	1377.29
1035.116	1369.84
1035.403	1366.45
1035.691	1348.59
1035.979	1346.79
1036.267	1324.41
1036.554	1324.64
1036.842	1298.88
1037.129	1288.26
1037.417	1281.25
1037.704	1267.24
1037.992	1256.62
1038.279	1240.57
1038.566	1239.9
1038.853	1239.9
1039.14	1239.9
