Data from 18-4330_FLMS001491_001.txt Node
Date: Thu Apr 19 16:43:20 BST 2018
User: hsy
Spectrometer: FLMS00149
Trigger mode: 0
Integration Time (sec): 1.000000E-2
Scans to average: 10
Electric dark correction enabled: true
Nonlinearity correction enabled: false
Boxcar width: 0
XAxis mode: Wavelengths
Number of Pixels in Spectrum: 2048
>>>>>Begin Spectral Data<<<<<
341.393	11
341.776	11
342.16	11
342.543	-69
342.927	-69
343.31	-66.96
343.693	-73.06
344.077	-72.84
344.46	-67.19
344.843	-46.85
345.226	-56.11
345.61	-19.96
345.993	-13.86
346.376	-7.98
346.759	11.23
347.142	36.99
347.525	34.96
347.908	82.87
348.291	68.63
348.674	88.29
349.057	101.85
349.44	128.29
349.823	136.65
350.206	174.84
350.588	232.24
350.971	243.31
351.354	277.66
351.737	274.27
352.119	305.23
352.502	295.51
352.884	295.06
353.267	336.42
353.65	338.23
354.032	325.8
354.414	349.07
354.797	354.72
355.179	364.89
355.562	346.13
355.944	361.73
356.326	373.25
356.709	385.68
357.091	369.41
357.473	393.82
357.855	358.11
358.238	389.3
358.62	375.06
359.002	369.41
359.384	374.83
359.766	363.31
360.148	373.48
360.53	373.93
360.912	387.26
361.294	359.02
361.676	393.82
362.057	379.58
362.439	393.37
362.821	375.74
363.203	379.13
363.584	363.31
363.966	364.67
364.348	357.89
364.729	351.11
365.111	357.89
365.493	363.08
365.874	357.89
366.256	354.95
366.637	356.3
367.019	344.78
367.4	359.47
367.781	351.78
368.163	383.87
368.544	366.25
368.925	357.21
369.306	366.7
369.688	372.12
370.069	354.5
370.45	347.72
370.831	354.5
371.212	371.67
371.593	365.34
371.974	363.76
372.355	364.67
372.736	378.45
373.117	372.12
373.498	368.96
373.879	369.64
374.26	388.39
374.641	374.61
375.021	371.67
375.402	374.83
375.783	392.46
376.163	391.11
376.544	396.76
376.925	406.02
377.305	403.76
377.686	411.9
378.066	412.35
378.447	406.92
378.827	411.44
379.208	386.59
379.588	387.04
379.968	393.37
380.349	394.04
380.729	403.53
381.109	408.28
381.489	409.86
381.87	424.78
382.25	393.59
382.63	414.61
383.01	416.64
383.39	444.66
383.77	426.36
384.15	421.61
384.53	455.28
384.91	440.6
385.29	458.9
385.67	457.54
386.049	437.43
386.429	446.25
386.809	460.71
387.189	446.7
387.568	458
387.948	476.53
388.328	459.8
388.707	455.96
389.087	491.22
389.466	457.09
389.846	470.2
390.225	470.65
390.605	463.65
390.984	487.6
391.363	508.16
391.743	494.15
392.122	491.89
392.501	504.55
392.881	489.86
393.26	510.2
393.639	502.97
394.018	520.82
394.397	506.81
394.776	510.88
395.155	551.55
395.534	521.95
395.913	516.75
396.292	537.09
396.671	543.87
397.05	540.93
397.429	555.85
397.808	559.69
398.186	573.93
398.565	576.64
398.944	582.06
399.323	565.79
399.701	581.38
400.08	590.65
400.458	598.78
400.837	615.73
401.215	615.05
401.594	591.1
401.972	606.47
402.351	614.6
402.729	643.53
403.107	645.34
403.486	634.26
403.864	634.94
404.242	649.63
404.62	669.52
404.999	693.7
405.377	681.04
405.755	694.6
406.133	694.83
406.511	701.15
406.889	696.18
407.267	719.01
407.645	727.37
408.023	731.21
408.401	750.42
408.779	747.71
409.156	778.89
409.534	782.51
409.912	796.97
410.29	809.85
410.667	806.46
411.045	820.02
411.422	853.92
411.8	847.82
412.178	857.53
412.555	868.61
412.933	890.08
413.31	906.35
413.687	935.95
414.065	932.33
414.442	912
414.819	952.67
415.197	963.97
415.574	974.82
415.951	975.5
416.328	990.64
416.705	991.09
417.082	993.12
417.46	1009.62
417.837	1046.91
418.214	1028.38
418.591	1057.08
418.967	1089.84
419.344	1049.62
419.721	1086.91
420.098	1071.54
420.475	1121.93
420.852	1119.9
421.228	1121.26
421.605	1144.08
421.982	1156.74
422.358	1181.37
422.735	1207.13
423.111	1203.29
423.488	1206
423.864	1228.15
424.241	1269.95
424.617	1224.08
424.994	1283.74
425.37	1270.18
425.746	1298.65
426.123	1326.9
426.499	1370.51
426.875	1355.15
427.251	1386.79
427.627	1401.7
428.003	1414.81
428.379	1419.55
428.756	1442.83
429.132	1449.61
429.507	1490.74
429.883	1515.14
430.259	1519.89
430.635	1530.96
431.011	1533
431.387	1604.18
431.763	1624.29
432.138	1614.8
432.514	1683.95
432.89	1665.65
433.265	1722.14
433.641	1733.67
434.016	1722.14
434.392	1793.33
434.767	1840.56
435.143	1808.92
435.518	1860.22
435.894	1882.59
436.269	1925.53
436.644	1968.69
437.02	1964.85
437.395	1968.47
437.77	2012.98
438.145	2050.27
438.52	2071.29
438.895	2086.43
439.271	2094.34
439.646	2130.95
440.021	2166.2
440.395	2198.52
440.77	2191.96
441.145	2206.43
441.52	2270.15
441.895	2267.21
442.27	2299.3
442.645	2279.19
443.019	2296.37
443.394	2336.82
443.769	2350.83
444.143	2348.57
444.518	2419.53
444.892	2388.34
445.267	2409.58
445.641	2452.97
446.016	2458.85
446.39	2443.03
446.764	2470.37
447.139	2484.84
447.513	2553.99
447.887	2550.14
448.262	2558.96
448.636	2599.18
449.01	2603.48
449.384	2626.98
449.758	2672.85
450.132	2676.92
450.506	2698.16
450.88	2719.18
451.254	2772.74
451.628	2782.91
452.002	2835.56
452.376	2832.4
452.75	2890.93
453.123	2898.16
453.497	2916.69
453.871	2956.46
454.244	3040.98
454.618	3060.87
454.992	3081.88
455.365	3124.37
455.739	3207.08
456.112	3237.36
456.486	3268.77
456.859	3294.53
457.232	3356
457.606	3408.65
457.979	3414.3
458.352	3507.18
458.725	3507.18
459.099	3553.73
459.472	3573.39
459.845	3676.67
460.218	3657.23
460.591	3732.49
460.964	3760.96
461.337	3804.12
461.71	3913.5
462.083	3927.74
462.456	3951.69
462.829	3963.44
463.201	4039.15
463.574	4047.28
463.947	4168.41
464.32	4212.47
464.692	4290.44
465.065	4245.24
465.438	4331.57
465.81	4345.58
466.183	4394.62
466.555	4466.25
466.928	4606.14
467.3	4561.17
467.672	4630.32
468.045	4772.91
468.417	4731.78
468.789	4769.3
469.161	4818.33
469.534	4894.94
469.906	4943.98
470.278	4997.99
470.65	5077.31
471.022	5153.24
471.394	5259
471.766	5282.95
472.138	5312.78
472.51	5398.21
472.882	5524.53
473.253	5581.48
473.625	5677.07
473.997	5744.64
474.369	5790.96
474.74	5774.47
475.112	5936.5
475.484	6037.28
475.855	6115.25
476.227	6201.12
476.598	6339.65
476.97	6361.34
477.341	6553.88
477.713	6603.82
478.084	6699.41
478.455	6811.05
478.827	6911.39
479.198	7043.59
479.569	7081.78
479.94	7251.94
480.311	7345.05
480.682	7478.83
481.053	7638.15
481.424	7829.33
481.795	7857.58
482.166	7955.2
482.537	8105.48
482.908	8329.65
483.279	8346.38
483.65	8489.42
484.021	8653.04
484.391	8745.01
484.762	8923.76
485.133	8950.2
485.503	8996.3
485.874	9307.26
486.244	9286.24
486.615	9500.92
486.985	9648.04
487.356	9744.31
487.726	9798.77
488.097	10086.9
488.467	10120.12
488.837	10344.52
489.207	10429.49
489.578	10645.53
489.948	10703.15
490.318	10840.77
490.688	10900.21
491.058	11115.57
491.428	11211.84
491.798	11330.25
492.168	11538.61
492.538	11693.86
492.908	11752.16
493.278	11852.27
493.648	12021.99
494.017	12045.26
494.387	12224.69
494.757	12320.06
495.126	12476.66
495.496	12473.27
495.866	12698.13
496.235	12723.89
496.605	12852.02
496.974	12865.13
497.344	13056.54
497.713	13169.3
498.082	13203.2
498.452	13333.59
498.821	13359.58
499.19	13492.91
499.559	13555.96
499.928	13656.07
500.298	13684.77
500.667	13841.83
501.036	13808.38
501.405	13990.75
501.774	13950.07
502.143	14084.08
502.512	14137.18
502.88	14271.19
503.249	14230.52
503.618	14362.26
503.987	14409.95
504.356	14505.99
504.724	14585.99
505.093	14537.85
505.462	14600.45
505.83	14596.38
506.199	14861.23
506.567	14985.07
506.936	15004.51
507.304	15059.65
507.672	15116.59
508.041	15174.45
508.409	15314.33
508.777	15366.76
509.145	15544.61
509.514	15526.07
509.882	15543.93
510.25	15592.97
510.618	15663.92
510.986	15639.29
511.354	15849.23
511.722	15980.75
512.09	16030.02
512.458	16002.67
512.826	16120.41
513.193	16098.26
513.561	16229.79
513.929	16397.01
514.297	16491.25
514.664	16485.15
515.032	16594.97
515.4	16709.32
515.767	16735.99
516.135	16674.52
516.502	16640.4
516.869	17022.76
517.237	16971.91
517.604	16931.91
517.972	17145.92
518.339	17180.27
518.706	17148.63
519.073	17248.06
519.44	17324.9
519.808	17438.34
520.175	17523.54
520.542	17741.38
520.909	17719.46
521.276	17672.91
521.643	17848.05
522.009	17963.98
522.376	18025.67
522.743	18048.49
523.11	18190.86
523.477	18480.35
523.843	18448.94
524.21	18600.8
524.577	18637.18
524.943	18674.69
525.31	18697.06
525.676	18934.35
526.043	19033.1
526.409	19025.64
526.776	19238.75
527.142	19234.9
527.508	19395.8
527.874	19428.35
528.241	19536.59
528.607	19631.05
528.973	19702.69
529.339	19570.04
529.705	19774.1
530.071	19921.44
530.437	19976.81
530.803	19923.02
531.169	20096.8
531.535	20043.47
531.901	20141.55
532.267	20173.64
532.632	20250.02
532.998	20280.07
533.364	20369.34
533.73	20326.63
534.095	20479.16
534.461	20378.83
534.826	20462.67
535.192	20499.73
535.557	20559.16
535.923	20502.89
536.288	20492.5
536.653	20665.6
537.019	20570.91
537.384	20669.44
537.749	20530.46
538.114	20654.08
538.479	20624.7
538.845	20563.91
539.21	20619.73
539.575	20639.84
539.94	20516.9
540.305	20665.37
540.67	20534.76
541.034	20587.41
541.399	20532.95
541.764	20558.03
542.129	20498.37
542.494	20553.29
542.858	20532.95
543.223	20530.91
543.587	20457.02
543.952	20466.51
544.316	20429.9
544.681	20307.19
545.045	20446.85
545.41	20364.59
545.774	20289.79
546.138	20204.37
546.503	20332.28
546.867	20300.19
547.231	20329.11
547.595	20300.41
547.959	20231.94
548.324	20263.13
548.688	20293.63
549.052	20212.05
549.416	20115.33
549.779	20104.71
550.143	20175.9
550.507	20169.57
550.871	20055.45
551.235	19998.73
551.599	20161.43
551.962	20111.72
552.326	19978.16
552.689	20026.97
553.053	19838.5
553.417	19942.91
553.78	20085.28
554.143	20011.15
554.507	20014.77
554.87	20030.82
555.234	20148.33
555.597	19985.84
555.96	20005.51
556.323	20077.82
556.686	20009.57
557.05	20019.06
557.413	19989.23
557.776	20076.46
558.139	20122.11
558.502	20119.4
558.865	20050.7
559.228	20154.65
559.59	20148.78
559.953	20116.91
560.316	20206.4
560.679	20339.28
561.041	20268.32
561.404	20371.15
561.767	20444.82
562.129	20370.69
562.492	20564.59
562.854	20502.44
563.217	20432.84
563.579	20381.99
563.941	20576.79
564.304	20672.15
564.666	20757.35
565.028	20741.3
565.39	20831.7
565.753	20857.46
566.115	20845.26
566.477	21063.56
566.839	20979.94
567.201	21124.12
567.563	21072.14
567.925	21206.15
568.287	21331.35
568.648	21307.39
569.01	21440.04
569.372	21521.62
569.734	21479.14
570.095	21822.18
570.457	21849.98
570.819	21826.25
571.18	21791.9
571.542	22002.29
571.903	22012.46
572.265	22172.91
572.626	22267.37
572.987	22221.94
573.349	22229.63
573.71	22408.83
574.071	22382.84
574.432	22560.92
574.794	22704.19
575.155	22630.97
575.516	22617.87
575.877	22824.64
576.238	22761.36
576.599	22775.38
576.96	22806.11
577.32	22952.32
577.681	22983.05
578.042	23201.58
578.403	23072.77
578.763	23096.95
579.124	23154.35
579.485	23215.82
579.845	23243.39
580.206	23256.94
580.566	23238.19
580.927	23252.2
581.287	23383.72
581.648	23289.49
582.008	23461.69
582.368	23463.49
582.728	23427.56
583.089	23396.6
583.449	23432.31
583.809	23343.5
584.169	23498.07
584.529	23383.72
584.889	23702.58
585.249	23339.88
585.609	23293.78
585.969	23513.21
586.329	23337.62
586.688	23469.37
587.048	23310.95
587.408	23433.89
587.768	23423.27
588.127	23440.89
588.487	23346.21
588.846	23498.07
589.206	23233.67
589.565	23292.88
589.925	23416.26
590.284	23291.97
590.643	23295.14
591.003	23410.16
591.362	23507.79
591.721	23482.93
592.08	23277.96
592.44	23400.9
592.799	23390.95
593.158	23334.23
593.517	23257.4
593.876	23442.7
594.235	23303.95
594.593	23282.03
594.952	23405.42
595.311	23227.12
595.67	23332.88
596.029	23472.31
596.387	23405.19
596.746	23560.89
597.104	23280.67
597.463	23213.56
597.822	23416.49
598.18	23282.71
598.538	23401.12
598.897	23394.12
599.255	23263.95
599.613	23470.5
599.972	23383.72
600.33	23417.62
600.688	23327.68
601.046	23337.62
601.404	23521.57
601.762	23357.96
602.12	23426.88
602.478	23431.63
602.836	23495.81
603.194	23246.55
603.552	23397.73
603.91	23276.83
604.268	23409.26
604.625	23390.95
604.983	23610.38
605.341	23364.06
605.698	23595.24
606.056	23597.5
606.413	23475.24
606.771	23690.15
607.128	23503.49
607.485	23481.8
607.843	23584.62
608.2	23683.6
608.557	23641.57
608.914	23671.4
609.272	23675.01
609.629	23836.36
609.986	23905.29
610.343	23635.24
610.7	23889.7
611.057	23828.23
611.414	23768.12
611.771	23889.02
612.127	23853.54
612.484	23954.78
612.841	23976.93
613.198	23911.39
613.554	23901
613.911	24110.93
614.267	24109.35
614.624	24109.8
614.98	24132.4
615.337	24322
615.693	24250.59
616.05	24230.25
616.406	24355.9
616.762	24316.8
617.118	24331.27
617.475	24248.56
617.831	24451.72
618.187	24468.66
618.543	24424.82
618.899	24488.33
619.255	24573.97
619.611	24590.02
619.967	24598.38
620.323	24691.03
620.678	24595.44
621.034	24645.38
621.39	24547.31
621.746	24564.71
622.101	24746.17
622.457	24602.9
622.812	24730.58
623.168	24786.62
623.523	24771.26
623.879	24891.48
624.234	24744.82
624.589	24753.18
624.945	24746.4
625.3	24781.65
625.655	24765.83
626.01	24886.73
626.365	24924.25
626.72	24868.2
627.075	24785.49
627.43	24775.78
627.785	24726.96
628.14	24738.94
628.495	24737.58
628.85	24763.35
629.205	24731.71
629.559	24798.15
629.914	24743.91
630.269	24734.87
630.623	24664.37
630.978	24555.67
631.332	24656.91
631.687	24701.43
632.041	24691.26
632.396	24739.39
632.75	24654.42
633.104	24594.99
633.459	24420.76
633.813	24585.5
634.167	24572.84
634.521	24537.59
634.875	24521.54
635.229	24473.86
635.583	24484.71
635.937	24416.69
636.291	24271.38
636.645	24342.34
636.999	24224.6
637.352	24259.86
637.706	24098.5
638.06	24213.76
638.413	24258.05
638.767	24071.61
639.121	24281.78
639.474	24068.22
639.828	24074.1
640.181	24035.91
640.534	24018.05
640.888	24038.85
641.241	23816.03
641.594	23893.54
641.947	23964.27
642.301	23844.73
642.654	23886.31
643.007	23819.19
643.36	23985.51
643.713	23775.8
644.066	24007.66
644.419	23855.8
644.771	23586.43
645.124	23304.18
645.477	23348.47
645.83	23389.37
646.182	23306.21
646.535	23317.73
646.888	23371.97
647.24	23284.97
647.593	23415.81
647.945	23247.45
648.298	23205.42
648.65	23138.53
649.002	22961.59
649.355	22961.59
649.707	22831.65
650.059	22830.06
650.411	23246.1
650.763	23464.4
651.115	23738.51
651.467	23658.97
651.819	23677.27
652.171	23659.65
652.523	23545.75
652.875	23658.97
653.227	23456.49
653.578	23775.8
653.93	23655.35
654.282	23547.56
654.633	23520.21
654.985	23656.93
655.337	23759.53
655.688	23660.32
656.039	23783.48
656.391	23554.56
656.742	23611.51
657.094	23588.01
657.445	23696.26
657.796	23669.59
658.147	23648.57
658.498	23697.16
658.849	23790.72
659.2	23771.96
659.551	23763.15
659.902	23899.41
660.253	23696.03
660.604	23836.59
660.955	23690.61
661.306	23830.04
661.656	23816.93
662.007	23717.27
662.358	23825.74
662.708	23888.57
663.059	23795.69
663.409	23720.66
663.76	23875.69
664.11	23933.31
664.461	23884.73
664.811	24000.2
665.161	23917.94
665.511	23844.73
665.862	24010.37
666.212	24147.32
666.562	23989.13
666.912	23878.4
667.262	23928.57
667.612	23867.78
667.962	23966.98
668.312	23960.43
668.662	24095.34
669.011	24006.08
669.361	24024.16
669.711	24013.08
670.06	23914.78
670.41	23957.27
670.76	23928.79
671.109	23996.13
671.459	23902.58
671.808	23899.41
672.157	23891.5
672.507	23866.87
672.856	23851.73
673.205	23818.06
673.554	23897.61
673.904	23732.19
674.253	23985.29
674.602	23808.79
674.951	23516.83
675.3	23354.8
675.649	23746.42
675.998	23723.6
676.346	23792.3
676.695	23799.08
677.044	23599.08
677.393	23619.87
677.741	23758.63
678.09	23579.2
678.438	23549.14
678.787	23668.69
679.135	23603.15
679.484	23363.16
679.832	23582.13
680.181	23460.33
680.529	23436.6
680.877	23349.82
681.225	23254.23
681.573	23445.19
681.922	23319.77
682.27	23310.5
682.618	23261.69
682.966	23182.82
683.314	23188.7
683.661	23142.37
684.009	23108.7
684.357	23036.61
684.705	22915.03
685.053	23000
685.4	22893.79
685.748	22835.71
686.095	22806.11
686.443	22694.25
686.79	22599.34
687.138	22551.2
687.485	22551.65
687.832	22503.52
688.18	22464.42
688.527	22383.75
688.874	22490.41
689.221	22332.68
689.568	22197.31
689.915	22190.53
690.262	22084.09
690.609	22084.09
690.956	21945.12
691.303	21896.53
691.65	21829.19
691.997	21771.56
692.344	21596.88
692.69	21560.49
693.037	21436.43
693.383	21282.08
693.73	21348.29
694.077	21230.56
694.423	21110.11
694.769	21079.38
695.116	21007.29
695.462	20996.21
695.808	20923.45
696.155	20898.36
696.501	20709.22
696.847	20751.47
697.193	20514.64
697.539	20610.91
697.885	20421.31
698.231	20323.91
698.577	20284.82
698.923	20179.51
699.269	19996.92
699.614	19991.95
699.96	19863.59
700.306	19982.68
700.651	19768.45
700.997	19705.17
701.342	19668.56
701.688	19666.76
702.033	19462.02
702.379	19481.68
702.724	19370.95
703.069	19349.7
703.415	19146.77
703.76	19143.15
704.105	19114.23
704.45	19091.86
704.795	18961.01
705.14	18946.78
705.485	18879.43
705.83	18828.59
706.175	18905.65
706.52	18692.55
706.865	18708.14
707.209	18547.92
707.554	18544.75
707.899	18525.09
708.243	18310.86
708.588	18338.88
708.932	18267.25
709.277	18349.5
709.621	18279
709.966	18079
710.31	18156.29
710.654	18034.71
710.998	18017.31
711.342	18165.55
711.687	18051.21
712.031	18010.3
712.375	17833.36
712.719	17933.92
713.063	17813.02
713.407	17973.92
713.75	17783.19
714.094	17729.18
714.438	17715.17
714.782	17732.34
715.125	17710.42
715.469	17761.5
715.812	17611.67
716.156	17550.65
716.499	17640.14
716.843	17556.98
717.186	17514.05
717.53	17631.56
717.873	17616.64
718.216	17547.04
718.559	17514.05
718.902	17357.67
719.246	17503.65
719.589	17452.13
719.932	17397.66
720.275	17465.68
720.617	17419.58
720.96	17356.08
721.303	17383.88
721.646	17475.18
721.989	17407.38
722.331	17436.31
722.674	17466.59
723.016	17426.36
723.359	17358.79
723.701	17479.7
724.044	17430.88
724.386	17266.59
724.729	17333.48
725.071	17375.97
725.413	17421.62
725.755	17385.91
726.097	17362.86
726.439	17334.39
726.782	17329.42
727.124	17483.54
727.465	17394.73
727.807	17389.08
728.149	17388.17
728.491	17389.98
728.833	17429.3
729.175	17385.01
729.516	17359.92
729.858	17393.14
730.199	17580.26
730.541	17538.23
730.882	17499.58
731.224	17476.31
731.565	17480.37
731.906	17585.23
732.248	17627.94
732.589	17490.09
732.93	17543.65
733.271	17609.18
733.612	17623.65
733.953	17697.77
734.294	17819.8
734.635	17747.03
734.976	17907.71
735.317	17805.79
735.658	17864.09
735.999	17796.07
736.339	17829.29
736.68	17938.21
737.021	17932.11
737.361	17895.28
737.702	18129.85
738.042	18125.55
738.383	18196.51
738.723	18185.89
739.063	18245.1
739.404	18393.57
739.744	18309.05
740.084	18363.74
740.424	18553.79
740.764	18573.9
741.104	18595.6
741.444	18723.73
741.784	18719.66
742.124	18829.04
742.464	18894.8
742.804	18914.01
743.143	18990.84
743.483	19192.42
743.823	19176.15
744.162	19410.27
744.502	19485.74
744.841	19490.72
745.181	19755.12
745.52	19693.2
745.86	19958.73
746.199	20063.36
746.538	20243.01
746.877	20315.55
747.216	20464.02
747.556	20558.48
747.895	20746.05
748.234	20899.49
748.573	20933.84
748.911	21158.47
749.25	21314.17
749.589	21414.51
749.928	21784.67
750.267	22038.9
750.605	22042.06
750.944	22267.37
751.283	22475.04
751.621	22771.99
751.96	22846.11
752.298	23049.49
752.636	23415.13
752.975	23542.59
753.313	23641.34
753.651	24037.94
753.989	24086.08
754.327	24459.85
754.666	24572.84
755.004	24861.42
755.342	25182.54
755.679	25401.3
756.017	25436.55
756.355	25750.21
756.693	25861.4
757.031	26361.72
757.368	26453.02
757.706	26746.34
758.044	26961.48
758.381	27175.49
758.719	27366.67
759.056	27670.39
759.394	27770.05
759.731	27937.95
760.068	28132.75
760.405	28403.93
760.743	28550.59
761.08	28880.3
761.417	28971.82
761.754	29198.03
762.091	29430.57
762.428	29523.67
762.765	29654.97
763.102	29921.18
763.438	30085.01
763.775	30134.5
764.112	30441.84
764.449	30617.2
764.785	30687.26
765.122	30915.5
765.458	30893.81
765.795	31200.01
766.131	31473.45
766.467	31377.18
766.804	31499.21
767.14	31560.46
767.476	31686.1
767.812	31745.08
768.148	32069.14
768.485	31960.9
768.821	31888.81
769.157	32052.87
769.492	32242.7
769.828	32387.55
770.164	32318.85
770.5	32231.85
770.836	32449.02
771.171	32352.75
771.507	32398.4
771.842	32523.82
772.178	32541.22
772.513	32555.23
772.849	32599.52
773.184	32695.11
773.519	32595.68
773.855	32584.84
774.19	32635.68
774.525	32604.72
774.86	32750.25
775.195	32784.38
775.53	32604.27
775.865	32570.6
776.2	32459.41
776.535	32577.38
776.87	32441.11
777.205	32414.9
777.539	32330.83
777.874	32500.54
778.209	32261.45
778.543	32438.62
778.878	32371.51
779.212	32425.29
779.547	32105.98
779.881	32213.55
780.215	31971.97
780.55	32037.51
780.884	31849.94
781.218	31831.41
781.552	31949.82
781.886	31922.93
782.22	31898.53
782.554	31606.1
782.888	31537.86
783.222	31427.35
783.556	31211.54
783.889	31281.37
784.223	31088.83
784.557	31161.14
784.89	31321.59
785.224	31175.15
785.557	30983.97
785.891	30863.3
786.224	30958.66
786.558	30935.16
786.891	30693.59
787.224	30571.33
787.557	30489.3
787.891	30402.75
788.224	30403.2
788.557	30421.5
788.89	30319.36
789.223	30408.17
789.556	30104.9
789.888	30090.44
790.221	29973.15
790.554	29889.31
790.887	29930.22
791.219	29793.04
791.552	29722.76
791.884	29599.15
792.217	29483.22
792.549	29538.81
792.882	29344.92
793.214	29219.27
793.546	29248.65
793.879	29050.24
794.211	29009.79
794.543	29168.2
794.875	28899.51
795.207	28856.57
795.539	28870.81
795.871	28894.76
796.203	28656.8
796.535	28607.76
796.867	28587.65
797.198	28424.94
797.53	28352.18
797.862	28328
798.193	28220.2
798.525	28085.97
798.856	28261.33
799.188	27829.71
799.519	27850.95
799.85	27705.64
800.182	27740.67
800.513	27846.65
800.844	27528.02
801.175	27759.88
801.506	27636.26
801.837	27442.6
802.168	27421.13
802.499	27387.01
802.83	27097.3
803.161	27087.58
803.491	27136.17
803.822	27114.02
804.153	27070.4
804.483	26784.99
804.814	26841.26
805.145	26733.69
805.475	26810.75
805.805	26722.16
806.136	26705.67
806.466	26623.18
806.796	26578.89
807.126	26442.17
807.457	26309.07
807.787	26425.45
808.117	26281.95
808.447	26319.69
808.777	26274.94
809.107	26008.51
809.436	26045.8
809.766	26124.89
810.096	26136.42
810.426	26011.67
810.755	26106.14
811.085	25827.72
811.414	25895.97
811.744	25681.29
812.073	25858.68
812.403	25666.37
812.732	25553.38
813.061	25729.42
813.39	25524
813.719	25492.82
814.049	25507.28
814.378	25445.81
814.707	25241.53
815.036	25270.68
815.365	25251.69
815.693	25212.37
816.022	25147.97
816.351	25093.28
816.68	24941.87
817.008	24959.05
817.337	24848.32
817.665	24820.52
817.994	24959.27
818.322	24891.7
818.651	24751.59
818.979	24732.16
819.307	24812.38
819.636	24706.4
819.964	24654.87
820.292	24753.85
820.62	24512.05
820.948	24658.49
821.276	24759.05
821.604	24707.3
821.932	24763.8
822.259	24634.76
822.587	24553.86
822.915	24665.5
823.243	24668.66
823.57	24607.64
823.898	24723.8
824.225	24540.08
824.553	24530.13
824.88	24668.66
825.207	24728.77
825.535	24563.13
825.862	24760.41
826.189	24677.25
826.516	24832.72
826.843	24789.56
827.17	24795.89
827.497	24756.34
827.824	24792.72
828.151	24870.01
828.478	24811.03
828.805	24949.1
829.131	24811.25
829.458	24783.68
829.785	24637.93
830.111	24777.13
830.438	24918.82
830.764	24865.04
831.09	24857.81
831.417	24737.81
831.743	24881.08
832.069	24863.68
832.395	24673.18
832.722	24760.63
833.048	24659.39
833.374	24822.1
833.7	24709.79
834.026	24830.46
834.351	24769.9
834.677	24794.98
835.003	24694.2
835.329	24699.17
835.654	24788.66
835.98	24552.28
836.306	24672.05
836.631	24575.55
836.956	24698.49
837.282	24689.45
837.607	24470.02
837.932	24581.43
838.258	24564.26
838.583	24400.19
838.908	24310.7
839.233	24456.91
839.558	24344.83
839.883	24241.55
840.208	24098.96
840.533	24258.73
840.858	24253.3
841.182	24275.9
841.507	24279.07
841.832	24105.06
842.156	24077.49
842.481	24062.57
842.805	23988.68
843.13	23926.76
843.454	23926.76
843.778	23912.07
844.103	23853.77
844.427	23729.93
844.751	23872.75
845.075	23730.15
845.399	23595.92
845.723	23530.16
846.047	23581.46
846.371	23463.72
846.695	23366.55
847.019	23260.11
847.343	22982.6
847.666	23077.29
847.99	22978.99
848.313	22826.45
848.637	22805.43
848.96	22810.86
849.284	22806.34
849.607	22566.34
849.931	22645.66
850.254	22417.42
850.577	22228.95
850.9	22063.53
851.223	22227.59
851.546	22102.4
851.869	22012.23
852.192	22055.39
852.515	21803.65
852.838	21750.09
853.161	21745.12
853.483	21635.52
853.806	21539.93
854.129	21584.67
854.451	21498.57
854.774	21362.76
855.096	21184.23
855.419	21227.39
855.741	21141.52
856.063	21092.03
856.385	21076.89
856.708	21015.65
857.03	20901.53
857.352	20870.34
857.674	20830.12
857.996	20626.96
858.318	20583.12
858.64	20536.11
858.961	20580.18
859.283	20440.3
859.605	20309.68
859.926	20307.42
860.248	20385.38
860.57	20255.89
860.891	20188.55
861.212	20027.65
861.534	20142
861.855	20000.08
862.176	19986.52
862.498	20076.46
862.819	20150.36
863.14	19927.77
863.461	19925.51
863.782	19918.05
864.103	19824.49
864.424	19760.99
864.745	19793.76
865.065	19643.25
865.386	19582.24
865.707	19622.01
866.027	19613.42
866.348	19565.74
866.668	19586.98
866.989	19501.34
867.309	19317.84
867.63	19305.41
867.95	19324.84
868.27	19223.38
868.59	19428.8
868.91	19332.53
869.23	19212.31
869.55	19160.78
869.87	19253.66
870.19	19126.43
870.51	19137.28
870.83	19131.4
871.15	19025.42
871.469	19008.47
871.789	19161.23
872.109	18966.44
872.428	18925.08
872.748	19022.48
873.067	18928.92
873.386	18790.85
873.706	18815.25
874.025	18844.41
874.344	18734.35
874.663	18773
874.982	18711.3
875.301	18604.86
875.62	18556.05
875.939	18576.39
876.258	18580.68
876.577	18446.22
876.896	18511.99
877.214	18528.48
877.533	18468.37
877.852	18481.25
878.17	18359.67
878.489	18473.79
878.807	18375.27
879.125	18369.16
879.444	18341.59
879.762	18331.42
880.08	18354.93
880.398	18208.94
880.716	18252.56
881.034	18095.05
881.352	18091.88
881.67	18004.43
881.988	17925.79
882.306	17939.34
882.624	17973.47
882.941	17965.11
883.259	17846.69
883.577	17769.18
883.894	17866.58
884.212	17731.89
884.529	17744.77
884.846	17532.35
885.164	17468.85
885.481	17515.18
885.798	17636.98
886.115	17545
886.432	17523.54
886.75	17380.94
887.067	17544.33
887.383	17368.06
887.7	17373.03
888.017	17214.17
888.334	17266.59
888.651	17189.76
888.967	17105.02
889.284	17002.42
889.6	17010.1
889.917	16843.1
890.233	17001.29
890.55	16952.48
890.866	16746.83
891.182	16792.48
891.498	16788.41
891.815	16646.27
892.131	16657.8
892.447	16610.79
892.763	16526.5
893.079	16455.99
893.395	16409.89
893.71	16474.52
894.026	16293.74
894.342	16315.66
894.657	16170.35
894.973	16273.85
895.289	16188.88
895.604	16159.5
895.92	16075.89
896.235	16018.94
896.55	15945.72
896.865	15897.36
897.181	15890.13
897.496	15833.19
897.811	15806.75
898.126	15679.74
898.441	15676.13
898.756	15636.58
899.071	15505.74
899.386	15633.19
899.7	15461.44
900.015	15332.86
900.33	15193.65
900.644	15251.73
900.959	15265.74
901.273	15139.87
901.588	15005.86
901.902	15061.91
902.216	14913.44
902.531	14838.18
902.845	14812.42
903.159	14752.31
903.473	14705.76
903.787	14659.2
904.101	14632.54
904.415	14642.03
904.729	14553.22
905.042	14433
905.356	14410.4
905.67	14388.25
905.984	14361.36
906.297	14205.88
906.611	14229.61
906.924	14196.17
907.237	14098.99
907.551	14119.56
907.864	14004.98
908.177	13979
908.491	13859.68
908.804	13785.1
909.117	13714.6
909.43	13732.68
909.743	13563.19
910.056	13609.97
910.368	13530.2
910.681	13512.12
910.994	13459.24
911.307	13421.72
911.619	13301.27
911.932	13313.93
912.244	13115.52
912.557	13158.23
912.869	13036.87
913.181	12999.81
913.494	13073.26
913.806	12895.86
914.118	12865.58
914.43	12796.88
914.742	12790.33
915.054	12649.54
915.366	12627.62
915.678	12589.88
915.99	12553.95
916.302	12516.44
916.613	12462.65
916.925	12428.53
917.236	12407.51
917.548	12264.24
917.859	12353.95
918.171	12193.73
918.482	12118.48
918.794	12131.14
919.105	12102.66
919.416	12046.17
919.727	12019.73
920.038	11971.82
920.349	11852.05
920.66	11772.05
920.971	11796.91
921.282	11809.34
921.593	11674.2
921.903	11631.94
922.214	11543.58
922.525	11460.42
922.835	11483.92
923.146	11397.82
923.456	11351.04
923.767	11283.25
924.077	11273.08
924.387	11182.69
924.697	11081.9
925.008	11093.2
925.318	11027.89
925.628	11111.73
925.938	11003.48
926.248	10930.94
926.558	10786.99
926.867	10834.9
927.177	10820.89
927.487	10750.16
927.796	10609.14
928.106	10687.11
928.416	10577.28
928.725	10561.23
929.034	10556.71
929.344	10491.63
929.653	10519.43
929.962	10399.2
930.271	10323.95
930.581	10294.12
930.89	10247.12
931.199	10236.95
931.508	10193.56
931.817	10129.15
932.125	10108.59
932.434	10043.73
932.743	9943.17
933.051	9966.22
933.36	9945.88
933.669	9893.23
933.977	9907.92
934.286	9793.57
934.594	9771.88
934.902	9744.53
935.21	9637.64
935.519	9624.31
935.827	9633.57
936.135	9554.48
936.443	9455.5
936.751	9456.4
937.059	9433.58
937.367	9293.7
937.674	9354.26
937.982	9305.45
938.29	9324.88
938.597	9290.31
938.905	9105.9
939.213	9092.57
939.52	9077.2
939.827	9155.62
940.135	9118.33
940.442	9002.18
940.749	9011.44
941.056	8967.6
941.363	8828.17
941.67	8876.98
941.977	8752.92
942.284	8796.99
942.591	8737.78
942.898	8695.07
943.205	8731
943.511	8629.98
943.818	8572.36
944.125	8486.26
944.431	8521.06
944.738	8452.59
945.044	8447.84
945.35	8397.9
945.657	8302.54
945.963	8342.53
946.269	8293.95
946.575	8320.84
946.881	8191.58
947.187	8217.34
947.493	8082.65
947.799	8034.07
948.105	8093.05
948.41	7997.46
948.716	7998.14
949.022	7995.88
949.327	7858.93
949.633	7739.16
949.938	7814.19
950.244	7822.55
950.549	7781.87
950.854	7741.19
951.16	7740.06
951.465	7696.22
951.77	7577.81
952.075	7557.24
952.38	7573.74
952.685	7465.72
952.99	7437.25
953.294	7506.62
953.599	7417.36
953.904	7361.54
954.209	7334.2
954.513	7331.26
954.818	7350.02
955.122	7303.24
955.426	7273.86
955.731	7205.84
956.035	7169.46
956.339	7133.53
956.643	7038.61
956.948	7081.33
957.252	7053.76
957.556	7056.47
957.86	7015.34
958.163	7027.54
958.467	6949.8
958.771	6900.54
959.075	6877.26
959.378	6832.52
959.682	6829.58
959.985	6769.92
960.289	6746.64
960.592	6669.13
960.896	6700.77
961.199	6613.09
961.502	6683.14
961.805	6594.56
962.108	6562.69
962.411	6563.6
962.714	6497.61
963.017	6455.35
963.32	6470.04
963.623	6453.77
963.926	6355.47
964.228	6382.13
964.531	6375.58
964.833	6370.61
965.136	6290.16
965.438	6268.92
965.741	6203.16
966.043	6210.39
966.345	6212.87
966.648	6091.97
966.95	6099.43
967.252	6057.4
967.554	6061.46
967.856	6059.43
968.158	5981.02
968.46	6020.79
968.761	5929.72
969.063	5963.16
969.365	5862.37
969.666	5874.58
969.968	5811.08
970.269	5774.92
970.571	5828.25
970.872	5776.5
971.174	5715.26
971.475	5757.97
971.776	5668.48
972.077	5650.63
972.378	5644.98
972.679	5615.6
972.98	5582.83
973.281	5530.41
973.582	5511.65
973.883	5504.64
974.183	5505.32
974.484	5407.24
974.785	5454.48
975.085	5417.87
975.386	5392.1
975.686	5363.86
975.986	5344.87
976.287	5323.41
976.587	5278.89
976.887	5263.52
977.187	5290.64
977.487	5258.1
977.787	5224.42
978.087	5152.34
978.387	5129.96
978.687	5074.82
978.987	5079.34
979.286	5043.19
979.586	5075.73
979.885	5042.06
980.185	5002.06
980.484	5015.16
980.784	4906.47
981.083	4922.51
981.382	4949.63
981.682	4891.1
981.981	4888.39
982.28	4798.9
982.579	4800.71
982.878	4817.66
983.177	4758.45
983.475	4764.32
983.774	4707.15
984.073	4698.79
984.372	4621.73
984.67	4687.94
984.969	4665.57
985.267	4640.49
985.566	4609.07
985.864	4590.77
986.162	4581.73
986.461	4545.35
986.759	4490.43
987.057	4449.3
987.355	4437.1
987.653	4418.12
987.951	4414.95
988.249	4444.78
988.547	4375.86
988.844	4358.68
989.142	4369.31
989.44	4314.39
989.737	4327.05
990.035	4302.64
990.332	4267.39
990.63	4282.98
990.927	4219.48
991.224	4209.08
991.521	4219.03
991.819	4194.17
992.116	4137.22
992.413	4145.36
992.71	4093.16
993.006	4056.55
993.303	4076.43
993.6	4054.74
993.897	4007.06
994.193	4008.19
994.49	3990.11
994.787	3943.55
995.083	3951.46
995.379	3952.82
995.676	3927.28
995.972	3903.33
996.268	3847.29
996.565	3831.24
996.861	3825.59
997.157	3788.3
997.453	3732.49
997.749	3768.19
998.044	3732.71
998.34	3740.17
998.636	3679.15
998.932	3705.82
999.227	3639.16
999.523	3642.32
999.818	3628.76
1000.114	3603.68
1000.409	3555.09
1000.704	3565.71
1001	3521.87
1001.295	3503.11
1001.59	3514.41
1001.885	3490.91
1002.18	3464.47
1002.475	3416.34
1002.77	3440.29
1003.065	3427.64
1003.359	3371.37
1003.654	3362.1
1003.949	3329.56
1004.243	3298.15
1004.538	3296.34
1004.832	3337.47
1005.127	3272.39
1005.421	3193.07
1005.715	3229.67
1006.009	3215.66
1006.304	3175.44
1006.598	3154.65
1006.892	3133.18
1007.186	3103.58
1007.48	3124.59
1007.773	3123.69
1008.067	3096.35
1008.361	3016.8
1008.655	3047.08
1008.948	3019.29
1009.242	3016.57
1009.535	2944.03
1009.829	2983.35
1010.122	2956.01
1010.415	2959.17
1010.708	2886.86
1011.001	2906.97
1011.295	2864.03
1011.588	2838.5
1011.881	2833.3
1012.173	2807.09
1012.466	2812.96
1012.759	2799.18
1013.052	2777.94
1013.344	2786.75
1013.637	2709.69
1013.93	2681.89
1014.222	2708.78
1014.514	2685.73
1014.807	2655.23
1015.099	2631.72
1015.391	2626.75
1015.683	2598.28
1015.976	2588.56
1016.268	2572.97
1016.56	2529.81
1016.851	2562.12
1017.143	2548.11
1017.435	2496.13
1017.727	2491.16
1018.018	2465.18
1018.31	2469.24
1018.602	2443.03
1018.893	2420.2
1019.185	2390.38
1019.476	2389.47
1019.767	2396.48
1020.058	2386.53
1020.35	2348.34
1020.641	2334.33
1020.932	2329.13
1021.223	2273.09
1021.514	2290.49
1021.804	2206.88
1022.095	2241.9
1022.386	2225.86
1022.677	2212.53
1022.967	2179.31
1023.258	2183.83
1023.548	2165.52
1023.839	2130.49
1024.129	2142.47
1024.419	2140.89
1024.709	2128.24
1025	2103.38
1025.29	2101.12
1025.58	2100.21
1025.87	2009.82
1026.16	2043.27
1026.449	2030.16
1026.739	1999.2
1027.029	1995.36
1027.319	1961.23
1027.608	1968.24
1027.898	1954
1028.187	1943.38
1028.477	1939.54
1028.766	1934.57
1029.055	1898.64
1029.344	1866.55
1029.634	1891.63
1029.923	1840.56
1030.212	1831.07
1030.501	1823.61
1030.79	1829.49
1031.078	1779.09
1031.367	1778.87
1031.656	1751.07
1031.945	1753.33
1032.233	1726.66
1032.522	1714.46
1032.81	1719.88
1033.099	1725.99
1033.387	1670.62
1033.675	1660.45
1033.963	1650.96
1034.251	1666.33
1034.54	1640.56
1034.828	1643.73
1035.116	1631.3
1035.403	1619.1
1035.691	1577.74
1035.979	1588.81
1036.267	1547.01
1036.554	1571.87
1036.842	1565.54
1037.129	1559.66
1037.417	1523.28
1037.704	1505.65
1037.992	1512.21
1038.279	1510.17
1038.566	1476.05
1038.853	1476.05
1039.14	1476.05
