Data from 18-4530_FLMS001491_004.txt Node
Date: Thu Apr 19 16:44:10 BST 2018
User: hsy
Spectrometer: FLMS00149
Trigger mode: 0
Integration Time (sec): 1.000000E-2
Scans to average: 10
Electric dark correction enabled: true
Nonlinearity correction enabled: false
Boxcar width: 0
XAxis mode: Wavelengths
Number of Pixels in Spectrum: 2048
>>>>>Begin Spectral Data<<<<<
341.393	-6.12
341.776	-6.12
342.16	-6.12
342.543	-47.7
342.927	-89.73
343.31	-77.07
343.693	-84.98
344.077	-64.65
344.46	-67.81
344.843	-33.01
345.226	-65.55
345.61	-26.45
345.993	-23.06
346.376	-10.64
346.759	27.1
347.142	23.94
347.525	46.09
347.908	61.68
348.291	81.34
348.674	99.87
349.057	113.2
349.44	120.21
349.823	167.44
350.206	166.31
350.588	214.67
350.971	234.56
351.354	253.31
351.737	270.49
352.119	277.72
352.502	298.06
352.884	308.45
353.267	320.88
353.65	314.55
354.032	322.46
354.414	314.1
354.797	322.01
355.179	346.42
355.562	370.15
355.944	354.1
356.326	368.11
356.709	369.24
357.091	385.96
357.473	406.3
357.855	378.28
358.238	399.75
358.62	374.44
359.002	371.5
359.384	378.96
359.766	385.74
360.148	367.21
360.53	374.44
360.912	376.93
361.294	373.76
361.676	365.85
362.057	388.45
362.439	384.61
362.821	365.63
363.203	369.47
363.584	358.85
363.966	380.99
364.348	373.31
364.729	371.05
365.111	371.95
365.493	371.73
365.874	373.99
366.256	353.42
366.637	353.65
367.019	369.92
367.4	357.49
367.781	362.46
368.163	372.41
368.544	364.04
368.925	380.54
369.306	359.07
369.688	388.45
370.069	370.15
370.45	380.31
370.831	395.46
371.212	361.78
371.593	366.98
371.974	377.38
372.355	382.35
372.736	373.08
373.117	389.58
373.498	362.91
373.879	384.38
374.26	376.7
374.641	383.25
375.021	372.41
375.402	381.9
375.783	395.46
376.163	393.87
376.544	405.62
376.925	395.23
377.305	396.81
377.686	393.87
378.066	387.77
378.447	408.56
378.827	385.06
379.208	401.56
379.588	424.61
379.968	402.91
380.349	394.1
380.729	409.24
381.109	414.66
381.489	421.22
381.87	402.69
382.25	410.82
382.63	426.87
383.01	429.35
383.39	450.37
383.77	431.84
384.15	451.5
384.53	425.06
384.91	447.21
385.29	438.62
385.67	460.31
386.049	474.1
386.429	459.41
386.809	452.86
387.189	473.87
387.568	469.8
387.948	488.33
388.328	471.61
388.707	480.2
389.087	486.75
389.466	498.96
389.846	472.29
390.225	468.45
390.605	499.63
390.984	478.39
391.363	482.69
391.743	511.84
392.122	522.91
392.501	517.49
392.881	512.97
393.26	544.6
393.639	523.14
394.018	528.33
394.397	538.95
394.776	558.62
395.155	534.44
395.534	540.76
395.913	549.12
396.292	571.95
396.671	568.56
397.05	579.86
397.429	552.51
397.808	569.24
398.186	554.77
398.565	576.02
398.944	587.32
399.323	610.82
399.701	609.01
400.08	597.94
400.458	591.83
400.837	622.34
401.215	616.24
401.594	635
401.972	622.12
402.351	626.41
402.729	634.77
403.107	644.26
403.486	627.99
403.864	665.73
404.242	646.75
404.62	667.99
404.999	668.22
405.377	684.71
405.755	666.18
406.133	669.12
406.511	686.3
406.889	680.65
407.267	754.77
407.645	717.71
408.023	719.51
408.401	742.34
408.779	759.29
409.156	761.32
409.534	779.4
409.912	793.86
410.29	813.75
410.667	805.16
411.045	794.77
411.422	822.56
411.8	828.21
412.178	856.69
412.555	858.04
412.933	858.49
413.31	891.94
413.687	874.54
414.065	934.2
414.442	919.28
414.819	910.92
415.197	925.61
415.574	934.88
415.951	911.37
416.328	940.07
416.705	946.18
417.082	969.45
417.46	971.94
417.837	991.15
418.214	1011.71
418.591	1015.55
418.967	996.57
419.344	1016.46
419.721	1017.13
420.098	1036.34
420.475	1076.12
420.852	1064.59
421.228	1052.61
421.605	1101.43
421.982	1079.96
422.358	1107.53
422.735	1104.36
423.111	1101.65
423.488	1154.76
423.864	1150.92
424.241	1167.41
424.617	1163.35
424.994	1175.1
425.37	1196.56
425.746	1169.9
426.123	1210.12
426.499	1208.77
426.875	1236.34
427.251	1284.02
427.627	1279.27
428.003	1306.39
428.379	1317.01
428.756	1330.57
429.132	1338.26
429.507	1361.76
429.883	1355.43
430.259	1384.36
430.635	1408.08
431.011	1400.85
431.387	1445.37
431.763	1460.06
432.138	1483.79
432.514	1500.29
432.89	1461.19
433.265	1543.22
433.641	1529.21
434.016	1568.53
434.392	1611.02
434.767	1613.05
435.143	1629.77
435.518	1674.29
435.894	1660.96
436.269	1689.43
436.644	1715.65
437.02	1743.89
437.395	1744.8
437.77	1777.11
438.145	1824.57
438.52	1838.13
438.895	1848.75
439.271	1828.86
439.646	1857.56
440.021	1881.97
440.395	1888.98
440.77	1886.72
441.145	1911.12
441.52	1928.3
441.895	1966.49
442.27	1968.97
442.645	1931.23
443.019	1991.12
443.394	1971.69
443.769	2026.6
444.143	2002.65
444.518	2059.14
444.892	2081.06
445.267	2054.85
445.641	2107.28
446.016	2088.52
446.39	2128.52
446.764	2108.63
447.139	2152.92
447.513	2151.12
447.887	2170.78
448.262	2166.03
448.636	2168.52
449.01	2225.69
449.384	2215.75
449.758	2243.09
450.132	2274.95
450.506	2248.51
450.88	2335.07
451.254	2315.18
451.628	2349.75
452.002	2372.8
452.376	2391.11
452.75	2431.33
453.123	2419.58
453.497	2481.5
453.871	2520.82
454.244	2557.88
454.618	2578.45
454.992	2616.87
455.365	2597.21
455.739	2706.81
456.112	2680.37
456.486	2736.64
456.859	2735.06
457.232	2801.04
457.606	2822.96
457.979	2896.63
458.352	2939.57
458.725	2911.77
459.099	2980.92
459.472	2972.56
459.845	3057.98
460.218	3064.09
460.591	3107.25
460.964	3140.47
461.337	3240.35
461.71	3244.65
462.083	3268.6
462.456	3277.19
462.829	3287.81
463.201	3376.39
463.574	3381.59
463.947	3405.09
464.32	3514.24
464.692	3497.52
465.065	3525.09
465.438	3591.76
465.81	3622.49
466.183	3650.29
466.555	3730.74
466.928	3737.06
467.3	3745.2
467.672	3792.43
468.045	3883.95
468.417	3891.86
468.789	3933.89
469.161	3994.68
469.534	4040.11
469.906	4137.73
470.278	4133.89
470.65	4153.32
471.022	4245.52
471.394	4307.9
471.766	4357.84
472.138	4382.92
472.51	4532.75
472.882	4517.16
473.253	4589.92
473.625	4655.91
473.997	4772.97
474.369	4773.19
474.74	4850.25
475.112	4899.97
475.484	5001.44
475.855	5055.9
476.227	5093.19
476.598	5238.04
476.97	5299.73
477.341	5373.4
477.713	5437.58
478.084	5547.41
478.455	5654.07
478.827	5699.5
479.198	5831.92
479.569	5896.33
479.94	5953.05
480.311	6083.44
480.682	6203.44
481.053	6325.02
481.424	6418.35
481.795	6473.71
482.166	6591.45
482.537	6733.14
482.908	6824.67
483.279	6853.14
483.65	7014.04
484.021	7131.55
484.391	7324.77
484.762	7251.55
485.133	7416.06
485.503	7506.23
485.874	7733.34
486.244	7757.52
486.615	7935.14
486.985	8044.75
487.356	8186.21
487.726	8243.84
488.097	8448.58
488.467	8457.39
488.837	8665.75
489.207	8743.26
489.578	8871.17
489.948	9024.83
490.318	9133.98
490.688	9221.66
491.058	9297.14
491.428	9450.58
491.798	9528.1
492.168	9790.01
492.538	9843.12
492.908	9949.78
493.278	10062.32
493.648	10137.35
494.017	10257.34
494.387	10428.41
494.757	10413.72
495.126	10546.15
495.496	10662.98
495.866	10709.76
496.235	10886.25
496.605	10883.32
496.974	11056.19
497.344	11112.01
497.713	11142.97
498.082	11247.83
498.452	11300.71
498.821	11428.16
499.19	11505.45
499.559	11553.35
499.928	11734.82
500.298	11768.94
500.667	11887.36
501.036	11888.94
501.405	12057.75
501.774	12067.01
502.143	12188.37
502.512	12173.68
502.88	12415.7
503.249	12307.91
503.618	12522.14
503.987	12507.23
504.356	12582.48
504.724	12754.68
505.093	12793.55
505.462	12808.91
505.83	12956.71
506.199	12951.51
506.567	13182.69
506.936	13205.51
507.304	13381.33
507.672	13393.08
508.041	13483.25
508.409	13553.53
508.777	13576.58
509.145	13739.74
509.514	13748.78
509.882	13878.27
510.25	13899.96
510.618	13856.12
510.986	14023.8
511.354	14126.39
511.722	14319.16
512.09	14337.46
512.458	14355.09
512.826	14495.65
513.193	14485.25
513.561	14664.91
513.929	14720.5
514.297	14843.66
514.664	14925.7
515.032	15053.83
515.4	15118.23
515.767	15247.27
516.135	15235.52
516.502	15167.95
516.869	15419.69
517.237	15543.76
517.604	15430.54
517.972	15702.4
518.339	15734.94
518.706	15786.01
519.073	15842.28
519.44	15937.19
519.808	16070.3
520.175	16146.45
520.542	16261.25
520.909	16460.34
521.276	16503.05
521.643	16615.37
522.009	16736.04
522.376	16785.53
522.743	16893.55
523.11	17166.77
523.477	17155.47
523.843	17285.63
524.21	17491.05
524.577	17628.9
524.943	17693.31
525.31	17678.17
525.676	17950.25
526.043	17987.08
526.409	18122
526.776	18388.43
527.142	18356.79
527.508	18491.03
527.874	18559.95
528.241	18744.8
528.607	18729.89
528.973	18939.6
529.339	18971.24
529.705	19185.7
530.071	19182.76
530.437	19378.46
530.803	19518.34
531.169	19484.22
531.535	19510.66
531.901	19580.71
532.267	19693.25
532.632	19698.22
532.998	19843.98
533.364	19952.46
533.73	19924.89
534.095	20149.06
534.461	20185.22
534.826	20183.18
535.192	20257.08
535.557	20443.97
535.923	20391.54
536.288	20463.4
536.653	20548.37
537.019	20417.53
537.384	20533.23
537.749	20616.62
538.114	20640.8
538.479	20671.98
538.845	20696.39
539.21	20654.36
539.575	20832.66
539.94	20894.8
540.305	21004.86
540.67	20906.1
541.034	20845.31
541.399	20961.02
541.764	20895.48
542.129	21048.92
542.494	21045.76
542.858	21108.36
543.223	20991.07
543.587	21092.09
543.952	21195.36
544.316	21120.11
544.681	21123.05
545.045	21243.5
545.41	21301.8
545.774	21198.07
546.138	21301.57
546.503	21301.57
546.867	21243.04
547.231	21508.57
547.595	21377.73
547.959	21462.47
548.324	21388.58
548.688	21547.67
549.052	21544.5
549.416	21372.08
549.779	21449.14
550.143	21492.08
550.507	21548.57
550.871	21551.51
551.235	21604.39
551.599	21723.03
551.962	21725.29
552.326	21772.75
552.689	21702.24
553.053	21659.76
553.417	21729.58
553.78	21995.79
554.143	21943.14
554.507	21926.41
554.87	21919.64
555.234	22178.84
555.597	21952.18
555.96	22097.26
556.323	22161.89
556.686	22116.01
557.05	22209.8
557.413	22274.88
557.776	22274.2
558.139	22454.54
558.502	22355.33
558.865	22459.73
559.228	22626.06
559.59	22624.93
559.953	22765.26
560.316	22950.12
560.679	22836.9
561.041	23007.74
561.404	23079.38
561.767	23285.93
562.129	23127.51
562.492	23386.26
562.854	23334.74
563.217	23383.55
563.579	23527.95
563.941	23573.15
564.304	23722.98
564.666	23757.78
565.028	23923.88
565.39	23969.98
565.753	24172.91
566.115	24094.04
566.477	24364.99
566.839	24443.86
567.201	24617.87
567.563	24456.07
567.925	24720.69
568.287	24837.3
568.648	24871.2
569.01	25101.47
569.372	25192.54
569.734	25278.64
570.095	25453.33
570.457	25600.22
570.819	25727.67
571.18	25637.5
571.542	25935.8
571.903	25881.11
572.265	25963.6
572.626	26185.74
572.987	26240.65
573.349	26440.19
573.71	26476.35
574.071	26716.8
574.432	26764.93
574.794	26906.62
575.155	26898.71
575.516	26898.04
575.877	27076.11
576.238	27137.58
576.599	27227.97
576.96	27240.17
577.32	27347.97
577.681	27537.57
578.042	27754.51
578.403	27643.55
578.763	27651.01
579.124	27688.52
579.485	28041.96
579.845	28041.96
580.206	27970.55
580.566	27813.49
580.927	27984.11
581.287	28027.5
581.648	28130.32
582.008	28182.07
582.368	28212.35
582.728	28168.28
583.089	28218.68
583.449	28274.27
583.809	28225.68
584.169	28446.02
584.529	28293.48
584.889	28574.15
585.249	28341.16
585.609	28180.49
585.969	28492.8
586.329	28344.1
586.688	28416.41
587.048	28350.43
587.408	28333.03
587.768	28298.45
588.127	28329.64
588.487	28271.11
588.846	28491.89
589.206	28232.01
589.565	28259.58
589.925	28369.86
590.284	28382.52
590.643	28281.28
591.003	28339.13
591.362	28356.3
591.721	28370.31
592.08	28377.54
592.44	28507.48
592.799	28312.01
593.158	28384.32
593.517	28269.53
593.876	28399.24
594.235	28363.76
594.593	28346.81
594.952	28472.46
595.311	28331.67
595.67	28347.26
596.029	28428.62
596.387	28611.66
596.746	28601.72
597.104	28410.54
597.463	28345.23
597.822	28523.53
598.18	28361.27
598.538	28338.68
598.897	28532.57
599.255	28309.3
599.613	28597.2
599.972	28482.4
600.33	28508.39
600.688	28386.13
601.046	28507.26
601.404	28634.49
601.762	28476.53
602.12	28579.35
602.478	28745.9
602.836	28674.49
603.194	28408.73
603.552	28452.12
603.91	28538.44
604.268	28549.97
604.625	28564.66
604.983	28683.07
605.341	28424.32
605.698	28715.16
606.056	28670.87
606.413	28524.66
606.771	28803.3
607.128	28757.65
607.485	28798.78
607.843	28744.09
608.2	28868.15
608.557	28860.7
608.914	28756.74
609.272	28953.8
609.629	29157.19
609.986	29086.45
610.343	29120.35
610.7	29190.63
611.057	29254.13
611.414	28955.61
611.771	29249.84
612.127	29302.49
612.484	29290.52
612.841	29220.46
613.198	29205.55
613.554	29150.41
613.911	29430.62
614.267	29345.2
614.624	29402.15
614.98	29478.98
615.337	29699.32
615.693	29573.9
616.05	29521.24
616.406	29590.17
616.762	29539.1
617.118	29584.97
617.475	29569.38
617.831	29798.75
618.187	29745.87
618.543	29770.05
618.899	29988.35
619.255	29878.75
619.611	29872.65
619.967	30106.31
620.323	30144.28
620.678	29965.75
621.034	29959.65
621.39	30005.07
621.746	30025.41
622.101	30317.83
622.457	30048.46
622.812	30244.16
623.168	30213.65
623.523	30226.54
623.879	30302.69
624.234	30088.01
624.589	30255.01
624.945	30223.82
625.3	30250.04
625.655	30205.07
626.01	30242.35
626.365	30339.98
626.72	30189.25
627.075	30081.45
627.43	30156.93
627.785	30099.08
628.14	30196.93
628.495	30244.16
628.85	30296.82
629.205	30129.82
629.559	30113.09
629.914	30117.84
630.269	30145.63
630.623	30043.04
630.978	29887.79
631.332	30156.93
631.687	30119.19
632.041	29998.29
632.396	30216.59
632.75	29914.91
633.104	30008.01
633.459	29852.99
633.813	29979.76
634.167	29840.11
634.521	29878.07
634.875	29913.78
635.229	29815.7
635.583	29542.03
635.937	29648.7
636.291	29596.95
636.645	29551.07
636.999	29569.15
637.352	29623.61
637.706	29458.19
638.06	29453.67
638.413	29286.45
638.767	29265.66
639.121	29448.25
639.474	29216.62
639.828	29164.64
640.181	29132.33
640.534	29233.57
640.888	29066.57
641.241	29021.37
641.594	29104.98
641.947	29068.37
642.301	29068.37
642.654	29079
643.007	28853.92
643.36	29043.97
643.713	28906.57
644.066	29105.66
644.419	28724.65
644.771	28614.37
645.124	28252.35
645.477	28413.02
645.83	28297.77
646.182	28209.87
646.535	28122.64
646.888	28186.36
647.24	28098.46
647.593	28405.79
647.945	28185.01
648.298	28115.18
648.65	27897.11
649.002	27858.91
649.355	27604.01
649.707	27583.89
650.059	27602.88
650.411	28018.91
650.763	28101.17
651.115	28562.85
651.467	28578.9
651.819	28566.92
652.171	28546.81
652.523	28388.17
652.875	28449.86
653.227	28290.54
653.578	28532.34
653.93	28433.59
654.282	28294.61
654.633	28383.19
654.985	28399.47
655.337	28438.33
655.688	28383.42
656.039	28511.33
656.391	28181.17
656.742	28281.95
657.094	28210.77
657.445	28448.5
657.796	28423.87
658.147	28330.09
658.498	28318.56
658.849	28453.48
659.2	28318.34
659.551	28379.13
659.902	28514.72
660.253	28434.94
660.604	28486.02
660.955	28319.69
661.306	28454.38
661.656	28465.23
662.007	28377.09
662.358	28332.8
662.708	28497.54
663.059	28402.85
663.409	28277.43
663.76	28470.42
664.11	28500.93
664.461	28558.11
664.811	28512.23
665.161	28487.6
665.511	28377.09
665.862	28495.06
666.212	28498.45
666.562	28491.67
666.912	28473.36
667.262	28421.84
667.612	28520.14
667.962	28542.51
668.312	28523.76
668.662	28680.14
669.011	28535.28
669.361	28422.29
669.711	28528.95
670.06	28472.01
670.41	28475.4
670.76	28422.74
671.109	28506.13
671.459	28470.2
671.808	28371.22
672.157	28484.66
672.507	28196.08
672.856	28190.66
673.205	28313.14
673.554	28250.99
673.904	28394.72
674.253	28468.62
674.602	28255.51
674.951	27945.24
675.3	27791.35
675.649	28161.05
675.998	28330.77
676.346	28343.2
676.695	28335.96
677.044	28151.79
677.393	28187.04
677.741	28195.4
678.09	28112.02
678.438	27996.54
678.787	28103.43
679.135	28099.81
679.484	27901.63
679.832	28060.04
680.181	27925.81
680.529	27825.02
680.877	27819.59
681.225	27819.59
681.573	28099.81
681.922	27742.08
682.27	27703.21
682.618	27661.86
682.966	27639.26
683.314	27519.26
683.661	27508.42
684.009	27394.07
684.357	27357.01
684.705	27301.87
685.053	27312.04
685.4	27270.23
685.748	27197.91
686.095	27101.87
686.443	26967.19
686.79	26857.58
687.138	26976
687.485	26981.88
687.832	26844.48
688.18	26856
688.527	26730.13
688.874	26663.24
689.221	26477.48
689.568	26451.04
689.915	26387.31
690.262	26437.71
690.609	26314.1
690.956	26166.08
691.303	26103.93
691.65	26042.92
691.997	25906.65
692.344	25828.01
692.69	25751.85
693.037	25751.63
693.383	25449.26
693.73	25607
694.077	25377.62
694.423	25390.5
694.769	25290.85
695.116	25256.95
695.462	25083.62
695.808	25005.2
696.155	25092.21
696.501	24821.48
696.847	24883.63
697.193	24744.87
697.539	24801.37
697.885	24508.27
698.231	24355.05
698.577	24395.05
698.923	24290.19
699.269	24132.68
699.614	24056.75
699.96	24048.85
700.306	23979.02
700.651	23876.42
700.997	23756.2
701.342	23626.26
701.688	23681.85
702.033	23504.45
702.379	23421.06
702.724	23221.07
703.069	23400.95
703.415	23144.69
703.76	23196.44
704.105	23117.12
704.45	23079.61
704.795	22933.85
705.14	22884.58
705.485	22753.06
705.83	22571.82
706.175	22757.35
706.52	22602.1
706.865	22654.31
707.209	22497.25
707.554	22451.82
707.899	22455.89
708.243	22227.2
708.588	22409.57
708.932	22099.97
709.277	22270.36
709.621	22169.8
709.966	22089.8
710.31	22004.61
710.654	21860.2
710.998	21954.44
711.342	21925.96
711.687	21867.89
712.031	21760.32
712.375	21709.7
712.719	21729.81
713.063	21667.44
713.407	21762.58
713.75	21628.12
714.094	21522.58
714.438	21382.7
714.782	21437.39
715.125	21394.9
715.469	21468.35
715.812	21352.42
716.156	21296.38
716.499	21394
716.843	21281.46
717.186	21239.88
717.53	21264.74
717.873	21324.62
718.216	21224.29
718.559	21159.43
718.902	21000.11
719.246	21104.52
719.589	21066.78
719.932	20987.68
720.275	21007.12
720.617	21013.44
720.96	21002.82
721.303	21031.75
721.646	21076.27
721.989	20912.66
722.331	20923.73
722.674	20865.65
723.016	21005.76
723.359	20976.16
723.701	20884.41
724.044	20857.52
724.386	20795.37
724.729	20925.54
725.071	20843.28
725.413	20801.47
725.755	20793.34
726.097	20794.92
726.439	20619.1
726.782	20657.07
727.124	20906.55
727.465	20850.29
727.807	20726.9
728.149	20781.81
728.491	20646
728.833	20857.97
729.175	20779.1
729.516	20725.09
729.858	20681.93
730.199	20827.01
730.541	20826.1
730.882	20709.95
731.224	20678.54
731.565	20851.42
731.906	20775.94
732.248	20835.14
732.589	20739.55
732.93	20687.13
733.271	20774.35
733.612	20837.86
733.953	20860.23
734.294	20812.77
734.635	20735.26
734.976	20882.83
735.317	20866.1
735.658	20722.6
735.999	20851.42
736.339	20856.84
736.68	21041.24
737.021	20978.42
737.361	20948.36
737.702	21041.69
738.042	21000.34
738.383	21067
738.723	21192.42
739.063	21147.45
739.404	21200.78
739.744	21133.22
740.084	21239.43
740.424	21252.53
740.764	21439.65
741.104	21535.92
741.444	21428.57
741.784	21358.07
742.124	21463.38
742.464	21557.39
742.804	21631.96
743.143	21636.48
743.483	21746.98
743.823	21793.99
744.162	21876.02
744.502	21974.1
744.841	21963.02
745.181	22108.78
745.52	22121.66
745.86	22344.94
746.199	22369.79
746.538	22370.7
746.877	22551.71
747.216	22727.98
747.556	22651.82
747.895	22802.78
748.234	22978.36
748.573	23075.09
748.911	22984.47
749.25	23201.41
749.589	23169.77
749.928	23432.59
750.267	23664.9
750.605	23676.65
750.944	23831.9
751.283	23938.11
751.621	24008.39
751.96	24022.18
752.298	24157.99
752.636	24356.86
752.975	24493.13
753.313	24691.77
753.651	24790.97
753.989	24920.91
754.327	25015.15
754.666	25020.57
755.004	25201.58
755.342	25527.68
755.679	25637.73
756.017	25558.41
756.355	25863.26
756.693	25969.25
757.031	26194.33
757.368	26267.09
757.706	26395.45
758.044	26512.06
758.381	26599.29
758.719	26739.85
759.056	26946.17
759.394	26974.64
759.731	26818.04
760.068	27040.63
760.405	27108.43
760.743	27256.22
761.08	27410.11
761.417	27478.81
761.754	27565.59
762.091	27700.05
762.428	27781.85
762.765	27752.93
763.102	27996.76
763.438	27954.28
763.775	27949.76
764.112	28192.01
764.449	28102.75
764.785	28201.96
765.122	28111.79
765.458	28160.15
765.795	28328.28
766.131	28393.36
766.467	28357.88
766.804	28394.04
767.14	28403.31
767.476	28411.89
767.812	28490.08
768.148	28538.22
768.485	28510.65
768.821	28443.76
769.157	28428.39
769.492	28375.96
769.828	28494.38
770.164	28238.11
770.5	28372.35
770.836	28375.51
771.171	28292.8
771.507	28408.73
771.842	28117.89
772.178	28333.25
772.513	28305.46
772.849	28172.8
773.184	28260.71
773.519	28180.49
773.855	28096.2
774.19	28112.92
774.525	28079.25
774.86	27943.43
775.195	28021.62
775.53	27860.72
775.865	27868.86
776.2	27580.96
776.535	27499.38
776.87	27541.86
777.205	27488.08
777.539	27360.17
777.874	27381.41
778.209	27341.64
778.543	27328.98
778.878	27119.5
779.212	27117.46
779.547	26959.5
779.881	27100.52
780.215	26892.61
780.55	26986.17
780.884	26725.84
781.218	26763.8
781.552	26898.26
781.886	26577.37
782.22	26517.25
782.554	26379.41
782.888	26368.78
783.222	26353.19
783.556	26105.97
783.889	26161.78
784.223	25887.44
784.557	26069.58
784.89	26032.3
785.224	25777.39
785.557	25724.51
785.891	25782.36
786.224	25618.07
786.558	25609.71
786.891	25291.75
787.224	25301.47
787.557	25236.61
787.891	25333.56
788.224	25115.71
788.557	25097.18
788.89	25054.92
789.223	25042.72
789.556	24944.19
789.888	24795.72
790.221	24678.88
790.554	24631.65
790.887	24692.67
791.219	24534.03
791.552	24532.45
791.884	24290.65
792.217	24460.59
792.549	24338.55
792.882	24076.41
793.214	23975.85
793.546	24005.91
793.879	23881.84
794.211	23696.31
794.543	23844.1
794.875	23721.62
795.207	23702.19
795.539	23611.12
795.871	23574.28
796.203	23494.28
796.535	23309.43
796.867	23272.82
797.198	23221.3
797.53	23229.66
797.862	23020.17
798.193	23115.31
798.525	22947.41
798.856	23023.34
799.188	22730.46
799.519	22681.2
799.85	22561.2
800.182	22586.06
800.513	22631.48
800.844	22303.58
801.175	22487.76
801.506	22473.75
801.837	22376.8
802.168	22363.92
802.499	22285.95
802.83	22176.8
803.161	22008.9
803.491	22118.73
803.822	22109.46
804.153	21963.7
804.483	21760.77
804.814	21714.44
805.145	21730.04
805.475	21705.4
805.805	21660.66
806.136	21635.12
806.466	21572.98
806.796	21525.3
807.126	21355.58
807.457	21268.35
807.787	21385.64
808.117	21329.14
808.447	21284.17
808.777	21321.01
809.107	21056.16
809.436	21096.38
809.766	21035.59
810.096	21045.08
810.426	20921.7
810.755	20963.05
811.085	20881.24
811.414	21001.02
811.744	20781.36
812.073	20707.69
812.403	20733.45
812.732	20580.46
813.061	20702.27
813.39	20505.66
813.719	20417.98
814.049	20618.88
814.378	20420.92
814.707	20370.98
815.036	20497.98
815.365	20206.23
815.693	20188.83
816.022	20177.53
816.351	20072.68
816.68	19991.1
817.008	20123.52
817.337	20030.87
817.665	20011.44
817.994	19970.76
818.322	20047.59
818.651	19889.86
818.979	19780.71
819.307	19925.79
819.636	19784.32
819.964	19657.1
820.292	19740.03
820.62	19704.78
820.948	19854.61
821.276	19775.06
821.604	19694.61
821.932	19828.62
822.259	19757.43
822.587	19757.21
822.915	19657.32
823.243	19719.24
823.57	19617.32
823.898	19742.07
824.225	19619.13
824.553	19736.64
824.88	19656.87
825.207	19774.38
825.535	19636.08
825.862	19794.27
826.189	19692.35
826.516	19746.13
826.843	19921.95
827.17	19894.38
827.497	19674.95
827.824	19658.68
828.151	19843.98
828.478	19729.86
828.805	19906.13
829.131	19828.39
829.458	19804.21
829.785	19682.86
830.111	19731.44
830.438	19855.96
830.764	19830.2
831.09	19882.17
831.417	19720.37
831.743	19815.96
832.069	19684.67
832.395	19720.82
832.722	19777.77
833.048	19600.83
833.374	19743.87
833.7	19662.97
834.026	19794.04
834.351	19726.92
834.677	19708.17
835.003	19667.49
835.329	19658.45
835.654	19710.43
835.98	19556.31
836.306	19618.68
836.631	19538.23
836.956	19632.92
837.282	19612.35
837.607	19478.12
837.932	19529.87
838.258	19470.43
838.583	19504.11
838.908	19377.78
839.233	19553.37
839.558	19340.95
839.883	19378.23
840.208	19319.48
840.533	19346.82
840.858	19232.47
841.182	19282.87
841.507	19293.72
841.832	19145.7
842.156	19117.22
842.481	19173.49
842.805	19087.85
843.13	19005.59
843.454	19014.18
843.778	18929.66
844.103	18865.7
844.427	18816.67
844.751	18839.26
845.075	18804.46
845.399	18819.83
845.723	18679.49
846.047	18814.63
846.371	18622.55
846.695	18477.24
847.019	18480.86
847.343	18320.63
847.666	18246.74
847.99	18221.65
848.313	18130.13
848.637	18081.09
848.96	18097.14
849.284	18107.31
849.607	17848.1
849.931	17943.47
850.254	17821.89
850.577	17602.91
850.9	17480.2
851.223	17559.07
851.546	17458.51
851.869	17408.34
852.192	17503.93
852.515	17257.39
852.838	17272.07
853.161	17177.16
853.483	17035.7
853.806	17054.68
854.129	16978.3
854.451	16984.4
854.774	16881.8
855.096	16760.45
855.419	16751.86
855.741	16712.09
856.063	16651.53
856.385	16571.08
856.708	16527.23
857.03	16560.91
857.352	16486.11
857.674	16455.82
857.996	16380.12
858.318	16248.37
858.64	16247.47
858.961	16135.61
859.283	16123.4
859.605	16011.32
859.926	16046.34
860.248	15962.5
860.57	15964.99
860.891	15959.79
861.212	15850.42
861.534	15840.25
861.855	15804.09
862.176	15832.34
862.498	15739.46
862.819	15776.97
863.14	15723.87
863.461	15685
863.782	15656.98
864.103	15575.4
864.424	15487.49
864.745	15525.91
865.065	15472.12
865.386	15365.01
865.707	15431.44
866.027	15419.24
866.348	15402.29
866.668	15301.96
866.989	15330.88
867.309	15380.37
867.63	15313.71
867.95	15308.74
868.27	15208.63
868.59	15211.34
868.91	15233.71
869.23	15186.03
869.55	15124.11
869.87	15226.25
870.19	14997.11
870.51	15084.11
870.83	15026.71
871.15	14945.36
871.469	14963.66
871.789	15068.52
872.109	15002.3
872.428	14927.5
872.748	14907.62
873.067	14816.32
873.386	14850.44
873.706	14942.64
874.025	14821.97
874.344	14761.41
874.663	14777.9
874.982	14729.99
875.301	14709.66
875.62	14705.81
875.939	14606.16
876.258	14642.31
876.577	14567.29
876.896	14573.39
877.214	14517.12
877.533	14570.68
877.852	14620.84
878.17	14504.24
878.489	14501.98
878.807	14461.75
879.125	14351.25
879.444	14444.35
879.762	14367.52
880.08	14397.57
880.398	14418.36
880.716	14408.42
881.034	14247.52
881.352	14238.71
881.67	14066.73
881.988	14163.46
882.306	14139.5
882.624	14175.21
882.941	14031.26
883.259	14041.2
883.577	14112.38
883.894	13953.74
884.212	13946.74
884.529	13949.22
884.846	13894.31
885.164	13799.62
885.481	13840.07
885.798	13785.39
886.115	13735.44
886.432	13769.34
886.75	13736.35
887.067	13767.08
887.383	13650.47
887.7	13697.93
888.017	13629.46
888.334	13617.93
888.651	13470.82
888.967	13474.43
889.284	13460.2
889.6	13380.43
889.917	13298.85
890.233	13386.53
890.55	13266.98
890.866	13288
891.182	13295.91
891.498	13161.22
891.815	13110.38
892.131	13046.2
892.447	13086.42
892.763	13102.92
893.079	13026.99
893.395	12975.24
893.71	13010.04
894.026	12904.96
894.342	12895.92
894.657	12775.7
894.973	12758.75
895.289	12718.3
895.604	12703.61
895.92	12713.32
896.235	12645.98
896.55	12576.83
896.865	12576.15
897.181	12432.2
897.496	12483.73
897.811	12365.76
898.126	12396.27
898.441	12314.69
898.756	12322.83
899.071	12300
899.386	12301.81
899.7	12097.52
900.015	12019.33
900.33	11980.24
900.644	12016.62
900.959	11982.5
901.273	11926.23
901.588	11883.29
901.902	11845.32
902.216	11799.45
902.531	11787.92
902.845	11642.39
903.159	11659.34
903.473	11557.42
903.787	11505.45
904.101	11464.09
904.415	11536.41
904.729	11472
905.042	11351.33
905.356	11388.61
905.67	11352.91
905.984	11350.65
906.297	11228.84
906.611	11189.07
906.924	11137.32
907.237	11123.08
907.551	11145
907.864	11034.95
908.177	11083.31
908.491	11023.42
908.804	10901.17
909.117	10889.87
909.43	10768.52
909.743	10815.07
910.056	10732.36
910.368	10643.32
910.681	10687.61
910.994	10565.13
911.307	10581.63
911.619	10441.75
911.932	10542.31
912.244	10453.5
912.557	10356.1
912.869	10349.32
913.181	10301.41
913.494	10295.08
913.806	10219.38
914.118	10146.16
914.43	10174.41
914.742	10169.44
915.054	10022.32
915.366	9963.11
915.678	10006.05
915.99	9946.84
916.302	9945.49
916.613	9840.86
916.925	9855.77
917.236	9786.4
917.548	9677.02
917.859	9807.19
918.171	9649.22
918.482	9613.74
918.794	9585.04
919.105	9535.33
919.416	9512.28
919.727	9542.33
920.038	9411.94
920.349	9377.37
920.66	9358.16
920.971	9353.19
921.282	9313.19
921.593	9201.33
921.903	9158.16
922.214	9178.73
922.525	9071.61
922.835	9052.4
923.146	9027.55
923.456	8990.26
923.767	8913.42
924.077	8942.58
924.387	8885.85
924.697	8899.41
925.008	8840.66
925.318	8802.01
925.628	8720.43
925.938	8759.53
926.248	8662.58
926.558	8604.73
926.867	8573.77
927.177	8541.91
927.487	8583.04
927.796	8498.75
928.106	8482.02
928.416	8440.89
928.725	8402.7
929.034	8370.61
929.344	8297.62
929.653	8370.84
929.962	8240.45
930.271	8220.33
930.581	8247.23
930.89	8168.36
931.199	8123.61
931.508	8109.6
931.817	8018.53
932.125	8020.34
932.434	8002.04
932.743	7947.57
933.051	7896.5
933.36	7870.97
933.669	7853.79
933.977	7831.64
934.286	7718.2
934.594	7751.19
934.902	7670.97
935.21	7666
935.519	7615.83
935.827	7521.37
936.135	7580.8
936.443	7514.14
936.751	7487.7
937.059	7484.08
937.367	7405.67
937.674	7440.92
937.982	7404.08
938.29	7357.31
938.597	7347.82
938.905	7238.89
939.213	7231.89
939.52	7168.16
939.827	7209.74
940.135	7231.89
940.442	7102.4
940.749	7129.97
941.056	7156.86
941.363	7033.47
941.67	6982.63
941.977	6967.71
942.284	6941.5
942.591	6960.25
942.898	6929.75
943.205	6898.79
943.511	6852.91
943.818	6814.27
944.125	6750.99
944.431	6710.09
944.738	6732.46
945.044	6672.35
945.35	6703.09
945.657	6611.11
945.963	6657.21
946.269	6571.79
946.575	6532.92
946.881	6540.38
947.187	6504.9
947.493	6488.63
947.799	6424.22
948.105	6407.73
948.41	6327.96
948.716	6343.1
949.022	6391.46
949.327	6354.4
949.633	6287.28
949.938	6248.18
950.244	6257.67
950.549	6209.31
950.854	6144.91
951.16	6148.07
951.465	6119.6
951.77	6045.02
952.075	6072.82
952.38	5958.93
952.685	5986.95
952.99	5968.87
953.294	5926.16
953.599	5906.95
953.904	5886.84
954.209	5885.03
954.513	5862.43
954.818	5821.75
955.122	5817.46
955.426	5757.35
955.731	5724.13
956.035	5712.15
956.339	5660.18
956.643	5697.01
956.948	5646.84
957.252	5626.28
957.556	5628.54
957.86	5553.06
958.163	5535.89
958.467	5538.37
958.771	5468.09
959.075	5482.1
959.378	5425.15
959.682	5423.57
959.985	5412.05
960.289	5364.36
960.592	5359.62
960.896	5314.2
961.199	5338.83
961.502	5291.6
961.805	5273.75
962.108	5224.48
962.411	5213.86
962.714	5207.53
963.017	5127.53
963.32	5166.4
963.623	5156.23
963.926	5083.24
964.228	5075.33
964.531	5080.3
964.833	5069.23
965.136	5001.21
965.438	4986.52
965.741	4963.47
966.043	4978.61
966.345	4930.25
966.648	4943.13
966.95	4907.2
967.252	4824.49
967.554	4870.14
967.856	4823.59
968.158	4803.25
968.46	4820.88
968.761	4749.69
969.063	4762.8
969.365	4707.88
969.666	4681.22
969.968	4629.02
970.269	4674.89
970.571	4649.36
970.872	4623.82
971.174	4642.12
971.475	4574.33
971.776	4558.96
972.077	4527.55
972.378	4540.43
972.679	4495.69
972.98	4518.51
973.281	4422.47
973.582	4429.7
973.883	4450.94
974.183	4375.24
974.484	4356.93
974.785	4354.22
975.085	4330.72
975.386	4330.95
975.686	4302.47
975.986	4275.13
976.287	4257.28
976.587	4206.43
976.887	4256.6
977.187	4247.33
977.487	4186.77
977.787	4161.01
978.087	4149.93
978.387	4150.61
978.687	4085.98
978.987	4095.25
979.286	4085.3
979.586	4083.49
979.885	4011.63
980.185	4039.65
980.484	3983.84
980.784	4006.43
981.083	3989.49
981.382	3942.93
981.682	3945.42
981.981	3904.74
982.28	3854.57
982.579	3872.43
982.878	3873.33
983.177	3838.75
983.475	3818.19
983.774	3785.2
984.073	3777.74
984.372	3707.68
984.67	3759.66
984.969	3783.39
985.267	3708.36
985.566	3707.46
985.864	3686.44
986.162	3670.62
986.461	3665.43
986.759	3630.17
987.057	3619.1
987.355	3604.18
987.653	3604.41
987.951	3528.25
988.249	3559.21
988.547	3497.52
988.844	3575.71
989.142	3516.5
989.44	3521.02
989.737	3479.22
990.035	3431.31
990.332	3456.62
990.63	3421.36
990.927	3449.61
991.224	3413.46
991.521	3374.59
991.819	3382.72
992.116	3372.78
992.413	3341.14
992.71	3320.35
993.006	3289.39
993.303	3290.07
993.6	3263.63
993.897	3269.28
994.193	3241.03
994.49	3244.65
994.787	3229.96
995.083	3166.68
995.379	3188.6
995.676	3177.53
995.972	3117.64
996.268	3127.81
996.565	3102.05
996.861	3084.42
997.157	3048.95
997.453	3069.06
997.749	3044.65
998.044	3000.81
998.34	3015.95
998.636	3026.35
998.932	3002.84
999.227	2960.36
999.523	2953.81
999.818	2955.39
1000.114	2896.41
1000.409	2922.17
1000.704	2883.75
1001	2865.45
1001.295	2856.41
1001.59	2840.36
1001.885	2849.18
1002.18	2817.09
1002.475	2811.89
1002.77	2786.58
1003.065	2756.52
1003.359	2775.73
1003.654	2743.64
1003.949	2741.16
1004.243	2704.55
1004.538	2668.16
1004.832	2676.75
1005.127	2660.03
1005.421	2638.79
1005.715	2651.22
1006.009	2648.28
1006.304	2578.45
1006.598	2570.99
1006.892	2537.77
1007.186	2575.06
1007.48	2535.29
1007.773	2501.84
1008.067	2492.12
1008.361	2517.89
1008.655	2496.19
1008.948	2483.54
1009.242	2445.8
1009.535	2430.66
1009.829	2455.51
1010.122	2404.44
1010.415	2381.84
1010.708	2387.49
1011.001	2365.12
1011.295	2371.22
1011.588	2341.85
1011.881	2305.01
1012.173	2260.94
1012.466	2329.42
1012.759	2302.07
1013.052	2283.09
1013.344	2266.82
1013.637	2264.56
1013.93	2248.51
1014.222	2245.12
1014.514	2229.31
1014.807	2210.78
1015.099	2137.1
1015.391	2150.89
1015.683	2164.67
1015.976	2139.14
1016.268	2118.8
1016.56	2116.77
1016.851	2126.03
1017.143	2100.95
1017.435	2069.08
1017.727	2063.89
1018.018	2060.95
1018.31	2012.59
1018.602	2013.94
1018.893	2019.14
1019.185	1993.38
1019.476	1967.84
1019.767	1977.56
1020.058	1949.77
1020.35	1916.55
1020.641	1928.07
1020.932	1885.13
1021.223	1875.87
1021.514	1871.12
1021.804	1858.24
1022.095	1837.68
1022.386	1848.75
1022.677	1839.94
1022.967	1801.97
1023.258	1773.05
1023.548	1796.77
1023.839	1803.55
1024.129	1755.65
1024.419	1745.7
1024.709	1760.39
1025	1761.97
1025.29	1741.63
1025.58	1733.95
1025.87	1702.54
1026.16	1679.04
1026.449	1661.64
1026.739	1651.69
1027.029	1687.85
1027.319	1646.5
1027.608	1661.41
1027.898	1640.62
1028.187	1618.7
1028.477	1574.86
1028.766	1587.06
1029.055	1587.97
1029.344	1563.33
1029.634	1535.54
1029.923	1550.45
1030.212	1515.2
1030.501	1509.32
1030.79	1499.16
1031.078	1512.04
1031.367	1487.86
1031.656	1487.86
1031.945	1458.25
1032.233	1489.44
1032.522	1470.91
1032.81	1449.44
1033.099	1464.58
1033.387	1435.65
1033.675	1424.36
1033.963	1384.13
1034.251	1405.82
1034.54	1371.48
1034.828	1378.71
1035.116	1398.59
1035.403	1376.67
1035.691	1366.96
1035.979	1345.49
1036.267	1359.95
1036.554	1333.51
1036.842	1311.59
1037.129	1313.17
1037.417	1306.17
1037.704	1289.67
1037.992	1289.9
1038.279	1252.38
1038.566	1273.85
1038.853	1273.85
1039.14	1273.85
