Data from 18-4525_FLMS001491_009.txt Node
Date: Thu Apr 19 16:42:57 BST 2018
User: hsy
Spectrometer: FLMS00149
Trigger mode: 0
Integration Time (sec): 1.000000E-2
Scans to average: 10
Electric dark correction enabled: true
Nonlinearity correction enabled: false
Boxcar width: 0
XAxis mode: Wavelengths
Number of Pixels in Spectrum: 2048
>>>>>Begin Spectral Data<<<<<
341.393	-12.73
341.776	-12.73
342.16	-12.73
342.543	-72.39
342.927	-37.81
343.31	-66.96
343.693	-54.31
344.077	-77.58
344.46	-52.5
344.843	-48.43
345.226	-49.11
345.61	-48.2
345.993	-17.7
346.376	-11.82
346.759	-0.52
347.142	21.4
347.525	63.66
347.908	76.99
348.291	90.77
348.674	85.8
349.057	88.51
349.44	133.49
349.823	155.86
350.206	166.93
350.588	221.17
350.971	246.7
351.354	255.74
351.737	285.8
352.119	287.83
352.502	301.39
352.884	291.9
353.267	314.05
353.65	333.03
354.032	330.54
354.414	328.51
354.797	349.07
355.179	357.66
355.562	345.91
355.944	359.69
356.326	377.09
356.709	392.46
357.091	360.15
357.473	377.09
357.855	391.11
358.238	390.88
358.62	351.78
359.002	379.13
359.384	380.03
359.766	386.59
360.148	387.26
360.53	366.47
360.912	379.58
361.294	378
361.676	375.96
362.057	363.76
362.439	380.26
362.821	370.99
363.203	367.15
363.584	363.31
363.966	373.48
364.348	363.99
364.729	366.93
365.111	366.02
365.493	370.99
365.874	373.25
366.256	373.25
366.637	375.51
367.019	374.16
367.4	354.95
367.781	373.7
368.163	367.38
368.544	350.65
368.925	378.68
369.306	364.89
369.688	353.59
370.069	379.13
370.45	349.75
370.831	385
371.212	368.28
371.593	370.77
371.974	391.11
372.355	372.12
372.736	388.17
373.117	394.5
373.498	386.13
373.879	365.8
374.26	346.13
374.641	384.1
375.021	393.14
375.402	403.08
375.783	394.72
376.163	399.47
376.544	389.98
376.925	417.32
377.305	374.61
377.686	401.5
378.066	410.99
378.447	403.08
378.827	397.89
379.208	400.14
379.588	394.5
379.968	418.22
380.349	418.22
380.729	426.81
381.109	410.54
381.489	396.08
381.87	428.84
382.25	442.63
382.63	432.01
383.01	439.92
383.39	420.48
383.77	423.42
384.15	431.33
384.53	451.44
384.91	446.47
385.29	449.64
385.67	452.8
386.049	488.28
386.429	453.25
386.809	478.56
387.189	442.86
387.568	468.17
387.948	475.85
388.328	481.27
388.707	455.96
389.087	446.25
389.466	475.85
389.846	474.95
390.225	489.63
390.605	490.31
390.984	495.06
391.363	494.15
391.743	483.08
392.122	498.45
392.501	502.06
392.881	533.93
393.26	514.72
393.639	528.05
394.018	539.12
394.397	536.19
394.776	527.83
395.155	560.37
395.534	514.94
395.913	539.12
396.292	558.56
396.671	560.82
397.05	573.02
397.429	558.33
397.808	581.61
398.186	588.39
398.565	587.03
398.944	558.11
399.323	599.91
399.701	576.19
400.08	602.85
400.458	598.11
400.837	596.3
401.215	622.96
401.594	599.69
401.972	628.84
402.351	622.96
402.729	635.62
403.107	648.27
403.486	627.26
403.864	637.65
404.242	652.57
404.62	663.41
404.999	674.04
405.377	686.01
405.755	697.54
406.133	695.96
406.511	707.26
406.889	698.89
407.267	715.39
407.645	720.14
408.023	729.4
408.401	731.66
408.779	761.49
409.156	779.34
409.534	756.29
409.912	763.53
410.29	794.03
410.667	807.14
411.045	822.28
411.422	803.52
411.8	834.94
412.178	836.29
412.555	865.22
412.933	869.06
413.31	889.17
413.687	894.37
414.065	904.99
414.442	932.11
414.819	906.57
415.197	928.27
415.574	929.17
415.951	958.77
416.328	967.36
416.705	973.01
417.082	974.59
417.46	986.8
417.837	993.12
418.214	1020.69
418.591	1030.18
418.967	1013.01
419.344	1019.56
419.721	1035.83
420.098	1074.03
420.475	1044.87
420.852	1076.74
421.228	1076.29
421.605	1095.49
421.982	1110.18
422.358	1110.63
422.735	1133.01
423.111	1129.84
423.488	1168.49
423.864	1164.42
424.241	1167.58
424.617	1199.67
424.994	1203.51
425.37	1222.95
425.746	1241.93
426.123	1232.21
426.499	1274.47
426.875	1264.08
427.251	1293
427.627	1299.1
428.003	1352.89
428.379	1335.04
428.756	1369.84
429.132	1383.62
429.507	1406.45
429.883	1416.84
430.259	1446.22
430.635	1465.2
431.011	1456.16
431.387	1490.29
431.763	1514.47
432.138	1480.79
432.514	1548.59
432.89	1561.47
433.265	1585.65
433.641	1629.94
434.016	1626.33
434.392	1681.02
434.767	1728.25
435.143	1702.48
435.518	1683.27
435.894	1729.83
436.269	1748.36
436.644	1806.89
437.02	1806.66
437.395	1834.46
437.77	1866.55
438.145	1854.34
438.52	1855.47
438.895	1923.49
439.271	1918.07
439.646	1937.28
440.021	1963.27
440.395	1990.61
440.77	1989.03
441.145	2024.28
441.52	2022.93
441.895	2041.46
442.27	2082.36
442.645	2045.98
443.019	2089.59
443.394	2122.13
443.769	2157.61
444.143	2121.68
444.518	2186.31
444.892	2169.14
445.267	2194.22
445.641	2199.42
446.016	2223.15
446.39	2225.63
446.764	2226.54
447.139	2268.34
447.513	2279.64
447.887	2302.24
448.262	2307.21
448.636	2357.16
449.01	2341.79
449.384	2395.35
449.758	2370.71
450.132	2436.02
450.506	2455.23
450.88	2514.21
451.254	2448.9
451.628	2509.24
452.002	2547.21
452.376	2573.42
452.75	2576.58
453.123	2608
453.497	2646.87
453.871	2682.8
454.244	2727.32
454.618	2731.83
454.992	2813.41
455.365	2806.18
455.739	2861.1
456.112	2898.61
456.486	2918.72
456.859	2932.06
457.232	3012.05
457.606	3013.18
457.979	3063.8
458.352	3134.99
458.725	3181.54
459.099	3170.69
459.472	3245.72
459.845	3319.84
460.218	3316.9
460.591	3384.47
460.964	3396
461.337	3469.44
461.71	3500.18
462.083	3528.42
462.456	3536.11
462.829	3567.29
463.201	3656.78
463.574	3634.41
463.947	3757.57
464.32	3791.24
464.692	3839.83
465.065	3836.21
465.438	3894.06
465.81	3942.88
466.183	4022.2
466.555	4010.22
466.928	4070.1
467.3	4055.64
467.672	4131.8
468.045	4232.13
468.417	4240.04
468.789	4283.21
469.161	4337.22
469.534	4387.38
469.906	4449.98
470.278	4496.53
470.65	4579.92
471.022	4677.55
471.394	4737.43
471.766	4751.67
472.138	4809.75
472.51	4894.94
472.882	5002.51
473.253	5019.91
473.625	5104.65
473.997	5234.59
474.369	5261.03
474.74	5285.21
475.112	5337.42
475.484	5474.14
475.855	5561.82
476.227	5608.14
476.598	5758.87
476.97	5803.62
477.341	5952.54
477.713	5989.83
478.084	6082.03
478.455	6217.84
478.827	6297.62
479.198	6478.18
479.569	6505.07
479.94	6624.84
480.311	6726.76
480.682	6885.4
481.053	7056.47
481.424	7157.26
481.795	7199.74
482.166	7319.28
482.537	7438.6
482.908	7627.98
483.279	7778.03
483.65	7844.02
484.021	7973.51
484.391	8131.24
484.762	8229.77
485.133	8321.97
485.503	8415.53
485.874	8654.62
486.244	8726.48
486.615	8835.4
486.985	9008.96
487.356	9151.1
487.726	9293.02
488.097	9480.81
488.467	9583.41
488.837	9792.44
489.207	9884.87
489.578	10093.45
489.948	10208.7
490.318	10359.66
490.688	10419.32
491.058	10674.68
491.428	10807.33
491.798	10936.14
492.168	11226.53
492.538	11234.21
492.908	11386.97
493.278	11633.52
493.648	11647.53
494.017	11762.78
494.387	11955.32
494.757	12080.52
495.126	12146.5
495.496	12348.31
495.866	12545.36
496.235	12731.35
496.605	12791.23
496.974	12895.41
497.344	13088.4
497.713	13165.46
498.082	13296.3
498.452	13462.85
498.821	13526.35
499.19	13570.65
499.559	13830.3
499.928	13902.61
500.298	14097.64
500.667	14162.49
501.036	14161.14
501.405	14244.3
501.774	14383.05
502.143	14489.72
502.512	14593.44
502.88	14788.24
503.249	14806.32
503.618	14984.17
503.987	15019.42
504.356	15245.18
504.724	15326.98
505.093	15344.38
505.462	15567.43
505.83	15618.05
506.199	15771.72
506.567	15936.46
506.936	15979.4
507.304	16089.9
507.672	16184.81
508.041	16260.07
508.409	16489.89
508.777	16535.99
509.145	16728.98
509.514	16682.2
509.882	16844.68
510.25	16826.15
510.618	17114.28
510.986	17013.49
511.354	17197.44
511.722	17427.04
512.09	17546.36
512.458	17414.61
512.826	17727.6
513.193	17727.37
513.561	17761.72
513.929	17905.45
514.297	18107.7
514.664	18100.47
515.032	18233.8
515.4	18275.16
515.767	18359.45
516.135	18409.84
516.502	18293.23
516.869	18748.81
517.237	18727.35
517.604	18564.64
517.972	18950.39
518.339	18988.81
518.706	19042.59
519.073	19091.18
519.44	19244.85
519.808	19372.98
520.175	19490.94
520.542	19590.6
520.909	19708.79
521.276	19695
521.643	19938.84
522.009	19977.94
522.376	20034.88
522.743	20018.61
523.11	20427.19
523.477	20518.94
523.843	20650.23
524.21	20789.67
524.577	20860.85
524.943	20829.89
525.31	20930.23
525.676	21244.34
526.043	21239.6
526.409	21298.58
526.776	21462.64
527.142	21457.22
527.508	21609.53
527.874	21692.92
528.241	21863.08
528.607	21946.92
528.973	22143.98
529.339	22041.16
529.705	22268.5
530.071	22346.23
530.437	22422.39
530.803	22521.6
531.169	22689.95
531.535	22565.66
531.901	22720.91
532.267	22713.91
532.632	22833.91
532.998	22762.04
533.364	22925.88
533.73	22966.33
534.095	23076.61
534.461	23102.15
534.826	23032.09
535.192	23118.19
535.557	23164.07
535.923	23076.61
536.288	23218.3
536.653	23327.9
537.019	23202.03
537.384	23268.02
537.749	23222.14
538.114	23271.86
538.479	23170.62
538.845	23234.12
539.21	23202.71
539.575	23322.25
539.94	23325.42
540.305	23397.73
540.67	23378.98
541.034	23160.9
541.399	23288.81
541.764	23327.68
542.129	23307.79
542.494	23373.33
542.858	23443.15
543.223	23124.75
543.587	23282.03
543.952	23242.48
544.316	23254.23
544.681	23181.47
545.045	23374.46
545.41	23239.54
545.774	23188.02
546.138	23146.21
546.503	23207.23
546.867	23166.55
547.231	23243.61
547.595	23237.51
547.959	23063.28
548.324	23134.91
548.688	23173.33
549.052	23044.75
549.416	23114.8
549.779	23002.49
550.143	23123.84
550.507	23180.79
550.871	23120.9
551.235	23043.84
551.599	23184.4
551.962	23170.39
552.326	23124.07
552.689	23157.96
553.053	22957.97
553.417	23037.29
553.78	23197.74
554.143	23136.95
554.507	22991.19
554.87	23147.57
555.234	23253.78
555.597	23046.1
555.96	23076.61
556.323	23144.86
556.686	23269.37
557.05	23301.46
557.413	23222.6
557.776	23177.63
558.139	23208.36
558.502	23188.92
558.865	23218.75
559.228	23343.95
559.59	23277.96
559.953	23260.56
560.316	23518.18
560.679	23425.98
561.041	23522.93
561.404	23558.63
561.767	23638.63
562.129	23563.15
562.492	23689.25
562.854	23678.85
563.217	23754.11
563.579	23769.47
563.941	23884.5
564.304	23934.67
564.666	24080.65
565.028	24046.53
565.39	24172.85
565.753	24162.01
566.115	24206.3
566.477	24362.9
566.839	24348.22
567.201	24572.39
567.563	24566.97
567.925	24635.89
568.287	24737.13
568.648	24640.86
569.01	24713.18
569.372	24966.73
569.734	24977.13
570.095	25144.13
570.457	25164.92
570.819	25284.24
571.18	25261.86
571.542	25429.54
571.903	25467.73
572.265	25588.18
572.626	25618.92
572.987	25687.62
573.349	25830.21
573.71	25889.42
574.071	25986.36
574.432	26008.51
574.794	26210.31
575.155	26259.58
575.516	26016.19
575.877	26292.35
576.238	26289.63
576.599	26250.76
576.96	26369.86
577.32	26463.87
577.681	26547.93
578.042	26653.47
578.403	26568.04
578.763	26577.08
579.124	26680.13
579.485	26775.04
579.845	26871.54
580.206	26749.06
580.566	26799.22
580.927	26771.88
581.287	26909.28
581.648	26780.47
582.008	26878.32
582.368	26911.09
582.728	26858.43
583.089	26783.18
583.449	26955.6
583.809	27059.78
584.169	27022.72
584.529	26919.45
584.889	27114.47
585.249	26849.17
585.609	26811.2
585.969	27042.61
586.329	26867.25
586.688	26862.27
587.048	26990.41
587.408	26852.56
587.768	26870.86
588.127	26733.01
588.487	26759.68
588.846	27029.05
589.206	26694.14
589.565	26691.43
589.925	26922.84
590.284	26821.82
590.643	26785.89
591.003	26775.95
591.362	26892.1
591.721	26767.81
592.08	26716.52
592.44	26900.92
592.799	26749.06
593.158	26735.95
593.517	26781.37
593.876	26729.17
594.235	26702.96
594.593	26741.83
594.952	26741.6
595.311	26658.44
595.67	26727.81
596.029	26831.54
596.387	26876.28
596.746	26867.47
597.104	26721.94
597.463	26703.41
597.822	26857.53
598.18	26691.88
598.538	26703.41
598.897	26969.62
599.255	26621.83
599.613	27050.07
599.972	26670.19
600.33	26771.88
600.688	26806.23
601.046	26676.29
601.404	27075.15
601.762	26802.84
602.12	26818.66
602.478	27057.97
602.836	26983.4
603.194	26835.16
603.552	26912.22
603.91	26900.01
604.268	26928.03
604.625	26907.7
604.983	27118.54
605.341	26900.24
605.698	26975.04
606.056	27107.69
606.413	27003.51
606.771	27015.72
607.128	27094.81
607.485	26975.04
607.843	26962.61
608.2	27146.79
608.557	27255.03
608.914	27172.77
609.272	27255.26
609.629	27372.54
609.986	27429.72
610.343	27340.23
610.7	27507.68
611.057	27462.48
611.414	27463.39
611.771	27562.37
612.127	27613.44
612.484	27534.57
612.841	27611.18
613.198	27425.87
613.554	27525.08
613.911	27589.26
614.267	27758.52
614.624	27710.84
614.98	27814.11
615.337	27904.28
615.693	27795.13
616.05	27939.53
616.406	28050.49
616.762	27950.83
617.118	27936.82
617.475	28077.38
617.831	28181.11
618.187	28094.11
618.543	28154.67
618.899	28173.88
619.255	28281.9
619.611	28236.02
619.967	28323.25
620.323	28454.1
620.678	28208
621.034	28229.7
621.39	28258.62
621.746	28249.81
622.101	28490.93
622.457	28198.96
622.812	28386.3
623.168	28451.38
623.523	28419.3
623.879	28580.19
624.234	28415.68
624.589	28401.22
624.945	28519.41
625.3	28605.5
625.655	28498.39
626.01	28575
626.365	28465.17
626.72	28429.01
627.075	28465.4
627.43	28377.49
627.785	28459.97
628.14	28421.78
628.495	28458.84
628.85	28576.81
629.205	28381.33
629.559	28609.12
629.914	28464.72
630.269	28415
630.623	28237.83
630.978	28257.04
631.332	28389.01
631.687	28362.57
632.041	28237.38
632.396	28375.23
632.75	28286.87
633.104	28394.66
633.459	28116.25
633.813	28166.87
634.167	28134.1
634.521	28024.28
634.875	27999.87
635.229	27944.51
635.583	27936.14
635.937	27937.95
636.291	27935.47
636.645	27999.87
636.999	27798.29
637.352	27923.04
637.706	27626.77
638.06	27855.69
638.413	27719.65
638.767	27703.83
639.121	27761.69
639.474	27554.91
639.828	27580
640.181	27603.95
640.534	27672.2
640.888	27551.75
641.241	27463.16
641.594	27483.73
641.947	27603.05
642.301	27429.94
642.654	27433.56
643.007	27335.48
643.36	27389.49
643.713	27233.11
644.066	27540.9
644.419	27334.8
644.771	26983.17
645.124	26726.68
645.477	26970.29
645.83	26763.97
646.182	26699.34
646.535	26734.37
646.888	26772.56
647.24	26570.76
647.593	26777.98
647.945	26735.5
648.298	26547.25
648.65	26559.91
649.002	26257.54
649.355	26152.91
649.707	26022.07
650.059	26135.97
650.411	26481.94
650.763	26799.68
651.115	27199.89
651.467	26990.18
651.819	27004.64
652.171	26942.95
652.523	26885.55
652.875	27106.34
653.227	26844.65
653.578	27123.74
653.93	27103.62
654.282	26985.43
654.633	26891.43
654.985	27049.39
655.337	26926
655.688	26959.22
656.039	27157.18
656.391	26858.21
656.742	26962.61
657.094	26860.01
657.445	26939.33
657.796	26977.75
658.147	26917.19
658.498	27057.52
658.849	27064.08
659.2	27017.3
659.551	26931.42
659.902	27145.2
660.253	26969.84
660.604	27254.81
660.955	27029.95
661.306	27164.86
661.656	27163.96
662.007	27123.06
662.358	27124.19
662.708	27115.6
663.059	27075.6
663.409	27077.64
663.76	27253.68
664.11	27194.69
664.461	27285.31
664.811	27221.13
665.161	27340
665.511	27166.9
665.862	27250.51
666.212	27350.4
666.562	27325.76
666.912	27276.73
667.262	27179.78
667.612	27270.4
667.962	27356.05
668.312	27148.82
668.662	27320.34
669.011	27391.07
669.361	27287.35
669.711	27277.86
670.06	27260.68
670.41	27246.22
670.76	27184.75
671.109	27226.78
671.459	27184.07
671.808	27255.94
672.157	27195.82
672.507	26983.17
672.856	26927.81
673.205	27067.69
673.554	27113.79
673.904	27044.19
674.253	27121.25
674.602	27019.33
674.951	26795.83
675.3	26618.21
675.649	27053
675.998	27150.18
676.346	27123.06
676.695	27023.63
677.044	26814.37
677.393	26920.8
677.741	27056.62
678.09	26907.7
678.438	26809.62
678.787	26940.24
679.135	26836.06
679.484	26590.64
679.832	26747.02
680.181	26738.89
680.529	26612.56
680.877	26579.34
681.225	26568.72
681.573	26715.84
681.922	26501.15
682.27	26367.6
682.618	26480.82
682.966	26256.41
683.314	26343.42
683.661	26456.18
684.009	26127.6
684.357	26119.47
684.705	26125.34
685.053	26166.25
685.4	25977.55
685.748	25823.66
686.095	25911.56
686.443	25708.86
686.79	25833.6
687.138	25724.68
687.485	25711.57
687.832	25557.68
688.18	25554.74
688.527	25418.47
688.874	25444.91
689.221	25335.53
689.568	25290.56
689.915	25060.51
690.262	25098.93
690.609	25125.82
690.956	25010.57
691.303	24929.67
691.65	24893.29
691.997	24661.2
692.344	24570.13
692.69	24667.08
693.037	24410.59
693.383	24315.45
693.73	24306.41
694.077	24186.64
694.423	24225.73
694.769	24129.24
695.116	24014.21
695.462	23890.15
695.808	23757.04
696.155	23747.33
696.501	23639.31
696.847	23575.81
697.193	23422.59
697.539	23425.98
697.885	23223.95
698.231	23087.46
698.577	23148.93
698.923	23168.81
699.269	22902.6
699.614	22956.61
699.96	22785.09
700.306	22804.08
700.651	22576.28
700.997	22605.21
701.342	22475.27
701.688	22484.08
702.033	22306.91
702.379	22369.96
702.724	22217.88
703.069	22283.41
703.415	22011.33
703.76	21943.53
704.105	21967.26
704.45	21776.53
704.795	21724.33
705.14	21756.19
705.485	21642.98
705.83	21571.11
706.175	21589.87
706.52	21536.99
706.865	21387.84
707.209	21370.89
707.554	21257.22
707.899	21287.05
708.243	21138.13
708.588	21094.52
708.932	20963.22
709.277	21074.18
709.621	20972.94
709.966	20835.54
710.31	20817.91
710.654	20727.07
710.998	20711.48
711.342	20709.89
711.687	20669.89
712.031	20636.9
712.375	20501.09
712.719	20484.81
713.063	20538.82
713.407	20576.56
713.75	20547.64
714.094	20363.46
714.438	20374.76
714.782	20382.9
715.125	20222.67
715.469	20356.91
715.812	20158.5
716.156	20229
716.499	20186.74
716.843	20203.01
717.186	20023.36
717.53	20269.9
717.873	20190.13
718.216	20103.81
718.559	20154.2
718.902	19972.29
719.246	20089.57
719.589	20057.71
719.932	19954.66
720.275	20005.05
720.617	20050.48
720.96	19942
721.303	20043.7
721.646	19921.21
721.989	19834.21
722.331	20006.41
722.674	19904.26
723.016	19924.6
723.359	19878.5
723.701	19928.44
724.044	19854.1
724.386	19708.11
724.729	19818.62
725.071	19852.97
725.413	19840.09
725.755	19837.15
726.097	19794.21
726.439	19645.06
726.782	19793.53
727.124	19973.42
727.465	19889.12
727.807	19742.69
728.149	19743.59
728.491	19749.01
728.833	19825.62
729.175	19814.55
729.516	19793.53
729.858	19794.89
730.199	20001.44
730.541	19887.32
730.882	19880.99
731.224	20006.41
731.565	19864.72
731.906	19871.05
732.248	20039.18
732.589	19883.47
732.93	19923.02
733.271	19918.95
733.612	19906.75
733.953	20016.35
734.294	20012.28
734.635	20005.51
734.976	20109.68
735.317	20063.36
735.658	20074.2
735.999	20225.84
736.339	20192.17
736.68	20220.87
737.021	20266.29
737.361	20191.04
737.702	20365.72
738.042	20420.41
738.383	20481.88
738.723	20576.56
739.063	20501.54
739.404	20639.84
739.744	20640.06
740.084	20680.74
740.424	20750.12
740.764	20807.07
741.104	20924.35
741.444	20882.32
741.784	20914.41
742.124	21195.53
742.464	21126.38
742.804	21173.61
743.143	21188.07
743.483	21461.06
743.823	21423.09
744.162	21560.27
744.502	21737.89
744.841	21730.66
745.181	22028.95
745.52	21906.7
745.86	22193.02
746.199	22244.99
746.538	22309.17
746.877	22589.84
747.216	22600.69
747.556	22790.97
747.895	22905.99
748.234	23041.36
748.573	23172.65
748.911	23336.04
749.25	23551.17
749.589	23685.63
749.928	23861
750.267	24216.47
750.605	24224.6
750.944	24394.99
751.283	24588.66
751.621	24861.42
751.96	24992.94
752.298	25158.82
752.636	25418.92
752.975	25579.6
753.313	25765.13
753.651	26129.41
753.989	26219.58
754.327	26525.79
754.666	26686.69
755.004	27018.43
755.342	27111.31
755.679	27289.61
756.017	27445.31
756.355	27848.46
756.693	28098.17
757.031	28475.56
757.368	28422.46
757.706	28755.33
758.044	28880.3
758.381	29094.08
758.719	29348.54
759.056	29651.13
759.394	29897.9
759.731	29784.68
760.068	30081.17
760.405	30341.28
760.743	30552.57
761.08	30846.12
761.417	30916.63
761.754	31210.41
762.091	31334.25
762.428	31310.97
762.765	31550.51
763.102	31837.74
763.438	31972.65
763.775	32040.22
764.112	32287.89
764.449	32370.38
764.785	32516.59
765.122	32494.44
765.458	32595.46
765.795	32828.9
766.131	32980.53
766.467	33059.17
766.804	33093.07
767.14	33134.88
767.476	33391.82
767.812	33408.32
768.148	33596.79
768.485	33654.41
768.821	33573.74
769.157	33672.94
769.492	33712.49
769.828	33887.63
770.164	33707.29
770.5	33851.69
770.836	34101.18
771.171	34046.72
771.507	34069.09
771.842	34027.06
772.178	34046.94
772.513	34050.56
772.849	34093.04
773.184	34088.98
773.519	34162.87
773.855	34069.54
774.19	34095.08
774.525	34095.53
774.86	34107.51
775.195	34048.98
775.53	34006.27
775.865	34023.89
776.2	33782.54
776.535	33707.74
776.87	33837.91
777.205	33808.08
777.539	33787.97
777.874	33783.9
778.209	33653.96
778.543	33688.08
778.878	33466.62
779.212	33666.84
779.547	33352.95
779.881	33523.12
780.215	33272.73
780.55	33472.04
780.884	33189.34
781.218	33150.24
781.552	33182.11
781.886	33076.57
782.22	33034.54
782.554	32867.31
782.888	32703.02
783.222	32657.6
783.556	32546.64
783.889	32518.17
784.223	32301.68
784.557	32417.83
784.89	32592.74
785.224	32199.99
785.557	32130.61
785.891	32169.93
786.224	32074.57
786.558	32060.33
786.891	31855.14
787.224	31848.13
787.557	31625.76
787.891	31562.26
788.224	31450.18
788.557	31442.72
788.89	31439.33
789.223	31421.7
789.556	31295.83
789.888	31097.64
790.221	31089.51
790.554	30938.32
790.887	30916.4
791.219	30860.13
791.552	30652
791.884	30681.61
792.217	30743.08
792.549	30513.03
792.882	30303.99
793.214	30336.53
793.546	30359.13
793.879	30257.44
794.211	30024.22
794.543	30195.29
794.875	29993.94
795.207	30028.52
795.539	29903.1
795.871	29913.27
796.203	29777.68
796.535	29608.64
796.867	29716.66
797.198	29466.73
797.53	29464.47
797.862	29304.47
798.193	29319.84
798.525	29166.85
798.856	29264.92
799.188	28941.32
799.519	28882.79
799.85	28778.61
800.182	28833.3
800.513	28839.17
800.844	28495.68
801.175	28567.77
801.506	28632.4
801.837	28521.44
802.168	28417.71
802.499	28426.53
802.83	28257.94
803.161	28182.92
803.491	28135.23
803.822	28290.48
804.153	28051.62
804.483	27813.44
804.814	27699.54
805.145	27801.68
805.475	27885.3
805.805	27771.63
806.136	27660.9
806.466	27553.33
806.796	27630.16
807.126	27412.54
807.457	27325.31
807.787	27454.8
808.117	27292.77
808.447	27124.41
808.777	27281.25
809.107	26985.89
809.436	26986.34
809.766	26947.7
810.096	27097.07
810.426	26734.37
810.755	27036.73
811.085	26810.07
811.414	26817.08
811.744	26739.57
812.073	26803.52
812.403	26564.65
812.732	26547.48
813.061	26684.65
813.39	26425.22
813.719	26373.25
814.049	26560.59
814.378	26481.27
814.707	26355.17
815.036	26330.99
815.365	26180.48
815.693	25957.44
816.022	26015.52
816.351	25967.61
816.68	25836.76
817.008	26044.89
817.337	25674.28
817.665	25756.31
817.994	25682.87
818.322	25849.65
818.651	25697.33
818.979	25594.06
819.307	25581.4
819.636	25608.97
819.964	25597.45
820.292	25625.92
820.62	25556.55
820.948	25595.87
821.276	25651.01
821.604	25551.35
821.932	25615.08
822.259	25581.18
822.587	25486.04
822.915	25493.04
823.243	25557.22
823.57	25472.71
823.898	25604.68
824.225	25535.98
824.553	25517.9
824.88	25653.04
825.207	25566.26
825.535	25527.39
825.862	25638.8
826.189	25590.89
826.516	25798.35
826.843	25706.6
827.17	25873.83
827.497	25760.38
827.824	25700.5
828.151	25873.37
828.478	25706.6
828.805	25891.9
829.131	25746.37
829.458	25799.25
829.785	25616.2
830.111	25570.78
830.438	25865.92
830.764	25740.5
831.09	25742.98
831.417	25596.09
831.743	25824.79
832.069	25754.73
832.395	25671.57
832.722	25666.6
833.048	25572.36
833.374	25741.4
833.7	25610.33
834.026	25694.62
834.351	25589.31
834.677	25679.25
835.003	25651.01
835.329	25549.09
835.654	25600.16
835.98	25406.04
836.306	25408.53
836.631	25377.79
836.956	25627.73
837.282	25537.11
837.607	25496.43
837.932	25406.27
838.258	25349.77
838.583	25428.41
838.908	25463.44
839.233	25211.92
839.558	25173.05
839.883	25216.44
840.208	25024.58
840.533	25125.37
840.858	25068.42
841.182	25148.87
841.507	25118.59
841.832	24984.81
842.156	25068.42
842.481	24856.22
842.805	24814.19
843.13	24677.7
843.454	24781.2
843.778	24744.59
844.103	24735.78
844.427	24669.79
844.751	24699.62
845.075	24553.86
845.399	24543.69
845.723	24266.18
846.047	24490.81
846.371	24094.21
846.695	24113.19
847.019	24088.56
847.343	23910.94
847.666	23712.07
847.99	23767.67
848.313	23608.8
848.637	23652.64
848.96	23486.77
849.284	23583.04
849.607	23223.5
849.931	23339.2
850.254	23262.82
850.577	23050.62
850.9	22906.9
851.223	22959.1
851.546	22844.75
851.869	22650.41
852.192	22748.03
852.515	22540.35
852.838	22419.68
853.161	22497.19
853.483	22304.2
853.806	22268.5
854.129	22209.06
854.451	22164.09
854.774	22140.59
855.096	21889.98
855.419	21913.7
855.741	21929.07
856.063	21723.88
856.385	21675.29
856.708	21671.45
857.03	21710.77
857.352	21525.01
857.674	21518.23
857.996	21383.1
858.318	21277.11
858.64	21322.98
858.961	21243.44
859.283	21135.64
859.605	21047.74
859.926	21030.56
860.248	20915.54
860.57	20861.08
860.891	20843
861.212	20833.05
861.534	20850.45
861.855	20677.35
862.176	20835.54
862.498	20755.54
862.819	20753.28
863.14	20592.16
863.461	20572.27
863.782	20492.95
864.103	20490.69
864.424	20448.43
864.745	20573.85
865.065	20293.63
865.386	20304.71
865.707	20322.56
866.027	20308.1
866.348	20205.95
866.668	20122.34
866.989	20185.61
867.309	20029.69
867.63	20091.15
867.95	20114.65
868.27	19897.49
868.59	20089.57
868.91	19993.3
869.23	19943.13
869.55	19894.1
869.87	19970.93
870.19	19785.85
870.51	19743.37
870.83	19837.6
871.15	19662.01
871.469	19702.01
871.789	19723.7
872.109	19678.51
872.428	19579.98
872.748	19603.03
873.067	19602.58
873.386	19561.22
873.706	19459.76
874.025	19292.08
874.344	19313.32
874.663	19399.19
874.982	19369.82
875.301	19317.16
875.62	19387.67
875.939	19187.45
876.258	19274.45
876.577	19096.6
876.896	19151.29
877.214	19156.94
877.533	19022.48
877.852	19079.2
878.17	19066.55
878.489	18989.49
878.807	19024.97
879.125	18958.75
879.444	18884.86
879.762	18932.31
880.08	18978.41
880.398	18793.79
880.716	18822.03
881.034	18720.79
881.352	18844.41
881.67	18693.22
881.988	18769.15
882.306	18544.3
882.624	18556.05
882.941	18407.35
883.259	18372.55
883.577	18352.44
883.894	18377.75
884.212	18314.48
884.529	18249.85
884.846	18255.04
885.164	18237.19
885.481	18257.98
885.798	18256.62
886.115	18063.86
886.432	18034.94
886.75	17965.11
887.067	17944.09
887.383	17926.01
887.7	17895.5
888.017	17828.61
888.334	17825
888.651	17754.49
888.967	17693.48
889.284	17680.82
889.6	17611.44
889.917	17477.66
890.233	17567.38
890.55	17428.85
890.866	17424.33
891.182	17386.36
891.498	17407.83
891.815	17239.48
892.131	17255.52
892.447	17182.75
892.763	17070.44
893.079	17017.11
893.395	16964.23
893.71	16985.25
894.026	16936.89
894.342	16890.33
894.657	16765.14
894.973	16700.28
895.289	16688.53
895.604	16650.34
895.92	16581.64
896.235	16510.23
896.55	16507.29
896.865	16450.34
897.181	16437.92
897.496	16441.08
897.811	16277.92
898.126	16208.54
898.441	16147.53
898.756	16118.38
899.071	16118.6
899.386	16050.13
899.7	16001.32
900.015	15860.53
900.33	15774.66
900.644	15746.63
900.959	15705.96
901.273	15602.46
901.588	15595
901.902	15520.65
902.216	15461.44
902.531	15365.85
902.845	15406.76
903.159	15251.28
903.473	15282.92
903.787	15144.62
904.101	14997.95
904.415	15123.37
904.729	15004.51
905.042	14910.95
905.356	14905.98
905.67	14858.3
905.984	14859.65
906.297	14826.43
906.611	14696.94
906.924	14714.57
907.237	14552.09
907.551	14574.24
907.864	14530.17
908.177	14395.03
908.491	14311.19
908.804	14321.36
909.117	14268.03
909.43	14024.42
909.743	14147.81
910.056	14068.71
910.368	13990.75
910.681	13943.07
910.994	13772
911.307	13832.79
911.619	13738.78
911.932	13760.7
912.244	13654.71
912.557	13603.87
912.869	13526.58
913.181	13467.6
913.494	13475.28
913.806	13386.24
914.118	13316.64
914.43	13249.52
914.742	13194.16
915.054	13151.9
915.366	13061.28
915.678	13001.62
915.99	12988.06
916.302	12839.14
916.613	12809.99
916.925	12848.86
917.236	12807.95
917.548	12665.36
917.859	12728.86
918.171	12622.65
918.482	12518.47
918.794	12466.04
919.105	12477.79
919.416	12327.97
919.727	12366.61
920.038	12347.18
920.349	12213.62
920.66	12145.37
920.971	12225.14
921.282	12104.24
921.593	12092.27
921.903	11916.23
922.214	11951.93
922.525	11911.93
922.835	11881.42
923.146	11739.96
923.456	11641.21
923.767	11658.83
924.077	11655.22
924.387	11637.14
924.697	11552.85
925.008	11445.5
925.318	11477.14
925.628	11391.04
925.938	11349.46
926.248	11276.24
926.558	11238.05
926.867	11289.12
927.177	11207.77
927.487	11118.06
927.796	11050.49
928.106	11107.89
928.416	10986.53
928.725	10990.15
929.034	10970.04
929.344	10889.59
929.653	10899.08
929.962	10737.73
930.271	10778.4
930.581	10647.11
930.89	10672.87
931.199	10537.05
931.508	10520.56
931.817	10544.28
932.125	10552.87
932.434	10409.6
932.743	10331.64
933.051	10277.4
933.36	10305.42
933.669	10221.81
933.977	10196.5
934.286	10204.63
934.594	10113.11
934.902	10076.5
935.21	9983.4
935.519	9989.95
935.827	9978.42
936.135	9819.11
936.443	9813.23
936.751	9717.19
937.059	9768.71
937.367	9727.81
937.674	9679
937.982	9710.86
938.29	9552.67
938.597	9556.97
938.905	9474.48
939.213	9416.86
939.52	9496.4
939.827	9378.89
940.135	9347.25
940.442	9286.92
940.749	9295.96
941.056	9240.36
941.363	9156.98
941.67	9174.15
941.977	9071.1
942.284	8999.24
942.591	9021.16
942.898	9029.07
943.205	8909.53
943.511	8911.33
943.818	8895.74
944.125	8746.82
944.431	8808.06
944.738	8741.39
945.044	8709.08
945.35	8631.11
945.657	8619.82
945.963	8668.85
946.269	8581.85
946.575	8552.7
946.881	8486.03
947.187	8508.41
947.493	8437
947.799	8419.82
948.105	8357.9
948.41	8245.81
948.716	8269.32
949.022	8236.55
949.327	8249.43
949.633	8085.59
949.938	8133.27
950.244	8081.98
950.549	8020.51
950.854	7993.39
951.16	7932.6
951.465	7974.63
951.77	7881.08
952.075	7851.25
952.38	7834.75
952.685	7868.65
952.99	7753.85
953.294	7739.16
953.599	7693.06
953.904	7621.2
954.209	7610.12
954.513	7586.85
954.818	7563.57
955.122	7509.34
955.426	7498.04
955.731	7435.44
956.035	7423.91
956.339	7381.2
956.643	7353.63
956.948	7350.92
957.252	7269.34
957.556	7235.67
957.86	7169.68
958.163	7179.18
958.467	7186.41
958.771	7114.32
959.075	7124.94
959.378	7067.09
959.682	7078.39
959.985	7064.38
960.289	6943.25
960.592	6880.88
960.896	6887.66
961.199	6870.71
961.502	6802.24
961.805	6796.13
962.108	6748
962.411	6746.19
962.714	6676.82
963.017	6667.55
963.32	6716.14
963.623	6644.05
963.926	6611.05
964.228	6570.15
964.531	6592.3
964.833	6536.93
965.136	6427.78
965.438	6419.87
965.741	6368.12
966.043	6354.56
966.345	6342.59
966.648	6348.69
966.95	6379.42
967.252	6284.06
967.554	6233.89
967.856	6221.01
968.158	6149.37
968.46	6240.44
968.761	6132.88
969.063	6142.14
969.365	6079.32
969.666	6049.49
969.968	5986.44
970.269	6032.54
970.571	5973.11
970.872	5922.94
971.174	5916.84
971.475	5908.93
971.776	5798.2
972.077	5834.13
972.378	5806.1
972.679	5819.89
972.98	5781.02
973.281	5722.72
973.582	5710.51
973.883	5639.33
974.183	5666.22
974.484	5648.82
974.785	5593.91
975.085	5563.4
975.386	5626.9
975.686	5513.46
975.986	5502.84
976.287	5514.59
976.587	5464.42
976.887	5434.59
977.187	5435.27
977.487	5396.17
977.787	5363.4
978.087	5335.38
978.387	5303.74
978.687	5302.84
978.987	5246.57
979.286	5244.99
979.586	5205.44
979.885	5183.3
980.185	5113.02
980.484	5084.77
980.784	5103.52
981.083	5083.86
981.382	5056.75
981.682	5036.41
981.981	5038.21
982.28	5013.13
982.579	5019.01
982.878	4960.48
983.177	4930.2
983.475	4907.37
983.774	4860.14
984.073	4848.16
984.372	4793.7
984.67	4844.55
984.969	4843.87
985.267	4821.05
985.566	4758
985.864	4727.49
986.162	4686.59
986.461	4622.18
986.759	4610.43
987.057	4599.58
987.355	4582.18
987.653	4551.9
987.951	4575.63
988.249	4523.88
988.547	4525.01
988.844	4480.94
989.142	4497.66
989.44	4484.78
989.737	4473.71
990.035	4374.5
990.332	4395.75
990.63	4348.52
990.927	4338.12
991.224	4343.09
991.521	4327.73
991.819	4273.49
992.116	4281.17
992.413	4304.22
992.71	4165.92
993.006	4209.76
993.303	4196.88
993.6	4167.73
993.897	4140.16
994.193	4121.63
994.49	4122.31
994.787	4060.39
995.083	4061.52
995.379	4044.79
995.676	4026.94
995.972	3964.12
996.268	3947.4
996.565	3921.41
996.861	3909.88
997.157	3910.34
997.453	3908.3
997.749	3881.18
998.044	3826.27
998.34	3831.69
998.636	3810.45
998.932	3788.76
999.227	3765.71
999.523	3750.79
999.818	3710.79
1000.114	3674.41
1000.409	3667.63
1000.704	3652.49
1001	3615.43
1001.295	3642.55
1001.59	3579.95
1001.885	3590.57
1002.18	3555.09
1002.475	3553.96
1002.77	3517.8
1003.065	3498.82
1003.359	3472.83
1003.654	3431.25
1003.949	3427.64
1004.243	3412.04
1004.538	3419.05
1004.832	3388.54
1005.127	3368.2
1005.421	3339.95
1005.715	3301.99
1006.009	3292.5
1006.304	3288.2
1006.598	3235.55
1006.892	3234.65
1007.186	3180.86
1007.48	3185.61
1007.773	3168.89
1008.067	3156.23
1008.361	3106.29
1008.655	3112.39
1008.948	3120.07
1009.242	3098.15
1009.535	3027.87
1009.829	3076.23
1010.122	3027.42
1010.415	3009.34
1010.708	2993.52
1011.001	2961.21
1011.295	2967.31
1011.588	2934.54
1011.881	2900.19
1012.173	2913.98
1012.466	2900.42
1012.759	2876.01
1013.052	2835.11
1013.344	2789.46
1013.637	2816.35
1013.93	2783.81
1014.222	2770.7
1014.514	2766.18
1014.807	2784.71
1015.099	2684.15
1015.391	2701.78
1015.683	2675.57
1015.976	2651.61
1016.268	2630.82
1016.56	2632.85
1016.851	2583.82
1017.143	2590.14
1017.435	2596.25
1017.727	2564.38
1018.018	2563.25
1018.31	2520.54
1018.602	2529.58
1018.893	2499.07
1019.185	2487.32
1019.476	2443.03
1019.767	2461.56
1020.058	2395.8
1020.35	2393.76
1020.641	2392.41
1020.932	2381.79
1021.223	2380.88
1021.514	2330.94
1021.804	2317.38
1022.095	2321.9
1022.386	2262.47
1022.677	2296.82
1022.967	2239.64
1023.258	2238.06
1023.548	2235.35
1023.839	2219.08
1024.129	2210.49
1024.419	2205.75
1024.709	2147.9
1025	2159.42
1025.29	2153.55
1025.58	2144.73
1025.87	2119.42
1026.16	2134.11
1026.449	2104.51
1026.739	2053.21
1027.029	2036.03
1027.319	2013.44
1027.608	2042.14
1027.898	2025.19
1028.187	1983.38
1028.477	2008.69
1028.766	1948.13
1029.055	1958.07
1029.344	1909.48
1029.634	1927.11
1029.923	1902.7
1030.212	1876.72
1030.501	1861.58
1030.79	1864.51
1031.078	1850.05
1031.367	1835.36
1031.656	1822.03
1031.945	1796.04
1032.233	1795.36
1032.522	1778.41
1032.81	1742.71
1033.099	1766.89
1033.387	1746.78
1033.675	1735.25
1033.963	1727.57
1034.251	1719.66
1034.54	1681.47
1034.828	1680.79
1035.116	1662.94
1035.403	1630.62
1035.691	1683.73
1035.979	1651.64
1036.267	1605.54
1036.554	1642.6
1036.842	1591.75
1037.129	1588.36
1037.417	1597.18
1037.704	1562.37
1037.992	1519.89
1038.279	1526.44
1038.566	1512.43
1038.853	1512.43
1039.14	1512.43
