Data from 18-4530_FLMS001491_009.txt Node
Date: Thu Apr 19 16:44:23 BST 2018
User: hsy
Spectrometer: FLMS00149
Trigger mode: 0
Integration Time (sec): 1.000000E-2
Scans to average: 10
Electric dark correction enabled: true
Nonlinearity correction enabled: false
Boxcar width: 0
XAxis mode: Wavelengths
Number of Pixels in Spectrum: 2048
>>>>>Begin Spectral Data<<<<<
341.393	-15.61
341.776	-15.61
342.16	-15.61
342.543	-60.58
342.927	-68.94
343.31	-67.36
343.693	-64.87
344.077	-65.55
344.46	-67.36
344.843	-53.57
345.226	-26.68
345.61	-52.22
345.993	-1.37
346.376	1.34
346.759	7.22
347.142	25.07
347.525	40.89
347.908	45.63
348.291	84.5
348.674	90.83
349.057	103.49
349.44	120.89
349.823	149.13
350.206	161.11
350.588	224.61
350.971	217.83
351.354	273.2
351.737	268
352.119	278.85
352.502	296.93
352.884	306.19
353.267	305.29
353.65	335.12
354.032	319.07
354.414	335.34
354.797	328.34
355.179	342.12
355.562	331.28
355.944	352.97
356.326	345.51
356.709	373.31
357.091	366.08
357.473	348.23
357.855	365.63
358.238	364.5
358.62	362.91
359.002	376.47
359.384	355.91
359.766	357.26
360.148	372.63
360.53	348.68
360.912	370.6
361.294	380.09
361.676	376.02
362.057	368.34
362.439	366.98
362.821	371.05
363.203	347.32
363.584	356.36
363.966	348.23
364.348	352.07
364.729	369.24
365.111	338.28
365.493	355
365.874	348.68
366.256	358.62
366.637	355.68
367.019	356.13
367.4	347.77
367.781	355
368.163	347.55
368.544	348.9
368.925	352.74
369.306	360.65
369.688	362.91
370.069	333.54
370.45	339.64
370.831	335.57
371.212	351.84
371.593	369.69
371.974	390.03
372.355	371.05
372.736	371.05
373.117	360.2
373.498	361.33
373.879	379.64
374.26	360.2
374.641	365.85
375.021	369.24
375.402	371.05
375.783	376.25
376.163	394.55
376.544	394.33
376.925	384.16
377.305	388.9
377.686	401.56
378.066	398.85
378.447	381.9
378.827	387.32
379.208	393.65
379.588	405.4
379.968	388.22
380.349	399.07
380.729	396.81
381.109	410.6
381.489	409.69
381.87	408.56
382.25	419.18
382.63	398.85
383.01	419.18
383.39	423.25
383.77	432.29
384.15	441.33
384.53	433.65
384.91	423.93
385.29	428
385.67	464.15
386.049	434.55
386.429	460.54
386.809	460.09
387.189	431.61
387.568	455.57
387.948	453.99
388.328	456.7
388.707	452.18
389.087	465.28
389.466	472.29
389.846	476.81
390.225	480.65
390.605	472.97
390.984	483.36
391.363	488.11
391.743	488.33
392.122	460.31
392.501	490.14
392.881	508.22
393.26	514.77
393.639	513.87
394.018	507.54
394.397	526.53
394.776	530.37
395.155	528.11
395.534	526.53
395.913	547.54
396.292	505.74
396.671	538.73
397.05	550.48
397.429	543.02
397.808	550.93
398.186	560.42
398.565	549.35
398.944	565.85
399.323	578.5
399.701	570.82
400.08	588.67
400.458	584.6
400.837	542.34
401.215	615.34
401.594	591.16
401.972	607.88
402.351	604.26
402.729	597.26
403.107	613.76
403.486	629.12
403.864	637.48
404.242	628.44
404.62	659.4
404.999	623.92
405.377	664.38
405.755	661.66
406.133	665.96
406.511	678.16
406.889	691.72
407.267	698.5
407.645	696.24
408.023	707.31
408.401	712.28
408.779	751.15
409.156	743.24
409.534	757.71
409.912	755.67
410.29	745.5
410.667	769.23
411.045	785.95
411.422	781.66
411.8	792.06
412.178	822.79
412.555	820.76
412.933	833.18
413.31	841.32
413.687	867.76
414.065	889.23
414.442	865.73
414.819	884.48
415.197	874.54
415.574	892.39
415.951	918.15
416.328	934.65
416.705	923.35
417.082	961.32
417.46	934.65
417.837	948.66
418.214	980.53
418.591	961.54
418.967	985.72
419.344	986.4
419.721	1029.34
420.098	971.71
420.475	1020.52
420.852	1039.51
421.228	1052.84
421.605	1031.6
421.982	1058.26
422.358	1060.07
422.735	1081.77
423.111	1087.19
423.488	1083.8
423.864	1116.11
424.241	1124.02
424.617	1145.94
424.994	1144.36
425.37	1185.04
425.746	1172.61
426.123	1176.68
426.499	1171.48
426.875	1219.84
427.251	1234.08
427.627	1234.53
428.003	1251.7
428.379	1265.72
428.756	1256.9
429.132	1289.44
429.507	1301.65
429.883	1353.17
430.259	1355.88
430.635	1370.12
431.011	1396.33
431.387	1398.14
431.763	1431.81
432.138	1433.39
432.514	1446.73
432.89	1465.71
433.265	1510.91
433.641	1524.69
434.016	1531.02
434.392	1551.13
434.767	1602.88
435.143	1588.19
435.518	1616.89
435.894	1641.07
436.269	1648.3
436.644	1681.98
437.02	1689.88
437.395	1686.27
437.77	1711.58
438.145	1766.95
438.52	1783.67
438.895	1773.95
439.271	1795.19
439.646	1822.76
440.021	1848.98
440.395	1854.17
440.77	1831.35
441.145	1881.74
441.52	1881.97
441.895	1920.84
442.27	1923.1
442.645	1894.85
443.019	1962.19
443.394	1971.01
443.769	1960.61
444.143	1983.66
444.518	2020.05
444.892	2021.85
445.267	2029.99
445.641	2019.59
446.016	2075.86
446.39	2073.6
446.764	2101.17
447.139	2048.07
447.513	2070.89
447.887	2149.99
448.262	2134.84
448.636	2167.16
449.01	2152.47
449.384	2177.1
449.758	2199.7
450.132	2240.6
450.506	2257.55
450.88	2223.66
451.254	2255.29
451.628	2297.55
452.002	2286.03
452.376	2320.38
452.75	2364.67
453.123	2387.72
453.497	2445.57
453.871	2403.31
454.244	2487.15
454.618	2550.88
454.992	2530.99
455.365	2547.72
455.739	2570.54
456.112	2627.49
456.486	2683.98
456.859	2664.1
457.232	2765.11
457.606	2757.88
457.979	2781.61
458.352	2892.34
458.725	2864.32
459.099	2869.29
459.472	2928.72
459.845	2977.99
460.218	3016.18
460.591	3049.17
460.964	3045.78
461.337	3080.81
461.71	3156.29
462.083	3194.93
462.456	3206.91
462.829	3234.48
463.201	3267.7
463.574	3282.84
463.947	3294.36
464.32	3412.78
464.692	3348.15
465.065	3432.89
465.438	3471.08
465.81	3545.2
466.183	3546.79
466.555	3631.53
466.928	3640.12
467.3	3652.55
467.672	3688.93
468.045	3817.74
468.417	3779.55
468.789	3824.07
469.161	3871.3
469.534	3953.55
469.906	4015.93
470.278	4051.18
470.65	4060.67
471.022	4104.06
471.394	4211.17
471.766	4210.27
472.138	4294.56
472.51	4371.17
472.882	4403.94
473.253	4489.81
473.625	4492.3
473.997	4606.19
474.369	4644.61
474.74	4735.45
475.112	4757.15
475.484	4831.72
475.855	4894.09
476.227	4956.47
476.598	5140.42
476.97	5126.4
477.341	5283.46
477.713	5293.63
478.084	5355.33
478.455	5477.13
478.827	5557.58
479.198	5734.3
479.569	5732.94
479.94	5839.15
480.311	5890
480.682	6013.61
481.053	6132.25
481.424	6231.01
481.795	6340.84
482.166	6465.8
482.537	6485.24
482.908	6656.76
483.279	6703.76
483.65	6847.49
484.021	6936.53
484.391	7069.4
484.762	7159.35
485.133	7137.65
485.503	7254.03
485.874	7478.89
486.244	7571.76
486.615	7720.91
486.985	7786.67
487.356	7921.13
487.726	7972.88
488.097	8196.61
488.467	8270.5
488.837	8400.44
489.207	8496.03
489.578	8653.77
489.948	8654
490.318	8895.35
490.688	8926.76
491.058	9157.03
491.428	9145.96
491.798	9290.14
492.168	9443.13
492.538	9507.76
492.908	9671.82
493.278	9818.26
493.648	9821.65
494.017	10018.03
494.387	10082.43
494.757	10132.37
495.126	10244.01
495.496	10332.6
495.866	10387.96
496.235	10523.78
496.605	10623.66
496.974	10678.35
497.344	10739.14
497.713	10861.85
498.082	10910.21
498.452	11052.35
498.821	11081.95
499.19	11100.94
499.559	11252.57
499.928	11287.6
500.298	11441.72
500.667	11480.36
501.036	11489.85
501.405	11603.97
501.774	11621.83
502.143	11777.98
502.512	11871.31
502.88	11972.1
503.249	11926.23
503.618	12071.08
503.987	12068.37
504.356	12217.74
504.724	12265.65
505.093	12401.02
505.462	12407.8
505.83	12517.4
506.199	12587.9
506.567	12692.31
506.936	12716.26
507.304	12827.45
507.672	12931.4
508.041	12952.64
508.409	13128.91
508.777	13173.65
509.145	13316.7
509.514	13267.66
509.882	13421.78
510.25	13466.3
510.618	13467.65
510.986	13513.53
511.354	13634.2
511.722	13870.58
512.09	13929.34
512.458	13913.07
512.826	14057.92
513.193	14090.69
513.561	14147.41
513.929	14212.72
514.297	14358.48
514.664	14407.29
515.032	14560.28
515.4	14614.06
515.767	14674.63
516.135	14730.22
516.502	14766.83
516.869	14910.1
517.237	15043.21
517.604	14908.29
517.972	15227.38
518.339	15244.56
518.706	15308.06
519.073	15373.37
519.44	15483.87
519.808	15576.53
520.175	15588.05
520.542	15745.79
520.909	15868.04
521.276	15917.99
521.643	16120.24
522.009	16184.42
522.376	16229.62
522.743	16362.27
523.11	16454.02
523.477	16665.76
523.843	16767
524.21	16932.65
524.577	16987.34
524.943	17142.36
525.31	17143.04
525.676	17346.65
526.043	17509.81
526.409	17604.49
526.776	17730.14
527.142	17790.03
527.508	17816.01
527.874	18023.69
528.241	18094.65
528.607	18233.18
528.973	18380.75
529.339	18314.76
529.705	18542.78
530.071	18570.57
530.437	18702.77
530.803	18783.22
531.169	18905.7
531.535	18856.67
531.901	18898.47
532.267	19039.26
532.632	19247.39
532.998	19170.56
533.364	19331.91
533.73	19291.91
534.095	19591.11
534.461	19512.47
534.826	19479.7
535.192	19665.68
535.557	19824.32
535.923	19664.1
536.288	19727.6
536.653	19906.58
537.019	19927.37
537.384	19902.97
537.749	19936.86
538.114	19980.25
538.479	19930.31
538.845	19916.52
539.21	20021.61
539.575	19985.45
539.94	20053.92
540.305	20230.87
540.67	20214.14
541.034	20142.51
541.399	20180.7
541.764	20340.24
542.129	20303.18
542.494	20323.97
542.858	20450.52
543.223	20370.3
543.587	20370.3
543.952	20331.43
544.316	20473.35
544.681	20401.03
545.045	20566.68
545.41	20553.8
545.774	20515.38
546.138	20541.59
546.503	20540.01
546.867	20543.4
547.231	20664.3
547.595	20699.33
547.959	20746.33
548.324	20744.53
548.688	20696.16
549.052	20739.1
549.416	20685.77
549.779	20752.66
550.143	20794.47
550.507	20895.93
550.871	20911.75
551.235	20883.96
551.599	21041.69
551.962	20989.26
552.326	20961.92
552.689	21031.52
553.053	20855.03
553.417	20938.42
553.78	21235.36
554.143	21105.87
554.507	21173.21
554.87	21159.88
555.234	21494.11
555.597	21169.6
555.96	21255.25
556.323	21542.47
556.686	21330.72
557.05	21581.11
557.413	21539.98
557.776	21586.99
558.139	21692.52
558.502	21727.1
558.865	21663.82
559.228	21825.17
559.59	21909.01
559.953	21843.93
560.316	22128.22
560.679	22062.23
561.041	22287.54
561.404	22269.46
561.767	22382.9
562.129	22324.14
562.492	22501.09
562.854	22558.71
563.217	22607.08
563.579	22687.07
563.941	22770.23
564.304	22905.82
564.666	23085.03
565.028	23109.66
565.39	23149.66
565.753	23217.68
566.115	23353.5
566.477	23494.28
566.839	23568.41
567.201	23836.65
567.563	23685.24
567.925	23969.07
568.287	23953.25
568.648	23986.02
569.01	24210.87
569.372	24426.46
569.734	24407.93
570.095	24599.34
570.457	24670.07
570.819	24753.91
571.18	24870.97
571.542	24901.93
571.903	25067.12
572.265	25205.88
572.626	25320
572.987	25294.46
573.349	25536.04
573.71	25639.54
574.071	25717.28
574.432	25766.09
574.794	26046.08
575.155	26061.45
575.516	26011.51
575.877	26138.06
576.238	26120.2
576.599	26281.78
576.96	26347.99
577.32	26388.22
577.681	26583.24
578.042	26636.57
578.403	26653.52
578.763	26692.62
579.124	26814.42
579.485	26990.69
579.845	27083.34
580.206	27030.91
580.566	26962.21
580.927	27216.22
581.287	27197.91
581.648	27096
582.008	27227.74
582.368	27191.81
582.728	27313.17
583.089	27198.37
583.449	27391.58
583.809	27400.4
584.169	27452.15
584.529	27318.82
584.889	27540.05
585.249	27356.33
585.609	27282.21
585.969	27521.07
586.329	27301.19
586.688	27491.92
587.048	27390
587.408	27441.75
587.768	27440.17
588.127	27424.12
588.487	27362.66
588.846	27598.13
589.206	27378.25
589.565	27330.11
589.925	27547.74
590.284	27387.74
590.643	27349.32
591.003	27396.55
591.362	27634.74
591.721	27379.83
592.08	27453.28
592.44	27560.17
592.799	27495.99
593.158	27500.51
593.517	27384.35
593.876	27490.11
594.235	27524.91
594.593	27463.44
594.952	27443.11
595.311	27418.7
595.67	27450.56
596.029	27489.88
596.387	27511.8
596.746	27664.8
597.104	27503.44
597.463	27566.04
597.822	27635.42
598.18	27524.91
598.538	27608.3
598.897	27611.92
599.255	27361.07
599.613	27664.34
599.972	27451.92
600.33	27587.28
600.688	27557.45
601.046	27555.87
601.404	27746.83
601.762	27644.68
602.12	27771.69
602.478	27667.28
602.836	27566.04
603.194	27641.07
603.552	27518.36
603.91	27652.14
604.268	27724.68
604.625	27744.57
604.983	27901.4
605.341	27547.96
605.698	27768.07
606.056	27785.92
606.413	27580.28
606.771	27891.91
607.128	27788.63
607.485	27803.77
607.843	27767.17
608.2	27887.16
608.557	28013.71
608.914	27875.64
609.272	27944.34
609.629	28217.77
609.986	28261.39
610.343	28231.33
610.7	28328.51
611.057	28319.47
611.414	28229.75
611.771	28443.08
612.127	28475.85
612.484	28438.11
612.841	28434.94
613.198	28404.44
613.554	28341.16
613.911	28561.49
614.267	28470.2
614.624	28599.69
614.98	28515.62
615.337	28840.36
615.693	28612.79
616.05	28728.95
616.406	28758.55
616.762	28772.79
617.118	28693.47
617.475	28802.39
617.831	28998.09
618.187	28968.49
618.543	28933.24
618.899	29219.56
619.255	29041.48
619.611	29022.95
619.967	29170.07
620.323	29174.13
620.678	29137.07
621.034	29052.56
621.39	29074.02
621.746	29058.88
622.101	29353.34
622.457	29138.43
622.812	29279.22
623.168	29293.45
623.523	29151.08
623.879	29313.34
624.234	29199.44
624.589	29300.68
624.945	29300.91
625.3	29417.29
625.655	29227.24
626.01	29308.14
626.365	29388.14
626.72	29367.12
627.075	29291.42
627.43	29290.97
627.785	29262.49
628.14	29143.17
628.495	29206.9
628.85	29301.14
629.205	29107.92
629.559	29200.8
629.914	29351.98
630.269	29194.7
630.623	29146.79
630.978	29067.24
631.332	29238.31
631.687	29190.63
632.041	29021.82
632.396	29104.98
632.75	29238.09
633.104	29153.8
633.459	28959.68
633.813	28995.16
634.167	29018.88
634.521	28910.41
634.875	28962.16
635.229	28921.94
635.583	28759.91
635.937	28748.83
636.291	28681.94
636.645	28775.27
636.999	28597.43
637.352	28680.36
637.706	28644.66
638.06	28653.47
638.413	28523.08
638.767	28414.83
639.121	28678.1
639.474	28441.95
639.828	28434.49
640.181	28445.11
640.534	28497.99
640.888	28374.61
641.241	28104.11
641.594	28311.56
641.947	28229.3
642.301	28164.9
642.654	28204.67
643.007	28132.13
643.36	28180.71
643.713	28106.59
644.066	28291.9
644.419	28140.49
644.771	27782.53
645.124	27524.69
645.477	27457.12
645.83	27444.46
646.182	27405.14
646.535	27492.14
646.888	27543.22
647.24	27419.38
647.593	27591.58
647.945	27383.67
648.298	27339.61
648.65	27231.36
649.002	27056
649.355	26978.71
649.707	26825.95
650.059	26884.7
650.411	27229.1
650.763	27442.2
651.115	27980.49
651.467	27809.65
651.819	27814.4
652.171	27772.59
652.523	27555.65
652.875	27711.35
653.227	27566.49
653.578	27777.56
653.93	27804.45
654.282	27707.28
654.633	27677.9
654.985	27605.59
655.337	27757.67
655.688	27582.76
656.039	27742.99
656.391	27495.99
656.742	27636.55
657.094	27633.61
657.445	27626.15
657.796	27610.79
658.147	27779.82
658.498	27748.86
658.849	27712.7
659.2	27701.86
659.551	27572.59
659.902	27815.98
660.253	27768.97
660.604	27756.32
660.955	27506.38
661.306	27809.65
661.656	27667.73
662.007	27608.75
662.358	27695.08
662.708	27743.21
663.059	27741.18
663.409	27582.09
663.76	27797
664.11	27794.28
664.461	27741.4
664.811	27810.55
665.161	27781.63
665.511	27685.36
665.862	27801.29
666.212	27929.65
666.562	27874.96
666.912	27793.61
667.262	27624.8
667.612	27685.13
667.962	27866.37
668.312	27704.12
668.662	27795.19
669.011	27808.29
669.361	27763.1
669.711	27752.02
670.06	27623.21
670.41	27610.33
670.76	27730.56
671.109	27766.26
671.459	27642.42
671.808	27548.19
672.157	27880.38
672.507	27438.59
672.856	27542.99
673.205	27542.99
673.554	27634.97
673.904	27421.64
674.253	27733.04
674.602	27547.06
674.951	27168.09
675.3	26995.21
675.649	27546.61
675.998	27543.22
676.346	27535.53
676.695	27526.04
677.044	27342.54
677.393	27483.56
677.741	27569.88
678.09	27440.39
678.438	27325.82
678.787	27406.72
679.135	27416.89
679.484	27263
679.832	27374.63
680.181	27204.02
680.529	27166.73
680.877	27054.19
681.225	26970.58
681.573	27254.86
681.922	27072.72
682.27	27016.22
682.618	27070.69
682.966	26991.37
683.314	27008.32
683.661	26914.31
684.009	26811.48
684.357	26762.22
684.705	26658.49
685.053	26654.43
685.4	26527.42
685.748	26579.17
686.095	26499.85
686.443	26284.27
686.79	26239.52
687.138	26413.53
687.485	26309.58
687.832	26154.55
688.18	26215.12
688.527	26004.5
688.874	25987.1
689.221	25919.53
689.568	25821
689.915	25690.38
690.262	25794.56
690.609	25627.11
690.956	25499.43
691.303	25532.2
691.65	25354.57
691.997	25318.19
692.344	25073.45
692.69	25011.76
693.037	25094.47
693.383	24814.7
693.73	24892.21
694.077	24707.36
694.423	24732.89
694.769	24549.17
695.116	24596.63
695.462	24484.99
695.808	24458.78
696.155	24404.99
696.501	24125.45
696.847	24174.04
697.193	24029.86
697.539	23984.89
697.885	23852.92
698.231	23845.01
698.577	23744.45
698.923	23909.41
699.269	23562.53
699.614	23417
699.96	23393.95
700.306	23322.31
700.651	23260.17
700.997	23121.64
701.342	23078.7
701.688	23039.38
702.033	22964.58
702.379	22809.1
702.724	22769.78
703.069	22760.07
703.415	22553.29
703.76	22543.35
704.105	22421.09
704.45	22507.64
704.795	22260.42
705.14	22252.73
705.485	22221.77
705.83	22021.33
706.175	22206.63
706.52	22043.93
706.865	21966.64
707.209	21862.01
707.554	21857.04
707.899	21810.49
708.243	21778.62
708.588	21663.15
708.932	21606.42
709.277	21589.47
709.621	21405.07
709.966	21327.33
710.31	21458.86
710.654	21300.67
710.998	21194.23
711.342	21328.46
711.687	21253.44
712.031	21233.55
712.375	21124.63
712.719	21121.69
713.063	20982.03
713.407	21174.8
713.75	21002.15
714.094	21068.81
714.438	20895.48
714.782	20885.76
715.125	20878.98
715.469	20925.09
715.812	20888.93
716.156	20782.49
716.499	20744.75
716.843	20797.63
717.186	20687.13
717.53	20808.93
717.873	20736.84
718.216	20779.33
718.559	20726.67
718.902	20489.84
719.246	20606.9
719.589	20637.41
719.932	20400.58
720.275	20565.32
720.617	20590.18
720.96	20553.8
721.303	20559.9
721.646	20614.36
721.989	20363.97
722.331	20605.09
722.674	20351.32
723.016	20465.44
723.359	20392.44
723.701	20410.3
724.044	20430.41
724.386	20298.89
724.729	20458.88
725.071	20393.35
725.413	20404.87
725.755	20326.01
726.097	20335.95
726.439	20225.89
726.782	20264.76
727.124	20408.49
727.465	20335.27
727.807	20269.51
728.149	20323.97
728.491	20295.27
728.833	20336.4
729.175	20222.73
729.516	20267.25
729.858	20272.22
730.199	20299.79
730.541	20295.5
730.882	20267.93
731.224	20328.04
731.565	20295.05
731.906	20304.76
732.248	20381.82
732.589	20356.29
732.93	20331.2
733.271	20295.72
733.612	20319.68
733.953	20375.72
734.294	20353.35
734.635	20367.36
734.976	20446.23
735.317	20401.26
735.658	20434.93
735.999	20397.64
736.339	20393.35
736.68	20601.7
737.021	20420.92
737.361	20399.22
737.702	20701.81
738.042	20522.38
738.383	20598.31
738.723	20770.51
739.063	20761.7
739.404	20741.59
739.744	20822.26
740.084	20747.91
740.424	20819.78
740.764	20811.19
741.104	21036.95
741.444	20930.96
741.784	21130.28
742.124	21101.35
742.464	21203.72
742.804	21171.63
743.143	21314.68
743.483	21400.1
743.823	21240.56
744.162	21378.18
744.502	21487.78
744.841	21636.71
745.181	21735.01
745.52	21740.88
745.86	21854.78
746.199	21925.51
746.538	21987.66
746.877	22155.11
747.216	22297.25
747.556	22186.52
747.895	22409.11
748.234	22454.08
748.573	22624.02
748.911	22663.57
749.25	22742.66
749.589	22803.91
749.928	22943.11
750.267	23094.52
750.605	23183.78
750.944	23437.11
751.283	23527.05
751.621	23679.36
751.96	23723.88
752.298	23804.11
752.636	23995.74
752.975	24185.34
753.313	24124.55
753.651	24459
753.989	24517.99
754.327	24662.39
754.666	24743.74
755.004	24997.97
755.342	25146.22
755.679	25322.03
756.017	25263.28
756.355	25518.64
756.693	25533.33
757.031	25721.12
757.368	25753.43
757.706	25968.12
758.044	26135.8
758.381	26241.33
758.719	26308.22
759.056	26521.77
759.394	26468.44
759.731	26461.89
760.068	26663.47
760.405	26886.74
760.743	26845.16
761.08	27001.54
761.417	27068.43
761.754	27152.04
762.091	27363.11
762.428	27321.98
762.765	27375.09
763.102	27499.38
763.438	27559.71
763.775	27477.46
764.112	27738.47
764.449	27758.13
764.785	27858.24
765.122	27793.38
765.458	27761.06
765.795	27917.9
766.131	27935.52
766.467	28000.38
766.804	28049.42
767.14	27959.7
767.476	28122.64
767.812	28165.57
768.148	28203.31
768.485	28096.2
768.821	28022.98
769.157	28079.93
769.492	28096.65
769.828	28130.55
770.164	28053.94
770.5	27969.87
770.836	28074.05
771.171	28071.11
771.507	28051.45
771.842	27988.63
772.178	28033.15
772.513	28059.81
772.849	27904.79
773.184	27994.96
773.519	27943.21
773.855	27878.12
774.19	27891.91
774.525	27765.58
774.86	27691.91
775.195	27711.57
775.53	27660.05
775.865	27578.47
776.2	27375.09
776.535	27330.57
776.87	27345.48
777.205	27260.96
777.539	27279.72
777.874	27172.6
778.209	26994.3
778.543	27057.13
778.878	27010.8
779.212	27032.27
779.547	26752.05
779.881	26853.07
780.215	26613.52
780.55	26816.46
780.884	26535.56
781.218	26579.85
781.552	26584.37
781.886	26438.84
782.22	26318.62
782.554	26156.36
782.888	26040.43
783.222	26030.71
783.556	25843.37
783.889	25921.34
784.223	25673.44
784.557	25683.38
784.89	25777.84
785.224	25558.18
785.557	25402.93
785.891	25409.94
786.224	25379.43
786.558	25392.54
786.891	25228.02
787.224	25006.56
787.557	25069.61
787.891	24976.96
788.224	24822.38
788.557	24877.07
788.89	24830.97
789.223	24806.79
789.556	24673.01
789.888	24572.67
790.221	24466.69
790.554	24334.94
790.887	24303.53
791.219	24253.81
791.552	24262.85
791.884	24163.19
792.217	24172.91
792.549	23935.85
792.882	23826.7
793.214	23824.67
793.546	23876.87
793.879	23577.45
794.211	23480.05
794.543	23679.59
794.875	23579.03
795.207	23460.16
795.539	23391.91
795.871	23401.63
796.203	23281.41
796.535	23086.84
796.867	23118.47
797.198	22970.68
797.53	22926.39
797.862	22782.89
798.193	22913.73
798.525	22802.32
798.856	22791.25
799.188	22502.9
799.519	22595.78
799.85	22482.56
800.182	22485.27
800.513	22456.34
800.844	22151.27
801.175	22360.53
801.506	22270.13
801.837	22263.36
802.168	22206.41
802.499	22215.22
802.83	22012.06
803.161	21911.27
803.491	21879.18
803.822	21986.98
804.153	21741.79
804.483	21535.24
804.814	21553.54
805.145	21584.05
805.475	21516.48
805.805	21490.49
806.136	21501.34
806.466	21394
806.796	21382.25
807.126	21265.19
807.457	21161.69
807.787	21253.21
808.117	21194.68
808.447	21110.17
808.777	21083.5
809.107	20930.73
809.436	20837.63
809.766	20956.72
810.096	20884.18
810.426	20820.91
810.755	20803.05
811.085	20689.61
811.414	20709.27
811.744	20620.23
812.073	20570.97
812.403	20486.45
812.732	20403.97
813.061	20505.21
813.39	20427.25
813.719	20333.24
814.049	20482.16
814.378	20290.07
814.707	20126.69
815.036	20155.39
815.365	20143.41
815.693	20055.28
816.022	20118.33
816.351	19942.74
816.68	19846.02
817.008	19920.37
817.337	19857.77
817.665	19759.69
817.994	19764.66
818.322	19854.38
818.651	19724.89
818.979	19693.03
819.307	19724.21
819.636	19630.43
819.964	19594.05
820.292	19629.75
820.62	19566.7
820.948	19488.29
821.276	19680.15
821.604	19574.16
821.932	19677.89
822.259	19651.22
822.587	19573.71
822.915	19535.52
823.243	19605.12
823.57	19505.69
823.898	19591.56
824.225	19552.69
824.553	19509.3
824.88	19537.78
825.207	19561.96
825.535	19519.92
825.862	19575.29
826.189	19538.46
826.516	19636.76
826.843	19743.87
827.17	19621.84
827.497	19644.89
827.824	19670.66
828.151	19713.59
828.478	19636.53
828.805	19745.91
829.131	19729.64
829.458	19687.38
829.785	19593.37
830.111	19545.01
830.438	19688.28
830.764	19690.77
831.09	19713.14
831.417	19610.09
831.743	19668.4
832.069	19662.52
832.395	19479.25
832.722	19596.31
833.048	19698.22
833.374	19594.27
833.7	19513.15
834.026	19529.64
834.351	19421.85
834.677	19567.61
835.003	19461.4
835.329	19568.96
835.654	19462.98
835.98	19326.94
836.306	19560.6
836.631	19476.08
836.956	19519.92
837.282	19551.56
837.607	19395.41
837.932	19307.05
838.258	19290.1
838.583	19364.67
838.908	19276.77
839.233	19272.47
839.558	19175.53
839.883	19233.83
840.208	18940.73
840.533	19149.76
840.858	19131.91
841.182	19090.33
841.507	19078.81
841.832	18930.56
842.156	18999.94
842.481	18972.14
842.805	18965.81
843.13	18794.97
843.454	18914.29
843.778	18821.86
844.103	18792.03
844.427	18810.56
844.751	18712.26
845.075	18738.25
845.399	18605.6
845.723	18545.71
846.047	18594.07
846.371	18386.62
846.695	18287.41
847.019	18253.74
847.343	18219.39
847.666	18166.51
847.99	18103.46
848.313	17965.84
848.637	18042.68
848.96	17946.18
849.284	17878.61
849.607	17774.66
849.931	17743.02
850.254	17603.59
850.577	17387.78
850.9	17327.89
851.223	17396.59
851.546	17369.02
851.869	17234.79
852.192	17381
852.515	17030.5
852.838	17075.24
853.161	17059.2
853.483	16916.15
853.806	16842.03
854.129	16839.54
854.451	16778.98
854.774	16669.83
855.096	16655.37
855.419	16526.78
855.741	16554.35
856.063	16464.41
856.385	16330.63
856.708	16332.89
857.03	16324.98
857.352	16248.15
857.674	16282.72
857.996	16181.71
858.318	16089.28
858.64	16097.64
858.961	16076.17
859.283	16040.24
859.605	15946.01
859.926	15975.39
860.248	15927.48
860.57	15799.12
860.891	15780.14
861.212	15762.51
861.534	15736.97
861.855	15595.28
862.176	15690.87
862.498	15672.12
862.819	15599.12
863.14	15541.27
863.461	15586.24
863.782	15445.68
864.103	15594.6
864.424	15420.15
864.745	15523.42
865.065	15368.85
865.386	15420.15
865.707	15422.86
866.027	15459.92
866.348	15391.22
866.668	15292.69
866.989	15259.02
867.309	15198.23
867.63	15138.34
867.95	15187.61
868.27	15096.31
868.59	15191.45
868.91	15061.96
869.23	15128.63
869.55	14988.07
869.87	15054.96
870.19	14948.52
870.51	15041.62
870.83	14984.45
871.15	14890.22
871.469	14857.45
871.789	14913.72
872.109	14931.12
872.428	14805.25
872.748	14816.32
873.067	14865.58
873.386	14769.99
873.706	14750.56
874.025	14760.73
874.344	14696.77
874.663	14624.23
874.982	14684.57
875.301	14680.28
875.62	14638.25
875.939	14557.57
876.258	14576.33
876.577	14539.94
876.896	14567.29
877.214	14506.72
877.533	14472.83
877.852	14435.99
878.17	14527.29
878.489	14464.24
878.807	14391.92
879.125	14406.84
879.444	14337.69
879.762	14295.2
880.08	14469.44
880.398	14178.37
880.716	14259.95
881.034	14216.79
881.352	14235.32
881.67	14153.29
881.988	14094.53
882.306	14127.07
882.624	14033.74
882.941	14008.88
883.259	13944.25
883.577	13965.72
883.894	13877.59
884.212	13895.89
884.529	13851.83
884.846	13785.39
885.164	13773.64
885.481	13675.78
885.798	13671.04
886.115	13660.64
886.432	13682.56
886.75	13649.12
887.067	13597.37
887.383	13523.25
887.7	13586.3
888.017	13432.18
888.334	13493.19
888.651	13423.14
888.967	13349.24
889.284	13349.24
889.6	13227.21
889.917	13179.3
890.233	13280.99
890.55	13194.22
890.866	13235.34
891.182	13168.23
891.498	13166.42
891.815	13001.9
892.131	13055.01
892.447	13018.4
892.763	12923.71
893.079	12901.57
893.395	12880.33
893.71	12882.36
894.026	12782.25
894.342	12811.4
894.657	12688.24
894.973	12761.23
895.289	12754.45
895.604	12627.68
895.92	12537.96
896.235	12531.18
896.55	12505.42
896.865	12502.93
897.181	12373.22
897.496	12510.62
897.811	12352.88
898.126	12345.42
898.441	12287.57
898.756	12192.66
899.071	12140.68
899.386	12168.25
899.7	12087.58
900.015	11989.73
900.33	11891.65
900.644	11913.8
900.959	11913.12
901.273	11839.67
901.588	11831.54
901.902	11781.37
902.216	11629.28
902.531	11705.67
902.845	11688.49
903.159	11599.91
903.473	11564.43
903.787	11517.88
904.101	11393.58
904.415	11435.17
904.729	11417.31
905.042	11339.8
905.356	11336.18
905.67	11267.94
905.984	11310.65
906.297	11250.54
906.611	11192.46
906.924	11165.12
907.237	11129.41
907.551	11044.67
907.864	11001.28
908.177	11020.04
908.491	10869.53
908.804	10855.75
909.117	10791.11
909.43	10742.3
909.743	10726.48
910.056	10620.05
910.368	10622.53
910.681	10556.09
910.994	10547.05
911.307	10533.72
911.619	10414.63
911.932	10410.33
912.244	10393.61
912.557	10341.41
912.869	10201.75
913.181	10218.47
913.494	10259.83
913.806	10142.77
914.118	10103.9
914.43	10041.98
914.742	10014.64
915.054	9956.11
915.366	9924.24
915.678	9938.03
915.99	9841.99
916.302	9826.62
916.613	9766.28
916.925	9757.92
917.236	9846.28
917.548	9681.31
917.859	9680.64
918.171	9593.86
918.482	9528.1
918.794	9463.24
919.105	9514.54
919.416	9363.13
919.727	9431.15
920.038	9397.7
920.349	9400.42
920.66	9289.23
920.971	9333.98
921.282	9292.17
921.593	9176.69
921.903	9072.52
922.214	9099.41
922.525	9065.06
922.835	9019.41
923.146	8986.19
923.456	8935.12
923.767	8894.89
924.077	8887.89
924.387	8825.29
924.697	8823.93
925.008	8780.77
925.318	8756.14
925.628	8658.52
925.938	8670.49
926.248	8623.26
926.558	8568.57
926.867	8521.34
927.177	8555.24
927.487	8490.84
927.796	8404.96
928.106	8443.61
928.416	8396.38
928.725	8374
929.034	8333.33
929.344	8373.33
929.653	8286.32
929.962	8214.91
930.271	8176.95
930.581	8128.13
930.89	8150.73
931.199	8091.75
931.508	8018.08
931.817	8031.64
932.125	7980.57
932.434	7936.27
932.743	7885.65
933.051	7810.18
933.36	7821.02
933.669	7792.1
933.977	7754.81
934.286	7761.82
934.594	7781.02
934.902	7643.4
935.21	7680.01
935.519	7606.11
935.827	7603.18
936.135	7548.49
936.443	7489.28
936.751	7463.52
937.059	7402.28
937.367	7350.53
937.674	7423.29
937.982	7328.15
938.29	7375.61
938.597	7338.55
938.905	7186.01
939.213	7154.83
939.52	7156.18
939.827	7190.98
940.135	7101.04
940.442	7133.58
940.749	7052
941.056	7070.76
941.363	6993.25
941.67	6949.86
941.977	6911.22
942.284	6909.86
942.591	6894.95
942.898	6890.43
943.205	6876.64
943.511	6780.15
943.818	6774.95
944.125	6672.58
944.431	6748.96
944.738	6697.44
945.044	6702.18
945.35	6591.9
945.657	6585.58
945.963	6569.76
946.269	6569.76
946.575	6551.45
946.881	6522.53
947.187	6417.67
947.493	6397.56
947.799	6406.37
948.105	6358.24
948.41	6348.97
948.716	6326.83
949.022	6284.11
949.327	6217.22
949.633	6237.79
949.938	6195.53
950.244	6203.89
950.549	6148.98
950.854	6129.99
951.16	6080.96
951.465	6073.95
951.77	6018.81
952.075	6018.81
952.38	5937.91
952.685	5978.36
952.99	5893.39
953.294	5916.67
953.599	5897.68
953.904	5796.9
954.209	5806.84
954.513	5807.97
954.818	5832.15
955.122	5768.42
955.426	5704.02
955.731	5737.91
956.035	5691.14
956.339	5639.39
956.643	5667.86
956.948	5659.05
957.252	5601.65
957.556	5579.73
957.86	5548.54
958.163	5538.15
958.467	5459.5
958.771	5472.38
959.075	5417.47
959.378	5418.6
959.682	5397.36
959.985	5342.9
960.289	5345.83
960.592	5369.34
960.896	5248.44
961.199	5228.32
961.502	5257.02
961.805	5205.05
962.108	5178.83
962.411	5167.31
962.714	5129.12
963.017	5143.58
963.32	5152.62
963.623	5072.62
963.926	5093.64
964.228	5025.16
964.531	5043.47
964.833	4991.49
965.136	4932.96
965.438	4918.27
965.741	4909.91
966.043	4923.7
966.345	4883.25
966.648	4863.81
966.95	4873.76
967.252	4800.54
967.554	4811.38
967.856	4763.02
968.158	4789.46
968.46	4770.26
968.761	4737.04
969.063	4702.24
969.365	4735.45
969.666	4677.15
969.968	4650.71
970.269	4637.38
970.571	4626.3
970.872	4622.92
971.174	4562.58
971.475	4548.34
971.776	4518.51
972.077	4498.62
972.378	4469.92
972.679	4445.07
972.98	4454.56
973.281	4438.97
973.582	4480.32
973.883	4382.02
974.183	4369.36
974.484	4330.04
974.785	4318.06
975.085	4311.96
975.386	4327.1
975.686	4284.39
975.986	4216.15
976.287	4214.11
976.587	4200.78
976.887	4169.14
977.187	4162.59
977.487	4206.43
977.787	4108.8
978.087	4105.19
978.387	4137.96
978.687	4064.96
978.987	4042.82
979.286	4060.9
979.586	4035.59
979.885	4017.51
980.185	3972.54
980.484	3975.93
980.784	3948.58
981.083	3951.52
981.382	3922.59
981.682	3902.93
981.981	3893.22
982.28	3885.08
982.579	3857.29
982.878	3847.34
983.177	3836.04
983.475	3789.04
983.774	3784.52
984.073	3755.37
984.372	3718.31
984.67	3724.86
984.969	3725.99
985.267	3718.08
985.566	3662.49
985.864	3667.23
986.162	3685.54
986.461	3632.66
986.759	3599.44
987.057	3572.1
987.355	3556.95
987.653	3566.9
987.951	3548.59
988.249	3519.22
988.547	3536.84
988.844	3514.24
989.142	3522.83
989.44	3486.9
989.737	3415.49
990.035	3421.59
990.332	3439.22
990.63	3401.48
990.927	3386.11
991.224	3367.81
991.521	3368.26
991.819	3365.32
992.116	3304.53
992.413	3291.42
992.71	3310.41
993.006	3282.84
993.303	3249.39
993.6	3227.25
993.897	3264.53
994.193	3259.79
994.49	3227.25
994.787	3170.98
995.083	3184.53
995.379	3140.92
995.676	3153.58
995.972	3096.4
996.268	3136.63
996.565	3096.18
996.861	3083.75
997.157	3083.97
997.453	3045.78
997.749	3006.69
998.044	3033.13
998.34	3029.28
998.636	3019.34
998.932	2960.59
999.227	2922.39
999.523	2917.65
999.818	2895.05
1000.114	2857.54
1000.409	2890.31
1000.704	2827.26
1001	2837.65
1001.295	2825.45
1001.59	2857.76
1001.885	2847.59
1002.18	2813.02
1002.475	2730.54
1002.77	2727.6
1003.065	2743.64
1003.359	2757.2
1003.654	2714.94
1003.949	2671.1
1004.243	2667.03
1004.538	2653.02
1004.832	2651.22
1005.127	2622.52
1005.421	2643.53
1005.715	2596.53
1006.009	2594.04
1006.304	2601.27
1006.598	2590.65
1006.892	2545.46
1007.186	2532.57
1007.48	2524.44
1007.773	2496.64
1008.067	2481.73
1008.361	2461.62
1008.655	2471.33
1008.948	2433.37
1009.242	2440.6
1009.535	2440.6
1009.829	2393.37
1010.122	2385.23
1010.415	2387.72
1010.708	2366.03
1011.001	2353.14
1011.295	2336.87
1011.588	2337.55
1011.881	2290.32
1012.173	2296.2
1012.466	2284.9
1012.759	2256.2
1013.052	2286.25
1013.344	2276.54
1013.637	2226.59
1013.93	2218.23
1014.222	2218.01
1014.514	2151.79
1014.807	2171.91
1015.099	2151.12
1015.391	2133.94
1015.683	2131
1015.976	2081.97
1016.268	2134.17
1016.56	2097.11
1016.851	2083.77
1017.143	2072.25
1017.435	2065.69
1017.727	2024.79
1018.018	2019.59
1018.31	2049.88
1018.602	2002.42
1018.893	2005.81
1019.185	1971.01
1019.476	1966.26
1019.767	1936.66
1020.058	1955.64
1020.35	1932.14
1020.641	1919.48
1020.932	1892.82
1021.223	1897.34
1021.514	1885.36
1021.804	1839.49
1022.095	1832.71
1022.386	1831.58
1022.677	1823.67
1022.967	1771.92
1023.258	1782.76
1023.548	1799.03
1023.839	1771.69
1024.129	1770.33
1024.419	1735.08
1024.709	1751.58
1025	1707.96
1025.29	1711.58
1025.58	1688.08
1025.87	1710.9
1026.16	1673.39
1026.449	1657.12
1026.739	1645.59
1027.029	1628.19
1027.319	1627.29
1027.608	1611.92
1027.898	1601.75
1028.187	1578.02
1028.477	1584.8
1028.766	1590.68
1029.055	1589.77
1029.344	1544.35
1029.634	1523.79
1029.923	1544.35
1030.212	1514.07
1030.501	1504.13
1030.79	1509.1
1031.078	1504.58
1031.367	1465.94
1031.656	1472.72
1031.945	1448.08
1032.233	1452.15
1032.522	1425.49
1032.81	1434.07
1033.099	1432.72
1033.387	1392.72
1033.675	1394.98
1033.963	1396.11
1034.251	1388.42
1034.54	1373.28
1034.828	1346.62
1035.116	1366.28
1035.403	1360.63
1035.691	1316.11
1035.979	1345.71
1036.267	1307.52
1036.554	1282.89
1036.842	1306.62
1037.129	1295.09
1037.417	1295.09
1037.704	1271.82
1037.992	1256
1038.279	1272.04
1038.566	1237.02
1038.853	1237.02
1039.14	1237.02
