Data from 18-4330_FLMS001491_007.txt Node
Date: Thu Apr 19 16:43:36 BST 2018
User: hsy
Spectrometer: FLMS00149
Trigger mode: 0
Integration Time (sec): 1.000000E-2
Scans to average: 10
Electric dark correction enabled: true
Nonlinearity correction enabled: false
Boxcar width: 0
XAxis mode: Wavelengths
Number of Pixels in Spectrum: 2048
>>>>>Begin Spectral Data<<<<<
341.393	-13.18
341.776	-13.18
342.16	-13.18
342.543	-55.89
342.927	-79.62
343.31	-61.31
343.693	-66.51
344.077	-79.84
344.46	-70.35
344.843	-58.83
345.226	-34.19
345.61	-20.41
345.993	-25.38
346.376	-9.79
346.759	10.78
347.142	19.82
347.525	22.3
347.908	55.97
348.291	86.48
348.674	104.79
349.057	126.48
349.44	130.77
349.823	126.71
350.206	176.87
350.588	218.68
350.971	253.26
351.354	243.99
351.737	266.82
352.119	269.53
352.502	288.06
352.884	280.15
353.267	325.8
353.65	324.89
354.032	330.09
354.414	323.08
354.797	352.91
355.179	352.01
355.562	360.6
355.944	357.43
356.326	363.76
356.709	370.77
357.091	357.66
357.473	371.45
357.855	385
358.238	383.42
358.62	377.55
359.002	391.56
359.384	371.9
359.766	378.9
360.148	400.6
360.53	389.52
360.912	373.93
361.294	371.67
361.676	369.41
362.057	371.67
362.439	375.74
362.821	370.99
363.203	389.98
363.584	373.48
363.966	375.51
364.348	357.43
364.729	364.21
365.111	377.55
365.493	370.32
365.874	350.2
366.256	356.3
366.637	356.98
367.019	353.14
367.4	359.02
367.781	362.18
368.163	361.05
368.544	352.46
368.925	370.99
369.306	366.93
369.688	388.62
370.069	357.66
370.45	373.25
370.831	384.1
371.212	387.94
371.593	351.33
371.974	353.82
372.355	339.36
372.736	371.9
373.117	382.52
373.498	364.89
373.879	359.02
374.26	349.3
374.641	391.33
375.021	382.97
375.402	361.73
375.783	359.69
376.163	405.12
376.544	383.42
376.925	377.09
377.305	385.23
377.686	397.21
378.066	399.92
378.447	408.73
378.827	405.34
379.208	389.52
379.588	405.79
379.968	402.4
380.349	393.59
380.729	404.66
381.109	417.77
381.489	407.38
381.87	410.09
382.25	426.81
382.63	413.25
383.01	426.36
383.39	432.91
383.77	447.15
384.15	436.98
384.53	431.1
384.91	431.1
385.29	435.85
385.67	433.36
386.049	451.22
386.429	426.81
386.809	447.38
387.189	462.74
387.568	477.2
387.948	449.41
388.328	485.11
388.707	492.12
389.087	467.49
389.466	485.34
389.846	453.93
390.225	477.66
390.605	478.11
390.984	479.46
391.363	478.11
391.743	502.29
392.122	510.2
392.501	506.36
392.881	530.99
393.26	535.28
393.639	553.36
394.018	544.1
394.397	538.9
394.776	519.24
395.155	538.22
395.534	533.47
395.913	559.24
396.292	554.72
396.671	588.61
397.05	552.23
397.429	568.95
397.808	568.28
398.186	570.99
398.565	540.25
398.944	575.73
399.323	583.19
399.701	587.03
400.08	606.24
400.458	596.52
400.837	615.73
401.215	609.4
401.594	627.48
401.972	627.71
402.351	617.31
402.729	634.04
403.107	629.74
403.486	672
403.864	694.6
404.242	666.8
404.62	658.22
404.999	675.17
405.377	692.57
405.755	697.54
406.133	698.67
406.511	712.45
406.889	723.3
407.267	731.44
407.645	757.42
408.023	741.83
408.401	751.32
408.779	763.07
409.156	783.41
409.534	779.57
409.912	796.97
410.29	837.2
410.667	829.51
411.045	839
411.422	824.54
411.8	841.94
412.178	864.09
412.555	900.24
412.933	897.76
413.31	930.07
413.687	909.28
414.065	938.66
414.442	939.57
414.819	963.52
415.197	951.32
415.574	999.45
415.951	1012.11
416.328	1016.85
416.705	1029.96
417.082	1042.84
417.46	1044.42
417.837	1060.92
418.214	1044.87
418.591	1062.5
418.967	1051.43
419.344	1089.62
419.721	1112.22
420.098	1111.09
420.475	1137.75
420.852	1129.62
421.228	1161.25
421.605	1171.88
421.982	1184.98
422.358	1229.5
422.735	1222.95
423.111	1212.1
423.488	1235.6
423.864	1239.9
424.241	1283.74
424.617	1311.08
424.994	1287.81
425.37	1326
425.746	1316.96
426.123	1349.27
426.499	1373.23
426.875	1377.97
427.251	1411.87
427.627	1415.03
428.003	1427.24
428.379	1440.8
428.756	1507.91
429.132	1494.35
429.507	1514.92
429.883	1522.38
430.259	1538.65
430.635	1565.54
431.011	1591.3
431.387	1638.76
431.763	1664.29
432.138	1655.25
432.514	1689.6
432.89	1713.33
433.265	1725.99
433.641	1818.41
434.016	1768.02
434.392	1804.18
434.767	1890.28
435.143	1885.53
435.518	1916.94
435.894	1929.6
436.269	1948.35
436.644	1998.07
437.02	1988.8
437.395	2017.73
437.77	2060.89
438.145	2069.93
438.52	2075.36
438.895	2140.44
439.271	2154.22
439.646	2185.41
440.021	2187.22
440.395	2221.11
440.77	2212.53
441.145	2251.85
441.52	2320.55
441.895	2282.36
442.27	2310.38
442.645	2332.98
443.019	2329.81
443.394	2398.96
443.769	2440.32
444.143	2384.5
444.518	2450.94
444.892	2437.15
445.267	2441.9
445.641	2452.52
446.016	2515.12
446.39	2530.71
446.764	2531.61
447.139	2535.91
447.513	2579.97
447.887	2603.02
448.262	2615.23
448.636	2608.67
449.01	2679.63
449.384	2701.33
449.758	2721.67
450.132	2767.09
450.506	2746.3
450.88	2743.13
451.254	2807.99
451.628	2850.93
452.002	2846.18
452.376	2929.12
452.75	2939.97
453.123	2976.57
453.497	3042.56
453.871	2998.95
454.244	3103.35
454.618	3136.8
454.992	3140.19
455.365	3212.95
455.739	3263.12
456.112	3284.81
456.486	3302.67
456.859	3370.46
457.232	3439.16
457.606	3454.53
457.979	3511.7
458.352	3550.34
458.725	3584.69
459.099	3601.42
459.472	3641.64
459.845	3736.55
460.218	3760.28
460.591	3777.01
460.964	3840.73
461.337	3877.57
461.71	3984.01
462.083	4014.51
462.456	4028.52
462.829	4026.72
463.201	4160.95
463.574	4121.18
463.947	4221.97
464.32	4211.34
464.692	4319.59
465.065	4397.33
465.438	4405.92
465.81	4453.15
466.183	4473.26
466.555	4555.29
466.928	4615.85
467.3	4643.2
467.672	4741.95
468.045	4849.97
468.417	4816.3
468.789	4865.56
469.161	4934.71
469.534	5011.1
469.906	5121.15
470.278	5107.37
470.65	5171.32
471.022	5250.19
471.394	5295.61
471.766	5391.43
472.138	5428.49
472.51	5586.45
472.882	5646.79
473.253	5712.32
473.625	5748.7
473.997	5852.2
474.369	5923.84
474.74	6022.6
475.112	6096.94
475.484	6192.76
475.855	6289.48
476.227	6305.75
476.598	6463.94
476.97	6500.78
477.341	6711.84
477.713	6763.14
478.084	6812.63
478.455	6975.11
478.827	7045.85
479.198	7271.38
479.569	7245.61
479.94	7394.99
480.311	7508.21
480.682	7704.36
481.053	7884.02
481.424	7964.92
481.795	8076.55
482.166	8214.63
482.537	8306.6
482.908	8513.6
483.279	8482.64
483.65	8766.7
484.021	8861.84
484.391	8961.5
484.762	9011.22
485.133	9177.77
485.503	9255.96
485.874	9474.03
486.244	9542.73
486.615	9773.01
486.985	9845.32
487.356	10048.03
487.726	10145.43
488.097	10375.93
488.467	10368.92
488.837	10625.19
489.207	10747.22
489.578	10907.44
489.948	11080.99
490.318	11191.27
490.688	11233.53
491.058	11399.86
491.428	11636.23
491.798	11603.24
492.168	11819.05
492.538	11966.39
492.908	12002.78
493.278	12238.25
493.648	12199.61
494.017	12445.7
494.387	12537.23
494.757	12633.72
495.126	12820.61
495.496	12853.83
495.866	12965.46
496.235	13107.38
496.605	13138.57
496.974	13186.7
497.344	13377.88
497.713	13461.5
498.082	13492.68
498.452	13646.8
498.821	13687.03
499.19	13833.01
499.559	13934.7
499.928	14001.82
500.298	14095.6
500.667	14215.83
501.036	14164.53
501.405	14396.16
501.774	14276.16
502.143	14485.42
502.512	14545.76
502.88	14645.65
503.249	14635.25
503.618	14813.78
503.987	14766.09
504.356	14920.44
504.724	15048.57
505.093	15038.86
505.462	15093.54
505.83	15211.96
506.199	15269.13
506.567	15422.35
506.936	15419.64
507.304	15599.97
507.672	15628.45
508.041	15618.73
508.409	15813.75
508.777	15849.46
509.145	15987.76
509.514	16007.64
509.882	16133.06
510.25	16037.93
510.618	16276.56
510.986	16185.04
511.354	16360.86
511.722	16530.57
512.09	16495.09
512.458	16554.07
512.826	16788.87
513.193	16684.01
513.561	16779.15
513.929	17006.26
514.297	17010.33
514.664	17091.68
515.032	17192.02
515.4	17301.17
515.767	17371.22
516.135	17329.87
516.502	17241.96
516.869	17568.28
517.237	17580.26
517.604	17504.55
517.972	17714.94
518.339	17773.02
518.706	17888.27
519.073	17906.35
519.44	17956.75
519.808	18223.63
520.175	18080.36
520.542	18286.68
520.909	18383.4
521.276	18519.22
521.643	18558.54
522.009	18554.92
522.376	18701.36
522.743	18801.92
523.11	19029.49
523.477	19031.97
523.843	19125.53
524.21	19332.75
524.577	19395.13
524.943	19480.1
525.31	19461.11
525.676	19666.3
526.043	19803.48
526.409	19847.32
526.776	19976.35
527.142	20075.11
527.508	20189.46
527.874	20223.58
528.241	20327.08
528.607	20304.93
528.973	20555.55
529.339	20483.01
529.705	20677.13
530.071	20902.66
530.437	20787.63
530.803	20946.95
531.169	20961.64
531.535	20945.59
531.901	21124.35
532.267	21085.48
532.632	21212.25
532.998	21212.25
533.364	21261.74
533.73	21319.14
534.095	21477.56
534.461	21392.59
534.826	21437.56
535.192	21513.94
535.557	21607.5
535.923	21563.66
536.288	21595.07
536.653	21619.02
537.019	21534.96
537.384	21568.18
537.749	21568.85
538.114	21626.03
538.479	21477.33
538.845	21568.63
539.21	21548.06
539.575	21581.96
539.94	21525.47
540.305	21632.81
540.67	21715.97
541.034	21521.4
541.399	21641.85
541.764	21714.39
542.129	21588.97
542.494	21684.56
542.858	21506.26
543.223	21560.27
543.587	21676.87
543.952	21555.52
544.316	21626.71
544.681	21352.36
545.045	21597.78
545.41	21566.14
545.774	21429.42
546.138	21318.46
546.503	21432.13
546.867	21418.8
547.231	21485.24
547.595	21292.7
547.959	21335.19
548.324	21317.11
548.688	21256.09
549.052	21321.4
549.416	21307.39
549.779	21207.28
550.143	21167.96
550.507	21294.51
550.871	21289.09
551.235	21203.67
551.599	21352.14
551.962	21269.88
552.326	21306.49
552.689	21242.31
553.053	21112.37
553.417	21083.22
553.78	21258.35
554.143	21165.93
554.507	21218.58
554.87	21266.04
555.234	21383.77
555.597	21211.8
555.96	21242.76
556.323	21233.27
556.686	21204.34
557.05	21269.65
557.413	21245.7
557.776	21216.09
558.139	21253.83
558.502	21255.19
558.865	21277.11
559.228	21386.94
559.59	21425.58
559.953	21258.35
560.316	21575.18
560.679	21440.72
561.041	21535.86
561.404	21577.22
561.767	21601.4
562.129	21596.42
562.492	21713.03
562.854	21686.59
563.217	21616.54
563.579	21779.7
563.941	21857.66
564.304	21815.85
564.666	22166.35
565.028	22061.5
565.39	22040.71
565.753	22213.13
566.115	22166.13
566.477	22366.35
566.839	22320.7
567.201	22557.75
567.563	22472.11
567.925	22613.35
568.287	22624.65
568.648	22743.96
569.01	22735.6
569.372	22970.85
569.734	22914.36
570.095	23023.5
570.457	23190.05
570.819	23285.87
571.18	23238.87
571.542	23349.15
571.903	23394.79
572.265	23530.16
572.626	23613.09
572.987	23511.63
573.349	23823.26
573.71	23833.65
574.071	23946.64
574.432	23876.59
574.794	24195.9
575.155	24250.82
575.516	24148.45
575.877	24167.66
576.238	24246.98
576.599	24451.04
576.96	24407.2
577.32	24467.08
577.681	24576.01
578.042	24568.32
578.403	24704.36
578.763	24604.93
579.124	24767.87
579.485	24803.35
579.845	24886.05
580.206	24861.87
580.566	24862.55
580.927	24940.06
581.287	25053.51
581.648	24985.04
582.008	25094.18
582.368	25101.64
582.728	24958.6
583.089	25076.33
583.449	25048.99
583.809	25016.45
584.169	25123.56
584.529	24999.72
584.889	25270.68
585.249	25107.97
585.609	24977.13
585.969	25146.61
586.329	25005.37
586.688	25093.96
587.048	25088.76
587.408	25159.95
587.768	25081.76
588.127	25088.08
588.487	25158.14
588.846	25134.41
589.206	24920.4
589.565	24921.76
589.925	24986.39
590.284	24911.59
590.643	25044.02
591.003	25010.57
591.362	25193.62
591.721	25097.57
592.08	24923.79
592.44	25103.9
592.799	25041.76
593.158	25067.52
593.517	24923.57
593.876	25087.86
594.235	24998.59
594.593	24821.65
594.952	24901.87
595.311	24973.28
595.67	24947.52
596.029	24983
596.387	24962.44
596.746	25028.65
597.104	24903.68
597.463	24876.11
597.822	25078.82
598.18	24817.13
598.538	24850.58
598.897	24961.76
599.255	24807.86
599.613	25140.74
599.972	24834.08
600.33	25030.46
600.688	24810.35
601.046	24980.06
601.404	25056.9
601.762	24957.92
602.12	25072.94
602.478	25044.47
602.836	25043.11
603.194	24830.46
603.552	25025.49
603.91	24815.32
604.268	25016.67
604.625	24950.01
604.983	25076.11
605.341	24937.13
605.698	25115.2
606.056	25207.18
606.413	25077.46
606.771	25190.23
607.128	25104.13
607.485	24896.9
607.843	24989.78
608.2	25279.04
608.557	25195.2
608.914	25192.94
609.272	25323.78
609.629	25332.82
609.986	25444.91
610.343	25392.93
610.7	25592.25
611.057	25462.08
611.414	25429.32
611.771	25542.31
612.127	25567.62
612.484	25553.61
612.841	25668.86
613.198	25554.96
613.554	25525.81
613.911	25684.23
614.267	25780.72
614.624	25650.33
614.98	25696.88
615.337	25852.13
615.693	25926.25
616.05	25899.36
616.406	25856.88
616.762	25815.07
617.118	25930.1
617.475	25791.12
617.831	26102.97
618.187	26044.44
618.543	26059.81
618.899	26135.29
619.255	26238.56
619.611	26076.31
619.967	26271.55
620.323	26233.36
620.678	26141.61
621.034	26216.19
621.39	26106.59
621.746	26214.38
622.101	26412.12
622.457	26176.19
622.812	26333.25
623.168	26429.06
623.523	26287.37
623.879	26447.14
624.234	26194.72
624.589	26394.26
624.945	26457.54
625.3	26560.81
625.655	26352.68
626.01	26388.39
626.365	26491.21
626.72	26270.65
627.075	26251.22
627.43	26413.47
627.785	26418.44
628.14	26368.73
628.495	26405.34
628.85	26412.57
629.205	26363.3
629.559	26486.46
629.914	26307.71
630.269	26327.82
630.623	26257.77
630.978	26275.17
631.332	26384.77
631.687	26303.87
632.041	26281.05
632.396	26187.04
632.75	26162.86
633.104	26227.94
633.459	26004.22
633.813	26005.12
634.167	26051.67
634.521	26103.88
634.875	26042.41
635.229	25957.21
635.583	25843.77
635.937	25861.85
636.291	25804.9
636.645	25884.9
636.999	25698.24
637.352	25832.7
637.706	25674.73
638.06	25840.38
638.413	25728.07
638.767	25696.88
639.121	25710.44
639.474	25610.1
639.828	25636.77
640.181	25633.83
640.534	25667.5
640.888	25493.72
641.241	25450.79
641.594	25556.32
641.947	25652.59
642.301	25536.66
642.654	25522.65
643.007	25374.18
643.36	25601.29
643.713	25431.8
644.066	25620.5
644.419	25427.96
644.771	25139.16
645.124	24867.75
645.477	24849.9
645.83	24927.41
646.182	24838.82
646.535	24842.21
646.888	24896.22
647.24	24809.67
647.593	24824.59
647.945	24764.7
648.298	24709.34
648.65	24571.26
649.002	24436.8
649.355	24393.41
649.707	24255.34
650.059	24359.97
650.411	24738.94
650.763	24884.7
651.115	25156.78
651.467	25188.87
651.819	25214.63
652.171	25136.22
652.523	25139.83
652.875	25100.96
653.227	25092.6
653.578	25199.94
653.93	25219.15
654.282	25146.84
654.633	25053.28
654.985	25068.87
655.337	25112.04
655.688	25217.8
656.039	25240.85
656.391	25052.6
656.742	24950.91
657.094	25063.68
657.445	25100.29
657.796	25126.5
658.147	25161.08
658.498	25280.85
658.849	25316.78
659.2	25263.22
659.551	25198.81
659.902	25387.96
660.253	25293.5
660.604	25332.37
660.955	25204.01
661.306	25438.81
661.656	25319.72
662.007	25306.83
662.358	25478.36
662.708	25440.84
663.059	25407.62
663.409	25290.11
663.76	25521.29
664.11	25553.38
664.461	25626.6
664.811	25592.93
665.161	25423.22
665.511	25421.41
665.862	25568.3
666.212	25562.42
666.562	25597.45
666.912	25653.94
667.262	25460.28
667.612	25554.74
667.962	25615.08
668.312	25518.58
668.662	25666.6
669.011	25579.6
669.361	25558.13
669.711	25573.72
670.06	25503.67
670.41	25611.01
670.76	25472.25
671.109	25635.64
671.459	25501.18
671.808	25574.17
672.157	25580.95
672.507	25414.63
672.856	25390.45
673.205	25493.95
673.554	25535.76
673.904	25400.39
674.253	25578.24
674.602	25364.01
674.951	25138.7
675.3	24894.42
675.649	25522.42
675.998	25352.94
676.346	25369.88
676.695	25401.97
677.044	25276.33
677.393	25260.06
677.741	25276.1
678.09	25165.82
678.438	25233.84
678.787	25246.72
679.135	25101.64
679.484	25041.3
679.832	25065.94
680.181	25047.18
680.529	25092.83
680.877	24913.4
681.225	24932.16
681.573	25026.62
681.922	24923.34
682.27	24860.74
682.618	24767.19
682.966	24713.86
683.314	24800.41
683.661	24723.8
684.009	24593.18
684.357	24445.16
684.705	24484.48
685.053	24481.55
685.4	24258.95
685.748	24335.79
686.095	24424.6
686.443	24082.91
686.79	24094.21
687.138	24057.15
687.485	24077.49
687.832	24046.08
688.18	23941.9
688.527	23755.91
688.874	23755.46
689.221	23749.59
689.568	23644.51
689.915	23525.64
690.262	23485.41
690.609	23507.33
690.956	23356.83
691.303	23425.75
691.65	23080.9
691.997	23106.21
692.344	22952.77
692.69	22995.03
693.037	22890.17
693.383	22670.07
693.73	22843.17
694.077	22666.68
694.423	22550.52
694.769	22482.95
695.116	22472.56
695.462	22298.33
695.808	22182.4
696.155	22158.67
696.501	22024.66
696.847	22069.18
697.193	21880.71
697.539	21838.23
697.885	21673.71
698.231	21636.2
698.577	21542.19
698.923	21569.08
699.269	21375.41
699.614	21244.79
699.96	21224.91
700.306	21221.07
700.651	21053.84
700.997	20951.02
701.342	20936.33
701.688	20845.71
702.033	20768.87
702.379	20672.38
702.724	20504.02
703.069	20616.79
703.415	20323.01
703.76	20358.49
704.105	20322.33
704.45	20260.41
704.795	20179.74
705.14	20079.18
705.485	20136.35
705.83	19981.78
706.175	19974.09
706.52	19887.99
706.865	19890.48
707.209	19773.42
707.554	19734.78
707.899	19670.15
708.243	19628.57
708.588	19578.17
708.932	19532.52
709.277	19472.19
709.621	19403.71
709.966	19379.31
710.31	19350.38
710.654	19220.89
710.998	19317.84
711.342	19226.09
711.687	19165.75
712.031	19184.28
712.375	19037.39
712.719	19052.54
713.063	19023.84
713.407	19013.21
713.75	18959.66
714.094	18995.81
714.438	18882.14
714.782	19012.76
715.125	18786.33
715.469	19003.95
715.812	18810.51
716.156	18732.32
716.499	18692.09
716.843	18750.17
717.186	18656.61
717.53	18731.19
717.873	18835.37
718.216	18757.18
718.559	18674.69
718.902	18540.01
719.246	18556.73
719.589	18543.4
719.932	18562.38
720.275	18666.78
720.617	18604.19
720.96	18587.69
721.303	18637.41
721.646	18653.45
721.989	18558.54
722.331	18640.12
722.674	18616.62
723.016	18634.24
723.359	18527.58
723.701	18563.74
724.044	18475.83
724.386	18436.28
724.729	18572.32
725.071	18610.74
725.413	18651.42
725.755	18547.46
726.097	18522.83
726.439	18544.3
726.782	18583.62
727.124	18587.69
727.465	18588.59
727.807	18497.3
728.149	18614.81
728.491	18540.01
728.833	18659.33
729.175	18594.24
729.516	18638.31
729.858	18625.43
730.199	18752.66
730.541	18670.85
730.882	18718.99
731.224	18733.9
731.565	18653.22
731.906	18738.42
732.248	18881.24
732.589	18730.51
732.93	18743.39
733.271	18791.3
733.612	18729.61
733.953	18945.42
734.294	18869.04
734.635	18778.87
734.976	18994.68
735.317	19003.27
735.658	19099.99
735.999	19058.64
736.339	19080.78
736.68	19167.56
737.021	19153.1
737.361	19141.57
737.702	19344.28
738.042	19317.84
738.383	19262.7
738.723	19524.61
739.063	19427.67
739.404	19638.28
739.744	19609.36
740.084	19621.11
740.424	19792.4
740.764	19819.97
741.104	19910.82
741.444	19901.33
741.784	19937.03
742.124	20193.3
742.464	20180.19
742.804	20294.99
743.143	20355.33
743.483	20434.87
743.823	20460.63
744.162	20627.86
744.502	20707.18
744.841	20826.73
745.181	21013.61
745.52	21064.91
745.86	21227.85
746.199	21340.39
746.538	21514.39
746.877	21715.97
747.216	21791.67
747.556	21892.24
747.895	22176.52
748.234	22192.79
748.573	22409.74
748.911	22530.86
749.25	22676.4
749.589	22856.73
749.928	23153.22
750.267	23462.36
750.605	23508.24
750.944	23697.61
751.283	23915.46
751.621	24197.71
751.96	24300.99
752.298	24513.64
752.636	24862.78
752.975	24918.37
753.313	25044.02
753.651	25478.58
753.989	25520.84
754.327	25830.66
754.666	25890.1
755.004	26276.75
755.342	26648.72
755.679	26714.03
756.017	26947.47
756.355	27232.66
756.693	27414.8
757.031	27783.61
757.368	27868.58
757.706	28069.25
758.044	28276.02
758.381	28635.33
758.719	28809.79
759.056	29038.94
759.394	29217.69
759.731	29351.7
760.068	29618.36
760.405	29832.37
760.743	30066.71
761.08	30309.41
761.417	30408.62
761.754	30696.75
762.091	30779.91
762.428	30802.51
762.765	31097.87
763.102	31411.53
763.438	31481.59
763.775	31515.94
764.112	31663.96
764.449	32016.26
764.785	32077.73
765.122	32268.01
765.458	32295.8
765.795	32413.31
766.131	32532.63
766.467	32719.07
766.804	32684.49
767.14	32750.25
767.476	32977.14
767.812	33045.39
768.148	33278.6
768.485	33227.08
768.821	33296.68
769.157	33272.73
769.492	33441.76
769.828	33546.39
770.164	33493.96
770.5	33554.53
770.836	33669.33
771.171	33669.1
771.507	33688.31
771.842	33500.97
772.178	33674.52
772.513	33733.05
772.849	33582.1
773.184	33754.3
773.519	33767.86
773.855	33722.66
774.19	33726.5
774.525	33600.18
774.86	33630.68
775.195	33714.98
775.53	33688.54
775.865	33616.67
776.2	33445.38
776.535	33258.72
776.87	33500.52
777.205	33370.13
777.539	33310.01
777.874	33367.87
778.209	33203.58
778.543	33308.21
778.878	33046.29
779.212	33185.27
779.547	33078.38
779.881	33125.84
780.215	32805.17
780.55	33069.57
780.884	32804.04
781.218	32694.66
781.552	32961.1
781.886	32652.63
782.22	32594.1
782.554	32496.48
782.888	32341.9
783.222	32336.25
783.556	32157.5
783.889	32057.39
784.223	32008.58
784.557	32096.94
784.89	32075.24
785.224	31942.82
785.557	31809.94
785.891	31681.36
786.224	31697.85
786.558	31640.45
786.891	31580.79
787.224	31367.24
787.557	31259.67
787.891	31395.49
788.224	31232.55
788.557	31149.17
788.89	31133.12
789.223	31100.58
789.556	30910.08
789.888	30858.33
790.221	30814.71
790.554	30573.36
790.887	30607.49
791.219	30520.48
791.552	30423.08
791.884	30410.43
792.217	30320.71
792.549	30222.19
792.882	29972.02
793.214	30026.03
793.546	29948.97
793.879	29896.54
794.211	29569.55
794.543	29822.2
794.875	29627.85
795.207	29650.68
795.539	29589.21
795.871	29532.94
796.203	29459.27
796.535	29271.93
796.867	29402.09
797.198	29123.23
797.53	29156.45
797.862	28918.94
798.193	28992.16
798.525	28924.82
798.856	29016.79
799.188	28674.88
799.519	28655
799.85	28485.73
800.182	28587.2
800.513	28554.66
800.844	28276.47
801.175	28447.99
801.506	28273.99
801.837	28241.22
802.168	28124.16
802.499	28214.55
802.83	27960.1
803.161	27840.55
803.491	27792.42
803.822	27945.41
804.153	27713.32
804.483	27561.92
804.814	27479.66
805.145	27521.47
805.475	27575.25
805.805	27367.12
806.136	27480.11
806.466	27261.59
806.796	27193.79
807.126	27019.78
807.457	27129.61
807.787	26972.33
808.117	26998.09
808.447	26888.71
808.777	26864.76
809.107	26768.94
809.436	26753.8
809.766	26631.77
810.096	26702.05
810.426	26541.38
810.755	26707.48
811.085	26552.68
811.414	26549.51
811.744	26233.82
812.073	26330.31
812.403	26233.59
812.732	26187.49
813.061	26350.87
813.39	26037.89
813.719	26022.3
814.049	26103.42
814.378	26160.37
814.707	25899.36
815.036	26063.42
815.365	25834.73
815.693	25639.93
816.022	25779.59
816.351	25672.02
816.68	25476.1
817.008	25599.03
817.337	25421.63
817.665	25434.74
817.994	25384.35
818.322	25505.47
818.651	25295.08
818.979	25209.66
819.307	25282.88
819.636	25250.79
819.964	25170.12
820.292	25252.37
820.62	25164.47
820.948	25278.13
821.276	25190
821.604	25214.18
821.932	25319.04
822.259	25214.86
822.587	25243.33
822.915	25179.38
823.243	25197.46
823.57	25157.69
823.898	25438.13
824.225	25209.44
824.553	25387.74
824.88	25337.79
825.207	25352.03
825.535	25312.94
825.862	25392.26
826.189	25274.97
826.516	25435.87
826.843	25479.49
827.17	25418.7
827.497	25501.41
827.824	25570.33
828.151	25462.76
828.478	25379.6
828.805	25507.06
829.131	25376.21
829.458	25513.38
829.785	25252.37
830.111	25313.61
830.438	25496.89
830.764	25482.42
831.09	25452.59
831.417	25365.36
831.743	25535.53
832.069	25392.71
832.395	25461.63
832.722	25484.23
833.048	25382.54
833.374	25398.36
833.7	25299.6
834.026	25491.24
834.351	25346.61
834.677	25428.87
835.003	25257.57
835.329	25316.1
835.654	25387.06
835.98	25149.1
836.306	25298.02
836.631	25281.52
836.956	25389.32
837.282	25330.56
837.607	25208.53
837.932	25109.33
838.258	25008.76
838.583	25109.78
838.908	25008.31
839.233	25139.83
839.558	24882.89
839.883	24851.48
840.208	24802.67
840.533	24934.87
840.858	24842.44
841.182	24837.02
841.507	24698.26
841.832	24659.17
842.156	24708.88
842.481	24802.67
842.805	24589.34
843.13	24581.43
843.454	24501.43
843.778	24459.17
844.103	24423.02
844.427	24297.14
844.751	24440.19
845.075	24330.36
845.399	24326.07
845.723	24216.92
846.047	24180.31
846.371	23949.13
846.695	23919.75
847.019	23747.1
847.343	23633.21
847.666	23650.38
847.99	23427.56
848.313	23346.21
848.637	23377.62
848.96	23328.36
849.284	23327.45
849.607	23176.27
849.931	23137.17
850.254	22953.45
850.577	22724.53
850.9	22656.96
851.223	22654.47
851.546	22681.37
851.869	22488.83
852.192	22629.84
852.515	22255.62
852.838	22166.13
853.161	22254.26
853.483	22168.39
853.806	22040.25
854.129	21979.69
854.451	22014.27
854.774	21776.98
855.096	21853.37
855.419	21586.25
855.741	21595.07
856.063	21472.59
856.385	21459.93
856.708	21457.67
857.03	21366.6
857.352	21376.77
857.674	21270.56
857.996	21130.45
858.318	21035.53
858.64	21177.9
858.961	21010
859.283	21036.89
859.605	20742.43
859.926	20883.9
860.248	20819.27
860.57	20709.89
860.891	20660.86
861.212	20680.74
861.534	20533.17
861.855	20531.59
862.176	20612.04
862.498	20470.35
862.819	20505.83
863.14	20417.7
863.461	20381.99
863.782	20250.24
864.103	20302.45
864.424	20151.26
864.745	20264.26
865.065	20064.71
865.386	20005.73
865.707	20166.63
866.027	20226.52
866.348	20083.92
866.668	20013.19
866.989	19960.99
867.309	19826.07
867.63	19865.62
867.95	19834.66
868.27	19767.77
868.59	19787.88
868.91	19630.6
869.23	19652.29
869.55	19640.99
869.87	19655.91
870.19	19536.59
870.51	19563.48
870.83	19571.17
871.15	19417.72
871.469	19406.65
871.789	19512.64
872.109	19399.19
872.428	19360.78
872.748	19398.29
873.067	19350.83
873.386	19493.65
873.706	19393.54
874.025	19208.24
874.344	19126.43
874.663	19258.41
874.982	19193.77
875.301	19199.88
875.62	19121.23
875.939	18918.98
876.258	19117.39
876.577	18899.32
876.896	18920.56
877.214	18916.95
877.533	18906.32
877.852	18912.65
878.17	18885.31
878.489	18897.06
878.807	18796.95
879.125	18794.92
879.444	18730.06
879.762	18643.96
880.08	18615.94
880.398	18592.89
880.716	18611.19
881.034	18462.04
881.352	18589.5
881.67	18473.12
881.988	18450.97
882.306	18383.85
882.624	18337.3
882.941	18247.59
883.259	18188.6
883.577	18188.83
883.894	18106.8
884.212	18138.44
884.529	18140.24
884.846	18045.33
885.164	18027.93
885.481	18033.58
885.798	17883.75
886.115	17822.74
886.432	17841.95
886.75	17788.61
887.067	17748.16
887.383	17641.27
887.7	17807.6
888.017	17608.28
888.334	17657.09
888.651	17568.06
888.967	17587.49
889.284	17450.32
889.6	17401.28
889.917	17311.56
890.233	17252.81
890.55	17185.24
890.866	17260.72
891.182	17241.51
891.498	17158.57
891.815	17044
892.131	16895.98
892.447	16834.74
892.763	16961.97
893.079	16865.02
893.395	16781.41
893.71	16654.18
894.026	16714.52
894.342	16709.09
894.657	16516.11
894.973	16442.66
895.289	16552.71
895.604	16441.53
895.92	16325.38
896.235	16270.46
896.55	16306.39
896.865	16253.29
897.181	16172.61
897.496	16146.85
897.811	16051.26
898.126	16023.01
898.441	15968.78
898.756	16031.82
899.071	15871.38
899.386	15778.27
899.7	15724.49
900.015	15691.49
900.33	15560.2
900.644	15541.67
900.959	15537.6
901.273	15484.72
901.588	15335.8
901.902	15384.16
902.216	15316.14
902.531	15247.89
902.845	15255.8
903.159	15068.23
903.473	15101.45
903.787	14938.52
904.101	14893.32
904.415	14968.58
904.729	14857.84
905.042	14763.38
905.356	14693.78
905.67	14739.88
905.984	14747.34
906.297	14610.39
906.611	14491.75
906.924	14516.16
907.237	14333.79
907.551	14410.17
907.864	14296.73
908.177	14307.8
908.491	14160.69
908.804	14147.13
909.117	14035.27
909.43	13924.76
909.743	14002.73
910.056	13894.93
910.368	13867.14
910.681	13760.92
910.994	13760.47
911.307	13679.12
911.619	13661.27
911.932	13677.99
912.244	13517.77
912.557	13424.21
912.869	13408.16
913.181	13292.01
913.494	13303.08
913.806	13229.19
914.118	13177.44
914.43	13056.99
914.742	13028.51
915.054	12966.59
915.366	12968.63
915.678	12875.07
915.99	12881.85
916.302	12719.14
916.613	12733.38
916.925	12752.36
917.236	12668.75
917.548	12544.68
917.859	12518.7
918.171	12455.65
918.482	12369.1
918.794	12339.72
919.105	12328.19
919.416	12236.22
919.727	12205.26
920.038	12145.82
920.349	12108.99
920.66	12049.78
920.971	12054.53
921.282	12032.83
921.593	11872.16
921.903	11813.63
922.214	11809.11
922.525	11720.98
922.835	11736.34
923.146	11670.58
923.456	11583.13
923.767	11603.01
924.077	11448.44
924.387	11540.64
924.697	11363.25
925.008	11345.85
925.318	11301.55
925.628	11290.48
925.938	11293.19
926.248	11168.9
926.558	11119.86
926.867	11054.78
927.177	11053.42
927.487	10984.95
927.796	10926.2
928.106	10963.03
928.416	10891.85
928.725	10801.45
929.034	10815.46
929.344	10769.59
929.653	10724.17
929.962	10640.33
930.271	10703.38
930.581	10538.41
930.89	10516.04
931.199	10473.78
931.508	10379.54
931.817	10369.37
932.125	10362.59
932.434	10306.1
932.743	10247.57
933.051	10144.52
933.36	10130.06
933.669	10067.24
933.977	10044.19
934.286	10019.33
934.594	9907.69
934.902	9954.02
935.21	9883.06
935.519	9868.14
935.827	9817.75
936.135	9752.22
936.443	9633.57
936.751	9625.66
937.059	9604.42
937.367	9550.41
937.674	9549.06
937.982	9506.57
938.29	9449.85
938.597	9476.06
938.905	9339.34
939.213	9371.66
939.52	9282.17
939.827	9329.63
940.135	9249.63
940.442	9140.48
940.749	9128.28
941.056	9142.74
941.363	9012.57
941.67	8999.24
941.977	9060.71
942.284	8930.09
942.591	8914.27
942.898	8907.04
943.205	8881.05
943.511	8794.73
943.818	8771.22
944.125	8724.22
944.431	8725.8
944.738	8624.11
945.044	8634.96
945.35	8572.13
945.657	8474.73
945.963	8536.65
946.269	8422.76
946.575	8462.31
946.881	8326.04
947.187	8334.85
947.493	8283.78
947.799	8272.48
948.105	8185.02
948.41	8147.74
948.716	8212.37
949.022	8157.68
949.327	8065.71
949.633	8013.73
949.938	8019.38
950.244	8035.2
950.549	7930.34
950.854	7834.75
951.16	7904.13
951.465	7798.37
951.77	7809.67
952.075	7679.73
952.38	7750.01
952.685	7731.48
952.99	7657.36
953.294	7620.29
953.599	7622.78
953.904	7561.09
954.209	7540.52
954.513	7505.49
954.818	7460.75
955.122	7496.23
955.426	7374.65
955.731	7361.77
956.035	7357.25
956.339	7311.6
956.643	7239.51
956.948	7224.82
957.252	7175.56
957.556	7146.18
957.86	7083.13
958.163	7111.61
958.467	7056.24
958.771	7111.83
959.075	7066.41
959.378	7022.57
959.682	7006.52
959.985	6921.33
960.289	6841.11
960.592	6852.63
960.896	6774.21
961.199	6795.91
961.502	6801.11
961.805	6758.17
962.108	6689.25
962.411	6641.56
962.714	6636.37
963.017	6629.59
963.32	6606.08
963.623	6568.8
963.926	6540.77
964.228	6526.09
964.531	6483.15
964.833	6482.24
965.136	6429.59
965.438	6406.31
965.741	6357.73
966.043	6338.52
966.345	6249.26
966.648	6282.25
966.95	6277.05
967.252	6177.17
967.554	6215.13
967.856	6110.96
968.158	6115.47
968.46	6125.64
968.761	6063.95
969.063	6048.13
969.365	6025.31
969.666	5972.65
969.968	5941.69
970.269	5923.62
970.571	5920
970.872	5841.13
971.174	5858.08
971.475	5786.67
971.776	5807.91
972.077	5778.31
972.378	5730.17
972.679	5744.64
972.98	5721.59
973.281	5717.75
973.582	5654.92
973.883	5630.29
974.183	5648.82
974.484	5581.03
974.785	5529.5
975.085	5537.41
975.386	5501.71
975.686	5485.89
975.986	5427.58
976.287	5427.13
976.587	5393.91
976.887	5358.43
977.187	5374.03
977.487	5312.11
977.787	5277.53
978.087	5277.53
978.387	5230.3
978.687	5223.97
978.987	5185.33
979.286	5155.05
979.586	5144.43
979.885	5148.95
980.185	5119.12
980.484	5076.86
980.784	5038.21
981.083	5056.29
981.382	5056.97
981.682	4979.46
981.981	5034.15
982.28	4955.05
982.579	4927.26
982.878	4943.08
983.177	4880.48
983.475	4877.09
983.774	4792.8
984.073	4789.86
984.372	4798
984.67	4786.92
984.969	4739.24
985.267	4780.14
985.566	4687.26
985.864	4660.37
986.162	4661.05
986.461	4645.46
986.759	4653.14
987.057	4523.43
987.355	4567.94
987.653	4533.14
987.951	4526.82
988.249	4521.39
988.547	4462.18
988.844	4455.18
989.142	4442.52
989.44	4443.88
989.737	4316.2
990.035	4342.41
990.332	4299.25
990.63	4333.6
990.927	4286.82
991.224	4271.91
991.521	4241.63
991.819	4234.17
992.116	4233.72
992.413	4220.16
992.71	4161.85
993.006	4175.86
993.303	4161.18
993.6	4169.99
993.897	4141.97
994.193	4118.01
994.49	4080.5
994.787	4055.87
995.083	4026.04
995.379	4044.79
995.676	3967.96
995.972	3941.75
996.268	3926.83
996.565	3906.04
996.861	3901.3
997.157	3888.41
997.453	3842.99
997.749	3861.75
998.044	3797.12
998.34	3779.49
998.636	3772.71
998.932	3741.07
999.227	3730
999.523	3701.08
999.818	3725.26
1000.114	3662.66
1000.409	3667.63
1000.704	3628.99
1001	3606.16
1001.295	3603.22
1001.59	3579.72
1001.885	3567.75
1002.18	3475.77
1002.475	3478.48
1002.77	3463.79
1003.065	3432.61
1003.359	3445.04
1003.654	3417.69
1003.949	3408.43
1004.243	3344.25
1004.538	3371.59
1004.832	3352.38
1005.127	3324.59
1005.421	3238.26
1005.715	3291.37
1006.009	3276.91
1006.304	3227.87
1006.598	3216.57
1006.892	3238.26
1007.186	3175.89
1007.48	3169.56
1007.773	3148.55
1008.067	3154.65
1008.361	3115.33
1008.655	3122.11
1008.948	3086.4
1009.242	3063.35
1009.535	3052.73
1009.829	2994.65
1010.122	2945.84
1010.415	2993.07
1010.708	3007.31
1011.001	2929.12
1011.295	2908.78
1011.588	2932.06
1011.881	2882.57
1012.173	2865.84
1012.466	2850.7
1012.759	2823.36
1013.052	2818.61
1013.344	2794.21
1013.637	2752.4
1013.93	2758.73
1014.222	2731.38
1014.514	2718.95
1014.807	2711.72
1015.099	2697.03
1015.391	2654.77
1015.683	2657.94
1015.976	2636.92
1016.268	2606.41
1016.56	2596.47
1016.851	2587.43
1017.143	2543.14
1017.435	2556.7
1017.727	2547.43
1018.018	2491.84
1018.31	2483.48
1018.602	2485.74
1018.893	2461.79
1019.185	2462.69
1019.476	2417.72
1019.767	2431.96
1020.058	2404.84
1020.35	2387.89
1020.641	2356.48
1020.932	2324.39
1021.223	2324.84
1021.514	2285.97
1021.804	2312.18
1022.095	2291.39
1022.386	2309.47
1022.677	2261.11
1022.967	2228.12
1023.258	2198.06
1023.548	2218.63
1023.839	2166.2
1024.129	2146.54
1024.419	2154.67
1024.709	2149.48
1025	2143.83
1025.29	2091.4
1025.58	2113.32
1025.87	2073.32
1026.16	2046.43
1026.449	2048.24
1026.739	2051.85
1027.029	2026.09
1027.319	2028.35
1027.608	1983.83
1027.898	1975.92
1028.187	1977.73
1028.477	1940.67
1028.766	1923.49
1029.055	1928.47
1029.344	1921.69
1029.634	1879.43
1029.923	1898.18
1030.212	1860.67
1030.501	1857.06
1030.79	1817.51
1031.078	1826.77
1031.367	1808.24
1031.656	1784.74
1031.945	1775.25
1032.233	1794.23
1032.522	1771.86
1032.81	1742.26
1033.099	1729.38
1033.387	1730.96
1033.675	1716.95
1033.963	1685.53
1034.251	1727.34
1034.54	1686.66
1034.828	1651.19
1035.116	1632.43
1035.403	1645.54
1035.691	1633.78
1035.979	1605.08
1036.267	1624.75
1036.554	1604.86
1036.842	1573.9
1037.129	1560.79
1037.417	1556.5
1037.704	1549.27
1037.992	1546.78
1038.279	1524.41
1038.566	1523.51
1038.853	1523.51
1039.14	1523.51
