Data from 18-5621_FLMS001491_007.txt Node
Date: Thu Apr 19 15:15:31 BST 2018
User: hsy
Spectrometer: FLMS00149
Trigger mode: 0
Integration Time (sec): 1.000000E-2
Scans to average: 10
Electric dark correction enabled: true
Nonlinearity correction enabled: false
Boxcar width: 0
XAxis mode: Wavelengths
Number of Pixels in Spectrum: 2048
>>>>>Begin Spectral Data<<<<<
341.393	-15.68
341.776	-15.68
342.16	-15.68
342.543	-50.03
342.927	-72.85
343.31	-71.27
343.693	-74.66
344.077	-63.81
344.46	-54.32
344.843	-64.26
345.226	-33.3
345.61	-27.43
345.993	-12.74
346.376	-14.32
346.759	5.34
347.142	35.85
347.525	40.82
347.908	46.02
348.291	73.13
348.674	93.02
349.057	121.95
349.44	137.09
349.823	138.22
350.206	188.16
350.588	221.15
350.971	232.9
351.354	256.86
351.737	273.58
352.119	285.56
352.502	285.78
352.884	300.02
353.267	297.99
353.65	326.69
354.032	334.37
354.414	338.21
354.797	349.51
355.179	337.99
355.562	359.23
355.944	365.78
356.326	365.33
356.709	369.62
357.091	354.71
357.473	372.11
357.855	383.18
358.238	373.92
358.62	387.7
359.002	369.4
359.384	392.22
359.766	385.22
360.148	371.66
360.53	359.23
360.912	384.31
361.294	380.02
361.676	382.73
362.057	362.39
362.439	376.63
362.821	377.98
363.203	371.43
363.584	365.78
363.966	370.53
364.348	377.08
364.729	370.53
365.111	362.62
365.493	396.29
365.874	376.63
366.256	354.03
366.637	368.27
367.019	352.9
367.4	352
367.781	354.26
368.163	378.21
368.544	363.07
368.925	369.4
369.306	365.33
369.688	371.88
370.069	355.84
370.45	370.08
370.831	377.31
371.212	356.97
371.593	371.66
371.974	361.71
372.355	370.08
372.736	376.4
373.117	383.18
373.498	376.85
373.879	386.35
374.26	384.09
374.641	356.29
375.021	386.12
375.402	400.36
375.783	396.74
376.163	393.8
376.544	401.94
376.925	388.15
377.305	384.09
377.686	373.24
378.066	400.36
378.447	395.61
378.827	390.87
379.208	399.68
379.588	411.66
379.968	422.95
380.349	429.28
380.729	398.32
381.109	429.28
381.489	434.71
381.87	417.31
382.25	425.89
382.63	414.14
383.01	419.34
383.39	446.01
383.77	420.47
384.15	429.28
384.53	429.96
384.91	433.8
385.29	451.2
385.67	446.91
386.049	432.45
386.429	443.52
386.809	459.11
387.189	452.11
387.568	450.52
387.948	445.1
388.328	453.91
388.707	478.09
389.087	449.62
389.466	475.16
389.846	471.54
390.225	479.68
390.605	501.6
390.984	477.19
391.363	488.49
391.743	511.54
392.122	507.7
392.501	483.29
392.881	533.69
393.26	522.39
393.639	508.83
394.018	520.58
394.397	520.81
394.776	548.38
395.155	531.2
395.534	529.17
395.913	536.4
396.292	517.64
396.671	541.14
397.05	553.8
397.429	549.28
397.808	561.48
398.186	563.06
398.565	588.83
398.944	567.58
399.323	555.38
399.701	569.84
400.08	568.71
400.458	573.01
400.837	593.35
401.215	617.53
401.594	601.48
401.972	588.37
402.351	598.54
402.729	615.04
403.107	623.18
403.486	612.78
403.864	616.85
404.242	620.01
404.62	645.1
404.999	637.19
405.377	639.45
405.755	635.6
406.133	644.64
406.511	676.51
406.889	680.12
407.267	673.34
407.645	713.79
408.023	683.97
408.401	671.99
408.779	693.91
409.156	714.7
409.534	695.72
409.912	703.4
410.29	739.1
410.667	751.76
411.045	769.39
411.422	746.34
411.8	767.35
412.178	780.23
412.555	796.5
412.933	804.87
413.31	813.23
413.687	835.37
414.065	811.42
414.442	833.79
414.819	855.71
415.197	859.1
415.574	864.07
415.951	862.72
416.328	899.33
416.705	894.13
417.082	912.21
417.46	910.4
417.837	919.21
418.214	911.3
418.591	929.38
418.967	901.81
419.344	930.29
419.721	926.22
420.098	950.85
420.475	987.69
420.852	973.22
421.228	936.16
421.605	974.58
421.982	989.04
422.358	1001.02
422.735	989.72
423.111	1011.19
423.488	1024.97
423.864	1027.46
424.241	1045.76
424.617	1048.7
424.994	1053.45
425.37	1071.98
425.746	1087.8
426.123	1107.68
426.499	1100.68
426.875	1111.07
427.251	1119.89
427.627	1156.27
428.003	1155.37
428.379	1166.44
428.756	1172.09
429.132	1195.14
429.507	1199.88
429.883	1230.84
430.259	1250.28
430.635	1264.97
431.011	1250.05
431.387	1274.23
431.763	1307.68
432.138	1326.43
432.514	1328.24
432.89	1338.64
433.265	1346.77
433.641	1379.09
434.016	1382.93
434.392	1416.15
434.767	1422.25
435.143	1414.12
435.518	1431.97
435.894	1501.57
436.269	1472.64
436.644	1506.09
437.02	1526.43
437.395	1522.36
437.77	1545.41
438.145	1538.18
438.52	1566.2
438.895	1576.14
439.271	1589.93
439.646	1618.18
440.021	1605.75
440.395	1643.49
440.77	1628.35
441.145	1645.52
441.52	1687.33
441.895	1673.54
442.27	1699.98
442.645	1691.17
443.019	1742.24
443.394	1723.94
443.769	1728.01
444.143	1732.3
444.518	1795.12
444.892	1770.94
445.267	1770.94
445.641	1780.89
446.016	1796.25
446.39	1831.05
446.764	1823.37
447.139	1826.53
447.513	1787.89
447.887	1855.46
448.262	1877.83
448.636	1874.22
449.01	1903.14
449.384	1923.25
449.758	1950.37
450.132	1941.79
450.506	1969.58
450.88	1942.46
451.254	1998.73
451.628	2046.64
452.002	2058.17
452.376	2054.78
452.75	2082.57
453.123	2113.98
453.497	2116.47
453.871	2121.89
454.244	2174.55
454.618	2186.75
454.992	2236.01
455.365	2213.42
455.739	2298.61
456.112	2255.45
456.486	2337.03
456.859	2338.16
457.232	2379.51
457.606	2413.41
457.979	2442.34
458.352	2459.06
458.725	2465.84
459.099	2512.84
459.472	2539.74
459.845	2634.42
460.218	2606.63
460.591	2671.26
460.964	2646.63
461.337	2700.86
461.71	2732.05
462.083	2759.84
462.456	2775.21
462.829	2789.45
463.201	2839.61
463.574	2832.16
463.947	2906.96
464.32	2918.93
464.692	2935.88
465.065	3005.49
465.438	3035.77
465.81	3064.02
466.183	3072.38
466.555	3162.09
466.928	3180.17
467.3	3132.26
467.672	3229.21
468.045	3271.92
468.417	3278.02
468.789	3324.35
469.161	3333.39
469.534	3433.95
469.906	3475.08
470.278	3457
470.65	3543.78
471.022	3563.89
471.394	3630.55
471.766	3622.19
472.138	3732.47
472.51	3783.32
472.882	3852.92
473.253	3862.64
473.625	3929.3
473.997	4028.28
474.369	4026.25
474.74	4110.99
475.112	4164.55
475.484	4198.22
475.855	4309.86
476.227	4360.7
476.598	4435.96
476.97	4465.79
477.341	4591.66
477.713	4623.3
478.084	4652.9
478.455	4813.8
478.827	4799.56
479.198	4958.43
479.569	4988.48
479.94	5112.1
480.311	5150.74
480.682	5339.66
481.053	5396.38
481.424	5452.2
481.795	5571.52
482.166	5695.81
482.537	5717.96
482.908	5795.7
483.279	5941.91
483.65	6034.56
484.021	6191.16
484.391	6229.58
484.762	6327.21
485.133	6381.89
485.503	6470.03
485.874	6612.62
486.244	6723.13
486.615	6910.47
486.985	6931.94
487.356	7068.88
487.726	7147.3
488.097	7314.53
488.467	7355.65
488.837	7578.7
489.207	7598.13
489.578	7812.37
489.948	7907.73
490.318	8055.75
490.688	8107.95
491.058	8317.66
491.428	8370.77
491.798	8432.24
492.168	8600.59
492.538	8763.98
492.908	8901.83
493.278	8997.87
493.648	9011.88
494.017	9226.79
494.387	9271.76
494.757	9394.47
495.126	9532.77
495.496	9533.9
495.866	9730.96
496.235	9786.32
496.605	9972.53
496.974	10051.18
497.344	10149.25
497.713	10230.15
498.082	10313.54
498.452	10405.97
498.821	10570.71
499.19	10579.75
499.559	10712.18
499.928	10815.9
500.298	10851.38
500.667	11096.35
501.036	11043.92
501.405	11188.1
501.774	11189.23
502.143	11384.7
502.512	11453.85
502.88	11646.16
503.249	11558.26
503.618	11708.76
503.987	11784.01
504.356	11911.69
504.724	11995.98
505.093	12054.29
505.462	12170.22
505.83	12247.5
506.199	12381.06
506.567	12517.78
506.936	12532.92
507.304	12714.38
507.672	12670.32
508.041	12760.71
508.409	12951.21
508.777	13016.75
509.145	13135.39
509.514	13115.28
509.882	13261.49
510.25	13280.24
510.618	13470.07
510.986	13458.32
511.354	13534.7
511.722	13713.23
512.09	13804.07
512.458	13763.4
512.826	13966.1
513.193	13964.07
513.561	14029.15
513.929	14139.2
514.297	14283.61
514.664	14416.94
515.032	14503.49
515.4	14484.51
515.767	14593.43
516.135	14616.71
516.502	14653.77
516.869	14916.59
517.237	15016.7
517.604	14845.85
517.972	15177.37
518.339	15149.8
518.706	15305.95
519.073	15308.44
519.44	15357.03
519.808	15506.17
520.175	15549.11
520.542	15799.95
520.909	15817.35
521.276	15871.36
521.643	16076.55
522.009	16181.86
522.376	16274.06
522.743	16340.05
523.11	16547.05
523.477	16660.72
523.843	16736.2
524.21	17007.83
524.577	17043.53
524.943	17182.51
525.31	17176.64
525.676	17391.32
526.043	17544.09
526.409	17456.18
526.776	17774.59
527.142	17897.98
527.508	17898.2
527.874	18036.73
528.241	18097.07
528.607	18176.39
528.973	18407.57
529.339	18347.23
529.705	18633.78
530.071	18770.04
530.437	18805.07
530.803	18886.42
531.169	18967.33
531.535	18973.88
531.901	18998.29
532.267	19149.24
532.632	19284.15
532.998	19312.85
533.364	19410.93
533.73	19451.61
534.095	19508.33
534.461	19648.66
534.826	19775.44
535.192	19690.92
535.557	19873.52
535.923	19904.7
536.288	20005.72
536.653	20071.7
537.019	20036.45
537.384	20035.55
537.749	20190.34
538.114	20234.64
538.479	20306.95
538.845	20289.78
539.21	20208.65
539.575	20417.91
539.94	20367.29
540.305	20456.78
540.67	20417.91
541.034	20388.31
541.399	20453.39
541.764	20499.72
542.129	20728.86
542.494	20729.99
542.858	20666.94
543.223	20648.64
543.587	20691.8
543.952	20700.61
544.316	20675.98
544.681	20640.73
545.045	20799.37
545.41	20880.95
545.774	20832.36
546.138	20817
546.503	20902.42
546.867	20923.88
547.231	21010.89
547.595	21140.15
547.959	21070.1
548.324	21119.59
548.688	21077.1
549.052	21042.53
549.416	21006.82
549.779	21095.63
550.143	21181.73
550.507	21214.5
550.871	21279.58
551.235	21178.57
551.599	21385.57
551.962	21310.54
552.326	21377.88
552.689	21407.94
553.053	21300.6
553.417	21273.03
553.78	21535.39
554.143	21593.25
554.507	21622.85
554.87	21577.65
555.234	21733.36
555.597	21692.68
555.96	21716.86
556.323	21835.27
556.686	21820.36
557.05	21903.29
557.413	21919.79
557.776	22007.7
558.139	22124.76
558.502	22082.05
558.865	22068.26
559.228	22364.3
559.59	22278.65
559.953	22338.76
560.316	22463.73
560.679	22588.25
561.041	22696.49
561.404	22834.34
561.767	22929.71
562.129	22870.73
562.492	23059.42
562.854	23131.06
563.217	23151.62
563.579	23205.18
563.941	23378.06
564.304	23505.29
564.666	23654.89
565.028	23749.35
565.39	23888.33
565.753	24058.49
566.115	24065.95
566.477	24115.21
566.839	24314.08
567.201	24573.96
567.563	24493.06
567.925	24706.61
568.287	24803.1
568.648	24797.68
569.01	25054.62
569.372	25312.47
569.734	25271.57
570.095	25439.7
570.457	25639.24
570.819	25732.57
571.18	25806.24
571.542	26039.91
571.903	26099.57
572.265	26290.3
572.626	26403.51
572.987	26417.75
573.349	26662.27
573.71	26808.93
574.071	26986.78
574.432	27151.07
574.794	27279.2
575.155	27347.22
575.516	27244.62
575.877	27528.68
576.238	27653.2
576.599	27818.62
576.96	27895
577.32	27975.9
577.681	28090.48
578.042	28193.3
578.403	28306.74
578.763	28309.45
579.124	28379.96
579.485	28596.68
579.845	28653.85
580.206	28572.5
580.566	28535.21
580.927	28673.29
581.287	28694.98
581.648	28747.86
582.008	28999.15
582.368	29035.99
582.728	29120.96
583.089	29067.17
583.449	29077.34
583.809	29054.29
584.169	29253.61
584.529	29194.85
584.889	29433.72
585.249	29210.67
585.609	29134.06
585.969	29338.13
586.329	29282.54
586.688	29425.13
587.048	29432.59
587.408	29463.1
587.768	29411.8
588.127	29366.15
588.487	29315.98
588.846	29577.22
589.206	29368.86
589.565	29399.82
589.925	29616.09
590.284	29421.51
590.643	29464.45
591.003	29527.73
591.362	29625.8
591.721	29608.63
592.08	29606.37
592.44	29647.27
592.799	29626.71
593.158	29770.21
593.517	29701.73
593.876	29703.99
594.235	29649.53
594.593	29558.23
594.952	29686.14
595.311	29681.39
595.67	29831
596.029	29874.16
596.387	29943.08
596.746	29892.24
597.104	29812.69
597.463	29749.64
597.822	29933.82
598.18	29966.58
598.538	29854.27
598.897	30092.23
599.255	29814.5
599.613	30297.2
599.972	29936.53
600.33	29940.82
600.688	29975.85
601.046	29949.41
601.404	30033.48
601.762	30181.95
602.12	30163.87
602.478	30339
602.836	30149.18
603.194	29978.34
603.552	30228.27
603.91	30219.91
604.268	30239.8
604.625	30252.68
604.983	30453.13
605.341	30106.92
605.698	30414.26
606.056	30577.19
606.413	30310.08
606.771	30551.88
607.128	30472.79
607.485	30397.53
607.843	30376.07
608.2	30540.58
608.557	30600.92
608.914	30390.98
609.272	30676.85
609.629	30877.97
609.986	30887.69
610.343	30851.76
610.7	30970.4
611.057	30914.81
611.414	30900.12
611.771	31101.47
612.127	31023.28
612.484	31108.48
612.841	31241.35
613.198	31061.02
613.554	30993.9
613.911	31290.84
614.267	31240.68
614.624	31240.68
614.98	31351.18
615.337	31516.83
615.693	31416.72
616.05	31399.09
616.406	31563.61
616.762	31506.66
617.118	31646.09
617.475	31503.49
617.831	31664.85
618.187	31629.14
618.543	31753.66
618.899	31860.09
619.255	31887.21
619.611	31786.42
619.967	31810.38
620.323	31969.02
620.678	31899.64
621.034	31721.12
621.39	31762.24
621.746	31898.29
622.101	32291.5
622.457	31743.04
622.812	31998.62
623.168	32170.59
623.523	32185.74
623.879	32242.91
624.234	32007.66
624.589	32052.18
624.945	32096.7
625.3	32089.69
625.655	32201.78
626.01	32052.86
626.365	32083.59
626.72	32162.01
627.075	32039.07
627.43	32183.93
627.785	31953.2
628.14	32114.1
628.495	32194.32
628.85	32206.53
629.205	32065.06
629.559	32082.91
629.914	31992.52
630.269	32049.24
630.623	31841.11
630.978	31759.53
631.332	32002.24
631.687	32118.84
632.041	31842.24
632.396	31839.53
632.75	31838.17
633.104	31800.21
633.459	31670.72
633.813	31665.3
634.167	31683.15
634.521	31673.88
634.875	31646.99
635.229	31493.1
635.583	31574.45
635.937	31429.37
636.291	31531.52
636.645	31515.47
636.999	31320.22
637.352	31409.71
637.706	31256.49
638.06	31394.12
638.413	31305.98
638.767	31174.69
639.121	31326.32
639.474	31037.29
639.828	31155.48
640.181	31182.15
640.534	31198.42
640.888	31023.05
641.241	30752.1
641.594	30912.1
641.947	30960.23
642.301	30894.24
642.654	30905.32
643.007	30851.53
643.36	30996.84
643.713	30907.58
644.066	31103.96
644.419	30938.31
644.771	30433.47
645.124	30305.56
645.477	30202.74
645.83	30094.94
646.182	30002.29
646.535	30048.62
646.888	30198.22
647.24	30094.49
647.593	30320.93
647.945	30219.01
648.298	30044.32
648.65	29916.19
649.002	29648.4
649.355	29540.83
649.707	29381.06
650.059	29472.59
650.411	29888.62
650.763	30129.29
651.115	30544.87
651.467	30534.03
651.819	30656.74
652.171	30543.29
652.523	30327.48
652.875	30444.76
653.227	30363.41
653.578	30563.41
653.93	30534.48
654.282	30385.33
654.633	30363.41
654.985	30492.45
655.337	30399.57
655.688	30526.34
656.039	30626.23
656.391	30342.62
656.742	30413.58
657.094	30491.09
657.445	30410.64
657.796	30484.76
658.147	30588.94
658.498	30545.55
658.849	30504.88
659.2	30485.67
659.551	30394.82
659.902	30664.42
660.253	30618.55
660.604	30648.37
660.955	30699
661.306	30780.35
661.656	30517.08
662.007	30739.9
662.358	30645.89
662.708	30672.78
663.059	30722.27
663.409	30540.58
663.76	30805.21
664.11	30787.13
664.461	30818.99
664.811	30699.9
665.161	30731.76
665.511	30634.14
665.862	30808.6
666.212	30757.98
666.562	30840.23
666.912	30646.79
667.262	30675.72
667.612	30646.57
667.962	30802.95
668.312	30843.17
668.662	30820.8
669.011	30858.54
669.361	30742.16
669.711	30796.85
670.06	30623.29
670.41	30677.07
670.76	30570.18
671.109	30791.65
671.459	30629.39
671.808	30520.24
672.157	30636.17
672.507	30450.87
672.856	30412.22
673.205	30606.79
673.554	30555.95
673.904	30454.93
674.253	30831.42
674.602	30558.89
674.951	30136.3
675.3	29901.05
675.649	30428.04
675.998	30405.44
676.346	30462.84
676.695	30418.32
677.044	30279.35
677.393	30313.92
677.741	30335.39
678.09	30261.49
678.438	30225.11
678.787	30252.23
679.135	30311.89
679.484	30058.79
679.832	30111.44
680.181	30010.2
680.529	30162.51
680.877	29937.89
681.225	29945.79
681.573	30119.35
681.922	29886.36
682.27	29813.82
682.618	29715.52
682.966	29897.43
683.314	29780.38
683.661	29681.85
684.009	29548.74
684.357	29433.72
684.705	29360.73
685.053	29435.07
685.4	29248.41
685.748	29222.2
686.095	29219.03
686.443	28971.13
686.79	28935.2
687.138	29026.27
687.485	29001.19
687.832	28880.96
688.18	28826.73
688.527	28776.79
688.874	28701.99
689.221	28506.28
689.568	28414.76
689.915	28332.05
690.262	28326.4
690.609	28231.04
690.956	28144.03
691.303	28083.24
691.65	27908.79
691.997	27810.48
692.344	27749.69
692.69	27718.51
693.037	27642.8
693.383	27345.64
693.73	27323.26
694.077	27117.85
694.423	27128.47
694.769	26996.72
695.116	27028.36
695.462	26874.46
695.808	26814.13
696.155	26900.45
696.501	26509.27
696.847	26569.39
697.193	26389.5
697.539	26387.47
697.885	26264.31
698.231	26177.76
698.577	26067.7
698.923	26022.06
699.269	25773.02
699.614	25773.47
699.96	25680.37
700.306	25636.98
700.651	25489.64
700.997	25385.69
701.342	25297.33
701.688	25234.51
702.033	25094.85
702.379	25126.03
702.724	24937.34
703.069	25006.04
703.415	24713.16
703.76	24655.76
704.105	24729.43
704.45	24487.86
704.795	24474.75
705.14	24242.44
705.485	24346.17
705.83	24121.77
706.175	24316.56
706.52	24126.51
706.865	24053.97
707.209	23901.89
707.554	23900.08
707.899	23900.08
708.243	23772.17
708.588	23676.81
708.932	23584.83
709.277	23632.74
709.621	23527.43
709.966	23434.55
710.31	23348.91
710.654	23361.56
710.998	23436.14
711.342	23183.26
711.687	23157.95
712.031	23181.23
712.375	23051.96
712.719	23057.39
713.063	22971.06
713.407	23077.05
713.75	22814.91
714.094	22869.6
714.438	22790.95
714.782	22863.49
715.125	22744.4
715.469	22900.1
715.812	22639.09
716.156	22595.25
716.499	22620.34
716.843	22680.9
717.186	22449.49
717.53	22751.41
717.873	22669.38
718.216	22559.1
718.559	22482.04
718.902	22316.62
719.246	22425.99
719.589	22351.19
719.932	22327.46
720.275	22384.86
720.617	22306.45
720.96	22374.47
721.303	22295.37
721.646	22381.7
721.989	22188.03
722.331	22301.25
722.674	22269.39
723.016	22245.21
723.359	22205.89
723.701	22234.58
724.044	22193.91
724.386	22034.14
724.729	22191.87
725.071	22185.32
725.413	22258.77
725.755	22251.99
726.097	22039.34
726.439	22135.38
726.782	22026.45
727.124	22204.53
727.465	22269.39
727.807	22203.4
728.149	22250.4
728.491	22230.97
728.833	22281.14
729.175	22271.42
729.516	22221.7
729.858	22221.93
730.199	22309.84
730.541	22215.38
730.882	22160.91
731.224	22291.98
731.565	22256.05
731.906	22249.95
732.248	22213.57
732.589	22328.14
732.93	22359.78
733.271	22342.6
733.612	22353.9
733.953	22487.23
734.294	22316.39
734.635	22404.75
734.976	22441.81
735.317	22404.75
735.658	22416.05
735.999	22476.39
736.339	22575.37
736.68	22581.92
737.021	22599.1
737.361	22497.63
737.702	22702.82
738.042	22732.65
738.383	22908.92
738.723	22902.36
739.063	22867.34
739.404	23044.96
739.744	22893.32
740.084	22946.2
740.424	23144.39
740.764	23079.53
741.104	23263.71
741.444	23171.51
741.784	23245.63
742.124	23502.57
742.464	23393.65
742.804	23494.89
743.143	23572.85
743.483	23719.07
743.823	23689.24
744.162	23751.83
744.502	23922
744.841	23857.14
745.181	24115.44
745.52	24117.7
745.86	24277.47
746.199	24324.7
746.538	24593.84
746.877	24728.98
747.216	24792.71
747.556	24881.52
747.895	25047.62
748.234	25114.96
748.573	25250.78
748.911	25282.19
749.25	25483.54
749.589	25594.72
749.928	25726.24
750.267	26067.48
750.605	26053.92
750.944	26331.2
751.283	26296.4
751.621	26628.59
751.96	26744.3
752.298	26844.86
752.636	27115.59
752.975	27226.09
753.313	27208.92
753.651	27524.39
753.989	27683.26
754.327	27967.77
754.666	27906.53
755.004	28199.4
755.342	28520.07
755.679	28606.85
756.017	28584.25
756.355	28872.15
756.693	29015.65
757.031	29293.38
757.368	29265.13
757.706	29646.37
758.044	29607.95
758.381	29882.97
758.719	29949.86
759.056	30241.38
759.394	30416.97
759.731	30405.44
760.068	30409.06
760.405	30676.85
760.743	30829.39
761.08	30983.96
761.417	31105.99
761.754	31221.02
762.091	31294.01
762.428	31357.96
762.765	31433.89
763.102	31603.15
763.438	31637.5
763.775	31611.51
764.112	31825.97
764.449	31897.61
764.785	32060.54
765.122	32023.03
765.458	32053.08
765.795	32187.77
766.131	32357.03
766.467	32369.23
766.804	32200.65
767.14	32383.02
767.476	32321.55
767.812	32428.22
768.148	32515.9
768.485	32531.26
768.821	32413.98
769.157	32448.33
769.492	32483.35
769.828	32510.25
770.164	32323.36
770.5	32332.4
770.836	32503.92
771.171	32472.51
771.507	32419.63
771.842	32424.83
772.178	32408.1
772.513	32320.65
772.849	32302.12
773.184	32307.77
773.519	32306.64
773.855	32311.83
774.19	32296.02
774.525	32186.64
774.86	32221.44
775.195	32257.15
775.53	32034.55
775.865	31962.24
776.2	31775.8
776.535	31739.19
776.87	31907.55
777.205	31547.33
777.539	31650.61
777.874	31583.04
778.209	31348.92
778.543	31494.91
778.878	31381.46
779.212	31290.17
779.547	31160.68
779.881	31136.5
780.215	31021.92
780.55	31211.98
780.884	30920.01
781.218	30896.73
781.552	30960.68
781.886	30761.59
782.22	30735.6
782.554	30592.78
782.888	30244.54
783.222	30394.14
783.556	30195.51
783.889	30185.34
784.223	30005.68
784.557	29976.08
784.89	30120.03
785.224	29965.46
785.557	29697.89
785.891	29664.67
786.224	29673.03
786.558	29541.06
786.891	29478.01
787.224	29385.13
787.557	29234.4
787.891	29261.97
788.224	29084.57
788.557	29020.4
788.89	29108.53
789.223	28933.84
789.556	28762.1
789.888	28720.29
790.221	28600.97
790.554	28494.08
790.887	28681.87
791.219	28288.66
791.552	28296.12
791.884	28279.85
792.217	28178.16
792.549	28012.51
792.882	27846.87
793.214	27873.08
793.546	27829.92
793.879	27633.31
794.211	27469.25
794.543	27579.53
794.875	27504.28
795.207	27444.84
795.539	27474.22
795.871	27521.9
796.203	27328.91
796.535	27107.45
796.867	27055.02
797.198	26925.53
797.53	26907.23
797.862	26776.84
798.193	26820.68
798.525	26653.45
798.856	26676.05
799.188	26368.04
799.519	26298.43
799.85	26201.71
800.182	26208.72
800.513	26357.41
800.844	25916.75
801.175	26159.68
801.506	26104.54
801.837	25855.73
802.168	25954.49
802.499	25797.88
802.83	25718.34
803.161	25555.18
803.491	25671.56
803.822	25799.91
804.153	25558.79
804.483	25354.73
804.814	25203.55
805.145	25249.42
805.475	25251.91
805.805	25178.46
806.136	25265.47
806.466	25061.86
806.796	25088.52
807.126	24919.03
807.457	24965.13
807.787	24811.47
808.117	24699.38
808.447	24604.47
808.777	24627.06
809.107	24606.95
809.436	24408.54
809.766	24438.14
810.096	24549.1
810.426	24350.46
810.755	24437.69
811.085	24278.15
811.414	24386.84
811.744	24224.59
812.073	24277.24
812.403	24085.16
812.732	23986.18
813.061	24140.3
813.39	23913.41
813.719	23924.71
814.049	23998.61
814.378	23888.55
814.707	23755
815.036	23819.18
815.365	23667.77
815.693	23462.12
816.022	23469.81
816.351	23381
816.68	23371.96
817.008	23450.82
817.337	23138.06
817.665	23275.69
817.994	23177.84
818.322	23184.39
818.651	23211.51
818.979	23105.3
819.307	23190.94
819.636	23068.69
819.964	23008.12
820.292	23051.74
820.62	22945.07
820.948	23012.87
821.276	23154.56
821.604	22971.29
821.932	23030.27
822.259	23035.92
822.587	22919.99
822.915	22923.38
823.243	23021
823.57	22899.65
823.898	23032.98
824.225	22924.74
824.553	22963.83
824.88	23038.63
825.207	22983.49
825.535	22962.02
825.862	23168.8
826.189	22989.59
826.516	23153.66
826.843	23080.66
827.17	23195.92
827.497	23092.87
827.824	23095.35
828.151	23100.78
828.478	23095.35
828.805	23243.37
829.131	23170.83
829.458	23248.12
829.785	23004.96
830.111	23024.39
830.438	23254.22
830.764	23127.67
831.09	23087.67
831.417	23021.46
831.743	23165.63
832.069	23054.22
832.395	22932.87
832.722	23076.6
833.048	23016.03
833.374	23105.3
833.7	22964.51
834.026	22938.3
834.351	22864.4
834.677	23065.52
835.003	23042.47
835.329	22919.99
835.654	23049.25
835.98	22806.55
836.306	22999.76
836.631	22868.69
836.956	23027.56
837.282	22898.52
837.607	22741.92
837.932	22818.3
838.258	22609.72
838.583	22635.03
838.908	22710.5
839.233	22583.95
839.558	22630.96
839.883	22672.09
840.208	22430.51
840.533	22526.78
840.858	22588.93
841.182	22525.2
841.507	22539.66
841.832	22318.42
842.156	22384.86
842.481	22401.36
842.805	22295.15
843.13	22191.65
843.454	22223.51
843.778	22119.56
844.103	22065.1
844.427	22041.14
844.751	22054.93
845.075	21977.87
845.399	21855.84
845.723	21832.56
846.047	21859.23
846.371	21621.27
846.695	21555.28
847.019	21442.74
847.343	21419.47
847.666	21380.6
847.99	21213.59
848.313	21145.57
848.637	21116.2
848.96	21147.38
849.284	21139.25
849.607	20852.02
849.931	20889.31
850.254	20802.53
850.577	20637.11
850.9	20491.13
851.223	20450.68
851.546	20244.35
851.869	20208.42
852.192	20450.22
852.515	20182.21
852.838	20116.22
853.161	20111.02
853.483	19890.69
853.806	19849.79
854.129	19847.98
854.451	19791.03
854.774	19642.34
855.096	19588.33
855.419	19531.38
855.741	19436.92
856.063	19413.19
856.385	19434.21
856.708	19290.71
857.03	19223.14
857.352	19164.84
857.674	19140.65
857.996	19013.43
858.318	19005.52
858.64	18974.56
858.961	18923.71
859.283	18873.77
859.605	18730.27
859.926	18826.31
860.248	18819.31
860.57	18643.72
860.891	18630.39
861.212	18514
861.534	18571.63
861.855	18400.11
862.176	18528.69
862.498	18464.51
862.819	18540.44
863.14	18469.49
863.461	18325.99
863.782	18269.27
864.103	18267.46
864.424	18259.1
864.745	18242.83
865.065	18136.16
865.386	18059.55
865.707	18167.57
866.027	18191.08
866.348	18041.02
866.668	18028.82
866.989	17880.12
867.309	17817.75
867.63	17890.97
867.95	17968.71
868.27	17755.38
868.59	17890.07
868.91	17829.05
869.23	17766.68
869.55	17659.34
869.87	17754.93
870.19	17595.61
870.51	17702.5
870.83	17631.77
871.15	17491.21
871.469	17500.25
871.789	17589.06
872.109	17519.45
872.428	17438.1
872.748	17504.09
873.067	17389.74
873.386	17445.11
873.706	17399.01
874.025	17277.88
874.344	17314.04
874.663	17290.53
874.982	17248.95
875.301	17270.2
875.62	17243.08
875.939	17106.58
876.258	17230.42
876.577	17150.65
876.896	17089.41
877.214	16954.5
877.533	16946.36
877.852	16984.78
878.17	16989.98
878.489	16954.5
878.807	16970.77
879.125	16798.57
879.444	16834.73
879.762	16815.97
880.08	16886.02
880.398	16725.8
880.716	16778.68
881.034	16686.93
881.352	16740.49
881.67	16594.96
881.988	16516.77
882.306	16481.52
882.624	16596.77
882.941	16474.74
883.259	16427.73
883.577	16500.27
883.894	16360.39
884.212	16344.8
884.529	16324.68
884.846	16216.44
885.164	16259.37
885.481	16133.95
885.798	16144.35
886.115	16077.23
886.432	16189.09
886.75	16025.71
887.067	16010.79
887.383	16011.02
887.7	15999.95
888.017	15825.94
888.334	15847.63
888.651	15856.22
888.967	15805.6
889.284	15722.21
889.6	15719.95
889.917	15654.42
890.233	15676.57
890.55	15613.52
890.866	15686.06
891.182	15530.35
891.498	15512.28
891.815	15286.29
892.131	15335.33
892.447	15353.41
892.763	15268.67
893.079	15194.32
893.395	15202.45
893.71	15209.91
894.026	15074.1
894.342	15100.76
894.657	14913.2
894.973	14971.95
895.289	14901.22
895.604	14874.33
895.92	14863.48
896.235	14646.76
896.55	14663.03
896.865	14671.62
897.181	14567.44
897.496	14599.76
897.811	14512.75
898.126	14522.92
898.441	14516.82
898.756	14368.35
899.071	14229.6
899.386	14383.72
899.7	14220.33
900.015	14150.28
900.33	14044.97
900.644	13993.45
900.959	13983.5
901.273	13996.16
901.588	13914.13
901.902	13833
902.216	13800.68
902.531	13754.81
902.845	13724.53
903.159	13703.28
903.473	13632.55
903.787	13553.46
904.101	13520.01
904.415	13499
904.729	13427.81
905.042	13341.03
905.356	13336.97
905.67	13220.81
905.984	13274.37
906.297	13186.46
906.611	13184.65
906.924	13058.55
907.237	13158.89
907.551	13065.11
907.864	12832.35
908.177	12942.63
908.491	12841.16
908.804	12782.63
909.117	12706.47
909.43	12546.93
909.743	12692.24
910.056	12606.59
910.368	12564.1
910.681	12483.65
910.994	12442.07
911.307	12426.71
911.619	12181.06
911.932	12241.18
912.244	12109.43
912.557	12158.01
912.869	12078.24
913.181	12084.8
913.494	12115.53
913.806	11932.71
914.118	11904.46
914.43	11801.64
914.742	11745.14
915.054	11699.49
915.366	11656.56
915.678	11591.7
915.99	11576.56
916.302	11544.24
916.613	11507.64
916.925	11423.12
917.236	11415.43
917.548	11399.39
917.859	11377.92
918.171	11259.96
918.482	11231.26
918.794	11170.24
919.105	11160.53
919.416	11035.33
919.727	11036.46
920.038	11092.05
920.349	10991.04
920.66	10855
920.971	10927.76
921.282	10789.69
921.593	10851.38
921.903	10688
922.214	10624.95
922.525	10635.12
922.835	10539.07
923.146	10532.52
923.456	10474.89
923.767	10372.98
924.077	10470.37
924.387	10358.96
924.697	10366.42
925.008	10262.02
925.318	10245.3
925.628	10239.65
925.938	10220.44
926.248	10114
926.558	10078.97
926.867	10043.04
927.177	9994
927.487	9945.87
927.796	9892.99
928.106	9840.11
928.416	9812.31
928.725	9857.74
929.034	9769.15
929.344	9823.84
929.653	9700.9
929.962	9622.71
930.271	9585.65
930.581	9536.84
930.89	9511.08
931.199	9441.47
931.508	9428.82
931.817	9430.4
932.125	9336.17
932.434	9255.72
932.743	9236.06
933.051	9202.84
933.36	9113.35
933.669	9148.15
933.977	9084.42
934.286	9073.12
934.594	8954.03
934.902	8961.94
935.21	8930.75
935.519	8888.95
935.827	8855.5
936.135	8798.78
936.443	8695.05
936.751	8770.53
937.059	8710.87
937.367	8750.65
937.674	8651.21
937.982	8639.01
938.29	8494.83
938.597	8571.44
938.905	8457.32
939.213	8422.07
939.52	8371.45
939.827	8376.87
940.135	8367.38
940.442	8310.66
940.749	8298.68
941.056	8292.8
941.363	8185.91
941.67	8166.25
941.977	8056.88
942.284	8048.74
942.591	8072.02
942.898	8055.07
943.205	7974.62
943.511	7836.32
943.818	7946.82
944.125	7871.12
944.431	7805.59
944.738	7801.07
945.044	7786.6
945.35	7720.39
945.657	7654.63
945.963	7686.72
946.269	7645.82
946.575	7624.35
946.881	7571.47
947.187	7554.97
947.493	7508.19
947.799	7476.1
948.105	7410.12
948.41	7392.49
948.716	7369.89
949.022	7339.84
949.327	7330.34
949.633	7245.15
949.938	7219.39
950.244	7190.69
950.549	7159.5
950.854	7169.67
951.16	7095.1
951.465	7116.56
951.77	7003.8
952.075	7051.48
952.38	6958.15
952.685	6966.74
952.99	6899.85
953.294	6877.7
953.599	6805.39
953.904	6898.04
954.209	6736.69
954.513	6732.17
954.818	6749.12
955.122	6766.07
955.426	6662.56
955.731	6654.2
956.035	6604.04
956.339	6596.58
956.643	6572.85
956.948	6540.53
957.252	6461.21
957.556	6483.59
957.86	6414.66
958.163	6433.87
958.467	6461.89
958.771	6417.83
959.075	6435
959.378	6311.39
959.682	6331.05
959.985	6232.29
960.289	6273.42
960.592	6200.66
960.896	6199.75
961.199	6186.19
961.502	6145.29
961.805	6099.87
962.108	6065.07
962.411	6002.24
962.714	5983.03
963.017	5965.63
963.32	5987.33
963.623	5912.53
963.926	5930.15
964.228	5891.29
964.531	5845.64
964.833	5851.51
965.136	5797.5
965.438	5753.21
965.741	5739.43
966.043	5713.44
966.345	5685.42
966.648	5649.48
966.95	5668.69
967.252	5592.54
967.554	5589.6
967.856	5523.61
968.158	5477.74
968.46	5547.11
968.761	5520.9
969.063	5469.15
969.365	5453.33
969.666	5427.34
969.968	5358.19
970.269	5348.25
970.571	5329.04
970.872	5308.7
971.174	5261.47
971.475	5277.74
971.776	5228.25
972.077	5145.09
972.378	5164.3
972.679	5205.88
972.98	5158.42
973.281	5181.93
973.582	5144.86
973.883	5105.32
974.183	5075.04
974.484	4991.65
974.785	4978.99
975.085	4992.55
975.386	4957.75
975.686	4920.24
975.986	4938.54
976.287	4889.05
976.587	4831.43
976.887	4840.92
977.187	4863.52
977.487	4842.27
977.787	4764.76
978.087	4744.65
978.387	4708.72
978.687	4725.67
978.987	4741.71
979.286	4688.61
979.586	4651.09
979.885	4634.6
980.185	4584.43
980.484	4589.63
980.784	4585.11
981.083	4546.46
981.382	4584.65
981.682	4522.28
981.981	4466.01
982.28	4500.36
982.579	4439.57
982.878	4447.93
983.177	4424.21
983.475	4405
983.774	4375.85
984.073	4398.22
984.372	4303.53
984.67	4329.07
984.969	4337.88
985.267	4262.4
985.566	4256.98
985.864	4247.04
986.162	4223.31
986.461	4202.97
986.759	4204.1
987.057	4089.98
987.355	4138.11
987.653	4169.07
987.951	4104.89
988.249	4061.05
988.547	4073.71
988.844	4010.66
989.142	4015.4
989.44	3996.87
989.737	4010.66
990.035	3947.38
990.332	3897.21
990.63	3979.02
990.927	3922.52
991.224	3909.42
991.521	3916.65
991.819	3843.2
992.116	3857.89
992.413	3784.45
992.71	3786.48
993.006	3830.77
993.303	3761.85
993.6	3770.44
993.897	3738.57
994.193	3745.81
994.49	3688.63
994.787	3658.12
995.083	3617.22
995.379	3670.78
995.676	3569.31
995.972	3607.73
996.268	3551.69
996.565	3565.47
996.861	3502.2
997.157	3553.49
997.453	3472.14
997.749	3502.87
998.044	3502.42
998.34	3446.15
998.636	3405.25
998.932	3398.7
999.227	3403.22
999.523	3374.97
999.818	3336.1
1000.114	3304.24
1000.409	3302.65
1000.704	3301.07
1001	3262.43
1001.295	3241.19
1001.59	3243.67
1001.885	3245.03
1002.18	3208.42
1002.475	3177.01
1002.77	3199.83
1003.065	3161.41
1003.359	3097.23
1003.654	3130.45
1003.949	3113.96
1004.243	3099.49
1004.538	3013.4
1004.832	3019.5
1005.127	3028.76
1005.421	2961.65
1005.715	3018.82
1006.009	2974.53
1006.304	2953.51
1006.598	2940.18
1006.892	2912.16
1007.186	2926.84
1007.48	2918.26
1007.773	2857.02
1008.067	2839.84
1008.361	2860.86
1008.655	2840.52
1008.948	2796.68
1009.242	2791.03
1009.535	2768.43
1009.829	2742.89
1010.122	2723.46
1010.415	2692.5
1010.708	2728.66
1011.001	2673.07
1011.295	2690.69
1011.588	2631.71
1011.881	2621.32
1012.173	2563.46
1012.466	2604.82
1012.759	2541.09
1013.052	2575.44
1013.344	2556.46
1013.637	2527.08
1013.93	2505.61
1014.222	2522.56
1014.514	2499.74
1014.807	2486.4
1015.099	2463.58
1015.391	2467.2
1015.683	2432.85
1015.976	2442.34
1016.268	2424.03
1016.56	2397.14
1016.851	2340.87
1017.143	2366.41
1017.435	2333.87
1017.727	2313.3
1018.018	2327.99
1018.31	2274.21
1018.602	2299.06
1018.893	2247.99
1019.185	2237.14
1019.476	2232.62
1019.767	2200.76
1020.058	2210.7
1020.35	2209.12
1020.641	2146.98
1020.932	2130.03
1021.223	2135.9
1021.514	2119.63
1021.804	2124.38
1022.095	2092.06
1022.386	2077.83
1022.677	2064.49
1022.967	2043.93
1023.258	2014.78
1023.548	2014.33
1023.839	1973.42
1024.129	2007.77
1024.419	2000.99
1024.709	1989.69
1025	1983.14
1025.29	1972.52
1025.58	1953.99
1025.87	1925.97
1026.16	1896.81
1026.449	1850.26
1026.739	1856.36
1027.029	1871.28
1027.319	1856.14
1027.608	1820.66
1027.898	1829.02
1028.187	1807.78
1028.477	1827.89
1028.766	1751.28
1029.055	1772.98
1029.344	1749.02
1029.634	1739.98
1029.923	1737.95
1030.212	1734.78
1030.501	1722.81
1030.79	1664.96
1031.078	1682.36
1031.367	1686.2
1031.656	1656.59
1031.945	1651.17
1032.233	1664.96
1032.522	1638.74
1032.81	1626.54
1033.099	1609.14
1033.387	1611.17
1033.675	1590.16
1033.963	1590.61
1034.251	1564.17
1034.54	1549.03
1034.828	1525.52
1035.116	1541.34
1035.403	1507.9
1035.691	1523.04
1035.979	1502.02
1036.267	1489.59
1036.554	1469.71
1036.842	1474
1037.129	1447.56
1037.417	1448.24
1037.704	1441.91
1037.992	1414.57
1038.279	1410.27
1038.566	1378.64
1038.853	1378.64
1039.14	1378.64
