Data from 18-5621_FLMS001491_002.txt Node
Date: Thu Apr 19 15:15:16 BST 2018
User: hsy
Spectrometer: FLMS00149
Trigger mode: 0
Integration Time (sec): 1.000000E-2
Scans to average: 10
Electric dark correction enabled: true
Nonlinearity correction enabled: false
Boxcar width: 0
XAxis mode: Wavelengths
Number of Pixels in Spectrum: 2048
>>>>>Begin Spectral Data<<<<<
341.393	-11.44
341.776	-11.44
342.16	-11.44
342.543	-58.67
342.927	-60.7
343.31	-61.61
343.693	-50.99
344.077	-69.29
344.46	-56.41
344.843	-38.78
345.226	-31.55
345.61	-43.53
345.993	-27.94
346.376	-5.79
346.759	8.22
347.142	24.49
347.525	29.91
347.908	55.9
348.291	66.98
348.674	90.7
349.057	109.69
349.44	145.84
349.823	162.57
350.206	171.83
350.588	232.4
350.971	250.02
351.354	255.22
351.737	263.81
352.119	283.69
352.502	274.65
352.884	313.3
353.267	327.08
353.65	322.34
354.032	316.01
354.414	344.26
354.797	351.94
355.179	352.62
355.562	357.82
355.944	353.3
356.326	365.27
356.709	382.67
357.091	391.03
357.473	384.93
357.855	349.91
358.238	375.44
358.62	378.83
359.002	377.93
359.384	394.2
359.766	388.32
360.148	386.52
360.53	372.5
360.912	386.29
361.294	384.71
361.676	359.62
362.057	386.97
362.439	378.15
362.821	360.53
363.203	377.48
363.584	356.01
363.966	365.95
364.348	364.59
364.729	360.08
365.111	360.53
365.493	360.75
365.874	363.92
366.256	380.64
366.637	337.25
367.019	362.56
367.4	364.59
367.781	389.68
368.163	356.91
368.544	371.37
368.925	347.87
369.306	354.88
369.688	374.09
370.069	381.09
370.45	356.69
370.831	367.08
371.212	380.87
371.593	380.87
371.974	371.37
372.355	361.43
372.736	343.58
373.117	388.1
373.498	386.74
373.879	356.23
374.26	377.48
374.641	366.18
375.021	367.31
375.402	375.44
375.783	388.78
376.163	369.11
376.544	407.31
376.925	383.58
377.305	393.29
377.686	387.87
378.066	381.32
378.447	386.06
378.827	397.59
379.208	416.34
379.588	406.4
379.968	407.76
380.349	405.95
380.729	426.51
381.109	395.1
381.489	408.44
381.87	399.4
382.25	431.94
382.63	424.03
383.01	446.17
383.39	417.7
383.77	426.74
384.15	427.87
384.53	427.42
384.91	447.98
385.29	424.48
385.67	418.6
386.049	439.17
386.429	442.33
386.809	446.85
387.189	438.04
387.568	458.38
387.948	459.96
388.328	464.25
388.707	456.34
389.087	467.42
389.466	482.11
389.846	457.93
390.225	456.34
390.605	463.35
390.984	488.21
391.363	491.82
391.743	474.65
392.122	494.76
392.501	495.89
392.881	480.07
393.26	502.44
393.639	505.83
394.018	508.09
394.397	519.85
394.776	520.3
395.155	507.19
395.534	518.94
395.913	540.64
396.292	524.59
396.671	520.98
397.05	537.02
397.429	518.94
397.808	536.12
398.186	548.32
398.565	558.71
398.944	537.92
399.323	568.88
399.701	568.66
400.08	577.47
400.458	564.14
400.837	566.17
401.215	577.02
401.594	571.6
401.972	588.77
402.351	612.27
402.729	574.53
403.107	614.98
403.486	610.46
403.864	594.65
404.242	601.42
404.62	584.48
404.999	629.67
405.377	643.91
405.755	621.09
406.133	619.28
406.511	633.51
406.889	641.65
407.267	654.3
407.645	663.12
408.023	684.59
408.401	684.81
408.779	688.43
409.156	689.78
409.534	706.28
409.912	710.12
410.29	733.4
410.667	734.75
411.045	744.02
411.422	728.88
411.8	741.99
412.178	746.28
412.555	779.5
412.933	786.5
413.31	762.1
413.687	809.78
414.065	793.06
414.442	807.52
414.819	791.7
415.197	821.31
415.574	826.73
415.951	868.31
416.328	859.95
416.705	831.25
417.082	836.45
417.46	857.92
417.837	852.04
418.214	898.37
418.591	886.39
418.967	891.13
419.344	885.71
419.721	916.44
420.098	901.08
420.475	929.1
420.852	931.36
421.228	924.35
421.605	937.24
421.982	950.79
422.358	965.03
422.735	939.72
423.111	960.74
423.488	1000.28
423.864	999.83
424.241	989.44
424.617	1017.91
424.994	1006.84
425.37	1064.46
425.746	1029.21
426.123	1054.29
426.499	1056.1
426.875	1080.51
427.251	1066.72
427.627	1120.28
428.003	1105.14
428.379	1123.9
428.756	1140.62
429.132	1132.48
429.507	1169.77
429.883	1151.92
430.259	1168.19
430.635	1206.61
431.011	1206.38
431.387	1234.63
431.763	1242.31
432.138	1253.16
432.514	1281.86
432.89	1306.94
433.265	1325.25
433.641	1325.02
434.016	1326.83
434.392	1353.04
434.767	1388.52
435.143	1393.49
435.518	1401.18
435.894	1367.51
436.269	1408.41
436.644	1440.95
437.02	1443.44
437.395	1464.45
437.77	1481.18
438.145	1498.58
438.52	1499.03
438.895	1545.35
439.271	1523.66
439.646	1550.55
440.021	1564.56
440.395	1585.13
440.77	1550.78
441.145	1565.02
441.52	1614.96
441.895	1619.03
442.27	1635.52
442.645	1608.18
443.019	1654.28
443.394	1637.1
443.769	1641.62
444.143	1643.43
444.518	1688.85
444.892	1699.25
445.267	1678.01
445.641	1696.99
446.016	1715.97
446.39	1732.69
446.764	1741.51
447.139	1743.99
447.513	1771.34
447.887	1809.08
448.262	1766.37
448.636	1794.61
449.01	1794.39
449.384	1815.86
449.758	1813.14
450.132	1875.52
450.506	1892.69
450.88	1900.37
451.254	1915.74
451.628	1880.71
452.002	1947.38
452.376	1971.33
452.75	1957.55
453.123	1986.93
453.497	2024.89
453.871	2021.95
454.244	2059.01
454.618	2067.15
454.992	2118.9
455.365	2123.64
455.739	2154.6
456.112	2178.11
456.486	2220.59
456.859	2251.78
457.232	2258.1
457.606	2276.18
457.979	2314.83
458.352	2367.93
458.725	2369.51
459.099	2395.28
459.472	2382.17
459.845	2456.52
460.218	2462.17
460.591	2479.34
460.964	2534.48
461.337	2555.5
461.71	2610.19
462.083	2647.25
462.456	2636.4
462.829	2630.98
463.201	2701.48
463.574	2720.69
463.947	2752.1
464.32	2813.34
464.692	2804.53
465.065	2839.56
465.438	2859.44
465.81	2869.39
466.183	2955.04
466.555	2956.17
466.928	2993.9
467.3	3007.24
467.672	3072.09
468.045	3087.91
468.417	3138.31
468.789	3166.78
469.161	3181.02
469.534	3204.97
469.906	3312.09
470.278	3298.08
470.65	3338.98
471.022	3407.68
471.394	3458.75
471.766	3427.79
472.138	3525.64
472.51	3586.43
472.882	3639.31
473.253	3680.89
473.625	3722.25
473.997	3789.36
474.369	3811.06
474.74	3868.23
475.112	3943.48
475.484	3983.26
475.855	4035.68
476.227	4039.53
476.598	4205.4
476.97	4273.87
477.341	4311.16
477.713	4355.68
478.084	4404.94
478.455	4572.85
478.827	4558.61
479.198	4672.5
479.569	4700.53
479.94	4818.94
480.311	4899.16
480.682	4966.73
481.053	5100.29
481.424	5175.54
481.795	5218.93
482.166	5300.96
482.537	5372.82
482.908	5516.55
483.279	5558.58
483.65	5721.74
484.021	5883.32
484.391	5905.92
484.762	5941.62
485.133	6077.89
485.503	6147.04
485.874	6300.03
486.244	6319.69
486.615	6444.89
486.985	6542.06
487.356	6717.42
487.726	6737.08
488.097	6922.61
488.467	6968.49
488.837	7102.5
489.207	7226.56
489.578	7310.18
489.948	7455.03
490.318	7568.47
490.688	7622.48
491.058	7871.97
491.428	7889.37
491.798	8002.36
492.168	8176.14
492.538	8225.86
492.908	8314.44
493.278	8486.64
493.648	8539.97
494.017	8666.75
494.387	8773.87
494.757	8878.72
495.126	8968.44
495.496	8999.85
495.866	9158.71
496.235	9266.06
496.605	9338.14
496.974	9439.84
497.344	9613.84
497.713	9680.96
498.082	9753.73
498.452	9862.42
498.821	9956.21
499.19	9951.91
499.559	10115.75
499.928	10235.3
500.298	10272.13
500.667	10398
501.036	10443.65
501.405	10500.37
501.774	10588.51
502.143	10687.71
502.512	10824.66
502.88	10872.57
503.249	10957.99
503.618	11005.67
503.987	11187.14
504.356	11153.24
504.724	11262.16
505.093	11328.37
505.462	11415.38
505.83	11512.55
506.199	11593
506.567	11764.52
506.936	11702.15
507.304	11917.51
507.672	11940.56
508.041	12014.68
508.409	12134
508.777	12279.54
509.145	12364.73
509.514	12358.4
509.882	12417.84
510.25	12467.78
510.618	12633.88
510.986	12606.76
511.354	12719.52
511.722	13003.58
512.09	13006.52
512.458	12948.22
512.826	13080.42
513.193	13093.53
513.561	13167.87
513.929	13274.99
514.297	13330.81
514.664	13390.92
515.032	13543.23
515.4	13662.78
515.767	13704.58
516.135	13727.63
516.502	13688.09
516.869	13943.45
517.237	13997.91
517.604	14002.88
517.972	14196.55
518.339	14248.98
518.706	14218.47
519.073	14342.98
519.44	14425.69
519.808	14651.68
520.175	14632.02
520.542	14794.5
520.909	14817.55
521.276	14900.03
521.643	15015.51
522.009	15096.64
522.376	15294.82
522.743	15359.68
523.11	15465.89
523.477	15605.1
523.843	15789.73
524.21	15854.36
524.577	15872.44
524.943	15954.02
525.31	16075.82
525.676	16243.27
526.043	16337.96
526.409	16438.52
526.776	16605.52
527.142	16614.11
527.508	16801.68
527.874	16921.22
528.241	16987.21
528.607	17042.57
528.973	17169.12
529.339	17185.85
529.705	17434.43
530.071	17521.88
530.437	17494.77
530.803	17629
531.169	17796.9
531.535	17749.67
531.901	17808.43
532.267	17903.79
532.632	18019.95
532.998	18077.8
533.364	18136.33
533.73	18221.07
534.095	18344.46
534.461	18254.52
534.826	18407.74
535.192	18461.75
535.557	18665.36
535.923	18546.04
536.288	18702.42
536.653	18763.21
537.019	18682.53
537.384	18714.62
537.749	18878.46
538.114	18767.95
538.479	18795.52
538.845	18787.84
539.21	18905.8
539.575	18989.64
539.94	18972.92
540.305	19078
540.67	19036.19
541.034	19153.25
541.399	19125.46
541.764	19220.14
542.129	19175.85
542.494	19254.27
542.858	19263.99
543.223	19207.26
543.587	19302.85
543.952	19197.09
544.316	19332.91
544.681	19327.49
545.045	19434.38
545.41	19526.13
545.774	19326.36
546.138	19402.29
546.503	19494.94
546.867	19414.72
547.231	19552.79
547.595	19476.63
547.959	19525.9
548.324	19569.97
548.688	19550.98
549.052	19597.99
549.416	19630.08
549.779	19645.9
550.143	19685.67
550.507	19786.01
550.871	19745.78
551.235	19673.69
551.599	19912.33
551.962	19722.28
552.326	19963.18
552.689	19915.04
553.053	19699.23
553.417	19899.22
553.78	20025.32
554.143	20014.25
554.507	20023.74
554.87	20132.89
555.234	20229.84
555.597	20134.24
555.96	20304.41
556.323	20329.27
556.686	20263.96
557.05	20359.32
557.413	20320.23
557.776	20337.86
558.139	20503.73
558.502	20503.27
558.865	20540.34
559.228	20614.23
559.59	20714.12
559.953	20708.01
560.316	20989.36
560.679	20931.29
561.041	21042.47
561.404	21129.92
561.767	21255.8
562.129	21201.56
562.492	21405.17
562.854	21423.02
563.217	21450.59
563.579	21452.18
563.941	21655.56
564.304	21780.08
564.666	21934.2
565.028	21869.34
565.39	22053.06
565.753	22195.21
566.115	22209.22
566.477	22376.67
566.839	22507.29
567.201	22651.69
567.563	22716.78
567.925	22872.93
568.287	22957.9
568.648	22945.47
569.01	23162.19
569.372	23389.07
569.734	23340.71
570.095	23504.78
570.457	23744.77
570.819	23820.25
571.18	23902.96
571.542	24080.13
571.903	24186.12
572.265	24369.84
572.626	24471.76
572.987	24555.6
573.349	24606.67
573.71	24892.54
574.071	24862.03
574.432	25099.76
574.794	25324.62
575.155	25341.11
575.516	25380.66
575.877	25595.12
576.238	25587.66
576.599	25827.43
576.96	25835.56
577.32	25914.21
577.681	25979.97
578.042	26276.68
578.403	26287.08
578.763	26349
579.124	26286.17
579.485	26553.28
579.845	26660.63
580.206	26598.03
580.566	26737.91
580.927	26734.75
581.287	26934.29
581.648	26810
582.008	27135.87
582.368	26955.08
582.728	26979.49
583.089	27144
583.449	27291.57
583.809	27127.51
584.169	27278.92
584.529	27294.28
584.889	27453.15
585.249	27301.06
585.609	27238.24
585.969	27366.82
586.329	27244.79
586.688	27590.32
587.048	27415.64
587.408	27392.13
587.768	27368.4
588.127	27492.02
588.487	27550.55
588.846	27590.09
589.206	27498.8
589.565	27490.89
589.925	27708.28
590.284	27536.31
590.643	27661.96
591.003	27699.92
591.362	27746.7
591.721	27739.47
592.08	27771.56
592.44	27927.26
592.799	27719.58
593.158	27788.96
593.517	27714.84
593.876	27861.73
594.235	27870.54
594.593	27797.55
594.952	27887.04
595.311	27844.1
595.67	27894.27
596.029	27972.91
596.387	27983.98
596.746	28222.62
597.104	27961.16
597.463	27863.08
597.822	28078.44
598.18	27892.46
598.538	27970.42
598.897	28090.65
599.255	27908.05
599.613	28364.99
599.972	28012.46
600.33	28178.78
600.688	28140.59
601.046	28163.41
601.404	28386.46
601.762	28174.71
602.12	28303.52
602.478	28160.93
602.836	28318.66
603.194	28072.11
603.552	28231.43
603.91	28231.43
604.268	28332.9
604.625	28243.86
604.983	28412.22
605.341	28272.79
605.698	28550.07
606.056	28522.95
606.413	28434.59
606.771	28574.47
607.128	28602.72
607.485	28460.13
607.843	28370.19
608.2	28558.66
608.557	28722.49
608.914	28668.03
609.272	28815.15
609.629	28862.15
609.986	28864.18
610.343	28907.12
610.7	29020.34
611.057	28923.84
611.414	28798.65
611.771	28990.28
612.127	29017.4
612.484	29010.4
612.841	29074.35
613.198	28974.92
613.554	28970.17
613.911	29213.55
614.267	29235.25
614.624	29296.26
614.98	29250.84
615.337	29515.24
615.693	29477.95
616.05	29504.85
616.406	29459.65
616.762	29459.88
617.118	29604.73
617.475	29507.33
617.831	29597.72
618.187	29545.97
618.543	29618.97
618.899	29759.08
619.255	29680.43
619.611	29676.59
619.967	29944.83
620.323	29862.35
620.678	29874.78
621.034	29807.89
621.39	29749.59
621.746	29814.67
622.101	30046.53
622.457	29838.85
622.812	29911.61
623.168	29972.18
623.523	29926.3
623.879	30143.7
624.234	29913.65
624.589	30089.01
624.945	29936.7
625.3	30197.26
625.655	30042.91
626.01	30064.15
626.365	30107.09
626.72	29926.3
627.075	30073.87
627.43	29973.08
627.785	29963.82
628.14	30067.09
628.495	30009.69
628.85	30125.62
629.205	30007.43
629.559	30085.85
629.914	29943.48
630.269	30006.08
630.623	29755.69
630.978	29845.18
631.332	29980.77
631.687	29906.19
632.041	29880.43
632.396	29811.96
632.75	29757.27
633.104	29783.71
633.459	29506.43
633.813	29676.82
634.167	29571.74
634.521	29687.21
634.875	29607.89
635.229	29500.33
635.583	29445.41
635.937	29436.82
636.291	29443.6
636.645	29517.73
636.999	29295.36
637.352	29442.93
637.706	29210.39
638.06	29371.29
638.413	29339.88
638.767	29143.27
639.121	29248.81
639.474	29119.55
639.828	29174.68
640.181	29068.7
640.534	29118.87
640.888	28950.51
641.241	28937.4
641.594	28794.13
641.947	28993.45
642.301	28842.04
642.654	28971.07
643.007	28891.75
643.36	28995.71
643.713	28916.39
644.066	28926.33
644.419	28649.05
644.771	28480.01
645.124	28130.42
645.477	28120.7
645.83	28076.41
646.182	28056.07
646.535	28120.48
646.888	28235.05
647.24	28058.56
647.593	28346.91
647.945	28148.5
648.298	27995.73
648.65	27849.52
649.002	27776.53
649.355	27683.42
649.707	27477.55
650.059	27455.41
650.411	27857.88
650.763	28160.02
651.115	28652.21
651.467	28537.41
651.819	28487.02
652.171	28426.68
652.523	28357.31
652.875	28442.5
653.227	28332.22
653.578	28544.64
653.93	28546.23
654.282	28257.42
654.633	28472.33
654.985	28389.39
655.337	28451.09
655.688	28383.07
656.039	28580.35
656.391	28322.5
656.742	28435.72
657.094	28546.9
657.445	28619.22
657.796	28645.21
658.147	28409.96
658.498	28518.88
658.849	28516.17
659.2	28448.15
659.551	28439.56
659.902	28667.13
660.253	28456.74
660.604	28683.62
660.955	28525.66
661.306	28654.7
661.656	28653.34
662.007	28696.28
662.358	28564.53
662.708	28717.3
663.059	28621.71
663.409	28473.01
663.76	28779.89
664.11	28681.82
664.461	28781.25
664.811	28721.36
665.161	28675.94
665.511	28654.7
665.862	28712.32
666.212	28763.4
666.562	28866.67
666.912	28661.48
667.262	28680.01
667.612	28682.49
667.962	28773.34
668.312	28743.96
668.662	28713.68
669.011	28910.74
669.361	28710.52
669.711	28824.64
670.06	28563.4
670.41	28616.28
670.76	28633.68
671.109	28708.93
671.459	28580.58
671.808	28619.22
672.157	28717.3
672.507	28468.49
672.856	28587.13
673.205	28572.21
673.554	28567.7
673.904	28541.71
674.253	28796.39
674.602	28524.98
674.951	28265.1
675.3	27965.9
675.649	28525.89
675.998	28488.38
676.346	28579.45
676.695	28526.11
677.044	28393.69
677.393	28457.19
677.741	28431.43
678.09	28292.22
678.438	28212.22
678.787	28352.11
679.135	28269.4
679.484	28081.83
679.832	28154.82
680.181	27994.6
680.529	28158.21
680.877	27872.12
681.225	27991.21
681.573	28172
681.922	27972
682.27	27943.3
682.618	27857.21
682.966	27900.37
683.314	27742.41
683.661	27758.22
684.009	27649.53
684.357	27684.78
684.705	27491.79
685.053	27624.22
685.4	27419.93
685.748	27374.28
686.095	27261.51
686.443	27143.78
686.79	27025.81
687.138	27244.11
687.485	27004.12
687.832	27025.59
688.18	26921.64
688.527	26774.52
688.874	26850.9
689.221	26721.19
689.568	26587.63
689.915	26488.2
690.262	26582.44
690.609	26397.13
690.956	26218.6
691.303	26257.7
691.65	26109.91
691.997	26010.25
692.344	25948.33
692.69	25781.78
693.037	25832.4
693.383	25530.03
693.73	25678.96
694.077	25417.5
694.423	25399.87
694.769	25208.91
695.116	25256.14
695.462	25188.12
695.808	24931.86
696.155	25146.32
696.501	24847.79
696.847	24780.45
697.193	24607.8
697.539	24638.98
697.885	24490.06
698.231	24397.18
698.577	24351.08
698.923	24292.33
699.269	24099.34
699.614	24032.22
699.96	23904.09
700.306	23866.35
700.651	23753.13
700.997	23590.42
701.342	23574.15
701.688	23406.25
702.033	23403.99
702.379	23393.59
702.724	23211
703.069	23226.59
703.415	22939.82
703.76	22892.36
704.105	22879.26
704.45	22652.82
704.795	22640.85
705.14	22580.06
705.485	22613.73
705.83	22496.89
706.175	22547.51
706.52	22405.82
706.865	22289.89
707.209	22282.89
707.554	22271.36
707.899	22191.59
708.243	21982.78
708.588	22011.94
708.932	22014.42
709.277	21859.4
709.621	21860.3
709.966	21673.64
710.31	21677.93
710.654	21593.64
710.998	21564.04
711.342	21519.74
711.687	21485.62
712.031	21411.27
712.375	21383.93
712.719	21410.37
713.063	21270.94
713.407	21288.56
713.75	21328.56
714.094	21169.47
714.438	21282.01
714.782	21097.84
715.125	21142.13
715.469	21208.57
715.812	21027.1
716.156	20950.27
716.499	21044.28
716.843	21034.33
717.186	20909.37
717.53	20993.21
717.873	21051.73
718.216	20935.81
718.559	20791.4
718.902	20672.31
719.246	20861.23
719.589	20703.95
719.932	20774.68
720.275	20682.93
720.617	20754.34
720.96	20698.07
721.303	20687.22
721.646	20712.31
721.989	20610.16
722.331	20686.09
722.674	20625.53
723.016	20662.59
723.359	20591.63
723.701	20660.33
724.044	20735.36
724.386	20467.57
724.729	20677.51
725.071	20567
725.413	20614.68
725.755	20575.81
726.097	20447.46
726.439	20495.37
726.782	20516.38
727.124	20731.74
727.465	20595.25
727.807	20517.06
728.149	20569.94
728.491	20541.92
728.833	20662.14
729.175	20656.49
729.516	20651.29
729.858	20681.12
730.199	20717.51
730.541	20717.96
730.882	20736.04
731.224	20816.03
731.565	20669.15
731.906	20797.73
732.248	20730.16
732.589	20712.76
732.93	20782.82
733.271	20810.61
733.612	20845.19
733.953	20999.98
734.294	20931.06
734.635	20825.98
734.976	21067.33
735.317	21048.57
735.658	21024.84
735.999	20963.83
736.339	21051.96
736.68	21170.6
737.021	21228.23
737.361	21114.33
737.702	21293.31
738.042	21304.38
738.383	21313.87
738.723	21427.54
739.063	21402.69
739.404	21637.03
739.744	21517.94
740.084	21560.65
740.424	21651.27
740.764	21626.86
741.104	21878.15
741.444	21738.27
741.784	21869.79
742.124	22046.96
742.464	22059.84
742.804	22086.96
743.143	22221.2
743.483	22417.35
743.823	22325.37
744.162	22328.09
744.502	22508.19
744.841	22674.52
745.181	22763.33
745.52	22826.15
745.86	22896.66
746.199	23077.22
746.538	23166.03
746.877	23428.85
747.216	23398.57
747.556	23518.56
747.895	23652.8
748.234	23762.85
748.573	23738.67
748.911	24063.63
749.25	24185.66
749.589	24185.21
749.928	24401.7
750.267	24611.87
750.605	24774.57
750.944	24884.18
751.283	24940.45
751.621	25346.76
751.96	25389.93
752.298	25533.42
752.636	25778.62
752.975	25851.16
753.313	25998.95
753.651	26313.52
753.989	26461.54
754.327	26649.33
754.666	26532.49
755.004	26985.36
755.342	27172.7
755.679	27242.53
756.017	27297.22
756.355	27671
756.693	27809.97
757.031	28097.65
757.368	28122.51
757.706	28191.66
758.044	28322.73
758.381	28465.78
758.719	28626
759.056	28920.23
759.394	28984.86
759.731	29114.12
760.068	29360.67
760.405	29408.58
760.743	29459.42
761.08	29745.74
761.417	29652.64
761.754	29878.4
762.091	30039.52
762.428	30004.04
762.765	30105.28
763.102	30315.45
763.438	30347.54
763.775	30463.46
764.112	30501.43
764.449	30661.65
764.785	30794.98
765.122	30697.13
765.458	30831.59
765.795	30821.87
766.131	30992.04
766.467	31026.84
766.804	30981.42
767.14	30947.75
767.476	31160.85
767.812	31105.71
768.148	31302.99
768.485	31163.33
768.821	31106.84
769.157	31182.77
769.492	31215.31
769.828	31155.42
770.164	31202.2
770.5	31054.64
770.836	31257.79
771.171	31231.35
771.507	31188.87
771.842	31141.19
772.178	31136.44
772.513	31098.25
772.849	31133.96
773.184	31207.85
773.519	31071.81
773.855	31003.79
774.19	31084.69
774.525	30931.47
774.86	30924.92
775.195	30959.95
775.53	30794.53
775.865	30782.1
776.2	30557.47
776.535	30559.96
776.87	30610.58
777.205	30397.48
777.539	30352.96
777.874	30488.77
778.209	30218.5
778.543	30295.33
778.878	30133.3
779.212	30143.7
779.547	29942.57
779.881	30042.68
780.215	29946.64
780.55	30060.09
780.884	29872.29
781.218	29690.38
781.552	29822.13
781.886	29583.04
782.22	29435.24
782.554	29386.2
782.888	29214.46
783.222	29284.06
783.556	29135.14
783.889	28989.38
784.223	28872.09
784.557	28900.79
784.89	29004.29
785.224	28785.77
785.557	28667.13
785.891	28644.3
786.224	28653.79
786.558	28605.43
786.891	28396.17
787.224	28130.42
787.557	28141.04
787.891	28153.24
788.224	28000.93
788.557	28097.2
788.89	27987.15
789.223	27908.73
789.556	27661.73
789.888	27787.83
790.221	27661.73
790.554	27436.2
790.887	27494.5
791.219	27334.73
791.552	27271.23
791.884	27176.32
792.217	27140.84
792.549	26948.75
792.882	26822.66
793.214	26688.2
793.546	26784.24
793.879	26706.73
794.211	26453.85
794.543	26735.88
794.875	26528.65
795.207	26534.08
795.539	26385.38
795.871	26377.47
796.203	26297.7
796.535	26168.21
796.867	26056.8
797.198	25808.9
797.53	25867.43
797.862	25738.39
798.193	25732.06
798.525	25770.25
798.856	25712.63
799.188	25398.96
799.519	25397.61
799.85	25318.29
800.182	25325.07
800.513	25554.67
800.844	25084.4
801.175	25219.76
801.506	25298.85
801.837	24969.15
802.168	24969.6
802.499	24938.64
802.83	24864.97
803.161	24691.86
803.491	24690.28
803.822	24886.66
804.153	24614.58
804.483	24412.1
804.814	24350.18
805.145	24429.27
805.475	24381.14
805.805	24269.5
806.136	24373
806.466	24252.78
806.796	24312.67
807.126	24033.35
807.457	24005.33
807.787	24116.96
808.117	23956.07
808.447	23870.42
808.777	23931.43
809.107	23880.36
809.436	23704.32
809.766	23626.81
810.096	23669.52
810.426	23535.74
810.755	23670.42
811.085	23476.3
811.414	23551.78
811.744	23384.78
812.073	23365.12
812.403	23282.41
812.732	23208.97
813.061	23280.83
813.39	23117.67
813.719	23136.88
814.049	23171.45
814.378	23141.17
814.707	22885.81
815.036	23034.28
815.365	22862.08
815.693	22717.23
816.022	22708.19
816.351	22695.08
816.68	22583.45
817.008	22718.36
817.337	22439.27
817.665	22541.19
817.994	22325.83
818.322	22465.93
818.651	22436.56
818.979	22257.8
819.307	22288.99
819.636	22272.27
819.964	22184.13
820.292	22316.33
820.62	22250.35
820.948	22281.53
821.276	22318.82
821.604	22187.3
821.932	22380.06
822.259	22220.97
822.587	22225.04
822.915	22169.22
823.243	22233.17
823.57	22151.82
823.898	22291.25
824.225	22244.47
824.553	22187.3
824.88	22198.82
825.207	22273.4
825.535	22111.37
825.862	22192.5
826.189	22154.53
826.516	22322.21
826.843	22251.25
827.17	22448.53
827.497	22343
827.824	22364.69
828.151	22428.87
828.478	22244.02
828.805	22486.73
829.131	22280.4
829.458	22344.36
829.785	22205.6
830.111	22291.93
830.438	22390.23
830.764	22277.24
831.09	22359.5
831.417	22239.73
831.743	22437.01
832.069	22313.62
832.395	22297.13
832.722	22288.54
833.048	22229.78
833.374	22381.19
833.7	22216.9
834.026	22253.74
834.351	22233.17
834.677	22274.53
835.003	22252.38
835.329	22156.79
835.654	22275.43
835.98	22025.04
836.306	22221.87
836.631	22110.92
836.956	22152.04
837.282	22188.88
837.607	21968.32
837.932	21936.23
838.258	22060.52
838.583	21997.47
838.908	21824.14
839.233	21973.74
839.558	21828.44
839.883	21857.59
840.208	21672.74
840.533	21781.43
840.858	21711.15
841.182	21777.37
841.507	21695.79
841.832	21629.8
842.156	21674.77
842.481	21542.34
842.805	21629.12
843.13	21330.82
843.454	21342.12
843.778	21348.9
844.103	21365.17
844.427	21286.08
844.751	21197.27
845.075	21141.68
845.399	21127.44
845.723	20923.83
846.047	21044.73
846.371	20975.13
846.695	20752.76
847.019	20778.52
847.343	20695.81
847.666	20660.56
847.99	20525.87
848.313	20456.95
848.637	20361.13
848.96	20418.76
849.284	20304.86
849.607	20143.28
849.931	20113.45
850.254	19929.73
850.577	19904.42
850.9	19736.29
851.223	19764.76
851.546	19670.3
851.869	19470.76
852.192	19675.5
852.515	19363.87
852.838	19347.15
853.161	19342.85
853.483	19189.41
853.806	19272.35
854.129	19113.93
854.451	19054.72
854.774	18969.3
855.096	18945.8
855.419	18960.49
855.741	18856.99
856.063	18703.55
856.385	18705.13
856.708	18630.33
857.03	18682.08
857.352	18672.36
857.674	18460.16
857.996	18410.45
858.318	18294.07
858.64	18385.36
858.961	18287.51
859.283	18225.14
859.605	18151.7
859.926	18127.52
860.248	18074.41
860.57	17925.26
860.891	17998.71
861.212	17944.02
861.534	17891.82
861.855	17820.18
862.176	17929.78
862.498	17785.38
862.819	17888.88
863.14	17707.87
863.461	17701.54
863.782	17638.94
864.103	17736.57
864.424	17520.08
864.745	17510.58
865.065	17623.8
865.386	17476.01
865.707	17487.08
866.027	17476.91
866.348	17383.13
866.668	17320.08
866.989	17310.59
867.309	17327.99
867.63	17245.51
867.95	17312.85
868.27	17199.18
868.59	17330.93
868.91	17157.37
869.23	17121.89
869.55	16990.37
869.87	17244.6
870.19	17088.22
870.51	17037.38
870.83	16955.35
871.15	17009.36
871.469	16919.41
871.789	16878.51
872.109	16983.59
872.428	16850.72
872.748	16895.23
873.067	16893.88
873.386	16837.61
873.706	16821.34
874.025	16768.23
874.344	16775.01
874.663	16792.64
874.982	16710.83
875.301	16673.77
875.62	16582.47
875.939	16549.93
876.258	16577.5
876.577	16514
876.896	16466.32
877.214	16439.88
877.533	16447.34
877.852	16371.86
878.17	16408.69
878.489	16440.1
878.807	16378.64
879.125	16341.58
879.444	16289.15
879.762	16265.65
880.08	16289.83
880.398	16126.89
880.716	16228.81
881.034	16146.33
881.352	16182.26
881.67	16088.25
881.988	16077.18
882.306	16041.47
882.624	16017.97
882.941	15912.21
883.259	15908.14
883.577	15888.03
883.894	15855.26
884.212	15845.09
884.529	15753.79
884.846	15739.56
885.164	15651.42
885.481	15712.44
885.798	15669.96
886.115	15589.28
886.432	15702.5
886.75	15554.25
887.067	15636.28
887.383	15520.35
887.7	15456.85
888.017	15332.11
888.334	15346.12
888.651	15338.21
888.967	15280.36
889.284	15245.33
889.6	15183.41
889.917	15154.71
890.233	15138.9
890.55	15149.52
890.866	15095.96
891.182	14958.34
891.498	15005.11
891.815	14917.43
892.131	14826.36
892.447	14836.3
892.763	14770.09
893.079	14727.38
893.395	14652.58
893.71	14719.92
894.026	14564.45
894.342	14618.68
894.657	14387.05
894.973	14559.02
895.289	14440.83
895.604	14364
895.92	14306.6
896.235	14279.71
896.55	14196.32
896.865	14130.56
897.181	14069.32
897.496	14135.98
897.811	14063.67
898.126	14001.52
898.441	13925.59
898.756	13880.17
899.071	13858.03
899.386	13868.19
899.7	13727.86
900.015	13666.84
900.33	13570.8
900.644	13570.12
900.959	13612.83
901.273	13448.54
901.588	13503.01
901.902	13374.87
902.216	13332.62
902.531	13340.98
902.845	13212.84
903.159	13150.93
903.473	13163.81
903.787	13122
904.101	13020.76
904.415	13045.62
904.729	12959.07
905.042	12937.37
905.356	12808.34
905.67	12798.17
905.984	12786.19
906.297	12677.04
906.611	12603.37
906.924	12593.43
907.237	12560.88
907.551	12497.16
907.864	12453.09
908.177	12436.37
908.491	12388.91
908.804	12270.04
909.117	12257.39
909.43	12226.2
909.743	12090.16
910.056	12134.23
910.368	12100.78
910.681	11977.4
910.994	11993.22
911.307	11944.63
911.619	11765.2
911.932	11867.34
912.244	11681.81
912.557	11651.08
912.869	11676.61
913.181	11662.15
913.494	11656.5
913.806	11531.98
914.118	11487.92
914.43	11498.31
914.742	11407.69
915.054	11326.34
915.366	11286.57
915.678	11295.83
915.99	11176.97
916.302	11097.42
916.613	11183.29
916.925	11060.13
917.236	11108.95
917.548	10947.59
917.859	11036.4
918.171	10905.56
918.482	10865.34
918.794	10802.96
919.105	10803.87
919.416	10651.1
919.727	10720.48
920.038	10661.5
920.349	10530.66
920.66	10598.9
920.971	10500.15
921.282	10415.86
921.593	10426.25
921.903	10358.68
922.214	10365.91
922.525	10278.23
922.835	10246.59
923.146	10205.47
923.456	10151
923.767	10083.89
924.077	10065.36
924.387	9987.17
924.697	9978.58
925.008	9953.04
925.318	9873.95
925.628	9852.48
925.938	9867.17
926.248	9727.96
926.558	9731.35
926.867	9696.33
927.177	9654.97
927.487	9557.57
927.796	9581.53
928.106	9547.63
928.416	9500.17
928.725	9460.4
929.034	9368.88
929.344	9452.04
929.653	9391.25
929.962	9303.12
930.271	9241.42
930.581	9222.22
930.89	9179.73
931.199	9115.78
931.508	9107.87
931.817	9076.91
932.125	9035.33
932.434	8974.54
932.743	8917.14
933.051	8871.04
933.36	8864.26
933.669	8784.71
933.977	8779.06
934.286	8746.52
934.594	8676.24
934.902	8652.96
935.21	8670.82
935.519	8586.3
935.827	8604.15
936.135	8531.39
936.443	8447.09
936.751	8388.56
937.059	8356.25
937.367	8352.18
937.674	8331.39
937.982	8332.3
938.29	8238.29
938.597	8231.73
938.905	8170.94
939.213	8186.76
939.52	8083.49
939.827	8168.46
940.135	8118.97
940.442	8020.44
940.749	8046.88
941.056	8032.42
941.363	7933.21
941.67	7911.52
941.977	7851.18
942.284	7848.69
942.591	7790.39
942.898	7824.96
943.205	7771.41
943.511	7690.05
943.818	7660
944.125	7628.58
944.431	7591.75
944.738	7517.85
945.044	7506.1
945.35	7458.87
945.657	7476.27
945.963	7438.76
946.269	7400.79
946.575	7400.57
946.881	7345.65
947.187	7303.85
947.493	7250.29
947.799	7215.26
948.105	7178.88
948.41	7126.68
948.716	7119.67
949.022	7118.77
949.327	7079.9
949.633	7009.84
949.938	7002.16
950.244	7010.75
950.549	6980.47
950.854	6849.85
951.16	6886.23
951.465	6834.26
951.77	6868.83
952.075	6803.3
952.38	6783.86
952.685	6726.91
952.99	6669.74
953.294	6643.98
953.599	6634.26
953.904	6589.74
954.209	6556.75
954.513	6622.74
954.818	6553.58
955.122	6546.35
955.426	6447.37
955.731	6451.67
956.035	6441.95
956.339	6454.83
956.643	6422.29
956.948	6328.28
957.252	6292.12
957.556	6301.16
957.86	6241.73
958.163	6275.17
958.467	6250.09
958.771	6188.4
959.075	6183.88
959.378	6142.07
959.682	6094.84
959.985	6044.22
960.289	5968.06
960.592	6004.67
960.896	5963.09
961.199	6027.95
961.502	5984.79
961.805	5881.29
962.108	5826.15
962.411	5899.14
962.714	5777.33
963.017	5760.84
963.32	5779.59
963.623	5735.98
963.926	5738.01
964.228	5719.03
964.531	5704.34
964.833	5634.74
965.136	5586.6
965.438	5571.24
965.741	5557.23
966.043	5554.97
966.345	5501.18
966.648	5510.22
966.95	5503.44
967.252	5428.19
967.554	5425.03
967.856	5384.8
968.158	5333.05
968.46	5342.09
968.761	5373.5
969.063	5321.07
969.365	5276.56
969.666	5256.44
969.968	5195.43
970.269	5184.58
970.571	5160.63
970.872	5162.66
971.174	5127.86
971.475	5092.38
971.776	5088.99
972.077	5066.62
972.378	5050.35
972.679	5020.74
972.98	5000.86
973.281	4965.6
973.582	4988.2
973.883	4900.75
974.183	4907.07
974.484	4912.95
974.785	4888.09
975.085	4804.03
975.386	4795.21
975.686	4818.94
975.986	4727.87
976.287	4764.93
976.587	4737.36
976.887	4693.29
977.187	4734.65
977.487	4666.63
977.787	4661.66
978.087	4653.75
978.387	4596.35
978.687	4625.95
978.987	4597.7
979.286	4515.9
979.586	4541.89
979.885	4552.28
980.185	4492.4
980.484	4407.65
980.784	4451.04
981.083	4423.02
981.382	4404.71
981.682	4383.92
981.981	4358.84
982.28	4335.56
982.579	4356.13
982.878	4306.64
983.177	4280.65
983.475	4267.09
983.774	4212.63
984.073	4217.37
984.372	4218.96
984.67	4172.86
984.969	4163.59
985.267	4145.29
985.566	4163.82
985.864	4073.88
986.162	4093.76
986.461	4081.33
986.759	4043.59
987.057	4008.79
987.355	3982.13
987.653	3955.69
987.951	3984.16
988.249	3948.91
988.547	3951.39
988.844	3920.21
989.142	3928.57
989.44	3849.93
989.737	3839.53
990.035	3842.92
990.332	3850.6
990.63	3817.61
990.927	3827.78
991.224	3808.57
991.521	3757.5
991.819	3763.38
992.116	3707.78
992.413	3669.59
992.71	3693.77
993.006	3656.94
993.303	3682.93
993.6	3643.6
993.897	3641.57
994.193	3613.55
994.49	3609.48
994.787	3559.77
995.083	3571.06
995.379	3528.13
995.676	3483.16
995.972	3509.6
996.268	3497.39
996.565	3468.92
996.861	3427.34
997.157	3454.91
997.453	3439.09
997.749	3381.46
998.044	3333.56
998.34	3343.73
998.636	3335.82
998.932	3331.97
999.227	3320.9
999.523	3288.59
999.818	3261.47
1000.114	3223.28
1000.409	3191.64
1000.704	3189.15
1001	3147.57
1001.295	3182.6
1001.59	3154.58
1001.885	3091.3
1002.18	3091.98
1002.475	3075.03
1002.77	3098.08
1003.065	3049.95
1003.359	3056.5
1003.654	3037.97
1003.949	3015.37
1004.243	2995.71
1004.538	2948.71
1004.832	2946.67
1005.127	2964.3
1005.421	2900.35
1005.715	2913.45
1006.009	2944.64
1006.304	2862.61
1006.598	2848.15
1006.892	2823.51
1007.186	2796.17
1007.48	2815.38
1007.773	2802.95
1008.067	2760.69
1008.361	2742.61
1008.655	2739
1008.948	2686.79
1009.242	2700.35
1009.535	2718.88
1009.829	2692.22
1010.122	2658.77
1010.415	2671.65
1010.708	2651.77
1011.001	2598.43
1011.295	2568.38
1011.588	2567.7
1011.881	2560.24
1012.173	2543.75
1012.466	2515.27
1012.759	2517.53
1013.052	2501.71
1013.344	2475.27
1013.637	2467.59
1013.93	2446.57
1014.222	2455.61
1014.514	2427.59
1014.807	2439.12
1015.099	2394.6
1015.391	2360.7
1015.683	2356.63
1015.976	2366.58
1016.268	2343.3
1016.56	2322.51
1016.851	2283.41
1017.143	2275.28
1017.435	2288.84
1017.727	2284.77
1018.018	2237.09
1018.31	2227.82
1018.602	2244.55
1018.893	2184.21
1019.185	2160.03
1019.476	2162.51
1019.767	2131.1
1020.058	2136.07
1020.35	2102.4
1020.641	2102.18
1020.932	2104.89
1021.223	2083.65
1021.514	2059.92
1021.804	2043.65
1022.095	2037.09
1022.386	2013.82
1022.677	1990.99
1022.967	1986.47
1023.258	1974.95
1023.548	1954.38
1023.839	1951.67
1024.129	1932.46
1024.419	1928.17
1024.709	1917.1
1025	1910.32
1025.29	1852.92
1025.58	1875.52
1025.87	1882.52
1026.16	1839.13
1026.449	1864.67
1026.739	1806.36
1027.029	1809.53
1027.319	1804.56
1027.608	1766.37
1027.898	1803.43
1028.187	1770.89
1028.477	1761.17
1028.766	1753.94
1029.055	1738.34
1029.344	1716.42
1029.634	1673.04
1029.923	1718.68
1030.212	1695.18
1030.501	1672.13
1030.79	1646.82
1031.078	1658.8
1031.367	1641.85
1031.656	1604.11
1031.945	1633.26
1032.233	1584.22
1032.522	1595.52
1032.81	1602.53
1033.099	1556.2
1033.387	1555.3
1033.675	1553.26
1033.963	1510.1
1034.251	1543.55
1034.54	1523.66
1034.828	1508.75
1035.116	1497.9
1035.403	1507.16
1035.691	1469.2
1035.979	1452.02
1036.267	1435.08
1036.554	1432.59
1036.842	1393.27
1037.129	1410.9
1037.417	1414.28
1037.704	1395.08
1037.992	1375.42
1038.279	1358.69
1038.566	1330.67
1038.853	1330.67
1039.14	1330.67
