Data from 18-5621_FLMS001491_010.txt Node
Date: Thu Apr 19 15:15:41 BST 2018
User: hsy
Spectrometer: FLMS00149
Trigger mode: 0
Integration Time (sec): 1.000000E-2
Scans to average: 10
Electric dark correction enabled: true
Nonlinearity correction enabled: false
Boxcar width: 0
XAxis mode: Wavelengths
Number of Pixels in Spectrum: 2048
>>>>>Begin Spectral Data<<<<<
341.393	-26.89
341.776	-26.89
342.16	-26.89
342.543	-57.85
342.927	-51.75
343.31	-83.84
343.693	-64.18
344.077	-69.6
344.46	-51.98
344.843	-53.56
345.226	-62.6
345.61	-37.74
345.993	-6.55
346.376	-0.23
346.759	-10.17
347.142	30.73
347.525	55.37
347.908	66.21
348.291	74.35
348.674	89.72
349.057	124.06
349.44	131.52
349.823	169.94
350.206	168.36
350.588	178.3
350.971	240.45
351.354	256.04
351.737	265.98
352.119	287.68
352.502	269.37
352.884	300.11
353.267	303.72
353.65	301.46
354.032	319.09
354.414	332.42
354.797	330.61
355.179	330.61
355.562	350.27
355.944	367.22
356.326	350.95
356.709	382.36
357.091	376.26
357.473	364.96
357.855	376.94
358.238	390.95
358.62	371.74
359.002	381.01
359.384	375.36
359.766	377.17
360.148	393.89
360.53	374.68
360.912	362.48
361.294	354.79
361.676	405.41
362.057	365.41
362.439	364.96
362.821	370.16
363.203	375.13
363.584	334.91
363.966	363.83
364.348	372.65
364.729	359.99
365.111	334.68
365.493	344.17
365.874	366.77
366.256	349.14
366.637	377.84
367.019	359.99
367.4	366.32
367.781	357.96
368.163	359.54
368.544	346.66
368.925	348.92
369.306	354.34
369.688	351.18
370.069	368.58
370.45	359.76
370.831	361.57
371.212	348.24
371.593	353.44
371.974	381.91
372.355	381.23
372.736	376.94
373.117	392.76
373.498	347.56
373.879	365.41
374.26	357.73
374.641	345.08
375.021	360.67
375.402	366.32
375.783	369.48
376.163	384.85
376.544	379.43
376.925	403.15
377.305	379.88
377.686	381.91
378.066	373.55
378.447	390.5
378.827	405.19
379.208	392.08
379.588	408.8
379.968	411.97
380.349	409.25
380.729	376.26
381.109	410.61
381.489	395.24
381.87	396.83
382.25	422.14
382.63	423.94
383.01	427.56
383.39	430.72
383.77	406.09
384.15	416.94
384.53	429.82
384.91	425.98
385.29	439.31
385.67	454.45
386.049	464.17
386.429	421.23
386.809	448.8
387.189	439.76
387.568	456.71
387.948	446.09
388.328	443.6
388.707	471.63
389.087	469.82
389.466	448.58
389.846	472.08
390.225	473.66
390.605	465.52
390.984	471.85
391.363	464.85
391.743	459.87
392.122	498.97
392.501	485.41
392.881	480.67
393.26	498.29
393.639	513.88
394.018	484.96
394.397	517.95
394.776	476.15
395.155	488.12
395.534	503.72
395.913	528.35
396.292	505.07
396.671	541
397.05	553.88
397.429	520.21
397.808	541.23
398.186	535.35
398.565	540.55
398.944	538.29
399.323	508.01
399.701	561.34
400.08	566.31
400.458	553.43
400.837	550.49
401.215	566.09
401.594	544.17
401.972	552.53
402.351	562.25
402.729	562.7
403.107	565.86
403.486	610.83
403.864	578.06
404.242	602.02
404.62	592.53
404.999	616.03
405.377	619.19
405.755	625.07
406.133	619.64
406.511	645.18
406.889	646.99
407.267	652.19
407.645	641.34
408.023	667.33
408.401	670.49
408.779	671.17
409.156	700.32
409.534	698.74
409.912	703.26
410.29	701.9
410.667	749.81
411.045	720.21
411.422	738.51
411.8	743.48
412.178	742.81
412.555	753.2
412.933	747.55
413.31	786.65
413.687	795.23
414.065	776.25
414.442	794.33
414.819	802.24
415.197	805.4
415.574	824.16
415.951	828
416.328	864.84
416.705	822.58
417.082	849.47
417.46	847.21
417.837	846.98
418.214	872.97
418.591	864.61
418.967	880.2
419.344	892.18
419.721	890.15
420.098	868.45
420.475	915
420.852	913.87
421.228	918.62
421.605	915.91
421.982	949.35
422.358	949.13
422.735	964.27
423.111	944.61
423.488	966.75
423.864	969.69
424.241	990.93
424.617	993.42
424.994	1009.69
425.37	976.25
425.746	1031.16
426.123	1050.14
426.499	1047.43
426.875	1036.36
427.251	1072.97
427.627	1102.8
428.003	1074.32
428.379	1112.51
428.756	1116.81
429.132	1103.25
429.507	1142.34
429.883	1169.01
430.259	1166.52
430.635	1155.68
431.011	1170.82
431.387	1204.04
431.763	1232.28
432.138	1212.4
432.514	1231.61
432.89	1232.74
433.265	1260.08
433.641	1311.6
434.016	1289.01
434.392	1297.59
434.767	1333.3
435.143	1340.08
435.518	1369
435.894	1370.81
436.269	1389.57
436.644	1401.09
437.02	1422.56
437.395	1438.38
437.77	1422.56
438.145	1461.2
438.52	1475.89
438.895	1483.8
439.271	1484.93
439.646	1519.28
440.021	1531.26
440.395	1550.47
440.77	1524.25
441.145	1547.76
441.52	1568.32
441.895	1536
442.27	1594.99
442.645	1593.4
443.019	1630.47
443.394	1595.66
443.769	1637.25
444.143	1624.14
444.518	1676.34
444.892	1641.76
445.267	1665.49
445.641	1670.24
446.016	1699.84
446.39	1714.31
446.764	1706.4
447.139	1706.17
447.513	1689.45
447.887	1722.67
448.262	1759.28
448.636	1737.13
449.01	1780.52
449.384	1769.44
449.758	1777.13
450.132	1836.11
450.506	1814.19
450.88	1823.23
451.254	1858.71
451.628	1865.26
452.002	1894.41
452.376	1903.9
452.75	1935.32
453.123	1965.37
453.497	1973.73
453.871	1961.53
454.244	2019.83
454.618	2046.27
454.992	2039.95
455.365	2061.19
455.739	2119.04
456.112	2156.55
456.486	2144.58
456.859	2149.55
457.232	2261.41
457.606	2236.33
457.979	2252.6
458.352	2326.49
458.725	2305.7
459.099	2317
459.472	2345.48
459.845	2397
460.218	2439.26
460.591	2460.27
460.964	2447.17
461.337	2512.25
461.71	2505.24
462.083	2559.25
462.456	2629.99
462.829	2612.81
463.201	2661.17
463.574	2659.82
463.947	2690.32
464.32	2729.19
464.692	2747.5
465.065	2756.09
465.438	2811.9
465.81	2843.99
466.183	2854.39
466.555	2917.21
466.928	2957.21
467.3	2935.06
467.672	2979.58
468.045	3059.13
468.417	3055.29
468.789	3046.93
469.161	3112.91
469.534	3175.51
469.906	3222.51
470.278	3237.65
470.65	3275.85
471.022	3329.86
471.394	3363.98
471.766	3403.98
472.138	3439.01
472.51	3485.56
472.882	3553.58
473.253	3622.96
473.625	3620.92
473.997	3711.09
474.369	3760.81
474.74	3782.73
475.112	3860.69
475.484	3890.97
475.855	3944.08
476.227	4003.51
476.598	4102.27
476.97	4153.34
477.341	4210.28
477.713	4252.77
478.084	4338.87
478.455	4415.93
478.827	4422.71
479.198	4580.22
479.569	4546.32
479.94	4687.79
480.311	4768.24
480.682	4839.87
481.053	5002.13
481.424	5121
481.795	5132.97
482.166	5180.43
482.537	5260.2
482.908	5355.11
483.279	5470.82
483.65	5586.97
484.021	5679.17
484.391	5746.06
484.762	5835.78
485.133	5828.32
485.503	5972.27
485.874	6092.27
486.244	6172.49
486.615	6298.82
486.985	6402.32
487.356	6474.18
487.726	6599.15
488.097	6736.55
488.467	6800.5
488.837	6932.7
489.207	7037.56
489.578	7194.84
489.948	7232.35
490.318	7403.65
490.688	7480.71
491.058	7572.68
491.428	7695.16
491.798	7793.02
492.168	7986.91
492.538	8006.8
492.908	8178.77
493.278	8297.86
493.648	8323.85
494.017	8544.41
494.387	8593.67
494.757	8684.97
495.126	8780.11
495.496	8887.45
495.866	8971.06
496.235	9096.26
496.605	9184.17
496.974	9257.84
497.344	9436.81
497.713	9454.67
498.082	9559.3
498.452	9685.85
498.821	9788.22
499.19	9920.42
499.559	9950.25
499.928	10004.48
500.298	10086.06
500.667	10270.92
501.036	10250.13
501.405	10406.28
501.774	10408.77
502.143	10479.95
502.512	10636.1
502.88	10777.8
503.249	10778.93
503.618	10884.46
503.987	10951.35
504.356	11113.38
504.724	11158.12
505.093	11225.92
505.462	11319.02
505.83	11335.75
506.199	11450.32
506.567	11640.15
506.936	11630.2
507.304	11757.66
507.672	11843.08
508.041	11818.9
508.409	12017.31
508.777	12120.81
509.145	12248.72
509.514	12221.6
509.882	12328.04
510.25	12413.23
510.618	12542.04
510.986	12554.7
511.354	12673.57
511.722	12816.39
512.09	12872.66
512.458	12831.08
512.826	12989.49
513.193	13107
513.561	13016.83
513.929	13109.03
514.297	13328.92
514.664	13340.21
515.032	13478.52
515.4	13559.64
515.767	13612.98
516.135	13673.31
516.502	13605.52
516.869	13944.49
517.237	13912.63
517.604	13849.35
517.972	14188.1
518.339	14191.94
518.706	14181.1
519.073	14245.5
519.44	14290.02
519.808	14524.59
520.175	14593.06
520.542	14709.22
520.909	14622.21
521.276	14748.54
521.643	14935.43
522.009	14973.17
522.376	15071.02
522.743	15187.4
523.11	15342.87
523.477	15424.68
523.843	15496.99
524.21	15759.36
524.577	15826.93
524.943	15853.59
525.31	15986.02
525.676	16078.22
526.043	16181.5
526.409	16260.14
526.776	16355.5
527.142	16379.91
527.508	16485.67
527.874	16763.18
528.241	16781.25
528.607	16809.95
528.973	16935.83
529.339	17055.6
529.705	17132.66
530.071	17284.97
530.437	17345.08
530.803	17487.45
531.169	17487.22
531.535	17514.12
531.901	17572.65
532.267	17589.59
532.632	17707.33
532.998	17766.99
533.364	17908.23
533.73	17950.04
534.095	18089.92
534.461	18075.46
534.826	18202.91
535.192	18167.43
535.557	18294.43
535.923	18307.09
536.288	18423.24
536.653	18469.57
537.019	18404.71
537.384	18351.83
537.749	18486.52
538.114	18555.9
538.479	18460.08
538.845	18596.35
539.21	18661.66
539.575	18609.91
539.94	18653.97
540.305	18792.27
540.67	18781.43
541.034	18839.05
541.399	18754.99
541.764	18895.1
542.129	18881.76
542.494	18845.38
542.858	18978.94
543.223	18866.85
543.587	18926.51
543.952	18991.14
544.316	19002.66
544.681	18841.54
545.045	19067.75
545.41	18985.94
545.774	18997.47
546.138	19064.36
546.503	19142.1
546.867	19088.09
547.231	19142.32
547.595	19241.98
547.959	19303.9
548.324	19258.02
548.688	19252.83
549.052	19199.04
549.416	19232.04
549.779	19263.22
550.143	19316.55
550.507	19372.82
550.871	19331.47
551.235	19418.47
551.599	19452.6
551.962	19482.2
552.326	19505.48
552.689	19554.51
553.053	19452.14
553.417	19539.6
553.78	19655.3
554.143	19568.75
554.507	19557.45
554.87	19720.16
555.234	19743.21
555.597	19649.88
555.96	19793.38
556.323	19825.69
556.686	19839.25
557.05	19949.53
557.413	20050.09
557.776	20041.73
558.139	20081.96
558.502	20153.14
558.865	20129.87
559.228	20282.86
559.59	20382.29
559.953	20309.97
560.316	20492.12
560.679	20597.88
561.041	20571.66
561.404	20616.41
561.767	20676.29
562.129	20678.55
562.492	20877.64
562.854	20861.82
563.217	20958.32
563.579	21013.68
563.941	21167.13
564.304	21172.32
564.666	21407.57
565.028	21432.66
565.39	21442.15
565.753	21678.75
566.115	21719.43
566.477	21791.29
566.839	21927.33
567.201	22149.93
567.563	22217.49
567.925	22309.47
568.287	22328.68
568.648	22392.41
569.01	22688.89
569.372	22779.29
569.734	22735.67
570.095	22907.87
570.457	23039.17
570.819	23061.54
571.18	23109.67
571.542	23318.93
571.903	23367.97
572.265	23461.53
572.626	23693.84
572.987	23701.98
573.349	23793.05
573.71	23932.7
574.071	24125.02
574.432	24192.36
574.794	24442.52
575.155	24343.31
575.516	24335.86
575.877	24582.4
576.238	24553.48
576.599	24782.85
576.96	24839.57
577.32	24718.67
577.681	24919.57
578.042	25141.03
578.403	25092
578.763	25100.13
579.124	25081.37
579.485	25351.88
579.845	25330.63
580.206	25470.06
580.566	25494.92
580.927	25483.4
581.287	25699.21
581.648	25618.76
582.008	25699.89
582.368	25698.31
582.728	25815.14
583.089	25656.95
583.449	25721.81
583.809	25725.88
584.169	25919.54
584.529	25864.4
584.889	26098.97
585.249	25939.66
585.609	25880.45
585.969	26123.83
586.329	25898.3
586.688	26109.14
587.048	25867.12
587.408	26013.55
587.768	25975.59
588.127	25978.75
588.487	26013.33
588.846	26164.96
589.206	26001.35
589.565	26129.26
589.925	26254
590.284	26187.56
590.643	26187.33
591.003	26182.59
591.362	26231.85
591.721	26193.66
592.08	26216.49
592.44	26377.16
592.799	26345.52
593.158	26298.52
593.517	26163.38
593.876	26470.94
594.235	26205.41
594.593	26244.06
594.952	26318.18
595.311	26279.76
595.67	26267.33
596.029	26469.59
596.387	26510.94
596.746	26516.59
597.104	26500.77
597.463	26526.76
597.822	26571.73
598.18	26364.28
598.538	26348.23
598.897	26614.67
599.255	26476.37
599.613	26785.96
599.972	26469.59
600.33	26560.21
600.688	26595.68
601.046	26449.02
601.404	26819.41
601.762	26684.5
602.12	26878.62
602.478	26728.34
602.836	26800.88
603.194	26649.69
603.552	26741.44
603.91	26733.99
604.268	26900.99
604.625	26840.42
604.983	26925.62
605.341	26761.1
605.698	26964.94
606.056	27130.36
606.413	26879.07
606.771	27026.86
607.128	26999.29
607.485	26894.21
607.843	26978.5
608.2	27109.8
608.557	27143.02
608.914	26972.85
609.272	27136.46
609.629	27298.27
609.986	27295.1
610.343	27228.21
610.7	27395.44
611.057	27463.68
611.414	27268.66
611.771	27420.97
612.127	27462.55
612.484	27453.97
612.841	27528.99
613.198	27432.95
613.554	27517.47
613.911	27861.64
614.267	27615.77
614.624	27641.53
614.98	27716.11
615.337	27780.51
615.693	27924.92
616.05	27874.52
616.406	27990.22
616.762	27829.78
617.118	27957.91
617.475	28029.09
617.831	28008.98
618.187	27934.41
618.543	28010.79
618.899	28245.36
619.255	28099.15
619.611	28008.76
619.967	28294.85
620.323	28154.97
620.678	28090.79
621.034	28149.77
621.39	28103.67
621.746	28134.18
622.101	28383.89
622.457	28106.83
622.812	28342.98
623.168	28350.89
623.523	28361.51
623.879	28357.67
624.234	28271.57
624.589	28255.98
624.945	28405.58
625.3	28365.13
625.655	28490.55
626.01	28404.45
626.365	28470.21
626.72	28493.49
627.075	28214.85
627.43	28371.68
627.785	28364.9
628.14	28382.08
628.495	28378.91
628.85	28256.66
629.205	28298.01
629.559	28375.07
629.914	28217.79
630.269	28215.53
630.623	28131.92
630.978	27962.88
631.332	28257.79
631.687	28213.04
632.041	28212.14
632.396	28189.54
632.75	28100.28
633.104	28148.19
633.459	27862.54
633.813	28066.15
634.167	27908.87
634.521	27991.58
634.875	27850.12
635.229	27942.54
635.583	27816.67
635.937	27720.18
636.291	27747.74
636.645	27739.38
636.999	27597.24
637.352	27692.38
637.706	27594.98
638.06	27674.3
638.413	27469.79
638.767	27475.21
639.121	27520.18
639.474	27311.37
639.828	27432.95
640.181	27362.67
640.534	27504.36
640.888	27376.91
641.241	27314.08
641.594	27252.16
641.947	27278.38
642.301	27230.02
642.654	27300.75
643.007	27283.35
643.36	27308.89
643.713	27219.17
644.066	27266.85
644.419	27095.56
644.771	26905.73
645.124	26545.74
645.477	26524.05
645.83	26522.69
646.182	26562.92
646.535	26423.03
646.888	26569.02
647.24	26513.2
647.593	26736.02
647.945	26632.52
648.298	26466.87
648.65	26315.01
649.002	26141.69
649.355	26137.84
649.707	25964.74
650.059	25909.6
650.411	26333.77
650.763	26488.57
651.115	27000.87
651.467	26915.9
651.819	26830.93
652.171	26988.89
652.523	26758.62
652.875	26895.56
653.227	26750.48
653.578	26980.53
653.93	26909.8
654.282	26707.09
654.633	26701.67
654.985	26895.34
655.337	26872.97
655.688	26798.84
656.039	26884.72
656.391	26642.01
656.742	26732.18
657.094	26665.74
657.445	26752.97
657.796	26890.59
658.147	26756.81
658.498	26875
658.849	27009.01
659.2	26741.22
659.551	26771.73
659.902	26978.73
660.253	26738.96
660.604	27108.67
660.955	26815.57
661.306	27035.9
661.656	26965.62
662.007	26866.41
662.358	26898.5
662.708	27059.85
663.059	26917.03
663.409	26919.29
663.76	26904.6
664.11	26927.43
664.461	27024.83
664.811	27178.04
665.161	27060.53
665.511	26890.59
665.862	26987.76
666.212	27073.41
666.562	27039.97
666.912	27061.44
667.262	26977.37
667.612	27114.54
667.962	27090.59
668.312	27046.52
668.662	27155.22
669.011	27175.56
669.361	27230.92
669.711	27081.32
670.06	27143.02
670.41	27124.71
670.76	27031.83
671.109	27193.18
671.459	27081.77
671.808	26987.54
672.157	27013.53
672.507	26880.88
672.856	26900.08
673.205	26890.82
673.554	27026.41
673.904	26896.92
674.253	27143.24
674.602	26967.65
674.951	26562.92
675.3	26346.65
675.649	26992.28
675.998	26845.62
676.346	26809.46
676.695	26856.92
677.044	26733.08
677.393	26852.18
677.741	26804.94
678.09	26699.18
678.438	26718.39
678.787	26832.97
679.135	26607.44
679.484	26567.66
679.832	26499.19
680.181	26518.62
680.529	26534.44
680.877	26408.35
681.225	26451.51
681.573	26592.52
681.922	26310.27
682.27	26226.88
682.618	26298.74
682.966	26214
683.314	26264.17
683.661	26168.8
684.009	26073.66
684.357	26025.53
684.705	25843.16
685.053	25902.6
685.4	25713.9
685.748	25774.01
686.095	25728.36
686.443	25549.84
686.79	25657.86
687.138	25597.07
687.485	25416.28
687.832	25310.52
688.18	25412.67
688.527	25261.48
688.874	25194.82
689.221	25232.33
689.568	24996.18
689.915	24951.43
690.262	24979.91
690.609	24954.15
690.956	24769.52
691.303	24785.34
691.65	24579.69
691.997	24533.37
692.344	24421.96
692.69	24455.85
693.037	24461.28
693.383	24073.72
693.73	24332.92
694.077	24102.19
694.423	24004.57
694.769	23926.15
695.116	23800.5
695.462	23747.17
695.808	23535.43
696.155	23675.76
696.501	23536.78
696.847	23528.19
697.193	23343.34
697.539	23273.96
697.885	23132.5
698.231	23116.45
698.577	23069.68
698.923	23078.26
699.269	22862.22
699.614	22746.52
699.96	22589.46
700.306	22692.51
700.651	22510.59
700.997	22475.79
701.342	22433.53
701.688	22373.65
702.033	22220.21
702.379	22231.96
702.724	22077.61
703.069	22049.14
703.415	21838.52
703.76	21823.38
704.105	21850.72
704.45	21632.65
704.795	21583.61
705.14	21469.72
705.485	21551.07
705.83	21353.79
706.175	21399.89
706.52	21321.25
706.865	21103.63
707.209	21022.05
707.554	21094.13
707.899	21059.33
708.243	20950.18
708.588	20835.61
708.932	20801.94
709.277	20834.93
709.621	20738.44
709.966	20640.14
710.31	20596.75
710.654	20495.28
710.998	20522.4
711.342	20455.96
711.687	20373.48
712.031	20317.21
712.375	20163.99
712.719	20286.25
713.063	20184.33
713.407	20305
713.75	20270.2
714.094	20104.33
714.438	19995.86
714.782	20021.39
715.125	19917.22
715.469	20091
715.812	19964.9
716.156	19879.48
716.499	19957.89
716.843	19968.06
717.186	19874.05
717.53	19994.73
717.873	19930.1
718.216	19793.6
718.559	19844.9
718.902	19688.97
719.246	19684
719.589	19751.12
719.932	19618.24
720.275	19676.09
720.617	19590.22
720.96	19605.13
721.303	19633.38
721.646	19670.67
721.989	19570.33
722.331	19605.81
722.674	19525.59
723.016	19502.76
723.359	19505.7
723.701	19531.24
724.044	19499.6
724.386	19416.66
724.729	19555.42
725.071	19545.7
725.413	19422.54
725.755	19464.12
726.097	19423.22
726.439	19502.31
726.782	19533.5
727.124	19613.04
727.465	19479.71
727.807	19430.45
728.149	19554.06
728.491	19412.6
728.833	19436.33
729.175	19560.84
729.516	19468.19
729.858	19491.24
730.199	19504.35
730.541	19536.21
730.882	19529.88
731.224	19504.57
731.565	19583.44
731.906	19596.55
732.248	19634.29
732.589	19650.33
732.93	19512.03
733.271	19637.22
733.612	19634.51
733.953	19702.98
734.294	19659.14
734.635	19673.38
734.976	19768.29
735.317	19818.46
735.658	19767.16
735.999	19811.91
736.339	19855.98
736.68	19827.05
737.021	19952.7
737.361	19848.07
737.702	19973.49
738.042	19902.3
738.383	20074.05
738.723	20130.54
739.063	20039.7
739.404	20276.98
739.744	20232.01
740.084	20281.27
740.424	20325.12
740.764	20292.35
741.104	20418.67
741.444	20563.98
741.784	20597.42
742.124	20712.9
742.464	20792.22
742.804	20739.79
743.143	20807.59
743.483	20930.07
743.823	20860.24
744.162	20993.35
744.502	21163.74
744.841	21064.3
745.181	21435.59
745.52	21465.65
745.86	21522.82
746.199	21615.25
746.538	21716.72
746.877	21881.68
747.216	22002.59
747.556	22143.6
747.895	22274.22
748.234	22368.23
748.573	22506.3
748.911	22552.63
749.25	22736.8
749.589	22960.98
749.928	23129.56
750.267	23331.14
750.605	23255.43
750.944	23591.92
751.283	23578.59
751.621	23911.46
751.96	23981.06
752.298	24120.95
752.636	24383.54
752.975	24494.05
753.313	24609.52
753.651	24998.66
753.989	25037.99
754.327	25157.08
754.666	25231.2
755.004	25536.5
755.342	25677.06
755.679	25844.97
756.017	25878.64
756.355	26257.16
756.693	26409.25
757.031	26631.39
757.368	26579.64
757.706	26942.34
758.044	27083.13
758.381	27218.95
758.719	27409.45
759.056	27654.87
759.394	27719.27
759.731	27772.6
760.068	27973.5
760.405	28196.55
760.743	28291.91
761.08	28470.89
761.417	28430.89
761.754	28683.09
762.091	28925.34
762.428	28911.1
762.765	28932.57
763.102	29216.18
763.438	29259.57
763.775	29249.85
764.112	29570.3
764.449	29513.35
764.785	29638.09
765.122	29692.33
765.458	29734.36
765.795	29745.21
766.131	30085.99
766.467	30086.67
766.804	29811.87
767.14	29978.87
767.476	30125.08
767.812	30159.43
768.148	30281.01
768.485	30240.56
768.821	30250.5
769.157	30452.53
769.492	30476.94
769.828	30402.82
770.164	30227.68
770.5	30292.54
770.836	30421.57
771.171	30522.81
771.507	30360.33
771.842	30263.61
772.178	30439.65
772.513	30240.33
772.849	30283.27
773.184	30327.56
773.519	30381.8
773.855	30299.77
774.19	30297.06
774.525	30301.8
774.86	30237.62
775.195	30187.45
775.53	30096.84
775.865	30097.29
776.2	29999.66
776.535	29911.53
776.87	29958.76
777.205	29871.98
777.539	29781.36
777.874	29985.88
778.209	29785.43
778.543	29600.35
778.878	29570.97
779.212	29565.78
779.547	29386.12
779.881	29437.87
780.215	29429.28
780.55	29324.65
780.884	29172.34
781.218	29085.79
781.552	29352.45
781.886	29079.69
782.22	29066.35
782.554	28928.5
782.888	28787.49
783.222	28679.02
783.556	28577.78
783.889	28550.89
784.223	28426.82
784.557	28431.79
784.89	28452.81
785.224	28313.61
785.557	28170.11
785.891	28060.28
786.224	27954.75
786.558	28048.75
786.891	27887.4
787.224	27785.48
787.557	27616.67
787.891	27709.78
788.224	27498.94
788.557	27496.9
788.89	27571.7
789.223	27440.86
789.556	27392.5
789.888	27265.5
790.221	27157.25
790.554	27076.58
790.887	27009.23
791.219	26922.23
791.552	26865.51
791.884	26777.83
792.217	26715
792.549	26594.1
792.882	26353.43
793.214	26419.19
793.546	26414.9
793.879	26290.38
794.211	26129.03
794.543	26237.95
794.875	26226.88
795.207	26089.48
795.539	26048.35
795.871	26066.43
796.203	25751.19
796.535	25694.24
796.867	25745.09
797.198	25521.59
797.53	25616.5
797.862	25389.84
798.193	25473.45
798.525	25274.59
798.856	25358.66
799.188	25025.56
799.519	25069.62
799.85	24938.55
800.182	24993.47
800.513	25036.18
800.844	24689.07
801.175	24835.96
801.506	24796.41
801.837	24628.05
802.168	24655.17
802.499	24644.78
802.83	24587.83
803.161	24451.11
803.491	24367.27
803.822	24454.05
804.153	24299.25
804.483	24151.46
804.814	24001.4
805.145	24059.25
805.475	24095.64
805.805	24073.49
806.136	24117.11
806.466	23940.84
806.796	23894.96
807.126	23716.89
807.457	23643.9
807.787	23778.58
808.117	23606.38
808.447	23551.92
808.777	23729.09
809.107	23360.97
809.436	23293.62
809.766	23332.27
810.096	23371.81
810.426	23093.18
810.755	23285.49
811.085	23177.47
811.414	23048.21
811.744	23070.58
812.073	23083.23
812.403	22968.66
812.732	22784.94
813.061	22951.71
813.39	22898.61
813.719	22729.8
814.049	22942
814.378	22838.27
814.707	22612.51
815.036	22689.12
815.365	22507.88
815.693	22410.71
816.022	22519.18
816.351	22397.38
816.68	22238.06
817.008	22403.25
817.337	22241
817.665	22208.23
817.994	22189.7
818.322	22333.2
818.651	22169.81
818.979	22179.76
819.307	22125.52
819.636	22067.89
819.964	22025.86
820.292	22050.27
820.62	22013.21
820.948	22145.18
821.276	22111.06
821.604	22013.43
821.932	22093.43
822.259	21919.42
822.587	22001
822.915	22009.82
823.243	21972.53
823.57	21950.61
823.898	22040.32
824.225	21975.47
824.553	21887.11
824.88	21948.12
825.207	21965.07
825.535	21886.2
825.862	22001.46
826.189	21944.06
826.516	21978.63
826.843	22063.6
827.17	22059.08
827.497	22106.09
827.824	22147.89
828.151	22064.73
828.478	22063.6
828.805	22189.25
829.131	22060.44
829.458	22118.97
829.785	21923.94
830.111	22046.65
830.438	22229.92
830.764	22015.69
831.09	22094.79
831.417	22030.16
831.743	22191.05
832.069	22097.72
832.395	22036.26
832.722	22031.29
833.048	21989.7
833.374	22080.78
833.7	21899.99
834.026	22066.76
834.351	21946.54
834.677	21986.99
835.003	21992.19
835.329	21981.34
835.654	22060.66
835.98	21928.46
836.306	21963.72
836.631	21847.56
836.956	21966.65
837.282	21996.26
837.607	21832.65
837.932	21850.05
838.258	21743.61
838.583	21756.04
838.908	21700.9
839.233	21742.25
839.558	21636.49
839.883	21686.21
840.208	21562.6
840.533	21547
840.858	21504.97
841.182	21515.37
841.507	21530.51
841.832	21348.14
842.156	21418.87
842.481	21423.84
842.805	21241.25
843.13	21242.15
843.454	21437.85
843.778	21328.7
844.103	21224.75
844.427	21149.5
844.751	21183.4
845.075	21090.74
845.399	20979.56
845.723	20965.32
846.047	20962.39
846.371	20778.44
846.695	20777.76
847.019	20644.43
847.343	20559.01
847.666	20452.12
847.99	20401.05
848.313	20338.45
848.637	20283.31
848.96	20238.79
849.284	20255.74
849.607	19983.43
849.931	20053.26
850.254	19839.25
850.577	19725.36
850.9	19671.35
851.223	19731.01
851.546	19556.32
851.869	19414.18
852.192	19587.28
852.515	19375.99
852.838	19211.7
853.161	19223.68
853.483	19145.94
853.806	18996.34
854.129	18999.27
854.451	18861.88
854.774	18853.74
855.096	18820.3
855.419	18806.96
855.741	18756.12
856.063	18642
856.385	18567.42
856.708	18539.17
857.03	18511.15
857.352	18509.8
857.674	18479.29
857.996	18316.13
858.318	18225.96
858.64	18354.09
858.961	18241.1
859.283	18129.01
859.605	18152.97
859.926	18097.83
860.248	18056.93
860.57	18005.63
860.891	17954.78
861.212	17812.41
861.534	17820.1
861.855	17730.61
862.176	17819.42
862.498	17749.59
862.819	17781.91
863.14	17675.92
863.461	17561.35
863.782	17534.23
864.103	17624.4
864.424	17625.3
864.745	17618.07
865.065	17293.56
865.386	17456.04
865.707	17386.44
866.027	17296.04
866.348	17259.66
866.668	17249.49
866.989	17292.88
867.309	17091.98
867.63	17236.38
867.95	17146.67
868.27	17062.83
868.59	17074.81
868.91	17136.95
869.23	17054.92
869.55	16950.74
869.87	17164.29
870.19	16940.12
870.51	16982.15
870.83	16953
871.15	16810.63
871.469	16969.95
871.789	16889.5
872.109	16840.46
872.428	16843.4
872.748	16782.38
873.067	16734.48
873.386	16806.34
873.706	16727.02
874.025	16604.54
874.344	16611.77
874.663	16519.11
874.982	16652.22
875.301	16455.61
875.62	16522.05
875.939	16489.06
876.258	16501.26
876.577	16452
876.896	16436.18
877.214	16420.13
877.533	16399.12
877.852	16296.97
878.17	16403.64
878.489	16271.89
878.807	16282.51
879.125	16264.21
879.444	16091.1
879.762	16213.58
880.08	16353.47
880.398	16022.86
880.716	16186.69
881.034	16014.04
881.352	16075.96
881.67	15957.32
881.988	16078.22
882.306	15901.05
882.624	15894.27
882.941	15797.78
883.259	15807.72
883.577	15796.42
883.894	15697.44
884.212	15663.32
884.529	15692.92
884.846	15654.05
885.164	15571.57
885.481	15562.08
885.798	15560.49
886.115	15440.5
886.432	15402.76
886.75	15350.56
887.067	15436.43
887.383	15335.87
887.7	15363.21
888.017	15245.02
888.334	15268.3
888.651	15202.31
888.967	15150.56
889.284	15131.58
889.6	15040.06
889.917	14949.21
890.233	14938.36
890.55	14899.95
890.866	14988.76
891.182	14877.35
891.498	14836.9
891.815	14727.52
892.131	14679.61
892.447	14641.87
892.763	14658.37
893.079	14547.64
893.395	14564.14
893.71	14478.72
894.026	14447.76
894.342	14419.73
894.657	14380.41
894.973	14355.33
895.289	14275.78
895.604	14280.98
895.92	14059.97
896.235	14178.16
896.55	14050.48
896.865	14084.6
897.181	13989.69
897.496	13972.74
897.811	13798.96
898.126	13883.7
898.441	13775.46
898.756	13809.58
899.071	13745.18
899.386	13730.71
899.7	13588.12
900.015	13550.15
900.33	13491.85
900.644	13497.5
900.959	13427.67
901.273	13359.65
901.588	13342.93
901.902	13290.5
902.216	13305.86
902.531	13236.49
902.845	13124.17
903.159	13055.25
903.473	12997.4
903.787	13012.09
904.101	12907.91
904.415	12947.23
904.729	12833.79
905.042	12801.02
905.356	12737.29
905.67	12822.71
905.984	12652.77
906.297	12656.16
906.611	12621.36
906.924	12586.79
907.237	12523.51
907.551	12459.79
907.864	12419.33
908.177	12322.39
908.491	12358.32
908.804	12220.24
909.117	12223.63
909.43	12122.62
909.743	12080.36
910.056	12040.36
910.368	11917.2
910.681	11896.41
910.994	11940.25
911.307	11819.58
911.619	11739.8
911.932	11799.46
912.244	11665.23
912.557	11658.45
912.869	11511.34
913.181	11542.3
913.494	11538.68
913.806	11496.42
914.118	11466.37
914.43	11383.2
914.742	11375.97
915.054	11142.08
915.366	11173.49
915.678	11174.85
915.99	11091.23
916.302	11056.43
916.613	10997.22
916.925	11022.08
917.236	10997.68
917.548	10871.8
917.859	10942.54
918.171	10862.77
918.482	10794.29
918.794	10698.48
919.105	10762.2
919.416	10623.68
919.727	10625.26
920.038	10527.86
920.349	10496.22
920.66	10437.92
920.971	10427.97
921.282	10429.33
921.593	10310.24
921.903	10250.58
922.214	10264.36
922.525	10260.3
922.835	10167.42
923.146	10095.33
923.456	10026.18
923.767	10042
924.077	9957.93
924.387	9994.31
924.697	9911.38
925.008	9862.79
925.318	9851.49
925.628	9815.56
925.938	9777.37
926.248	9758.84
926.558	9609.92
926.867	9636.81
927.177	9607.66
927.487	9568.56
927.796	9471.16
928.106	9513.65
928.416	9451.05
928.725	9445.63
929.034	9379.87
929.344	9343.03
929.653	9305.74
929.962	9221.68
930.271	9204.96
930.581	9165.86
930.89	9098.29
931.199	9036.15
931.508	8964.51
931.817	9009.48
932.125	8972.65
932.434	9009.25
932.743	8829.37
933.051	8777.85
933.36	8827.56
933.669	8731.3
933.977	8716.15
934.286	8695.82
934.594	8603.16
934.902	8641.81
935.21	8594.8
935.519	8521.81
935.827	8541.02
936.135	8485.88
936.443	8406.56
936.751	8410.4
937.059	8380.8
937.367	8286.79
937.674	8316.39
937.982	8284.53
938.29	8258.77
938.597	8157.98
938.905	8136.28
939.213	8128.83
939.52	8115.49
939.827	8118.43
940.135	8045.66
940.442	7983.74
940.749	7985.33
941.056	7979
941.363	7858.78
941.67	7873.69
941.977	7784.65
942.284	7731.55
942.591	7736.52
942.898	7779.46
943.205	7683.19
943.511	7650.19
943.818	7630.53
944.125	7491.55
944.431	7513.25
944.738	7513.25
945.044	7471.67
945.35	7432.12
945.657	7369.98
945.963	7334.95
946.269	7340.15
946.575	7276.19
946.881	7326.14
947.187	7260.37
947.493	7153.26
947.799	7205.23
948.105	7142.86
948.41	7084.79
948.716	6995.75
949.022	7036.2
949.327	7031.23
949.633	6958.46
949.938	6924.34
950.244	6920.27
950.549	6911.91
950.854	6871.91
951.16	6821.29
951.465	6768.18
951.77	6751.23
952.075	6689.99
952.38	6701.52
952.685	6698.58
952.99	6635.76
953.294	6597.79
953.599	6577
953.904	6534.07
954.209	6447.97
954.513	6447.74
954.818	6471.47
955.122	6398.93
955.426	6436.44
955.731	6391.02
956.035	6364.58
956.339	6299.04
956.643	6316.67
956.948	6255.2
957.252	6212.94
957.556	6177.69
957.86	6153.28
958.163	6141.99
958.467	6119.84
958.771	6111.03
959.075	6087.52
959.378	6057.69
959.682	6083.68
959.985	5987.19
960.289	5983.35
960.592	5913.29
960.896	5857.02
961.199	5911.48
961.502	5925.72
961.805	5866.96
962.108	5811.6
962.411	5826.51
962.714	5725.27
963.017	5723.47
963.32	5716.01
963.623	5737.93
963.926	5699.74
964.228	5639.17
964.531	5656.35
964.833	5580.19
965.136	5555.33
965.438	5553.3
965.741	5504.49
966.043	5481.44
966.345	5472.85
966.648	5439.18
966.95	5407.32
967.252	5376.81
967.554	5422
967.856	5330.71
968.158	5297.94
968.46	5312.63
968.761	5268.34
969.063	5278.96
969.365	5272.18
969.666	5168.45
969.968	5190.37
970.269	5157.15
970.571	5110.37
970.872	5159.86
971.174	5119.87
971.475	5066.99
971.776	5010.04
972.077	5076.25
972.378	5024.5
972.679	5057.49
972.98	4993.99
973.281	4957.61
973.582	4919.87
973.883	4896.14
974.183	4869.7
974.484	4855.47
974.785	4798.52
975.085	4794.68
975.386	4767.11
975.686	4766.65
975.986	4761.46
976.287	4752.19
976.587	4692.08
976.887	4688.24
977.187	4690.95
977.487	4653.89
977.787	4597.85
978.087	4644.17
978.387	4605.98
978.687	4558.98
978.987	4481.01
979.286	4537.06
979.586	4473.33
979.885	4473.78
980.185	4408.92
980.484	4427
980.784	4381.81
981.083	4359.66
981.382	4364.86
981.682	4311.98
981.981	4358.3
982.28	4341.58
982.579	4283.28
982.878	4290.28
983.177	4263.62
983.475	4266.78
983.774	4215.03
984.073	4235.37
984.372	4173.68
984.67	4140.46
984.969	4166.9
985.267	4146.56
985.566	4093.68
985.864	4076.73
986.162	4060.91
986.461	4060.23
986.759	4010.74
987.057	3964.64
987.355	4026.11
987.653	3939.11
987.951	3949.73
988.249	3918.54
988.547	3899.78
988.844	3857.53
989.142	3899.11
989.44	3830.41
989.737	3841.71
990.035	3796.06
990.332	3749.51
990.63	3794.25
990.927	3734.82
991.224	3756.51
991.521	3745.89
991.819	3723.97
992.116	3674.48
992.413	3643.75
992.71	3665.89
993.006	3633.58
993.303	3608.27
993.6	3593.35
993.897	3607.14
994.193	3562.84
994.49	3539.12
994.787	3549.06
995.083	3515.61
995.379	3497.54
995.676	3445.11
995.972	3490.98
996.268	3412.11
996.565	3409.4
996.861	3403.07
997.157	3387.71
997.453	3341.38
997.749	3344.09
998.044	3310.87
998.34	3330.76
998.636	3329.18
998.932	3279.69
999.227	3264.09
999.523	3266.35
999.818	3223.42
1000.114	3188.62
1000.409	3188.16
1000.704	3170.09
1001	3152.69
1001.295	3151.56
1001.59	3108.62
1001.885	3097.09
1002.18	3112.01
1002.475	3072.91
1002.77	3048.73
1003.065	3016.19
1003.359	3000.15
1003.654	2984.1
1003.949	2989.75
1004.243	2969.87
1004.538	2956.98
1004.832	2949.07
1005.127	2905.91
1005.421	2893.26
1005.715	2826.59
1006.009	2872.47
1006.304	2821.62
1006.598	2814.62
1006.892	2827.27
1007.186	2796.54
1007.48	2767.84
1007.773	2745.46
1008.067	2706.14
1008.361	2726.93
1008.655	2733.04
1008.948	2716.99
1009.242	2678.57
1009.535	2668.63
1009.829	2604
1010.122	2645.13
1010.415	2646.71
1010.708	2630.21
1011.001	2620.72
1011.295	2588.18
1011.588	2525.58
1011.881	2565.58
1012.173	2502.76
1012.466	2528.07
1012.759	2504.34
1013.052	2482.19
1013.344	2445.36
1013.637	2447.39
1013.93	2444.68
1014.222	2420.5
1014.514	2410.56
1014.807	2397.23
1015.099	2377.34
1015.391	2359.94
1015.683	2358.58
1015.976	2310
1016.268	2297.11
1016.56	2292.14
1016.851	2255.31
1017.143	2265.93
1017.435	2250.11
1017.727	2266.61
1018.018	2232.26
1018.31	2226.61
1018.602	2188.19
1018.893	2183.45
1019.185	2161.75
1019.476	2139.15
1019.767	2136.67
1020.058	2129.44
1020.35	2122.2
1020.641	2099.61
1020.932	2086.27
1021.223	2055.31
1021.514	2041.08
1021.804	2045.82
1022.095	2023.45
1022.386	2020.06
1022.677	1968.99
1022.967	1983.45
1023.258	1943.68
1023.548	1966.28
1023.839	1924.24
1024.129	1926.5
1024.419	1880.18
1024.709	1913.85
1025	1900.06
1025.29	1857.8
1025.58	1869.33
1025.87	1859.84
1026.16	1853.96
1026.449	1815.55
1026.739	1811.48
1027.029	1763.8
1027.319	1768.09
1027.608	1799.05
1027.898	1759.95
1028.187	1765.38
1028.477	1743.68
1028.766	1712.5
1029.055	1675.66
1029.344	1696.68
1029.634	1685.15
1029.923	1643.57
1030.212	1651.26
1030.501	1644.48
1030.79	1612.16
1031.078	1645.38
1031.367	1626.62
1031.656	1606.29
1031.945	1603.57
1032.233	1596.57
1032.522	1570.13
1032.81	1550.92
1033.099	1555.44
1033.387	1571.48
1033.675	1529.23
1033.963	1512.28
1034.251	1511.82
1034.54	1507.98
1034.828	1462.11
1035.116	1450.13
1035.403	1445.84
1035.691	1453.3
1035.979	1454.43
1036.267	1446.06
1036.554	1412.84
1036.842	1398.61
1037.129	1409.23
1037.417	1393.18
1037.704	1364.48
1037.992	1375.56
1038.279	1367.2
1038.566	1355.44
1038.853	1355.44
1039.14	1355.44
