Data from 18-5621_FLMS001491_003.txt Node
Date: Thu Apr 19 15:15:19 BST 2018
User: hsy
Spectrometer: FLMS00149
Trigger mode: 0
Integration Time (sec): 1.000000E-2
Scans to average: 10
Electric dark correction enabled: true
Nonlinearity correction enabled: false
Boxcar width: 0
XAxis mode: Wavelengths
Number of Pixels in Spectrum: 2048
>>>>>Begin Spectral Data<<<<<
341.393	-32.49
341.776	-32.49
342.16	-32.49
342.543	-63.44
342.927	-65.93
343.31	-56.89
343.693	-78.59
344.077	-67.06
344.46	-55.99
344.843	-50.11
345.226	-45.37
345.61	-28.87
345.993	-10.34
346.376	-7.63
346.759	0.06
347.142	24.24
347.525	45.93
347.908	53.16
348.291	83.22
348.674	83.67
349.057	110.56
349.44	126.83
349.823	144.23
350.206	177.9
350.588	223.33
350.971	254.74
351.354	266.49
351.737	277.79
352.119	287.73
352.502	278.24
352.884	290.67
353.267	308.75
353.65	326.38
354.032	316.88
354.414	340.84
354.797	336.09
355.179	346.71
355.562	336.09
355.944	369.99
356.326	355.98
356.709	366.37
357.091	375.41
357.473	391.01
357.855	380.84
358.238	378.8
358.62	386.49
359.002	393.04
359.384	372.7
359.766	368.41
360.148	352.36
360.53	389.65
360.912	364.34
361.294	382.65
361.676	389.88
362.057	379.93
362.439	372.48
362.821	373.38
363.203	368.63
363.584	381.52
363.966	369.54
364.348	357.56
364.729	377.22
365.111	358.47
365.493	366.6
365.874	357.34
366.256	376.54
366.637	377.22
367.019	348.52
367.4	358.47
367.781	380.39
368.163	373.83
368.544	362.98
368.925	361.4
369.306	367.96
369.688	370.67
370.069	363.66
370.45	349.65
370.831	368.18
371.212	359.14
371.593	360.27
371.974	375.19
372.355	371.35
372.736	370.89
373.117	377.22
373.498	391.68
373.879	360.27
374.26	386.49
374.641	342.19
375.021	368.63
375.402	387.62
375.783	389.2
376.163	399.59
376.544	389.65
376.925	375.19
377.305	403.21
377.686	407.73
378.066	386.49
378.447	400.5
378.827	402.98
379.208	384.91
379.588	405.47
379.968	394.85
380.349	408.86
380.729	406.83
381.109	426.03
381.489	410.22
381.87	416.77
382.25	412.48
382.63	413.38
383.01	419.71
383.39	403.44
383.77	445.02
384.15	429.42
384.53	425.58
384.91	452.25
385.29	438.46
385.67	448.41
386.049	447.05
386.429	433.04
386.809	462.87
387.189	444.56
387.568	435.98
387.948	482.76
388.328	444.79
388.707	460.16
389.087	462.87
389.466	470.55
389.846	485.92
390.225	473.72
390.605	490.89
390.984	474.62
391.363	485.24
391.743	493.6
392.122	520.27
392.501	492.92
392.881	508.07
393.26	516.65
393.639	513.04
394.018	516.43
394.397	494.73
394.776	527.05
395.155	527.5
395.534	524.11
395.913	520.04
396.292	520.27
396.671	529.53
397.05	528.63
397.429	536.54
397.808	541.96
398.186	555.07
398.565	554.62
398.944	555.07
399.323	586.26
399.701	561.62
400.08	552.81
400.458	572.7
400.837	558.23
401.215	572.7
401.594	589.87
401.972	581.51
402.351	587.84
402.729	617.22
403.107	612.92
403.486	598.23
403.864	603.88
404.242	600.04
404.62	593.49
404.999	610.21
405.377	616.99
405.755	633.26
406.133	641.17
406.511	673.26
406.889	668.06
407.267	661.73
407.645	688.4
408.023	680.49
408.401	689.76
408.779	695.18
409.156	688.17
409.534	711.9
409.912	720.94
410.29	723.43
410.667	731.11
411.045	729.3
411.422	752.81
411.8	772.92
412.178	756.42
412.555	766.36
412.933	771.34
413.31	805.91
413.687	780.83
414.065	823.09
414.442	835.06
414.819	846.36
415.197	840.71
415.574	839.13
415.951	831.45
416.328	853.14
416.705	880.03
417.082	848.4
417.46	885.91
417.837	874.16
418.214	872.35
418.591	902.18
418.967	900.15
419.344	901.95
419.721	923.87
420.098	938.56
420.475	944.21
420.852	935.17
421.228	931.33
421.605	955.74
421.982	966.36
422.358	962.52
422.735	989.18
423.111	982.18
423.488	1023.76
423.864	1005.68
424.241	1027.83
424.617	1052.46
424.994	1031.22
425.37	1044.32
425.746	1048.84
426.123	1046.36
426.499	1086.13
426.875	1096.07
427.251	1103.08
427.627	1132.91
428.003	1128.16
428.379	1134.04
428.756	1143.3
429.132	1159.8
429.507	1173.36
429.883	1199.35
430.259	1196.86
430.635	1203.19
431.011	1232.57
431.387	1197.31
431.763	1263.07
432.138	1292.9
432.514	1309.4
432.89	1313.69
433.265	1352.56
433.641	1369.74
434.016	1361.38
434.392	1375.16
434.767	1410.41
435.143	1404.09
435.518	1416.29
435.894	1433.92
436.269	1439.11
436.644	1478.66
437.02	1478.44
437.395	1493.8
437.77	1496.06
438.145	1498.77
438.52	1553.46
438.895	1496.06
439.271	1531.54
439.646	1567.47
440.021	1578.55
440.395	1605.21
440.77	1557.53
441.145	1611.31
441.52	1675.49
441.895	1630.07
442.27	1654.93
442.645	1656.51
443.019	1652.44
443.394	1646.34
443.769	1688.15
444.143	1684.53
444.518	1723.63
444.892	1722.05
445.267	1702.84
445.641	1717.98
446.016	1754.36
446.39	1771.31
446.764	1755.04
447.139	1774.93
447.513	1791.87
447.887	1783.06
448.262	1802.27
448.636	1809.73
449.01	1837.75
449.384	1859.22
449.758	1870.52
450.132	1898.54
450.506	1898.54
450.88	1942.6
451.254	1908.48
451.628	1948.93
452.002	1966.56
452.376	1989.61
452.75	2032.55
453.123	2042.49
453.497	2058.08
453.871	2055.37
454.244	2125.88
454.618	2107.8
454.992	2174.01
455.365	2152.54
455.739	2234.8
456.112	2243.16
456.486	2247
456.859	2276.38
457.232	2293.78
457.606	2329.03
457.979	2344.18
458.352	2386.66
458.725	2448.81
459.099	2449.94
459.472	2470.95
459.845	2514.11
460.218	2528.35
460.591	2550.72
460.964	2562.25
461.337	2626.88
461.71	2624.39
462.083	2700.78
462.456	2691.74
462.829	2719.08
463.201	2755.46
463.574	2768.35
463.947	2814.45
464.32	2832.52
464.692	2853.77
465.065	2876.82
465.438	2918.4
465.81	2930.83
466.183	2963.14
466.555	3048.34
466.928	3061.67
467.3	3048.56
467.672	3155.45
468.045	3167.2
468.417	3210.59
468.789	3179.86
469.161	3239.07
469.534	3292.63
469.906	3359.52
470.278	3378.72
470.65	3402.23
471.022	3466.86
471.394	3483.35
471.766	3573.97
472.138	3584.6
472.51	3650.36
472.882	3682.22
473.253	3764.48
473.625	3776.23
473.997	3878.6
474.369	3897.36
474.74	3939.61
475.112	3993.85
475.484	4040.18
475.855	4146.39
476.227	4190.45
476.598	4259.15
476.97	4337.12
477.341	4416.66
477.713	4452.59
478.084	4522.2
478.455	4639.93
478.827	4676.32
479.198	4793.83
479.569	4820.95
479.94	4956.31
480.311	4959.25
480.682	5102.97
481.053	5233.59
481.424	5305.68
481.795	5340.71
482.166	5435.17
482.537	5486.47
482.908	5646.69
483.279	5747.25
483.65	5792.45
484.021	5941.82
484.391	6029.28
484.762	6083.74
485.133	6132.32
485.503	6247.35
485.874	6388.59
486.244	6480.11
486.615	6646.66
486.985	6703.61
487.356	6768.69
487.726	6903.6
488.097	7066.31
488.467	7108.57
488.837	7243.26
489.207	7380.43
489.578	7465.85
489.948	7603.47
490.318	7715.56
490.688	7784.26
491.058	7987.19
491.428	8123.91
491.798	8125.94
492.168	8327.52
492.538	8393.96
492.908	8525.26
493.278	8631.47
493.648	8671.69
494.017	8829.88
494.387	8908.52
494.757	8953.72
495.126	9119.82
495.496	9166.6
495.866	9301.28
496.235	9431.45
496.605	9577.21
496.974	9636.19
497.344	9732.23
497.713	9881.6
498.082	9922.96
498.452	10082.73
498.821	10141.03
499.19	10169.28
499.559	10354.36
499.928	10419.22
500.298	10474.81
500.667	10607.91
501.036	10642.26
501.405	10709.15
501.774	10787.8
502.143	10910.05
502.512	11067.34
502.88	11169.03
503.249	11188.24
503.618	11269.36
503.987	11294.67
504.356	11466.65
504.724	11597.27
505.093	11629.58
505.462	11653.76
505.83	11755
506.199	11820.99
506.567	11976.01
506.936	11978.95
507.304	12130.36
507.672	12206.74
508.041	12257.14
508.409	12439.5
508.777	12481.99
509.145	12592.95
509.514	12587.07
509.882	12770.34
510.25	12750.23
510.618	12891.24
510.986	12913.39
511.354	12962.65
511.722	13119.71
512.09	13309.09
512.458	13271.12
512.826	13373.94
513.193	13521.96
513.561	13549.98
513.929	13664.78
514.297	13622.98
514.664	13785.91
515.032	13803.31
515.4	14003.53
515.767	14091.66
516.135	14078.56
516.502	14059.8
516.869	14246.01
517.237	14330.08
517.604	14219.57
517.972	14489.62
518.339	14637.86
518.706	14583.18
519.073	14655.72
519.44	14751.76
519.808	14903.39
520.175	14899.33
520.542	15147.91
520.909	15227.45
521.276	15241.24
521.643	15439.2
522.009	15459.76
522.376	15610.72
522.743	15620.89
523.11	15850.71
523.477	16044.38
523.843	16011.16
524.21	16282.11
524.577	16310.36
524.943	16429.23
525.31	16436.46
525.676	16592.39
526.043	16715.55
526.409	16801.87
526.776	17003.23
527.142	17040.74
527.508	17088.42
527.874	17289.32
528.241	17379.03
528.607	17459.71
528.973	17675.52
529.339	17585.81
529.705	17764.79
530.071	17852.69
530.437	17933.37
530.803	17992.8
531.169	18209.3
531.535	18145.34
531.901	18257.88
532.267	18278.22
532.632	18385.34
532.998	18523.86
533.364	18584.2
533.73	18727.25
534.095	18790.75
534.461	18854.93
534.826	18879.11
535.192	18923.63
535.557	19011.53
535.923	19101.93
536.288	19174.02
536.653	19161.36
537.019	19112.55
537.384	19169.5
537.749	19206.78
538.114	19299.44
538.479	19284.52
538.845	19456.49
539.21	19331.07
539.575	19392.99
539.94	19522.93
540.305	19566.32
540.67	19558.41
541.034	19601.57
541.399	19595.93
541.764	19619.65
542.129	19679.31
542.494	19690.39
542.858	19727.45
543.223	19659.65
543.587	19787.33
543.952	19771.29
544.316	19811.96
544.681	19745.75
545.045	19925.18
545.41	19917.27
545.774	19845.64
546.138	19929.7
546.503	19885.86
546.867	19925.18
547.231	20029.81
547.595	20035.69
547.959	20062.35
548.324	20101.45
548.688	20092.18
549.052	20145.52
549.416	20023.26
549.779	20106.42
550.143	20119.75
550.507	20282.46
550.871	20342.8
551.235	20192.29
551.599	20404.72
551.962	20340.31
552.326	20378.73
552.689	20370.59
553.053	20296.7
553.417	20412.18
553.78	20628.21
554.143	20459.18
554.507	20556.58
554.87	20593.87
555.234	20748.66
555.597	20635.67
555.96	20760.41
556.323	20749.57
556.686	20810.36
557.05	20894.42
557.413	20962.67
557.776	20881.54
558.139	21047.19
558.502	21037.92
558.865	20972.16
559.228	21154.98
559.59	21312.72
559.953	21272.04
560.316	21417.12
560.679	21384.13
561.041	21524.69
561.404	21523.56
561.767	21795.64
562.129	21729.88
562.492	21956.32
562.854	21971.91
563.217	22011
563.579	22154.05
563.941	22217.1
564.304	22334.84
564.666	22481.05
565.028	22513.59
565.39	22570.08
565.753	22787.03
566.115	22844.65
566.477	22939.79
566.839	23011.2
567.201	23344.3
567.563	23264.08
567.925	23417.97
568.287	23523.05
568.648	23684.86
569.01	23808.24
569.372	23955.81
569.734	23940.44
570.095	24128.24
570.457	24358.96
570.819	24421.56
571.18	24400.77
571.542	24626.53
571.903	24619.3
572.265	24879.18
572.626	24965.5
572.987	24935.9
573.349	25173.86
573.71	25286.17
574.071	25452.27
574.432	25602.55
574.794	25800.06
575.155	25771.36
575.516	25769.55
575.877	26031.01
576.238	25925.48
576.599	26120.95
576.96	26194.4
577.32	26333.6
577.681	26396.42
578.042	26507.83
578.403	26614.5
578.763	26686.13
579.124	26794.38
579.485	26951.21
579.845	26932.46
580.206	26964.55
580.566	26950.31
580.927	26968.16
581.287	27216.06
581.648	27169.29
582.008	27194.6
582.368	27305.33
582.728	27314.14
583.089	27273.46
583.449	27397.08
583.809	27343.97
584.169	27538.32
584.529	27496.06
584.889	27656.96
585.249	27364.31
585.609	27446.79
585.969	27659.22
586.329	27613.12
586.688	27601.14
587.048	27600.69
587.408	27728.14
587.768	27582.16
588.127	27725.66
588.487	27760.68
588.846	27899.44
589.206	27642.04
589.565	27724.75
589.925	27979.89
590.284	27716.62
590.643	27871.64
591.003	27816.5
591.362	28049.04
591.721	27965.42
592.08	27972.65
592.44	28065.76
592.799	28069.15
593.158	27941.47
593.517	27845.65
593.876	28026.44
594.235	28067.79
594.593	28028.47
594.952	28095.36
595.311	27942.15
595.67	28125.87
596.029	28304.17
596.387	28195.02
596.746	28331.51
597.104	28129.94
597.463	28222.82
597.822	28299.88
598.18	28095.14
598.538	28231.63
598.897	28324.51
599.255	28216.04
599.613	28449.7
599.972	28261.69
600.33	28375.81
600.688	28319.54
601.046	28340.1
601.404	28563.83
601.762	28465.07
602.12	28626.42
602.478	28593.88
602.836	28704.16
603.194	28453.09
603.552	28521.57
603.91	28433.66
604.268	28540.1
604.625	28539.42
604.983	28681.56
605.341	28605.18
605.698	28721.11
606.056	28896.02
606.413	28730.83
606.771	28878.17
607.128	28862.8
607.485	28788.68
607.843	28812.86
608.2	28870.48
608.557	29022.12
608.914	28799.98
609.272	28986.41
609.629	29154.54
609.986	29024.6
610.343	29121.32
610.7	29299.63
611.057	29298.5
611.414	29202.45
611.771	29482.9
612.127	29487.42
612.484	29524.03
612.841	29557.02
613.198	29451.03
613.554	29378.27
613.911	29565.61
614.267	29647.19
614.624	29634.76
614.98	29586.85
615.337	29870.46
615.693	29856.22
616.05	29823
616.406	29878.82
616.762	29872.94
617.118	29809.22
617.475	29853.73
617.831	29953.62
618.187	30019.83
618.543	30049.89
618.899	30164.24
619.255	30105.25
619.611	30147.29
619.967	30316.55
620.323	30305.93
620.678	30161.98
621.034	30180.28
621.39	30179.83
621.746	30170.11
622.101	30601.29
622.457	30133.28
622.812	30359.03
623.168	30288.53
623.523	30331.46
623.879	30479.48
624.234	30269.77
624.589	30433.15
624.945	30422.08
625.3	30493.94
625.655	30429.76
626.01	30540.27
626.365	30397
626.72	30416.88
627.075	30362.2
627.43	30448.75
627.785	30423.21
628.14	30362.65
628.495	30333.5
628.85	30484
629.205	30342.31
629.559	30528.52
629.914	30269.77
630.269	30326.04
630.623	30128.53
630.978	30138.93
631.332	30300.95
631.687	30284.68
632.041	30332.59
632.396	30268.19
632.75	30235.19
633.104	30174.18
633.459	30008.98
633.813	29950.23
634.167	29936.22
634.521	29926.73
634.875	30046.27
635.229	29943.9
635.583	29664.81
635.937	29844.7
636.291	29726.28
636.645	29894.64
636.999	29676.11
637.352	29759.5
637.706	29557.25
638.06	29705.94
638.413	29707.75
638.767	29480.19
639.121	29688.09
639.474	29538.94
639.828	29420.07
640.181	29461.65
640.534	29508.66
640.888	29457.59
641.241	29263.69
641.594	29258.72
641.947	29330.13
642.301	29226.86
642.654	29340.08
643.007	29221.44
643.36	29224.37
643.713	29162.23
644.066	29252.39
644.419	29124.94
644.771	28755.46
645.124	28564.05
645.477	28552.75
645.83	28298.07
646.182	28497.61
646.535	28421.68
646.888	28489.02
647.24	28435.24
647.593	28624.84
647.945	28446.31
648.298	28378.97
648.65	28288.58
649.002	28038.19
649.355	28069.83
649.707	27748.48
650.059	27827.8
650.411	28227.56
650.763	28506.2
651.115	28907.09
651.467	28787.32
651.819	28840.2
652.171	28748.68
652.523	28585.97
652.875	28761.79
653.227	28629.36
653.578	28896.92
653.93	28726.08
654.282	28670.04
654.633	28505.3
654.985	28649.7
655.337	28736.25
655.688	28605.63
656.039	28700.54
656.391	28541.68
656.742	28609.02
657.094	28602.24
657.445	28708.45
657.796	28831.61
658.147	28755.46
658.498	28818.96
658.849	28828.68
659.2	28706.87
659.551	28674.56
659.902	28924.27
660.253	28761.56
660.604	28830.26
660.955	28711.17
661.306	28772.18
661.656	28917.26
662.007	28878.85
662.358	28924.72
662.708	29023.93
663.059	28869.58
663.409	28748.23
663.76	28890.82
664.11	29072.06
664.461	29071.61
664.811	29180.98
665.161	29023.93
665.511	28908.9
665.862	29011.72
666.212	29074.32
666.562	29163.36
666.912	29016.47
667.262	29016.92
667.612	28979.41
667.962	29060.54
668.312	29053.08
668.662	29108.22
669.011	29058.95
669.361	29057.15
669.711	28968.79
670.06	29011.95
670.41	28840.88
670.76	28955.91
671.109	29141.66
671.459	29019.18
671.808	28960.2
672.157	28902.57
672.507	28880.2
672.856	28724.05
673.205	28878.39
673.554	28881.78
673.904	28742.13
674.253	29060.08
674.602	28728.57
674.951	28476.6
675.3	28267.34
675.649	28905.29
675.998	28759.07
676.346	28848.11
676.695	28829.35
677.044	28632.07
677.393	28679.3
677.741	28746.87
678.09	28746.19
678.438	28685.18
678.787	28618.06
679.135	28662.58
679.484	28452.42
679.832	28497.84
680.181	28457.84
680.529	28382.36
680.877	28245.42
681.225	28178.98
681.573	28426.88
681.922	28334.23
682.27	28115.93
682.618	28103.05
682.966	28016.95
683.314	28040
683.661	28025.53
684.009	27816.73
684.357	27920.23
684.705	27818.99
685.053	27958.87
685.4	27676.84
685.748	27463.06
686.095	27573.12
686.443	27347.13
686.79	27384.2
687.138	27386.91
687.485	27383.74
687.832	27224.2
688.18	27227.82
688.527	27058.55
688.874	27047.93
689.221	26982.17
689.568	26797.32
689.915	26810.42
690.262	26904.43
690.609	26692.69
690.956	26574.72
691.303	26568.62
691.65	26318.91
691.997	26300.83
692.344	26183.32
692.69	26198.46
693.037	26197.56
693.383	25898.36
693.73	25929.09
694.077	25683.67
694.423	25831.47
694.769	25721.41
695.116	25633.28
695.462	25381.54
695.808	25356.68
696.155	25363.23
696.501	25118.04
696.847	25104.71
697.193	24869.01
697.539	24844.37
697.885	24793.98
698.231	24681.22
698.577	24683.48
698.923	24736.58
699.269	24403.48
699.614	24368.68
699.96	24362.58
700.306	24233.77
700.651	24132.53
700.997	23962.59
701.342	23899.09
701.688	23740.9
702.033	23653.22
702.379	23570.28
702.724	23549.49
703.069	23563.96
703.415	23288.48
703.76	23240.8
704.105	23298.43
704.45	23248.03
704.795	23029.73
705.14	23071.77
705.485	22974.59
705.83	22790.19
706.175	22954.03
706.52	22886.69
706.865	22698.89
707.209	22591.33
707.554	22651.89
707.899	22548.84
708.243	22490.54
708.588	22305.01
708.932	22252.35
709.277	22271.34
709.621	22218.91
709.966	22032.25
710.31	22169.19
710.654	21975.3
710.998	22052.13
711.342	21981.85
711.687	21815.3
712.031	21804
712.375	21778.92
712.719	21816.66
713.063	21673.61
713.407	21885.13
713.75	21677
714.094	21689.66
714.438	21570.56
714.782	21661.63
715.125	21481.3
715.469	21609.43
715.812	21465.71
716.156	21413.96
716.499	21361.3
716.843	21380.74
717.186	21239.5
717.53	21377.57
717.873	21325.6
718.216	21332.38
718.559	21228.88
718.902	21083.12
719.246	21136.68
719.589	21128.99
719.932	21004.7
720.275	21068.88
720.617	21064.59
720.96	20987.08
721.303	21109.11
721.646	21088.54
721.989	20987.98
722.331	21007.41
722.674	20959.05
723.016	21007.41
723.359	20951.6
723.701	21032.27
724.044	20993.85
724.386	20852.84
724.729	20916.57
725.071	20889
725.413	20893.07
725.755	20940.3
726.097	20934.65
726.439	20757.25
726.782	20825.27
727.124	20887.19
727.465	20776.69
727.807	20820.75
728.149	20938.94
728.491	20779.62
728.833	20804.03
729.175	20818.04
729.516	20791.37
729.858	20841.09
730.199	20918.15
730.541	20898.94
730.882	20927.64
731.224	21000.63
731.565	21002.44
731.906	20985.49
732.248	20996.57
732.589	20869.56
732.93	20952.73
733.271	20959.28
733.612	20935.1
733.953	21033.85
734.294	21093.51
734.635	21096.9
734.976	21186.39
735.317	21153.4
735.658	21190.23
735.999	21163.57
736.339	21210.8
736.68	21314.52
737.021	21340.96
737.361	21318.82
737.702	21375.54
738.042	21391.13
738.383	21340.74
738.723	21500.28
739.063	21435.43
739.404	21565.59
739.744	21546.61
740.084	21611.69
740.424	21761.97
740.764	21694.18
741.104	21951.57
741.444	21852.82
741.784	21900.95
742.124	22024.34
742.464	22014.62
742.804	22215.29
743.143	22162.86
743.483	22286.25
743.823	22292.8
744.162	22366.02
744.502	22509.07
744.841	22464.55
745.181	22748.84
745.52	22700.48
745.86	22872.9
746.199	22933.24
746.538	23142.5
746.877	23356.96
747.216	23332.1
747.556	23467.46
747.895	23610.51
748.234	23646.67
748.573	23808.7
748.911	23974.12
749.25	24123.49
749.589	24209.59
749.928	24444.61
750.267	24485.97
750.605	24741.78
750.944	24860.42
751.283	25030.58
751.621	25254.31
751.96	25315.55
752.298	25463.79
752.636	25712.37
752.975	25845.48
753.313	25949.88
753.651	26282.76
753.989	26336.99
754.327	26482.52
754.666	26567.27
755.004	26817.43
755.342	27009.52
755.679	27217.87
756.017	27274.37
756.355	27623.06
756.693	27760.23
757.031	28022.82
757.368	27996.61
757.706	28145.31
758.044	28237.28
758.381	28445.41
758.719	28554.79
759.056	28892.86
759.394	29022.12
759.731	28912.06
760.068	29086.07
760.405	29321.09
760.743	29354.09
761.08	29553.63
761.417	29728.77
761.754	29801.98
762.091	30058.7
762.428	30083.79
762.765	30176.89
763.102	30480.84
763.438	30403.78
763.775	30415.3
764.112	30592.25
764.449	30811
764.785	30822.97
765.122	30835.86
765.458	30890.32
765.795	31018.9
766.131	31125.11
766.467	31102.29
766.804	31201.95
767.14	31271.32
767.476	31309.29
767.812	31373.47
768.148	31551.77
768.485	31495.05
768.821	31554.03
769.157	31437.87
769.492	31555.61
769.828	31683.52
770.164	31429.96
770.5	31455.95
770.836	31546.8
771.171	31495.5
771.507	31410.53
771.842	31384.54
772.178	31592.9
772.513	31455.05
772.849	31454.82
773.184	31417.76
773.519	31449.63
773.855	31393.13
774.19	31347.93
774.525	31228.84
774.86	31328.05
775.195	31268.61
775.53	31173.7
775.865	31140.48
776.2	31099.58
776.535	30928.06
776.87	31036.98
777.205	30786.82
777.539	30785.01
777.874	30946.81
778.209	30746.59
778.543	30698.46
778.878	30666.59
779.212	30587.73
779.547	30470.89
779.881	30487.62
780.215	30240.39
780.55	30477.67
780.884	30147.06
781.218	30050.57
781.552	30227.74
781.886	30118.36
782.22	29976.22
782.554	29796.56
782.888	29678.82
783.222	29733.96
783.556	29601.09
783.889	29437.7
784.223	29324.03
784.557	29299.17
784.89	29395.22
785.224	29227.99
785.557	29059.63
785.891	29019.18
786.224	28940.31
786.558	28887.21
786.891	28634.11
787.224	28557.5
787.557	28475.01
787.891	28516.37
788.224	28382.36
788.557	28321.12
788.89	28310.27
789.223	28191.18
789.556	28077.74
789.888	28142.14
790.221	27961.13
790.554	27929.27
790.887	27941.69
791.219	27788.48
791.552	27642.72
791.884	27611.08
792.217	27603.4
792.549	27387.13
792.882	27295.16
793.214	27200.25
793.546	27228.49
793.879	27112.79
794.211	26931.78
794.543	26987.82
794.875	26920.03
795.207	26913.47
795.539	26801.84
795.871	26855.17
796.203	26700.37
796.535	26406.59
796.867	26555.06
797.198	26282.3
797.53	26190.1
797.862	26209.76
798.193	26215.19
798.525	26195.98
798.856	26004.8
799.188	25831.92
799.519	25771.81
799.85	25593.73
800.182	25791.92
800.513	25687.52
800.844	25439.84
801.175	25661.98
801.506	25547.86
801.837	25410.69
802.168	25378.15
802.499	25399.39
802.83	25212.73
803.161	25176.12
803.491	25265.61
803.822	25117.81
804.153	24983.35
804.483	24840.08
804.814	24779.07
805.145	24746.98
805.475	24754.89
805.805	24707.66
806.136	24661.78
806.466	24503.37
806.796	24530.71
807.126	24411.84
807.457	24306.54
807.787	24440.77
808.117	24240.55
808.447	24176.37
808.777	24201
809.107	24152.87
809.436	24050.95
809.766	24097.28
810.096	24121
810.426	23926.21
810.755	24077.16
811.085	23865.64
811.414	23873.1
811.744	23648.93
812.073	23735.7
812.403	23553.34
812.732	23589.27
813.061	23635.59
813.39	23387.69
813.719	23435.6
814.049	23443.28
814.378	23445.77
814.707	23291.42
815.036	23290.74
815.365	23051.2
815.693	23042.16
816.022	23052.78
816.351	22968.94
816.68	22835.39
817.008	23053.69
817.337	22823.64
817.665	22755.16
817.994	22755.39
818.322	22742.51
818.651	22736.41
818.979	22524.44
819.307	22617.09
819.636	22631.1
819.964	22432.01
820.292	22613.47
820.62	22464.32
820.948	22566.69
821.276	22630.2
821.604	22412.8
821.932	22693.25
822.259	22449.41
822.587	22520.59
822.915	22425.91
823.243	22597.2
823.57	22363.31
823.898	22608.5
824.225	22563.53
824.553	22489.18
824.88	22557.88
825.207	22544.1
825.535	22382.52
825.862	22439.47
826.189	22401.28
826.516	22646.01
826.843	22587.03
827.17	22682.17
827.497	22575.28
827.824	22695.5
828.151	22728.5
828.478	22572.57
828.805	22603.3
829.131	22700.93
829.458	22626.81
829.785	22565.56
830.111	22636.98
830.438	22703.19
830.764	22533.7
831.09	22648.05
831.417	22556.53
831.743	22691.21
832.069	22631.78
832.395	22535.51
832.722	22573.47
833.048	22508.39
833.374	22587.94
833.7	22423.42
834.026	22649.63
834.351	22479.24
834.677	22590.87
835.003	22464.1
835.329	22531.67
835.654	22456.87
835.98	22352.92
836.306	22421.16
836.631	22452.35
836.956	22551.1
837.282	22443.08
837.607	22352.46
837.932	22402.86
838.258	22404.21
838.583	22320.6
838.908	22303.88
839.233	22304.55
839.558	22250.09
839.883	21989.76
840.208	22127.84
840.533	22081.28
840.858	21993.6
841.182	22105.01
841.507	21982.08
841.832	21881.74
842.156	21855.08
842.481	21876.09
842.805	21813.04
843.13	21764.91
843.454	21785.02
843.778	21666.38
844.103	21679.26
844.427	21576.66
844.751	21600.39
845.075	21598.58
845.399	21487.4
845.723	21418.93
846.047	21472.94
846.371	21235.43
846.695	21149.78
847.019	21080.63
847.343	20992.05
847.666	20974.19
847.99	20822.79
848.313	20811.94
848.637	20693.98
848.96	20688.1
849.284	20688.78
849.607	20485.17
849.931	20564.49
850.254	20279.52
850.577	20260.54
850.9	20035.01
851.223	20044.5
851.546	20026.2
851.869	19872.98
852.192	20007.89
852.515	19729.93
852.838	19731.29
853.161	19734.23
853.483	19572.2
853.806	19508.47
854.129	19474.8
854.451	19412.65
854.774	19297.85
855.096	19179.89
855.419	19178.08
855.741	19077.52
856.063	19047.69
856.385	18984.19
856.708	18891.76
857.03	18961.14
857.352	18811.54
857.674	18819.9
857.996	18835.49
858.318	18630.08
858.64	18642.05
858.961	18469.4
859.283	18537.87
859.605	18408.84
859.926	18471.21
860.248	18429.63
860.57	18316.86
860.891	18297.43
861.212	18297.88
861.534	18068.28
861.855	18092.69
862.176	18155.74
862.498	18086.36
862.819	18143.08
863.14	18015.18
863.461	17974.27
863.782	17938.12
864.103	17959.58
864.424	17890.21
864.745	17961.62
865.065	17907.38
865.386	17846.14
865.707	17783.32
866.027	17796.2
866.348	17747.39
866.668	17675.52
866.989	17603.21
867.309	17527.96
867.63	17577.67
867.95	17652.7
868.27	17442.54
868.59	17497.45
868.91	17469.43
869.23	17379.26
869.55	17426.94
869.87	17442.08
870.19	17337.91
870.51	17415.19
870.83	17339.94
871.15	17299.94
871.469	17233.5
871.789	17346.95
872.109	17301.97
872.428	17142.88
872.748	17223.78
873.067	17172.49
873.386	17084.13
873.706	17110.34
874.025	16941.98
874.344	16896.11
874.663	17052.49
874.982	16984.24
875.301	16947.86
875.62	16860.86
875.939	16721.65
876.258	16886.84
876.577	16733.18
876.896	16785.83
877.214	16690.47
877.533	16794.64
877.852	16758.03
878.17	16690.69
878.489	16704.25
878.807	16541.77
879.125	16554.88
879.444	16582.9
879.762	16535.44
880.08	16548.1
880.398	16474.2
880.716	16465.16
881.034	16437.59
881.352	16434.88
881.67	16396.46
881.988	16355.56
882.306	16319.85
882.624	16350.81
882.941	16201.66
883.259	16251.83
883.577	16217.26
883.894	16160.99
884.212	16055.91
884.529	15988.34
884.846	15993.99
885.164	15947.89
885.481	15914.21
885.798	15851.62
886.115	15751.28
886.432	15873.31
886.75	15878.51
887.067	15849.58
887.383	15810.94
887.7	15617.05
888.017	15524.39
888.334	15634
888.651	15525.07
888.967	15585.41
889.284	15414.11
889.6	15486.65
889.917	15331.4
890.233	15496.82
890.55	15416.37
890.866	15322.59
891.182	15325.53
891.498	15182.26
891.815	15095.93
892.131	15066.78
892.447	15038.76
892.763	15046.89
893.079	14937.52
893.395	14902.04
893.71	14845.54
894.026	14825.2
894.342	14800.12
894.657	14663.4
894.973	14686.9
895.289	14728.93
895.604	14710.4
895.92	14605.77
896.235	14509.73
896.55	14522.16
896.865	14413.69
897.181	14370.3
897.496	14399
897.811	14275.16
898.126	14208.04
898.441	14187.71
898.756	14178.44
899.071	14185.67
899.386	14131.89
899.7	13996.3
900.015	13835.17
900.33	13798.34
900.644	13877.88
900.959	13834.49
901.273	13734.61
901.588	13681.5
901.902	13635.86
902.216	13497.78
902.531	13591.11
902.845	13486.48
903.159	13378.24
903.473	13286.71
903.787	13346.6
904.101	13251.46
904.415	13259.59
904.729	13226.6
905.042	13145.47
905.356	13044.91
905.67	13024.8
905.984	13002.88
906.297	12943.22
906.611	12859.83
906.924	12813.5
907.237	12846.72
907.551	12816.89
907.864	12739.83
908.177	12637.46
908.491	12556.79
908.804	12507.07
909.117	12473.85
909.43	12317.02
909.743	12359.28
910.056	12276.12
910.368	12293.74
910.681	12188.89
910.994	12216.91
911.307	12225.72
911.619	12013.53
911.932	12028.44
912.244	11937.37
912.557	11904.6
912.869	11836.36
913.181	11803.14
913.494	11795
913.806	11659.41
914.118	11695.79
914.43	11697.38
914.742	11614.21
915.054	11556.36
915.366	11544.84
915.678	11458.74
915.99	11381.9
916.302	11254.22
916.613	11217.84
916.925	11226.2
917.236	11214.9
917.548	11115.7
917.859	11143.72
918.171	11057.62
918.482	11077.28
918.794	11032.08
919.105	10874.8
919.416	10868.47
919.727	10896.04
920.038	10884.74
920.349	10673
920.66	10719.55
920.971	10727.68
921.282	10714.35
921.593	10603.62
921.903	10488.59
922.214	10557.29
922.525	10463.06
922.835	10460.35
923.146	10341.03
923.456	10344.64
923.767	10236.85
924.077	10291.31
924.387	10181.48
924.697	10124.76
925.008	10101.94
925.318	10060.81
925.628	10081.6
925.938	9982.39
926.248	9934.71
926.558	9870.53
926.867	9856.07
927.177	9833.7
927.487	9703.53
927.796	9734.26
928.106	9711.21
928.416	9615.85
928.725	9635.51
929.034	9558
929.344	9629.63
929.653	9510.54
929.962	9421.05
930.271	9393.71
930.581	9389.87
930.89	9348.51
931.199	9301.51
931.508	9272.58
931.817	9215.18
932.125	9249.53
932.434	9120.49
932.743	9059.93
933.051	8935.87
933.36	9031.23
933.669	8944.23
933.977	8908.52
934.286	8908.97
934.594	8847.51
934.902	8845.93
935.21	8768.64
935.519	8702.43
935.827	8660.17
936.135	8669.43
936.443	8620.17
936.751	8567.06
937.059	8528.65
937.367	8408.42
937.674	8537.46
937.982	8437.35
938.29	8376.11
938.597	8431.02
938.905	8365.94
939.213	8211.59
939.52	8258.14
939.827	8310.35
940.135	8180.86
940.442	8163.91
940.749	8225.6
941.056	8142.44
941.363	8045.49
941.67	8005.04
941.977	7973.41
942.284	7930.7
942.591	7929.34
942.898	7832.39
943.205	7871.94
943.511	7819.96
943.818	7768.67
944.125	7693.19
944.431	7726.63
944.738	7654.54
945.044	7664.71
945.35	7592.85
945.657	7549.69
945.963	7569.12
946.269	7519.18
946.575	7499.97
946.881	7429.92
947.187	7463.59
947.493	7358.73
947.799	7451.16
948.105	7282.58
948.41	7263.59
948.716	7237.38
949.022	7175.01
949.327	7188.34
949.633	7089.59
949.938	7085.97
950.244	7113.54
950.549	7036.71
950.854	6973.66
951.16	6998.06
951.465	6935.69
951.77	6933.21
952.075	6945.41
952.38	6947.22
952.685	6848.92
952.99	6842.81
953.294	6751.52
953.599	6761.91
953.904	6689.6
954.209	6659.99
954.513	6630.39
954.818	6562.37
955.122	6633.33
955.426	6584.74
955.731	6506.1
956.035	6528.02
956.339	6453.67
956.643	6478.98
956.948	6382.04
957.252	6392.66
957.556	6416.38
957.86	6360.79
958.163	6337.74
958.467	6285.31
958.771	6285.31
959.075	6255.94
959.378	6218.42
959.682	6176.62
959.985	6123.29
960.289	6099.56
960.592	6078.09
960.896	6082.83
961.199	6056.85
961.502	6015.04
961.805	6003.97
962.108	5974.59
962.411	5975.27
962.714	5843.07
963.017	5869.73
963.32	5878.32
963.623	5822.73
963.926	5765.33
964.228	5798.55
964.531	5761.71
964.833	5763.75
965.136	5721.94
965.438	5715.61
965.741	5608.04
966.043	5613.92
966.345	5573.47
966.648	5553.13
966.95	5570.08
967.252	5532.11
967.554	5513.81
967.856	5530.53
968.158	5483.98
968.46	5481.27
968.761	5399.24
969.063	5413.25
969.365	5359.46
969.666	5329.18
969.968	5308.62
970.269	5265.45
970.571	5349.52
970.872	5259.35
971.174	5245.57
971.475	5201.5
971.776	5224.1
972.077	5109.07
972.378	5121.5
972.679	5109.07
972.98	5081.28
973.281	5094.39
973.582	5072.47
973.883	5008.51
974.183	4957.21
974.484	4997.21
974.785	4912.7
975.085	4912.02
975.386	4890.55
975.686	4862.53
975.986	4859.82
976.287	4846.48
976.587	4800.61
976.887	4800.38
977.187	4802.19
977.487	4749.76
977.787	4711.8
978.087	4714.73
978.387	4682.87
978.687	4648.97
978.987	4679.71
979.286	4622.08
979.586	4640.16
979.885	4555.42
980.185	4585.7
980.484	4503.44
980.784	4511.8
981.083	4497.79
981.382	4465.48
981.682	4456.44
981.981	4463.67
982.28	4385.03
982.579	4378.47
982.878	4392.03
983.177	4349.77
983.475	4351.81
983.774	4312.71
984.073	4302.54
984.372	4268.42
984.67	4206.27
984.969	4207.4
985.267	4227.29
985.566	4181.42
985.864	4170.57
986.162	4172.83
986.461	4103
986.759	4117.24
987.057	4057.12
987.355	4061.64
987.653	4067.07
987.951	4018.03
988.249	4026.39
988.547	4022.32
988.844	3940.29
989.142	3973.06
989.44	3972.16
989.737	3893.74
990.035	3923.12
990.332	3883.57
990.63	3863.23
990.927	3880.86
991.224	3815.78
991.521	3793.18
991.819	3823.68
992.116	3782.56
992.413	3747.98
992.71	3725.83
993.006	3718.15
993.303	3705.27
993.6	3671.37
993.897	3661.66
994.193	3674.08
994.49	3597.02
994.787	3584.6
995.083	3601.32
995.379	3568.78
995.676	3547.53
995.972	3606.29
996.268	3485.16
996.565	3484.03
996.861	3486.52
997.157	3427.09
997.453	3436.58
997.749	3379.4
998.044	3429.12
998.34	3360.19
998.636	3352.51
998.932	3341.44
999.227	3301.89
999.523	3317.26
999.818	3310.48
1000.114	3293.76
1000.409	3238.39
1000.704	3265.96
1001	3220.99
1001.295	3187.09
1001.59	3208.11
1001.885	3168.11
1002.18	3162.01
1002.475	3148.9
1002.77	3136.7
1003.065	3059.64
1003.359	3117.26
1003.654	3074.55
1003.949	3032.75
1004.243	3034.1
1004.538	2997.27
1004.832	3002.01
1005.127	2988.68
1005.421	2946.87
1005.715	2902.58
1006.009	2917.04
1006.304	2974.22
1006.598	2870.04
1006.892	2853.54
1007.186	2851.73
1007.48	2832.98
1007.773	2821.45
1008.067	2794.11
1008.361	2761.57
1008.655	2768.12
1008.948	2725.41
1009.242	2750.49
1009.535	2753.2
1009.829	2738.06
1010.122	2698.97
1010.415	2694.45
1010.708	2668.91
1011.001	2627.78
1011.295	2627.78
1011.588	2589.59
1011.881	2618.97
1012.173	2599.76
1012.466	2599.08
1012.759	2571.51
1013.052	2542.81
1013.344	2519.09
1013.637	2523.83
1013.93	2522.93
1014.222	2456.04
1014.514	2458.07
1014.807	2455.59
1015.099	2444.74
1015.391	2418.52
1015.683	2413.78
1015.976	2419.43
1016.268	2363.38
1016.56	2352.54
1016.851	2323.16
1017.143	2327.68
1017.435	2282.26
1017.727	2287.68
1018.018	2249.71
1018.31	2256.04
1018.602	2267.12
1018.893	2243.61
1019.185	2243.16
1019.476	2199.77
1019.767	2197.96
1020.058	2189.15
1020.35	2171.3
1020.641	2116.84
1020.932	2099.21
1021.223	2089.95
1021.514	2088.14
1021.804	2091.07
1022.095	2078.42
1022.386	2031.64
1022.677	2031.19
1022.967	2046.33
1023.258	1995.48
1023.548	2004.52
1023.839	1980.34
1024.129	1991.19
1024.419	1955.03
1024.709	1938.54
1025	1919.33
1025.29	1903.06
1025.58	1910.74
1025.87	1895.6
1026.16	1843.62
1026.449	1871.42
1026.739	1839.56
1027.029	1819.9
1027.319	1819.22
1027.608	1813.34
1027.898	1814.47
1028.187	1789.39
1028.477	1750.74
1028.766	1772.67
1029.055	1735.38
1029.344	1723.85
1029.634	1724.3
1029.923	1707.13
1030.212	1711.65
1030.501	1674.81
1030.79	1696.51
1031.078	1669.84
1031.367	1666.91
1031.656	1666.45
1031.945	1603.86
1032.233	1612.9
1032.522	1602.95
1032.81	1587.36
1033.099	1571.09
1033.387	1580.81
1033.675	1581.71
1033.963	1526.34
1034.251	1541.71
1034.54	1508.27
1034.828	1497.64
1035.116	1503.52
1035.403	1495.38
1035.691	1466.01
1035.979	1479.79
1036.267	1475.05
1036.554	1430.53
1036.842	1439.79
1037.129	1440.7
1037.417	1413.13
1037.704	1418.1
1037.992	1413.13
1038.279	1389.4
1038.566	1369.74
1038.853	1369.74
1039.14	1369.74
