Data from 18-5621_FLMS001491_006.txt Node
Date: Thu Apr 19 15:15:28 BST 2018
User: hsy
Spectrometer: FLMS00149
Trigger mode: 0
Integration Time (sec): 1.000000E-2
Scans to average: 10
Electric dark correction enabled: true
Nonlinearity correction enabled: false
Boxcar width: 0
XAxis mode: Wavelengths
Number of Pixels in Spectrum: 2048
>>>>>Begin Spectral Data<<<<<
341.393	-25.31
341.776	-25.31
342.16	-25.31
342.543	-70.96
342.927	-73.9
343.31	-79.09
343.693	-68.47
344.077	-71.86
344.46	-68.25
344.843	-52.2
345.226	-31.41
345.61	-26.89
345.993	-10.4
346.376	-3.84
346.759	19.66
347.142	15.37
347.525	61.47
347.908	52.43
348.291	60.11
348.674	100.34
349.057	103.05
349.44	109.15
349.823	137.85
350.206	158.41
350.588	209.94
350.971	258.52
351.354	281.57
351.737	258.52
352.119	281.8
352.502	289.94
352.884	299.2
353.267	297.85
353.65	329.71
354.032	306.21
354.414	333.78
354.797	346.21
355.179	352.99
355.562	342.59
355.944	350.05
356.326	364.96
356.709	365.64
357.091	360.22
357.473	359.76
357.855	386.66
358.238	366.09
358.62	383.49
359.002	384.17
359.384	381.46
359.766	381.23
360.148	397.5
360.53	374.91
360.912	376.26
361.294	369.71
361.676	370.84
362.057	401.8
362.439	374.45
362.821	364.51
363.203	382.59
363.584	364.96
363.966	364.51
364.348	364.96
364.729	345.53
365.111	356.6
365.493	367.22
365.874	367.22
366.256	350.05
366.637	390.5
367.019	364.96
367.4	343.27
367.781	357.05
368.163	362.48
368.544	336.49
368.925	370.39
369.306	344.85
369.688	367.22
370.069	369.71
370.45	363.15
370.831	369.93
371.212	363.83
371.593	369.48
371.974	365.19
372.355	378.75
372.736	385.07
373.117	374.68
373.498	382.14
373.879	351.18
374.26	366.09
374.641	363.61
375.021	363.15
375.402	365.64
375.783	394.57
376.163	397.73
376.544	388.46
376.925	381.01
377.305	389.37
377.686	410.84
378.066	381.46
378.447	393.44
378.827	413.32
379.208	406.77
379.588	394.57
379.968	398.63
380.349	423.72
380.729	418.97
381.109	423.72
381.489	399.99
381.87	416.03
382.25	421.23
382.63	429.37
383.01	412.19
383.39	421.01
383.77	428.01
384.15	440.44
384.53	435.92
384.91	452.64
385.29	437.05
385.67	442.25
386.049	453.55
386.429	428.46
386.809	467.78
387.189	422.81
387.568	480.89
387.948	472.08
388.328	454.45
388.707	457.62
389.087	468.24
389.466	482.47
389.846	464.39
390.225	480.21
390.605	478.86
390.984	462.36
391.363	482.02
391.743	502.81
392.122	498.52
392.501	486.54
392.881	506.65
393.26	514.56
393.639	502.36
394.018	483.15
394.397	523.83
394.776	513.88
395.155	531.74
395.534	524.73
395.913	540.1
396.292	519.99
396.671	522.02
397.05	530.83
397.429	533.09
397.808	539.19
398.186	547.78
398.565	569.25
398.944	560.44
399.323	554.79
399.701	575.35
400.08	545.07
400.458	574.9
400.837	589.81
401.215	587.33
401.594	559.76
401.972	616.48
402.351	580.32
402.729	597.72
403.107	612.64
403.486	609.02
403.864	590.27
404.242	607.89
404.62	630.04
404.999	619.64
405.377	620.77
405.755	629.14
406.133	632.3
406.511	614
406.889	650.38
407.267	685.63
407.645	678.17
408.023	668.23
408.401	671.17
408.779	701.22
409.156	698.74
409.534	685.86
409.912	716.59
410.29	710.49
410.667	695.8
411.045	735.35
411.422	753.65
411.8	752.75
412.178	762.24
412.555	753.2
412.933	792.52
413.31	778.74
413.687	794.33
414.065	783.26
414.442	810.83
414.819	823.48
415.197	849.7
415.574	844.72
415.951	836.14
416.328	852.18
416.705	856.93
417.082	860.99
417.46	875.68
417.837	869.81
418.214	860.99
418.591	887.66
418.967	903.93
419.344	913.65
419.721	920.43
420.098	917.49
420.475	937.15
420.852	938.73
421.228	934.21
421.605	965.17
421.982	961.33
422.358	978.73
422.735	974.44
423.111	991.39
423.488	1008.34
423.864	988
424.241	1016.92
424.617	1009.46
424.994	1015.11
425.37	1058.05
425.746	1041.78
426.123	1047.88
426.499	1082.01
426.875	1075
427.251	1088.56
427.627	1108.9
428.003	1102.57
428.379	1103.25
428.756	1118.61
429.132	1167.2
429.507	1167.88
429.883	1172.4
430.259	1196.35
430.635	1217.37
431.011	1205.17
431.387	1211.04
431.763	1254.43
432.138	1264.15
432.514	1286.07
432.89	1291.04
433.265	1322.45
433.641	1344.6
434.016	1323.58
434.392	1346.18
434.767	1351.83
435.143	1360.19
435.518	1410.13
435.894	1432.05
436.269	1421.43
436.644	1472.28
437.02	1449.23
437.395	1453.52
437.77	1488.32
438.145	1518.15
438.52	1500.3
438.895	1508.43
439.271	1559.96
439.646	1549.56
440.021	1570.58
440.395	1587.08
440.77	1590.47
441.145	1615.78
441.52	1610.81
441.895	1645.83
442.27	1621.65
442.645	1623.69
443.019	1657.36
443.394	1642.44
443.769	1683.8
444.143	1663.01
444.518	1709.56
444.892	1699.62
445.267	1724.25
445.641	1715.66
446.016	1743.01
446.39	1751.14
446.764	1738.94
447.139	1746.17
447.513	1759.28
447.887	1794.3
448.262	1798.14
448.636	1798.82
449.01	1830.23
449.384	1828.65
449.758	1846.96
450.132	1875.43
450.506	1883.79
450.88	1874.53
451.254	1903.45
451.628	1904.13
452.002	1952.49
452.376	1974.41
452.75	2003.34
453.123	1990.46
453.497	2034.52
453.871	2044.92
454.244	2078.59
454.618	2101.87
454.992	2121.75
455.365	2130.57
455.739	2185.71
456.112	2170.56
456.486	2221.41
456.859	2241.97
457.232	2289.88
457.606	2317.45
457.979	2311.13
458.352	2379.15
458.725	2421.63
459.099	2412.14
459.472	2406.72
459.845	2464.12
460.218	2503.66
460.591	2559.03
460.964	2566.94
461.337	2612.36
461.71	2627.73
462.083	2656.65
462.456	2675.64
462.829	2673.38
463.201	2717.22
463.574	2728.97
463.947	2771.23
464.32	2832.02
464.692	2813.94
465.065	2872.92
465.438	2904.33
465.81	2950.2
466.183	2983.88
466.555	2984.1
466.928	3043.31
467.3	3020.71
467.672	3078.34
468.045	3130.31
468.417	3149.07
468.789	3149.75
469.161	3215.96
469.534	3276.98
469.906	3346.8
470.278	3345.22
470.65	3396.07
471.022	3399.68
471.394	3490.08
471.766	3521.26
472.138	3577.99
472.51	3617.53
472.882	3693.46
473.253	3710.64
473.625	3718.32
473.997	3826.57
474.369	3842.84
474.74	3893
475.112	3969.61
475.484	4014.13
475.855	4048.93
476.227	4142.49
476.598	4238.53
476.97	4267.46
477.341	4392.88
477.713	4442.82
478.084	4504.29
478.455	4610.5
478.827	4644.17
479.198	4752.87
479.569	4748.58
479.94	4925.52
480.311	4915.8
480.682	5063.37
481.053	5185.85
481.424	5286.41
481.795	5330.93
482.166	5387.2
482.537	5466.75
482.908	5575.22
483.279	5649.79
483.65	5743.13
484.021	5918.04
484.391	5972.05
484.762	6094.08
485.133	6122.1
485.503	6178.82
485.874	6338.82
486.244	6380.4
486.615	6555.08
486.985	6579.04
487.356	6760.05
487.726	6834.4
488.097	7022.41
488.467	7053.6
488.837	7170.21
489.207	7277.1
489.578	7419.01
489.948	7561.38
490.318	7666.01
490.688	7707.82
491.058	7927.25
491.428	7992.56
491.798	8105.78
492.168	8241.82
492.538	8314.81
492.908	8491.3
493.278	8571.3
493.648	8607.46
494.017	8795.47
494.387	8854.68
494.757	8981.23
495.126	9060.78
495.496	9136.93
495.866	9260.77
496.235	9386.42
496.605	9519.52
496.974	9578.96
497.344	9678.62
497.713	9811.04
498.082	9896.01
498.452	9980.53
498.821	10097.81
499.19	10107.53
499.559	10179.85
499.928	10342.1
500.298	10383
500.667	10535.77
501.036	10616.22
501.405	10723.79
501.774	10798.59
502.143	10840.39
502.512	10965.59
502.88	11061.4
503.249	11127.39
503.618	11160.61
503.987	11218.01
504.356	11371.23
504.724	11461.17
505.093	11516.53
505.462	11596.31
505.83	11722.63
506.199	11771.22
506.567	11980.25
506.936	11904.09
507.304	12104.54
507.672	12152.45
508.041	12176.18
508.409	12276.97
508.777	12448.71
509.145	12585.21
509.514	12449.84
509.882	12636.73
510.25	12725.54
510.618	12829.95
510.986	12767.8
511.354	12940.22
511.722	13073.33
512.09	13119.88
512.458	13214.34
512.826	13264.74
513.193	13324.17
513.561	13361
513.929	13419.53
514.297	13593.99
514.664	13716.48
515.032	13818.62
515.4	13766.64
515.767	13976.58
516.135	14064.71
516.502	13953.31
516.869	14087.09
517.237	14294.77
517.604	14182
517.972	14485.04
518.339	14501.54
518.706	14510.8
519.073	14607.53
519.44	14652.72
519.808	14799.38
520.175	14706.96
520.542	15002.77
520.909	15085.03
521.276	15140.84
521.643	15264.46
522.009	15432.59
522.376	15524.11
522.743	15612.02
523.11	15738.34
523.477	15859.47
523.843	15991.22
524.21	16139.91
524.577	16211.1
524.943	16305.33
525.31	16320.93
525.676	16475.95
526.043	16681.82
526.409	16615.38
526.776	16854.92
527.142	16908.03
527.508	16991.87
527.874	17237.29
528.241	17341.92
528.607	17317.74
528.973	17492.42
529.339	17453.55
529.705	17572.42
530.071	17768.12
530.437	17816.03
530.803	17944.84
531.169	17959.98
531.535	18023.93
531.901	18051.05
532.267	18118.62
532.632	18324.49
532.998	18306.86
533.364	18408.33
533.73	18450.59
534.095	18521.55
534.461	18617.59
534.826	18691.71
535.192	18724.25
535.557	18924.25
535.923	18954.53
536.288	18863.68
536.653	18973.96
537.019	18917.69
537.384	18971.7
537.749	19022.55
538.114	19079.72
538.479	19148.88
538.845	19253.73
539.21	19151.81
539.575	19227.52
539.94	19191.36
540.305	19421.86
540.67	19357.23
541.034	19340.96
541.399	19404.24
541.764	19356.78
542.129	19510.45
542.494	19589.99
542.858	19518.36
543.223	19611.46
543.587	19706.37
543.952	19661.18
544.316	19726.71
544.681	19662.31
545.045	19779.59
545.41	19820.95
545.774	19713.61
546.138	19754.28
546.503	19761.29
546.867	19819.37
547.231	19945.92
547.595	19881.06
547.959	19886.03
548.324	19936.88
548.688	19964.22
549.052	20027.95
549.416	19860.72
549.779	20066.82
550.143	19941.62
550.507	20159.47
550.871	20062.52
551.235	20041.73
551.599	20243.76
551.962	20244.89
552.326	20240.37
552.689	20270.43
553.053	20207.38
553.417	20340.93
553.78	20472
554.143	20424.77
554.507	20498.9
554.87	20569.4
555.234	20696.4
555.597	20526.47
555.96	20623.41
556.323	20705.44
556.686	20701.38
557.05	20788.15
557.413	20785.22
557.776	20779.11
558.139	20926
558.502	21026.79
558.865	21041.93
559.228	21055.49
559.59	21113.8
559.953	21067.69
560.316	21323.06
560.679	21343.62
561.041	21617.06
561.404	21614.57
561.767	21631.52
562.129	21667.23
562.492	21850.5
562.854	21855.47
563.217	21951.97
563.579	21903.6
563.941	22102.7
564.304	22210.94
564.666	22373.2
565.028	22323.71
565.39	22470.6
565.753	22692.28
566.115	22653.87
566.477	22830.81
566.839	22829
567.201	23080.3
567.563	23028.77
567.925	23329.1
568.287	23271.25
568.648	23313.96
569.01	23511.02
569.372	23765.25
569.734	23790.56
570.095	23816.32
570.457	24025.58
570.819	24168.18
571.18	24059.48
571.542	24333.6
571.903	24352.35
572.265	24515.06
572.626	24647.94
572.987	24656.07
573.349	24810.42
573.71	25043.41
574.071	25068.04
574.432	25283.4
574.794	25464.42
575.155	25444.98
575.516	25422.16
575.877	25607.69
576.238	25554.36
576.599	25753
576.96	25884.74
577.32	25948.7
577.681	25892.88
578.042	26170.39
578.403	26125.87
578.763	26301
579.124	26319.76
579.485	26515.24
579.845	26552.3
580.206	26564.27
580.566	26528.79
580.927	26538.96
581.287	26773.31
581.648	26720.65
582.008	26831.16
582.368	26809.01
582.728	27002.91
583.089	26835
583.449	26947.99
583.809	27027.09
584.169	27080.87
584.529	26989.57
584.889	27100.3
585.249	27057.59
585.609	26963.58
585.969	27199.28
586.329	27077.71
586.688	27303.24
587.048	27176.91
587.408	27128.1
587.768	27157.7
588.127	27065.5
588.487	27182.11
588.846	27401.99
589.206	27146.18
589.565	27178.72
589.925	27419.17
590.284	27297.36
590.643	27320.19
591.003	27387.98
591.362	27431.82
591.721	27435.44
592.08	27423.46
592.44	27585.26
592.799	27497.58
593.158	27442.67
593.517	27325.61
593.876	27587.07
594.235	27518.6
594.593	27427.3
594.952	27397.92
595.311	27425.04
595.67	27536.45
596.029	27566.05
596.387	27671.36
596.746	27693.51
597.104	27519.95
597.463	27656
597.822	27834.75
598.18	27597.24
598.538	27581.65
598.897	27804.47
599.255	27634.75
599.613	27816.22
599.972	27855.76
600.33	27764.47
600.688	27714.3
601.046	27834.97
601.404	28084.01
601.762	27923.33
602.12	28067.06
602.478	27960.85
602.836	28056.44
603.194	27824.35
603.552	28038.36
603.91	27806.73
604.268	28026.38
604.625	27930.79
604.983	28179.15
605.341	27941.41
605.698	28149.54
606.056	28262.31
606.413	28156.32
606.771	28294.4
607.128	28165.14
607.485	28124.46
607.843	28108.87
608.2	28312.48
608.557	28278.8
608.914	28321.52
609.272	28535.29
609.629	28596.08
609.986	28677.89
610.343	28505.69
610.7	28779.13
611.057	28622.98
611.414	28702.75
611.771	28765.57
612.127	28797.43
612.484	28864.33
612.841	28808.73
613.198	28729.19
613.554	28780.71
613.911	28978.22
614.267	29001.95
614.624	28899.35
614.98	29079.46
615.337	29207.14
615.693	29160.59
616.05	29213.7
616.406	29189.97
616.762	29277.2
617.118	29210.53
617.475	29243.98
617.831	29277.2
618.187	29384.31
618.543	29389.06
618.899	29591.31
619.255	29567.13
619.611	29551.77
619.967	29597.87
620.323	29711.99
620.678	29551.09
621.034	29544.53
621.39	29503.86
621.746	29486.23
622.101	29916.73
622.457	29608.94
622.812	29759.22
623.168	29798.09
623.523	29720.8
623.879	29794.02
624.234	29557.19
624.589	29840.57
624.945	29718.99
625.3	29823.62
625.655	29827.46
626.01	29782.95
626.365	29795.83
626.72	29758.31
627.075	29835.83
627.43	29792.21
627.785	29741.36
628.14	29810.97
628.495	29777.97
628.85	29911.53
629.205	29707.02
629.559	29854.36
629.914	29602.16
630.269	29693
630.623	29579.34
630.978	29536.62
631.332	29706.11
631.687	29625.44
632.041	29582.05
632.396	29492.11
632.75	29423.41
633.104	29538.88
633.459	29333.01
633.813	29419.57
634.167	29306.57
634.521	29304.99
634.875	29398.55
635.229	29274.71
635.583	29157.88
635.937	29230.42
636.291	29195.39
636.645	29211.21
636.999	29046.47
637.352	29024.32
637.706	28930.99
638.06	29028.39
638.413	29110.42
638.767	28833.14
639.121	28980.03
639.474	28749.07
639.828	28822.07
640.181	28716.31
640.534	28773.93
640.888	28806.25
641.241	28632.47
641.594	28596.99
641.947	28664.56
642.301	28606.71
642.654	28606.93
643.007	28553.15
643.36	28570.32
643.713	28532.58
644.066	28522.41
644.419	28339.59
644.771	27971.69
645.124	27729.67
645.477	27857.8
645.83	27752.49
646.182	27804.69
646.535	27900.06
646.888	27902.54
647.24	27791.13
647.593	27981.86
647.945	27740.06
648.298	27718.59
648.65	27615.55
649.002	27332.39
649.355	27261.43
649.707	27213.52
650.059	27121.55
650.411	27634.98
650.763	27733.28
651.115	28236.77
651.467	28120.62
651.819	28155.19
652.171	28070.45
652.523	28116.77
652.875	28125.36
653.227	27952.26
653.578	28194.06
653.93	28291.69
654.282	27955.65
654.633	28030.45
654.985	27982.09
655.337	28039.94
655.688	28087.62
656.039	28215.08
656.391	27927.18
656.742	27999.72
657.094	28053.27
657.445	27909.1
657.796	28071.35
658.147	28016.21
658.498	28211.69
658.849	28246.71
659.2	28132.37
659.551	27966.5
659.902	28311.12
660.253	28139.15
660.604	28268.64
660.955	28009.43
661.306	28173.72
661.656	28140.28
662.007	28218.69
662.358	28132.59
662.708	28343.21
663.059	28245.36
663.409	28121.97
663.76	28237.22
664.11	28340.72
664.461	28374.17
664.811	28298.46
665.161	28273.15
665.511	28271.57
665.862	28251.01
666.212	28315.87
666.562	28406.48
666.912	28326.03
667.262	28211.01
667.612	28239.03
667.962	28377.56
668.312	28265.7
668.662	28453.72
669.011	28291.91
669.361	28354.96
669.711	28293.49
670.06	28284.91
670.41	28183.67
670.76	28113.16
671.109	28318.58
671.459	28353.38
671.808	28331.01
672.157	28356.32
672.507	28107.51
672.856	28097.57
673.205	28140.28
673.554	28206.72
673.904	28150.9
674.253	28395.41
674.602	27996.1
674.951	27832.04
675.3	27517.69
675.649	28022.31
675.998	28128.53
676.346	28072.03
676.695	28162.65
677.044	27994.52
677.393	27995.87
677.741	28013.5
678.09	27856.44
678.438	27846.5
678.787	27837.69
679.135	27754.07
679.484	27566.28
679.832	27731.02
680.181	27698.25
680.529	27722.43
680.877	27568.54
681.225	27467.53
681.573	27664.81
681.922	27481.99
682.27	27431.6
682.618	27455.32
682.966	27488.99
683.314	27329.9
683.661	27329.9
684.009	27219.4
684.357	27213.97
684.705	27082
685.053	27167.87
685.4	26894.66
685.748	26887.2
686.095	26843.36
686.443	26710.26
686.79	26774.21
687.138	26820.99
687.485	26759.97
687.832	26655.8
688.18	26614.67
688.527	26489.47
688.874	26476.37
689.221	26387.33
689.568	26235.47
689.915	26164.51
690.262	26138.3
690.609	26169.48
690.956	25870.05
691.303	25970.16
691.65	25853.11
691.997	25725.65
692.344	25601.81
692.69	25443.85
693.037	25525.88
693.383	25143.75
693.73	25351.65
694.077	25112.11
694.423	25081.37
694.769	25009.29
695.116	24875.28
695.462	24850.42
695.808	24719.12
696.155	24791.44
696.501	24497.89
696.847	24680.03
697.193	24301.73
697.539	24454.5
697.885	24142.19
698.231	24074.4
698.577	24101.29
698.923	24094.28
699.269	23798.7
699.614	23733.84
699.96	23690.22
700.306	23570.23
700.651	23503.11
700.997	23443.68
701.342	23345.37
701.688	23332.04
702.033	23166.4
702.379	23111.48
702.724	23012.28
703.069	23094.08
703.415	22692.74
703.76	22754.43
704.105	22797.14
704.45	22650.03
704.795	22630.59
705.14	22569.8
705.485	22544.94
705.83	22293.2
706.175	22377.04
706.52	22237.16
706.865	22118.74
707.209	22130.04
707.554	22134.56
707.899	22093.2
708.243	22000.1
708.588	21876.26
708.932	21739.77
709.277	21704.51
709.621	21716.72
709.966	21492.99
710.31	21609.15
710.654	21452.09
710.998	21449.15
711.342	21512.43
711.687	21335.48
712.031	21295.94
712.375	21170.06
712.719	21213.45
713.063	21229.05
713.407	21335.26
713.75	21084.87
714.094	21189.5
714.438	21132.1
714.782	21063.63
715.125	20912.44
715.469	21033.35
715.812	21007.58
716.156	20914.48
716.499	20898.43
716.843	20918.32
717.186	20840.13
717.53	20932.78
717.873	20972.56
718.216	20819.57
718.559	20764.2
718.902	20594.26
719.246	20737.53
719.589	20632.23
719.932	20592.23
720.275	20574.83
720.617	20658.44
720.96	20549.29
721.303	20617.09
721.646	20562.85
721.989	20523.08
722.331	20576.63
722.674	20484.43
723.016	20500.93
723.359	20507.94
723.701	20490.08
724.044	20408.73
724.386	20377.54
724.729	20528.5
725.071	20478.11
725.413	20489.86
725.755	20486.47
726.097	20412.12
726.439	20373.25
726.782	20410.08
727.124	20527.82
727.465	20439.91
727.807	20350.65
728.149	20403.98
728.491	20390.42
728.833	20375.28
729.175	20354.49
729.516	20290.09
729.858	20376.19
730.199	20485.56
730.541	20314.49
730.882	20279.69
731.224	20436.3
731.565	20346.58
731.906	20437.2
732.248	20417.09
732.589	20275.85
732.93	20478.78
733.271	20425.23
733.612	20419.8
733.953	20582.96
734.294	20538.67
734.635	20589.74
734.976	20576.86
735.317	20569.63
735.658	20570.31
735.999	20540.7
736.339	20610.31
736.68	20683.52
737.021	20786.8
737.361	20707.25
737.702	20972.1
738.042	20856.85
738.383	20848.04
738.723	20793.13
739.063	20883.97
739.404	21045.55
739.744	20974.59
740.084	21087.58
740.424	21216.17
740.764	21137.52
741.104	21355.6
741.444	21154.02
741.784	21310.17
742.124	21416.84
742.464	21455.03
742.804	21530.96
743.143	21546.1
743.483	21758.52
743.823	21632.43
744.162	21817.51
744.502	21865.41
744.841	21949.48
745.181	22160.1
745.52	22167.55
745.86	22297.04
746.199	22422.91
746.538	22451.84
746.877	22752.85
747.216	22774.77
747.556	22906.29
747.895	23109.67
748.234	23153.97
748.573	23269.44
748.911	23257.92
749.25	23400.06
749.589	23556.67
749.928	23876.89
750.267	23896.09
750.605	24175.64
750.944	24231.91
751.283	24315.07
751.621	24670.31
751.96	24629.63
752.298	24848.39
752.636	25015.84
752.975	25157.08
753.313	25275.27
753.651	25578.76
753.989	25665.77
754.327	25842.26
754.666	25884.29
755.004	26221.46
755.342	26371.06
755.679	26534.44
756.017	26715
756.355	26878.84
756.693	26982.12
757.031	27397.02
757.368	27437.7
757.706	27592.72
758.044	27776.22
758.381	27833.62
758.719	28027.29
759.056	28225.47
759.394	28436.77
759.731	28400.16
760.068	28612.36
760.405	28789.75
760.743	28808.96
761.08	29146.58
761.417	29085.56
761.754	29387.02
762.091	29501.6
762.428	29434.03
762.765	29491.65
763.102	29881.02
763.438	29820.23
763.775	29905.43
764.112	30082.6
764.449	30254.57
764.785	30333.89
765.122	30257.28
765.458	30358.98
765.795	30465.64
766.131	30679.19
766.467	30683.49
766.804	30543.15
767.14	30632.41
767.476	30745.86
767.812	30727.33
768.148	30958.06
768.485	30885.52
768.821	30881.67
769.157	30848
769.492	30985.63
769.828	30993.08
770.164	30833.77
770.5	30982.91
770.836	31032.63
771.171	30873.09
771.507	31012.07
771.842	30818.17
772.178	30910.83
772.513	30937.72
772.849	30965.06
773.184	30965.74
773.519	31036.25
773.855	30882.35
774.19	30974.78
774.525	30802.58
774.86	30905.4
775.195	30791.28
775.53	30892.07
775.865	30627.9
776.2	30548.12
776.535	30458.18
776.87	30411.18
777.205	30344.74
777.539	30327.11
777.874	30434.45
778.209	30206.44
778.543	30253.67
778.878	30099.77
779.212	30105.65
779.547	29843.96
779.881	30058.19
780.215	29856.84
780.55	30074.92
780.884	29794.47
781.218	29777.75
781.552	29812.55
781.886	29643.97
782.22	29458.21
782.554	29446.91
782.888	29191.55
783.222	29223.19
783.556	29065.45
783.889	29003.53
784.223	28920.14
784.557	28880.6
784.89	29056.86
785.224	28658.46
785.557	28561.06
785.891	28719.47
786.224	28515.18
786.558	28534.39
786.891	28342.08
787.224	28237.45
787.557	28180.73
787.891	28141.63
788.224	28016.66
788.557	28090.11
788.89	27978.25
789.223	27876.33
789.556	27636.79
789.888	27754.75
790.221	27586.62
790.554	27537.36
790.887	27361.09
791.219	27368.32
791.552	27397.47
791.884	27320.41
792.217	27169.46
792.549	27129.68
792.882	26822.35
793.214	26870.48
793.546	26868.9
793.879	26663.25
794.211	26523.6
794.543	26581.22
794.875	26531.51
795.207	26524.27
795.539	26431.17
795.871	26400.89
796.203	26353.43
796.535	26100.78
796.867	26246.09
797.198	26035.7
797.53	26010.16
797.862	25760.68
798.193	25800.9
798.525	25822.6
798.856	25840.9
799.188	25456.96
799.519	25421.25
799.85	25338.32
800.182	25377.41
800.513	25518.2
800.844	25207.92
801.175	25261.71
801.506	25193.69
801.837	25066.69
802.168	25175.61
802.499	25040.02
802.83	24823.3
803.161	24877.54
803.491	24789.86
803.822	24990.08
804.153	24694.72
804.483	24593.7
804.814	24415.4
805.145	24567.94
805.475	24467.83
805.805	24506.02
806.136	24478.68
806.466	24317.55
806.796	24291.79
807.126	24235.75
807.457	24159.82
807.787	24149.2
808.117	24108.07
808.447	24072.14
808.777	24009.76
809.107	23798.47
809.436	23762.77
809.766	23795.98
810.096	23751.47
810.426	23694.07
810.755	23679.6
811.085	23607.97
811.414	23584.24
811.744	23450.23
812.073	23529.1
812.403	23420.63
812.732	23330.23
813.061	23360.52
813.39	23280.52
813.719	23262.44
814.049	23226.06
814.378	23265.6
814.707	22988.32
815.036	23141.31
815.365	22884.6
815.693	22909.68
816.022	22847.99
816.351	22841.43
816.68	22651.83
817.008	22703.58
817.337	22497.94
817.665	22563.47
817.994	22485.96
818.322	22528.9
818.651	22470.82
818.979	22388.79
819.307	22448.9
819.636	22348.79
819.964	22288.91
820.292	22400.77
820.62	22349.24
820.948	22280.54
821.276	22527.09
821.604	22306.31
821.932	22449.35
822.259	22297.04
822.587	22253.88
822.915	22403.93
823.243	22380.88
823.57	22211.62
823.898	22366.19
824.225	22299.75
824.553	22320.32
824.88	22378.85
825.207	22373.42
825.535	22255.46
825.862	22472.18
826.189	22246.65
826.516	22475.79
826.843	22302.69
827.17	22482.12
827.497	22441.22
827.824	22422.01
828.151	22379.3
828.478	22369.36
828.805	22568.9
829.131	22478.28
829.458	22517.37
829.785	22229.92
830.111	22404.61
830.438	22560.99
830.764	22583.59
831.09	22545.62
831.417	22301.56
831.743	22507.66
832.069	22491.16
832.395	22371.39
832.722	22435.79
833.048	22358.51
833.374	22446.64
833.7	22333.2
834.026	22389.47
834.351	22277.83
834.677	22437.6
835.003	22428.79
835.329	22426.3
835.654	22446.42
835.98	22262.47
836.306	22363.71
836.631	22234.22
836.956	22409.81
837.282	22318.96
837.607	22145.18
837.932	22220.21
838.258	22188.34
838.583	22231.28
838.908	22181.11
839.233	22116.25
839.558	22087.33
839.883	22048.23
840.208	21942.7
840.533	21966.65
840.858	22022.47
841.182	21930.04
841.507	21986.99
841.832	21853.89
842.156	21784.29
842.481	21779.54
842.805	21718.52
843.13	21583.16
843.454	21596.04
843.778	21566.21
844.103	21470.17
844.427	21569.6
844.751	21439.44
845.075	21453.67
845.399	21418.65
845.723	21243.51
846.047	21322.15
846.371	21276.5
846.695	20999
847.019	20990.63
847.343	20882.61
847.666	20898.89
847.99	20746.12
848.313	20615.05
848.637	20733.47
848.96	20512.91
849.284	20546.13
849.607	20341.16
849.931	20385.23
850.254	20303.65
850.577	20239.02
850.9	19934.84
851.223	19956.54
851.546	20022.3
851.869	19816.65
852.192	19934.17
852.515	19661.86
852.838	19650.33
853.161	19653.27
853.483	19437.46
853.806	19387.06
854.129	19333.05
854.451	19264.35
854.774	19085.83
855.096	19137.58
855.419	19112.72
855.741	19015.09
856.063	19025.04
856.385	18908.2
856.708	18870.46
857.03	18847.19
857.352	18820.07
857.674	18821.2
857.996	18688.55
858.318	18491.27
858.64	18648.78
858.961	18415.11
859.283	18397.93
859.605	18342.34
859.926	18377.82
860.248	18295.34
860.57	18200.43
860.891	18183.7
861.212	18175.57
861.534	18220.09
861.855	18092.86
862.176	18166.08
862.498	18070.71
862.819	17985.74
863.14	17959.75
863.461	17917.49
863.782	17827.33
864.103	17916.59
864.424	17827.33
864.745	17900.09
865.065	17746.43
865.386	17671.17
865.707	17715.01
866.027	17708.01
866.348	17597.05
866.668	17624.85
866.989	17555.92
867.309	17494.68
867.63	17444.06
867.95	17498.07
868.27	17461.24
868.59	17511.63
868.91	17458.07
869.23	17421.91
869.55	17223.73
869.87	17358.64
870.19	17168.14
870.51	17259.66
870.83	17190.28
871.15	17152.77
871.469	17155.93
871.789	17248.81
872.109	17153.22
872.428	17047.46
872.748	17198.42
873.067	17029.16
873.386	17039.1
873.706	17043.85
874.025	16911.42
874.344	16888.37
874.663	16970.4
874.982	16825.77
875.301	16872.78
875.62	16777.64
875.939	16807.47
876.258	16730.41
876.577	16654.03
876.896	16679.79
877.214	16624.42
877.533	16655.61
877.852	16675.04
878.17	16623.29
878.489	16628.04
878.807	16553.92
879.125	16475.5
879.444	16447.48
879.762	16430.53
880.08	16448.16
880.398	16367.71
880.716	16391.43
881.034	16392.56
881.352	16352.79
881.67	16316.18
881.988	16156.64
882.306	16075.28
882.624	16114.6
882.941	16122.74
883.259	16231.44
883.577	16016.53
883.894	15913.93
884.212	16021.5
884.529	15981.73
884.846	15785.57
885.164	15783.77
885.481	15717.1
885.798	15781.73
886.115	15661.06
886.432	15754.84
886.75	15729.3
887.067	15705.58
887.383	15565.47
887.7	15517.11
888.017	15467.16
888.334	15511
888.651	15444.79
888.967	15399.37
889.284	15333.38
889.6	15284.12
889.917	15298.58
890.233	15310.11
890.55	15252.93
890.866	15136.78
891.182	15130.22
891.498	15119.6
891.815	14986.27
892.131	14895.88
892.447	14928.2
892.763	14923.68
893.079	14940.85
893.395	14803
893.71	14829.89
894.026	14807.07
894.342	14741.76
894.657	14580.63
894.973	14567.98
895.289	14666.51
895.604	14527.53
895.92	14510.8
896.235	14472.39
896.55	14377.7
896.865	14369.34
897.181	14261.09
897.496	14223.35
897.811	14132.96
898.126	14072.4
898.441	14055.68
898.756	14088.67
899.071	13960.54
899.386	13980.88
899.7	13899.52
900.015	13751.28
900.33	13698.62
900.644	13631.96
900.959	13713.99
901.273	13606.2
901.588	13509.48
901.902	13558.97
902.216	13448.01
902.531	13424.51
902.845	13352.19
903.159	13206.21
903.473	13278.07
903.787	13249.37
904.101	13174.12
904.415	13207.11
904.729	13109.26
905.042	13058.41
905.356	13023.39
905.67	12942.48
905.984	12882.6
906.297	12842.83
906.611	12754.24
906.924	12732.77
907.237	12662.49
907.551	12691.19
907.864	12652.1
908.177	12599.67
908.491	12535.72
908.804	12452.55
909.117	12391.54
909.43	12274.93
909.743	12247.14
910.056	12287.59
910.368	12210.3
910.681	12124.65
910.994	12077.42
911.307	11982.51
911.619	11918.33
911.932	11884.43
912.244	11818.67
912.557	11860.93
912.869	11760.59
913.181	11759.92
913.494	11719.69
913.806	11659.58
914.118	11624.55
914.43	11558.79
914.742	11513.6
915.054	11467.27
915.366	11354.28
915.678	11369.42
915.99	11317.89
916.302	11282.42
916.613	11193.15
916.925	11175.3
917.236	11146.83
917.548	11108.86
917.859	11067.28
918.171	11005.81
918.482	10993.38
918.794	10938.47
919.105	10918.36
919.416	10827.74
919.727	10868.87
920.038	10806.04
920.349	10695.09
920.66	10693.73
920.971	10636.78
921.282	10633.39
921.593	10504.13
921.903	10461.19
922.214	10441.53
922.525	10354.53
922.835	10330.8
923.146	10315.66
923.456	10179.17
923.767	10256.23
924.077	10171.48
924.387	10123.35
924.697	10018.27
925.008	10065.72
925.318	10041.09
925.628	10001.54
925.938	9958.38
926.248	9835.45
926.558	9737.6
926.867	9815.11
927.177	9684.04
927.487	9661.44
927.796	9655.11
928.106	9694.43
928.416	9565.17
928.725	9623.93
929.034	9500.99
929.344	9498.96
929.653	9436.36
929.962	9412.41
930.271	9379.19
930.581	9409.02
930.89	9288.34
931.199	9255.58
931.508	9200.44
931.817	9190.72
932.125	9148.69
932.434	9110.27
932.743	9051.29
933.051	8955.7
933.36	8911.4
933.669	8896.04
933.977	8894.68
934.286	8835.25
934.594	8785.31
934.902	8730.62
935.21	8673.67
935.519	8635.25
935.827	8710.28
936.135	8631.41
936.443	8582.83
936.751	8609.94
937.059	8511.41
937.367	8517.97
937.674	8407.69
937.982	8362.49
938.29	8397.29
938.597	8352.77
938.905	8302.83
939.213	8234.59
939.52	8229.16
939.827	8247.47
940.135	8167.92
940.442	8126.57
940.749	8085.21
941.056	8033.91
941.363	7994.82
941.67	7982.16
941.977	7943.52
942.284	7906.68
942.591	7831.66
942.898	7802.96
943.205	7825.33
943.511	7761.6
943.818	7770.42
944.125	7666.92
944.431	7649.74
944.738	7620.36
945.044	7539.69
945.35	7574.72
945.657	7524.77
945.963	7496.3
946.269	7433.7
946.575	7478.9
946.881	7394.83
947.187	7405.46
947.493	7355.29
947.799	7298.11
948.105	7296.31
948.41	7267.61
948.716	7212.47
949.022	7171.34
949.327	7190.32
949.633	7058.8
949.938	7047.05
950.244	7111.23
950.549	6992.81
950.854	6976.77
951.16	6997.56
951.465	6928.63
951.77	6880.95
952.075	6878.46
952.38	6855.64
952.685	6795.75
952.99	6823.32
953.294	6711.46
953.599	6696.55
953.904	6682.08
954.209	6588.98
954.513	6674.17
954.818	6589.88
955.122	6558.02
955.426	6529.32
955.731	6532.94
956.035	6445.48
956.339	6451.36
956.643	6429.21
956.948	6395.31
957.252	6361.41
957.556	6291.59
957.86	6301.98
958.163	6275.54
958.467	6235.32
958.771	6260.4
959.075	6256.33
959.378	6145.6
959.682	6148.99
959.985	6161.19
960.289	6077.81
960.592	6056.11
960.896	6031.48
961.199	6119.39
961.502	6041.42
961.805	6000.97
962.108	5895.66
962.411	5923.01
962.714	5878.26
963.017	5833.29
963.32	5881.65
963.623	5778.83
963.926	5807.3
964.228	5704.03
964.531	5772.28
964.833	5731.37
965.136	5674.2
965.438	5606.18
965.741	5587.88
966.043	5591.04
966.345	5539.52
966.648	5497.93
966.95	5503.13
967.252	5497.48
967.554	5439.41
967.856	5432.63
968.158	5382.23
968.46	5396.69
968.761	5399.18
969.063	5344.94
969.365	5297.71
969.666	5293.87
969.968	5239.86
970.269	5213.42
970.571	5211.39
970.872	5204.38
971.174	5170.71
971.475	5157.38
971.776	5146.53
972.077	5092.07
972.378	5128.23
972.679	5096.82
972.98	5040.55
973.281	4953.09
973.582	5013.43
973.883	4959.87
974.183	4908.57
974.484	4909.25
974.785	4878.06
975.085	4846.65
975.386	4898.4
975.686	4816.37
975.986	4808.01
976.287	4781.34
976.587	4709.25
976.887	4779.31
977.187	4760.78
977.487	4710.61
977.787	4716.94
978.087	4669.48
978.387	4638.97
978.687	4594.68
978.987	4584.06
979.286	4587
979.586	4612.31
979.885	4529.37
980.185	4515.81
980.484	4495.93
980.784	4476.49
981.083	4469.26
981.382	4458.19
981.682	4420.22
981.981	4410.28
982.28	4358.08
982.579	4369.38
982.878	4347.46
983.177	4310.85
983.475	4289.83
983.774	4278.98
984.073	4247.57
984.372	4225.88
984.67	4229.49
984.969	4187.23
985.267	4194.47
985.566	4173.45
985.864	4123.28
986.162	4078.99
986.461	4103.39
986.759	4081.93
987.057	4035.37
987.355	4025.66
987.653	4014.36
987.951	3959.9
988.249	3941.37
988.547	4006
988.844	3907.92
989.142	3949.5
989.44	3914.93
989.737	3860.01
990.035	3884.19
990.332	3885.32
990.63	3806.91
990.927	3866.79
991.224	3803.06
991.521	3783.63
991.819	3775.04
992.116	3736.85
992.413	3736.62
992.71	3730.3
993.006	3655.5
993.303	3681.03
993.6	3687.81
993.897	3666.34
994.193	3653.01
994.49	3583.63
994.787	3568.49
995.083	3495.73
995.379	3558.78
995.676	3476.97
995.972	3493.47
996.268	3509.06
996.565	3465.9
996.861	3483.52
997.157	3458.67
997.453	3424.32
997.749	3369.85
998.044	3342.06
998.34	3369.85
998.636	3332.12
998.932	3372.57
999.227	3310.2
999.523	3320.59
999.818	3312.46
1000.114	3249.18
1000.409	3272.23
1000.704	3235.17
1001	3178.9
1001.295	3178
1001.59	3190.88
1001.885	3154.72
1002.18	3127.83
1002.475	3134.38
1002.77	3123.08
1003.065	3073.14
1003.359	3061.61
1003.654	3050.09
1003.949	2953.14
1004.243	2992.24
1004.538	2980.26
1004.832	2966.48
1005.127	2960.6
1005.421	2920.83
1005.715	2943.2
1006.009	2874.27
1006.304	2905.69
1006.598	2888.06
1006.892	2890.77
1007.186	2813.49
1007.48	2842.19
1007.773	2791.57
1008.067	2804.9
1008.361	2787.05
1008.655	2761.06
1008.948	2783.2
1009.242	2717.67
1009.535	2706.82
1009.829	2701.4
1010.122	2702.08
1010.415	2620.72
1010.708	2658.24
1011.001	2628.86
1011.295	2630.21
1011.588	2598.8
1011.881	2585.02
1012.173	2571.46
1012.466	2529.65
1012.759	2538.46
1013.052	2552.25
1013.344	2524
1013.637	2469.54
1013.93	2456.66
1014.222	2442.65
1014.514	2414.4
1014.807	2420.73
1015.099	2400.16
1015.391	2381.41
1015.683	2392.48
1015.976	2385.47
1016.268	2351.12
1016.56	2334.63
1016.851	2324.23
1017.143	2298.47
1017.435	2273.39
1017.727	2279.26
1018.018	2282.2
1018.31	2239.49
1018.602	2245.82
1018.893	2208.76
1019.185	2220.51
1019.476	2210.34
1019.767	2204.01
1020.058	2166.04
1020.35	2125.82
1020.641	2136.44
1020.932	2112.94
1021.223	2103.67
1021.514	2075.88
1021.804	2063.22
1022.095	2053.96
1022.386	2028.65
1022.677	2006.27
1022.967	1990.91
1023.258	1981.64
1023.548	1978.48
1023.839	1959.04
1024.129	1964.02
1024.419	1948.42
1024.709	1946.16
1025	1925.83
1025.29	1913.85
1025.58	1900.97
1025.87	1871.82
1026.16	1869.1
1026.449	1864.13
1026.739	1852.61
1027.029	1824.81
1027.319	1813.06
1027.608	1778.94
1027.898	1777.58
1028.187	1762.21
1028.477	1765.38
1028.766	1728.54
1029.055	1750.46
1029.344	1730.35
1029.634	1708.88
1029.923	1692.38
1030.212	1704.59
1030.501	1683.57
1030.79	1630.92
1031.078	1648.54
1031.367	1643.12
1031.656	1594.76
1031.945	1609
1032.233	1579.85
1032.522	1582.78
1032.81	1566.29
1033.099	1577.13
1033.387	1533.07
1033.675	1529.9
1033.963	1510.47
1034.251	1546.85
1034.54	1492.62
1034.828	1491.94
1035.116	1465.5
1035.403	1453.07
1035.691	1451.04
1035.979	1426.63
1036.267	1472.28
1036.554	1425.5
1036.842	1402.9
1037.129	1425.05
1037.417	1404.26
1037.704	1397.25
1037.992	1387.99
1038.279	1382.79
1038.566	1379.4
1038.853	1379.4
1039.14	1379.4
