Data from 18-5621_FLMS001491_005.txt Node
Date: Thu Apr 19 15:15:25 BST 2018
User: hsy
Spectrometer: FLMS00149
Trigger mode: 0
Integration Time (sec): 1.000000E-2
Scans to average: 10
Electric dark correction enabled: true
Nonlinearity correction enabled: false
Boxcar width: 0
XAxis mode: Wavelengths
Number of Pixels in Spectrum: 2048
>>>>>Begin Spectral Data<<<<<
341.393	-6.12
341.776	-6.12
342.16	-6.12
342.543	-58.77
342.927	-82.27
343.31	-59.45
343.693	-85.21
344.077	-63.06
344.46	-67.58
344.843	-30.52
345.226	-55.61
345.61	-30.75
345.993	-16.28
346.376	4.96
346.759	-5.44
347.142	16.03
347.525	45.63
347.908	53.77
348.291	79.31
348.674	98.97
349.057	115.24
349.44	110.27
349.823	141
350.206	161.79
350.588	206.76
350.971	235.46
351.354	261
351.737	266.19
352.119	271.62
352.502	282.46
352.884	300.77
353.267	301.22
353.65	335.8
354.032	325.4
354.414	306.42
354.797	350.49
355.179	345.51
355.562	365.17
355.944	337.38
356.326	373.54
356.709	369.47
357.091	367.21
357.473	393.42
357.855	371.95
358.238	356.81
358.62	377.6
359.002	385.96
359.384	378.06
359.766	380.09
360.148	373.31
360.53	368.56
360.912	359.75
361.294	366.08
361.676	374.21
362.057	364.95
362.439	367.43
362.821	376.47
363.203	364.72
363.584	362.01
363.966	384.38
364.348	380.77
364.729	358.17
365.111	369.69
365.493	356.81
365.874	356.81
366.256	355.23
366.637	348.23
367.019	377.6
367.4	363.14
367.781	345.51
368.163	370.6
368.544	346.42
368.925	361.33
369.306	364.95
369.688	348.23
370.069	355.23
370.45	344.84
370.831	369.92
371.212	374.89
371.593	344.38
371.974	368.11
372.355	368.34
372.736	379.18
373.117	379.64
373.498	355.23
373.879	370.37
374.26	384.83
374.641	359.52
375.021	375.34
375.402	393.87
375.783	399.07
376.163	395.68
376.544	372.86
376.925	395.68
377.305	395.68
377.686	403.59
378.066	397.49
378.447	429.35
378.827	413.99
379.208	417.38
379.588	395.91
379.968	421.44
380.349	396.13
380.729	411.73
381.109	442.23
381.489	421.67
381.87	414.21
382.25	412.63
382.63	423.93
383.01	427.55
383.39	420.54
383.77	420.09
384.15	416.25
384.53	441.78
384.91	433.42
385.29	413.08
385.67	439.97
386.049	444.04
386.429	451.73
386.809	454.66
387.189	467.54
387.568	447.66
387.948	449.01
388.328	450.6
388.707	440.43
389.087	458.5
389.466	477.94
389.846	470.93
390.225	498.5
390.605	488.56
390.984	482.01
391.363	480.43
391.743	496.24
392.122	519.75
392.501	496.02
392.881	497.83
393.26	520.65
393.639	514.55
394.018	517.71
394.397	501.67
394.776	515.23
395.155	523.81
395.534	516.81
395.913	536.69
396.292	529.69
396.671	545.96
397.05	540.76
397.429	547.54
397.808	532.85
398.186	552.29
398.565	552.29
398.944	551.84
399.323	565.85
399.701	569.69
400.08	573.76
400.458	571.27
400.837	586.64
401.215	577.15
401.594	584.6
401.972	600.87
402.351	571.95
402.729	602.68
403.107	623.7
403.486	615.56
403.864	600.65
404.242	607.88
404.62	628.9
404.999	640.87
405.377	645.17
405.755	613.76
406.133	660.99
406.511	648.1
406.889	665.73
407.267	680.87
407.645	675
408.023	686.97
408.401	675.67
408.779	689.46
409.156	698.72
409.534	716.8
409.912	709.57
410.29	711.38
410.667	731.72
411.045	757.71
411.422	744.83
411.8	748.89
412.178	766.07
412.555	766.75
412.933	769.23
413.31	816.01
413.687	808.1
414.065	809
414.442	816.69
414.819	823.47
415.197	840.42
415.574	832.28
415.951	845.16
416.328	862.56
416.705	858.27
417.082	866.63
417.46	885.61
417.837	895.1
418.214	882.22
418.591	891.49
418.967	893.3
419.344	894.43
419.721	899.17
420.098	919.51
420.475	920.19
420.852	929.23
421.228	950.7
421.605	940.98
421.982	966.74
422.358	979.62
422.735	989.34
423.111	1007.19
423.488	999.73
423.864	998.38
424.241	1025.72
424.617	1030.24
424.994	1032.28
425.37	1058.04
425.746	1051.94
426.123	1064.36
426.499	1059.39
426.875	1105.72
427.251	1113.4
427.627	1126.06
428.003	1136.45
428.379	1118.83
428.756	1165.38
429.132	1183.68
429.507	1202.44
429.883	1202.44
430.259	1210.58
430.635	1225.49
431.011	1247.64
431.387	1233.85
431.763	1283.57
432.138	1279.73
432.514	1281.08
432.89	1310.69
433.265	1342.1
433.641	1340.06
434.016	1337.13
434.392	1364.24
434.767	1404.02
435.143	1386.39
435.518	1418.71
435.894	1450.34
436.269	1471.81
436.644	1459.16
437.02	1471.36
437.395	1513.62
437.77	1497.57
438.145	1533.73
438.52	1503.68
438.895	1545.03
439.271	1549.1
439.646	1584.58
440.021	1591.81
440.395	1595.2
440.77	1608.53
441.145	1623.22
441.52	1642.2
441.895	1636.1
442.27	1667.74
442.645	1636.78
443.019	1653.73
443.394	1672.48
443.769	1698.02
444.143	1679.94
444.518	1706.38
444.892	1712.94
445.267	1729.66
445.641	1726.49
446.016	1757
446.39	1754.29
446.764	1765.59
447.139	1766.04
447.513	1807.17
447.887	1811.24
448.262	1834.06
448.636	1822.08
449.01	1874.06
449.384	1882.42
449.758	1862.31
450.132	1935.98
450.506	1895.98
450.88	1906.6
451.254	1914.74
451.628	1966.04
452.002	1939.82
452.376	2005.13
452.75	2006.03
453.123	2014.62
453.497	2072.02
453.871	2070.44
454.244	2111.12
454.618	2136.43
454.992	2139.14
455.365	2151.12
455.739	2230.21
456.112	2196.31
456.486	2271.11
456.859	2267.72
457.232	2356.76
457.606	2342.3
457.979	2342.3
458.352	2393.37
458.725	2457.1
459.099	2463.88
459.472	2481.95
459.845	2519.92
460.218	2545.46
460.591	2562.4
460.964	2574.38
461.337	2601.95
461.71	2668.16
462.083	2707.26
462.456	2719.46
462.829	2727.15
463.201	2816.86
463.574	2780.03
463.947	2813.47
464.32	2840.14
464.692	2877.65
465.065	2908.16
465.438	2958.33
465.81	3001.94
466.183	2999.46
466.555	3029.28
466.928	3078.1
467.3	3080.36
467.672	3136.85
468.045	3222.73
468.417	3190.41
468.789	3195.61
469.161	3281.26
469.534	3300.46
469.906	3352.44
470.278	3387.69
470.65	3411.65
471.022	3506.79
471.394	3524.86
471.766	3591.08
472.138	3598.76
472.51	3696.61
472.882	3700.45
473.253	3758.98
473.625	3791.52
473.997	3881.69
474.369	3913.78
474.74	3936.83
475.112	4001.69
475.484	4066.09
475.855	4151.06
476.227	4178.18
476.598	4270.16
476.97	4368.46
477.341	4440.55
477.713	4505.18
478.084	4544.27
478.455	4675.12
478.827	4664.04
479.198	4800.76
479.569	4854.55
479.94	4973.19
480.311	5009.57
480.682	5118.27
481.053	5252.96
481.424	5303.35
481.795	5407.98
482.166	5438.71
482.537	5560.97
482.908	5673.51
483.279	5738.14
483.65	5825.14
484.021	5951.69
484.391	6029.66
484.762	6115.98
485.133	6175.87
485.503	6248.41
485.874	6401.4
486.244	6522.07
486.615	6629.64
486.985	6714.39
487.356	6803.87
487.726	6894.49
488.097	7087.03
488.467	7081.61
488.837	7362.05
489.207	7413.35
489.578	7550.75
489.948	7633.01
490.318	7713
490.688	7830.97
491.058	8021.92
491.428	8112.31
491.798	8204.97
492.168	8413.32
492.538	8426.2
492.908	8545.3
493.278	8687.89
493.648	8645.41
494.017	8878.4
494.387	9021.9
494.757	9103.48
495.126	9210.59
495.496	9225.96
495.866	9426.86
496.235	9509.79
496.605	9607.87
496.974	9727.64
497.344	9857.58
497.713	9957.46
498.082	10011.93
498.452	10121.08
498.821	10220.51
499.19	10239.72
499.559	10435.87
499.928	10544.79
500.298	10580.27
500.667	10734.62
501.036	10746.14
501.405	10847.16
501.774	10908.85
502.143	11040.37
502.512	11085.57
502.88	11238.56
503.249	11233.81
503.618	11436.97
503.987	11473.58
504.356	11496.41
504.724	11623.41
505.093	11742.95
505.462	11805.33
505.83	11858.21
506.199	11971.42
506.567	12205.54
506.936	12233.11
507.304	12273.79
507.672	12418.19
508.041	12520.79
508.409	12568.69
508.777	12632.2
509.145	12841.68
509.514	12872.42
509.882	12914.9
510.25	12888.01
510.618	13034.22
510.986	13058.63
511.354	13188.11
511.722	13367.77
512.09	13494.09
512.458	13410.93
512.826	13533.19
513.193	13622
513.561	13747.87
513.929	13857.7
514.297	13835.55
514.664	13997.81
515.032	14075.55
515.4	14195.54
515.767	14186.28
516.135	14301.53
516.502	14296.56
516.869	14459.27
517.237	14537.68
517.604	14575.2
517.972	14720.5
518.339	14758.02
518.706	14856.77
519.073	15002.3
519.44	15009.99
519.808	15194.39
520.175	15222.18
520.542	15429.41
520.909	15484.1
521.276	15481.84
521.643	15690.87
522.009	15687.48
522.376	15909.62
522.743	15959.11
523.11	16056.74
523.477	16211.99
523.843	16271.42
524.21	16411.98
524.577	16620.57
524.943	16595.93
525.31	16704.18
525.676	16965.42
526.043	17035.24
526.409	17064.4
526.776	17273.88
527.142	17310.27
527.508	17465.74
527.874	17586.64
528.241	17696.7
528.607	17717.71
528.973	17855.56
529.339	17863.47
529.705	18045.61
530.071	18182.33
530.437	18246.29
530.803	18282.44
531.169	18453.96
531.535	18472.04
531.901	18573.28
532.267	18666.84
532.632	18868.87
532.998	18768.53
533.364	18920.17
533.73	18938.92
534.095	19136.43
534.461	19142.31
534.826	19209.88
535.192	19204.9
535.557	19402.64
535.923	19361.51
536.288	19432.92
536.653	19515.86
537.019	19528.29
537.384	19576.65
537.749	19576.87
538.114	19696.42
538.479	19548.62
538.845	19726.7
539.21	19643.54
539.575	19813.25
539.94	19807.83
540.305	19918.78
540.67	19776.42
541.034	19969.86
541.399	19923.53
541.764	20024.09
542.129	19962.17
542.494	20011.66
542.858	20072.68
543.223	20060.48
543.587	20154.26
543.952	20249.85
544.316	20122.39
544.681	20116.07
545.045	20285.33
545.41	20306.57
545.774	20285.33
546.138	20251.88
546.503	20313.35
546.867	20337.08
547.231	20336.4
547.595	20468.6
547.959	20372.78
548.324	20429.05
548.688	20487.13
549.052	20464.98
549.416	20482.61
549.779	20403.29
550.143	20467.02
550.507	20686.67
550.871	20613.68
551.235	20607.81
551.599	20826.1
551.962	20774.81
552.326	20797.86
552.689	20874.47
553.053	20734.36
553.417	20770.06
553.78	21024.97
554.143	20966.89
554.507	20958.3
554.87	21036.27
555.234	21165.31
555.597	20993.78
555.96	21168.47
556.323	21200.11
556.686	21038.3
557.05	21359.65
557.413	21367.56
557.776	21442.13
558.139	21381.57
558.502	21509.93
558.865	21399.2
559.228	21651.85
559.59	21743.14
559.953	21736.82
560.316	22028.33
560.679	22023.59
561.041	22051.84
561.404	22234.88
561.767	22327.76
562.129	22219.97
562.492	22416.12
562.854	22416.35
563.217	22461.09
563.579	22535.44
563.941	22633.97
564.304	22794.19
564.666	22959.83
565.028	23004.8
565.39	23032.15
565.753	23203.9
566.115	23233.73
566.477	23400.27
566.839	23459.93
567.201	23735.63
567.563	23727.5
567.925	23805.69
568.287	23985.57
568.648	24185.11
569.01	24309.63
569.372	24456.97
569.734	24476.86
570.095	24685.21
570.457	24863.74
570.819	24953.23
571.18	24946.67
571.542	25148.48
571.903	25265.76
572.265	25452.65
572.626	25439.99
572.987	25621.46
573.349	25834.79
573.71	25930.83
574.071	25979.42
574.432	26151.16
574.794	26316.13
575.155	26384.38
575.516	26424.83
575.877	26587.08
576.238	26616.91
576.599	26817.36
576.96	26847.87
577.32	26992.95
577.681	26944.81
578.042	27139.84
578.403	27285.82
578.763	27211.25
579.124	27393.16
579.485	27552.48
579.845	27636.77
580.206	27728.07
580.566	27723.78
580.927	27754.06
581.287	27807.16
581.648	27785.7
582.008	27995.41
582.368	27983.66
582.728	28222.52
583.089	28152.69
583.449	28081.96
583.809	28250.09
584.169	28255.51
584.529	28106.37
584.889	28376.41
585.249	28319.47
585.609	28128.74
585.969	28340.26
586.329	28319.92
586.688	28405.11
587.048	28392.91
587.408	28358.34
587.768	28363.53
588.127	28394.95
588.487	28331.22
588.846	28536.64
589.206	28324.44
589.565	28427.04
589.925	28562.17
590.284	28509.97
590.643	28542.51
591.003	28584.32
591.362	28690.3
591.721	28836.97
592.08	28707.93
592.44	28719.91
592.799	28839
593.158	28679.01
593.517	28693.02
593.876	28927.36
594.235	28762.85
594.593	28754.48
594.952	28835.84
595.311	28721.26
595.67	28743.86
596.029	28935.72
596.387	28998.32
596.746	28997.87
597.104	28780.47
597.463	28867.25
597.822	29032.44
598.18	28955.61
598.538	28884.65
598.897	29083.74
599.255	28994.25
599.613	29265.66
599.972	28907.25
600.33	29055.04
600.688	28979.56
601.046	29117.19
601.404	29351.53
601.762	29180.69
602.12	29303.17
602.478	29203.51
602.836	29344.3
603.194	29061.14
603.552	29133.23
603.91	29180.46
604.268	29207.58
604.625	29136.62
604.983	29285.09
605.341	29063.85
605.698	29447.8
606.056	29356.05
606.413	29300.91
606.771	29572.54
607.128	29436.05
607.485	29365.77
607.843	29384.98
608.2	29548.59
608.557	29674.01
608.914	29575.25
609.272	29724.18
609.629	29903.61
609.986	29810.73
610.343	29685.53
610.7	30026.09
611.057	29978.86
611.414	30043.04
611.771	29992.87
612.127	30041.46
612.484	30074.22
612.841	30109.93
613.198	30006.65
613.554	30104.05
613.911	30269.25
614.267	30153.77
614.624	30225.41
614.98	30350.6
615.337	30469.24
615.693	30388.57
616.05	30346.08
616.406	30532.29
616.762	30367.32
617.118	30449.35
617.475	30426.53
617.831	30568.9
618.187	30630.14
618.543	30614.1
618.899	30786.3
619.255	30687.77
619.611	30719.63
619.967	30898.16
620.323	30958.95
620.678	30748.78
621.034	30849.12
621.39	30799.85
621.746	30770.7
622.101	31080.75
622.457	30735
622.812	30979.28
623.168	31114.87
623.523	30897.48
623.879	31153.29
624.234	30886.86
624.589	30892.51
624.945	30968.66
625.3	31050.69
625.655	31039.4
626.01	30966.63
626.365	31074.2
626.72	31119.85
627.075	30903.58
627.43	30927.53
627.785	31004.37
628.14	31028.1
628.495	31096.12
628.85	31101.09
629.205	30931.83
629.559	31018.83
629.914	30880.98
630.269	31021.09
630.623	30744.04
630.978	30680.31
631.332	31004.37
631.687	30864.03
632.041	30838.05
632.396	30857.25
632.75	30824.94
633.104	30820.42
633.459	30534.55
633.813	30653.19
634.167	30526.41
634.521	30627.2
634.875	30497.72
635.229	30500.88
635.583	30323.26
635.937	30437.6
636.291	30299.53
636.645	30346.53
636.999	30201
637.352	30262.47
637.706	30143.6
638.06	30171.85
638.413	30063.15
638.767	30045.07
639.121	30121.45
639.474	30088.23
639.828	30061.79
640.181	30075.13
640.534	30051.17
640.888	29899.99
641.241	29856.15
641.594	29852.53
641.947	29929.59
642.301	29669.04
642.654	29788.81
643.007	29741.12
643.36	29708.13
643.713	29726.44
644.066	29809.82
644.419	29618.64
644.771	29219.56
645.124	29091.42
645.477	29008.26
645.83	28955.16
646.182	29073.35
646.535	28958.09
646.888	28937.08
647.24	28980.47
647.593	29159.67
647.945	28988.6
648.298	28857.76
648.65	28735.73
649.002	28580.93
649.355	28493.25
649.707	28325.12
650.059	28220.49
650.411	28738.89
650.763	28941.37
651.115	29422.94
651.467	29393.79
651.819	29356.73
652.171	29228.37
652.523	29165.77
652.875	29271.53
653.227	29108.37
653.578	29369.38
653.93	29290.29
654.282	29146.11
654.633	29130.75
654.985	29297.75
655.337	29255.49
655.688	29212.1
656.039	29341.59
656.391	29211.65
656.742	29087.36
657.094	29218.65
657.445	29313.57
657.796	29304.98
658.147	29210.97
658.498	29376.39
658.849	29451.87
659.2	29470.17
659.551	29301.59
659.902	29465.43
660.253	29301.81
660.604	29509.72
660.955	29309.05
661.306	29438.31
661.656	29355.15
662.007	29395.82
662.358	29357.18
662.708	29486.67
663.059	29383.39
663.409	29325.54
663.76	29320.57
664.11	29522.6
664.461	29515.37
664.811	29571.86
665.161	29580.23
665.511	29331.19
665.862	29496.39
666.212	29547.91
666.562	29608.47
666.912	29540
667.262	29423.84
667.612	29512.66
667.962	29532.32
668.312	29397.63
668.662	29679.88
669.011	29611.64
669.361	29515.82
669.711	29590.85
670.06	29572.09
670.41	29365.77
670.76	29530.96
671.109	29501.36
671.459	29428.36
671.808	29313.34
672.157	29392.43
672.507	29254.58
672.856	29271.98
673.205	29290.06
673.554	29330.97
673.904	29193.79
674.253	29441.47
674.602	29224.53
674.951	28913.12
675.3	28761.94
675.649	29292.1
675.998	29232.44
676.346	29160.12
676.695	29236.73
677.044	29048.26
677.393	29177.75
677.741	29187.02
678.09	29109.95
678.438	28873.35
678.787	29150.86
679.135	28974.59
679.484	28791.09
679.832	28991.99
680.181	28842.17
680.529	28898.21
680.877	28727.37
681.225	28699.57
681.573	28905.21
681.922	28702.28
682.27	28573.25
682.618	28582.51
682.966	28439.92
683.314	28557.43
683.661	28322.41
684.009	28298.68
684.357	28316.53
684.705	28154.27
685.053	28319.47
685.4	28032.47
685.748	28034.5
686.095	28005.58
686.443	27828.18
686.79	27733.49
687.138	27839.48
687.485	27851.91
687.832	27655.98
688.18	27728.3
688.527	27595.64
688.874	27385.93
689.221	27344.8
689.568	27327.63
689.915	27158.59
690.262	27179.16
690.609	27148.65
690.956	26996.11
691.303	27052.38
691.65	26709.79
691.997	26713.63
692.344	26533.75
692.69	26548.21
693.037	26496.92
693.383	26216.47
693.73	26225.74
694.077	26034.33
694.423	26165.4
694.769	26152.97
695.116	25880.44
695.462	25837.95
695.808	25780.78
696.155	25801.57
696.501	25568.58
696.847	25567.68
697.193	25294.01
697.539	25303.95
697.885	25095.37
698.231	25014.24
698.577	24976.05
698.923	24913.68
699.269	24617.87
699.614	24668.94
699.96	24503.3
700.306	24580.13
700.651	24387.14
700.997	24336.75
701.342	24277.77
701.688	24175.62
702.033	24033.48
702.379	24044.78
702.724	23884.1
703.069	23823.09
703.415	23671.68
703.76	23621.06
704.105	23482.98
704.45	23542.87
704.795	23340.62
705.14	23301.52
705.485	23272.37
705.83	23133.16
706.175	23201.18
706.52	23182.88
706.865	23032.37
707.209	22906.05
707.554	22793.28
707.899	22891.14
708.243	22661.08
708.588	22636.68
708.932	22533.86
709.277	22602.56
709.621	22523.91
709.966	22402.56
710.31	22315.56
710.654	22212.28
710.998	22136.35
711.342	22232.85
711.687	22163.02
712.031	22142.45
712.375	22048.22
712.719	21979.07
713.063	21968.67
713.407	21992.85
713.75	21904.72
714.094	21886.19
714.438	21870.82
714.782	21832.41
715.125	21727.1
715.469	21829.02
715.812	21543.15
716.156	21630.6
716.499	21650.49
716.843	21662.69
717.186	21499.99
717.53	21589.02
717.873	21690.94
718.216	21591.73
718.559	21547.67
718.902	21352.87
719.246	21427.45
719.589	21411.4
719.932	21415.47
720.275	21277.39
720.617	21504.51
720.96	21232.42
721.303	21389.25
721.646	21376.15
721.989	21183.38
722.331	21240.78
722.674	21215.02
723.016	21332.76
723.359	21242.14
723.701	21335.02
724.044	21205.98
724.386	21128.92
724.729	21311.74
725.071	21210.5
725.413	21204.4
725.755	21172.54
726.097	21095.93
726.439	21182.48
726.782	21239.65
727.124	21206.21
727.465	21194.91
727.807	21186.55
728.149	21166.21
728.491	21212.31
728.833	21285.3
729.175	21211.86
729.516	21172.31
729.858	21223.83
730.199	21252.76
730.541	21284.4
730.882	21267.9
731.224	21334.11
731.565	21264.51
731.906	21265.42
732.248	21264.06
732.589	21177.06
732.93	21266.55
733.271	21312.65
733.612	21398.75
733.953	21359.42
734.294	21357.62
734.635	21357.84
734.976	21552.41
735.317	21407.33
735.658	21451.63
735.999	21293.44
736.339	21455.69
736.68	21589.7
737.021	21571.85
737.361	21497.95
737.702	21746.76
738.042	21719.87
738.383	21667.21
738.723	21812.52
739.063	21751.96
739.404	21953.31
739.744	22065.62
740.084	21865.17
740.424	22135
740.764	22122.79
741.104	22279.63
741.444	22232.17
741.784	22241.21
742.124	22359.62
742.464	22328.66
742.804	22418.61
743.143	22508.32
743.483	22690.24
743.823	22656.34
744.162	22788.09
744.502	22864.7
744.841	22877.58
745.181	23096.33
745.52	23033.5
745.86	23200.28
746.199	23279.83
746.538	23387.62
746.877	23615.86
747.216	23634.84
747.556	23713.26
747.895	23917.32
748.234	23895.4
748.573	23990.09
748.911	24250.42
749.25	24292.45
749.589	24433.47
749.928	24733.8
750.267	24831.42
750.605	24898.54
750.944	25156.61
751.283	25248.36
751.621	25482.03
751.96	25485.64
752.298	25805.41
752.636	25947.1
752.975	26033.2
753.313	26263.93
753.651	26541.43
753.989	26463.47
754.327	26689.91
754.666	26816.46
755.004	27163.57
755.342	27335.09
755.679	27556.32
756.017	27482.65
756.355	27881.96
756.693	27992.92
757.031	28405.34
757.368	28265.46
757.706	28458.9
758.044	28531.44
758.381	28970.07
758.719	28942.5
759.056	29133.91
759.394	29124.87
759.731	29251.19
760.068	29574.58
760.405	29567.12
760.743	29659.77
761.08	29881.91
761.417	30049.14
761.754	30263.14
762.091	30398.73
762.428	30276.48
762.765	30366.19
763.102	30632.63
763.438	30637.6
763.775	30624.49
764.112	30934.09
764.449	30991.26
764.785	31125.5
765.122	31029.9
765.458	31049.34
765.795	31099.51
766.131	31374.3
766.467	31271.71
766.804	31260.63
767.14	31350.8
767.476	31361.65
767.812	31520.96
768.148	31626.05
768.485	31638.25
768.821	31637.12
769.157	31730
769.492	31781.3
769.828	31790.56
770.164	31588.99
770.5	31585.6
770.836	31691.58
771.171	31670.57
771.507	31626.5
771.842	31568.42
772.178	31584.24
772.513	31698.81
772.849	31562.09
773.184	31542.21
773.519	31580.4
773.855	31466.05
774.19	31541.3
774.525	31384.25
774.86	31472.83
775.195	31375.21
775.53	31245.94
775.865	31250.01
776.2	31121.2
776.535	31028.1
776.87	30998.04
777.205	31017.93
777.539	30873.52
777.874	30928.21
778.209	30736.13
778.543	30837.59
778.878	30631.04
779.212	30573.19
779.547	30329.36
779.881	30463.59
780.215	30178.4
780.55	30482.12
780.884	30126.88
781.218	30131.62
781.552	30182.92
781.886	30050.5
782.22	29849.82
782.554	29718.98
782.888	29545.2
783.222	29511.3
783.556	29440.34
783.889	29413.68
784.223	29192.44
784.557	29339.78
784.89	29310.18
785.224	29063.18
785.557	28926.68
785.891	28969.62
786.224	28977.3
786.558	29035.15
786.891	28773.47
787.224	28615.28
787.557	28481.5
787.891	28472.23
788.224	28330.77
788.557	28258.23
788.89	28381.39
789.223	28240.83
789.556	28114.95
789.888	28054.39
790.221	27880.61
790.554	27821.4
790.887	27808.97
791.219	27644.23
791.552	27727.17
791.884	27635.42
792.217	27500.51
792.549	27295.31
792.882	27174.19
793.214	27101.65
793.546	27153.85
793.879	27086.96
794.211	26860.97
794.543	27005.15
794.875	26948.2
795.207	26826.4
795.539	26782.56
795.871	26875.89
796.203	26573.52
796.535	26527.88
796.867	26487.2
797.198	26317.94
797.53	26324.94
797.862	26084.72
798.193	26165.85
798.525	26119.75
798.856	26039.08
799.188	25801.57
799.519	25666.43
799.85	25717.28
800.182	25765.64
800.513	25705.07
800.844	25415.14
801.175	25621.23
801.506	25517.51
801.837	25351.41
802.168	25273.22
802.499	25289.26
802.83	25145.99
803.161	25105.99
803.491	25026.67
803.822	25129.27
804.153	24960.46
804.483	24814.25
804.814	24731.76
805.145	24694.93
805.475	24672.33
805.805	24567.7
806.136	24674.37
806.466	24531.54
806.796	24567.25
807.126	24387.82
807.457	24357.76
807.787	24304.43
808.117	24155.73
808.447	24198.22
808.777	24248.61
809.107	23963.88
809.436	23965.68
809.766	24077.77
810.096	24006.59
810.426	23920.94
810.755	23852.24
811.085	23786.25
811.414	23869.41
811.744	23675.52
812.073	23730.89
812.403	23604.79
812.732	23488.86
813.061	23616.31
813.39	23449.76
813.719	23307.85
814.049	23573.83
814.378	23463.55
814.707	23272.14
815.036	23254.52
815.365	23133.84
815.693	23077.12
816.022	23110.34
816.351	22944.92
816.68	22895.66
817.008	22936.56
817.337	22792.61
817.665	22869.67
817.994	22780.63
818.322	22910.57
818.651	22729.56
818.979	22711.48
819.307	22694.08
819.636	22564.82
819.964	22641.88
820.292	22670.58
820.62	22555.1
820.948	22617.24
821.276	22588.09
821.604	22587.41
821.932	22633.29
822.259	22547.64
822.587	22543.12
822.915	22571.6
823.243	22584.93
823.57	22463.35
823.898	22653.85
824.225	22544.48
824.553	22480.52
824.88	22587.87
825.207	22652.27
825.535	22518.04
825.862	22554.2
826.189	22569.56
826.516	22582.22
826.843	22639.39
827.17	22594.42
827.497	22652.72
827.824	22735.21
828.151	22605.95
828.478	22482.56
828.805	22746.96
829.131	22624.48
829.458	22636.68
829.785	22542.9
830.111	22553.07
830.438	22736.11
830.764	22668.77
831.09	22661.31
831.417	22493.86
831.743	22674.42
832.069	22572.27
832.395	22525.95
832.722	22673.06
833.048	22550.35
833.374	22618.83
833.7	22568.21
834.026	22578.83
834.351	22484.14
834.677	22608.88
835.003	22554.2
835.329	22473.07
835.654	22407.98
835.98	22391.04
836.306	22493.63
836.631	22305.16
836.956	22478.94
837.282	22507.19
837.607	22257.25
837.932	22303.58
838.258	22289.57
838.583	22239.18
838.908	22233.98
839.233	22264.94
839.558	22231.94
839.883	22088.67
840.208	22023.81
840.533	21966.87
840.858	21997.37
841.182	22113.98
841.507	21960.76
841.832	21876.25
842.156	21898.62
842.481	21860.65
842.805	21743.14
843.13	21726.19
843.454	21778.85
843.778	21733.2
844.103	21638.74
844.427	21624.95
844.751	21587.44
845.075	21441.46
845.399	21456.14
845.723	21228.58
846.047	21337.96
846.371	21190.39
846.695	21234.46
847.019	21090.96
847.343	20956.72
847.666	20955.82
847.99	20709.27
848.313	20732.55
848.637	20696.84
848.96	20677.18
849.284	20587.47
849.607	20290.98
849.931	20337.08
850.254	20292.33
850.577	20129.4
850.9	20100.02
851.223	20113.81
851.546	20036.97
851.869	19860.25
852.192	19952
852.515	19713.82
852.838	19598.34
853.161	19731.22
853.483	19582.07
853.806	19446.93
854.129	19399.25
854.451	19367.84
854.774	19242.42
855.096	19229.76
855.419	19177.56
855.741	19154.06
856.063	19021.63
856.385	18959.71
856.708	18922.2
857.03	18949.09
857.352	18769.89
857.674	18796.33
857.996	18671.13
858.318	18564.24
858.64	18646.28
858.961	18513.4
859.283	18466.62
859.605	18320.63
859.926	18361.09
860.248	18370.58
860.57	18286.06
860.891	18279.96
861.212	18244.93
861.534	18133.52
861.855	18048.32
862.176	18143.92
862.498	18145.27
862.819	18079.06
863.14	17933.53
863.461	17922
863.782	17940.53
864.103	17954.32
864.424	17877.26
864.745	17910.93
865.065	17707.77
865.386	17699.18
865.707	17833.42
866.027	17705.06
866.348	17668.9
866.668	17720.65
866.989	17665.74
867.309	17509.58
867.63	17473.88
867.95	17554.78
868.27	17453.76
868.59	17551.16
868.91	17415.57
869.23	17415.57
869.55	17328.12
869.87	17434.33
870.19	17261
870.51	17296.03
870.83	17254.67
871.15	17148.69
871.469	17291.06
871.789	17236.59
872.109	17184.62
872.428	17054.23
872.748	17117.28
873.067	17149.14
873.386	17029.37
873.706	17070.27
874.025	16985.98
874.344	16977.17
874.663	16937.17
874.982	16896.26
875.301	16921.57
875.62	16844.51
875.939	16844.51
876.258	16737.62
876.577	16730.85
876.896	16734.46
877.214	16708.93
877.533	16713.44
877.852	16628.25
878.17	16668.02
878.489	16637.51
878.807	16540.34
879.125	16565.43
879.444	16538.53
879.762	16494.69
880.08	16552.32
880.398	16496.5
880.716	16442.72
881.034	16335.15
881.352	16362.49
881.67	16303.29
881.988	16354.81
882.306	16229.39
882.624	16269.16
882.941	16132.9
883.259	16121.37
883.577	16062.84
883.894	15986.91
884.212	16026.23
884.529	16021.26
884.846	15909.85
885.164	15800.7
885.481	15788.27
885.798	15900.58
886.115	15870.53
886.432	15862.39
886.75	15743.53
887.067	15724.09
887.383	15682.51
887.7	15629.18
888.017	15553.48
888.334	15464.89
888.651	15511.44
888.967	15421.05
889.284	15436.87
889.6	15444.1
889.917	15322.29
890.233	15298.79
890.55	15329.3
890.866	15205.24
891.182	15155.29
891.498	15132.02
891.815	14995.75
892.131	15000.04
892.447	15009.31
892.763	14953.27
893.079	14965.92
893.395	14969.31
893.71	14843.89
894.026	14764.57
894.342	14743.33
894.657	14677.79
894.973	14681.63
895.289	14551.92
895.604	14612.93
895.92	14580.62
896.235	14465.37
896.55	14462.66
896.865	14450.68
897.181	14446.61
897.496	14260.18
897.811	14218.6
898.126	14188.54
898.441	14115.77
898.756	14126.17
899.071	14012.27
899.386	14136.11
899.7	13874.2
900.015	13895.67
900.33	13806.63
900.644	13807.31
900.959	13767.31
901.273	13582.68
901.588	13684.15
901.902	13498.39
902.216	13537.26
902.531	13470.82
902.845	13517.82
903.159	13342.46
903.473	13303.59
903.787	13305.85
904.101	13259.3
904.415	13291.16
904.729	13117.83
905.042	13122.58
905.356	13094.78
905.67	13034.22
905.984	12974.79
906.297	12916.03
906.611	12836.71
906.924	12829.71
907.237	12822.02
907.551	12748.8
907.864	12758.29
908.177	12668.13
908.491	12586.32
908.804	12498.87
909.117	12428.13
909.43	12413.44
909.743	12313.56
910.056	12361.92
910.368	12336.61
910.681	12253
910.994	12145.88
911.307	12074.24
911.619	11970.97
911.932	12049.39
912.244	11925.1
912.557	11894.14
912.869	11843.06
913.181	11817.98
913.494	11797.87
913.806	11638.78
914.118	11586.8
914.43	11603.3
914.742	11467.93
915.054	11534.6
915.366	11447.37
915.678	11356.3
915.99	11414.15
916.302	11330.76
916.613	11267.26
916.925	11230.88
917.236	11152.46
917.548	11124.44
917.859	11166.47
918.171	11066.81
918.482	11020.49
918.794	10981.84
919.105	10916.08
919.416	10895.74
919.727	10792.92
920.038	10776.43
920.349	10728.07
920.66	10695.98
920.971	10648.29
921.282	10654.17
921.593	10581.63
921.903	10525.81
922.214	10482.65
922.525	10513.83
922.835	10354.06
923.146	10319.94
923.456	10309.55
923.767	10191.36
924.077	10200.4
924.387	10189.77
924.697	10091.47
925.008	10094.18
925.318	10076.78
925.628	10076.56
925.938	9943.23
926.248	9913.62
926.558	9832.27
926.867	9831.37
927.177	9838.6
927.487	9728.09
927.796	9686.06
928.106	9657.13
928.416	9627.98
928.725	9660.97
929.034	9561.77
929.344	9575.55
929.653	9554.76
929.962	9437.7
930.271	9419.17
930.581	9294.43
930.89	9315
931.199	9224.38
931.508	9256.47
931.817	9258.27
932.125	9200.87
932.434	9104.61
932.743	9055.79
933.051	9002.46
933.36	9031.61
933.669	8948.9
933.977	8906.19
934.286	8909.58
934.594	8835.01
934.902	8797.95
935.21	8753.65
935.519	8758.63
935.827	8730.83
936.135	8629.59
936.443	8549.59
936.751	8590.95
937.059	8530.16
937.367	8540.1
937.674	8511.85
937.982	8474.11
938.29	8408.58
938.597	8425.98
938.905	8288.81
939.213	8274.34
939.52	8211.97
939.827	8251.75
940.135	8199.09
940.442	8142.6
940.749	8103.95
941.056	8108.47
941.363	8046.1
941.67	8018.76
941.977	7984.18
942.284	7938.08
942.591	7940.12
942.898	7868.71
943.205	7883.62
943.511	7816.28
943.818	7791.19
944.125	7717.52
944.431	7712.1
944.738	7628.94
945.044	7612.67
945.35	7595.49
945.657	7540.8
945.963	7521.82
946.269	7517.08
946.575	7479.34
946.881	7408.6
947.187	7381.49
947.493	7286.35
947.799	7310.53
948.105	7292
948.41	7218.33
948.716	7218.55
949.022	7162.96
949.327	7144.43
949.633	7076.41
949.938	7090.87
950.244	7062.63
950.549	6975.62
950.854	6958
951.16	6952.12
951.465	6970.88
951.77	6884.1
952.075	6875.96
952.38	6857.43
952.685	6794.61
952.99	6746.48
953.294	6739.47
953.599	6647.49
953.904	6721.39
954.209	6620.15
954.513	6668.96
954.818	6590.32
955.122	6549.42
955.426	6541.73
955.731	6538.57
956.035	6494.73
956.339	6484.34
956.643	6410.21
956.948	6369.31
957.252	6378.35
957.556	6358.91
957.86	6347.84
958.163	6322.08
958.467	6300.84
958.771	6249.31
959.075	6254.06
959.378	6140.62
959.682	6170.22
959.985	6119.37
960.289	6068.53
960.592	6065.82
960.896	6068.3
961.199	6021.52
961.502	6030.79
961.805	5964.57
962.108	5943.33
962.411	5932.03
962.714	5873.96
963.017	5845.93
963.32	5897.01
963.623	5822.21
963.926	5791.02
964.228	5707.86
964.531	5768.87
964.833	5702.89
965.136	5664.47
965.438	5627.63
965.741	5638.26
966.043	5601.19
966.345	5571.59
966.648	5574.75
966.95	5546.96
967.252	5530.46
967.554	5516.45
967.856	5464.02
968.158	5437.13
968.46	5400.07
968.761	5391.26
969.063	5353.52
969.365	5329.56
969.666	5310.58
969.968	5246.85
970.269	5225.16
970.571	5215.22
970.872	5210.24
971.174	5167.08
971.475	5125.5
971.776	5179.74
972.077	5125.27
972.378	5110.13
972.679	5107.87
972.98	5099.29
973.281	5018.61
973.582	5063.58
973.883	4971.38
974.183	4973.64
974.484	4911.5
974.785	4899.29
975.085	4892.96
975.386	4922.12
975.686	4830.82
975.986	4789.69
976.287	4838.73
976.587	4726.87
976.887	4796.92
977.187	4772.52
977.487	4766.19
977.787	4740.2
978.087	4678.73
978.387	4706.3
978.687	4674.67
978.987	4587.21
979.286	4576.36
979.586	4602.8
979.885	4584.27
980.185	4565.52
980.484	4512.18
980.784	4488.46
981.083	4466.76
981.382	4493.43
981.682	4439.19
981.981	4458.63
982.28	4414.33
982.579	4364.16
982.878	4408.91
983.177	4336.37
983.475	4314.67
983.774	4308.12
984.073	4288.91
984.372	4240.33
984.67	4172.53
984.969	4220.89
985.267	4265.86
985.566	4186.09
985.864	4135.47
986.162	4139.76
986.461	4159.88
986.759	4096.38
987.057	4052.31
987.355	4084.17
987.653	4057.28
987.951	4022.93
988.249	3996.94
988.547	3986.1
988.844	3980.67
989.142	3959.43
989.44	3916.04
989.737	3887.34
990.035	3902.26
990.332	3881.69
990.63	3839.21
990.927	3830.85
991.224	3813.44
991.521	3781.58
991.819	3723.73
992.116	3758.76
992.413	3744.29
992.71	3740.68
993.006	3730.74
993.303	3657.74
993.6	3629.72
993.897	3684.41
994.193	3634.24
994.49	3601.02
994.787	3594.24
995.083	3579.1
995.379	3576.39
995.676	3536.84
995.972	3531.87
996.268	3459.33
996.565	3462.04
996.861	3432.89
997.157	3463.4
997.453	3446.45
997.749	3417.07
998.044	3380.24
998.34	3384.98
998.636	3365.55
998.932	3352.21
999.227	3322.38
999.523	3301.37
999.818	3272.67
1000.114	3236.51
1000.409	3251.88
1000.704	3201.48
1001	3222.5
1001.295	3143.41
1001.59	3185.21
1001.885	3189.96
1002.18	3147.25
1002.475	3122.62
1002.77	3134.14
1003.065	3066.12
1003.359	3123.29
1003.654	3042.84
1003.949	3056.63
1004.243	3007.14
1004.538	2975.95
1004.832	3008.95
1005.127	2948.38
1005.421	2994.48
1005.715	2933.24
1006.009	2907.25
1006.304	2890.53
1006.598	2875.62
1006.892	2883.07
1007.186	2853.24
1007.48	2823.64
1007.773	2806.01
1008.067	2774.38
1008.361	2761.27
1008.655	2781.38
1008.948	2742.96
1009.242	2754.26
1009.535	2679.24
1009.829	2694.15
1010.122	2679.46
1010.415	2642.4
1010.708	2614.38
1011.001	2646.02
1011.295	2635.85
1011.588	2587.71
1011.881	2595.4
1012.173	2566.7
1012.466	2554.72
1012.759	2551.56
1013.052	2581.61
1013.344	2502.52
1013.637	2523.76
1013.93	2492.8
1014.222	2450.09
1014.514	2471.33
1014.807	2448.06
1015.099	2406.7
1015.391	2426.14
1015.683	2381.84
1015.976	2376.65
1016.268	2359.02
1016.56	2321.73
1016.851	2291
1017.143	2327.61
1017.435	2271.79
1017.727	2254.39
1018.018	2242.86
1018.31	2232.02
1018.602	2201.28
1018.893	2224.33
1019.185	2215.29
1019.476	2175.07
1019.767	2190.66
1020.058	2148.63
1020.35	2121.06
1020.641	2099.59
1020.932	2109.08
1021.223	2096.43
1021.514	2069.76
1021.804	2087.84
1022.095	2069.54
1022.386	2044.23
1022.677	2031.12
1022.967	2017.79
1023.258	1977.34
1023.548	1983.66
1023.839	1968.75
1024.129	1974.85
1024.419	1936.21
1024.709	1914.74
1025	1934.85
1025.29	1908.86
1025.58	1892.14
1025.87	1892.14
1026.16	1846.27
1026.449	1884.68
1026.739	1821.41
1027.029	1822.31
1027.319	1824.12
1027.608	1778.92
1027.898	1784.12
1028.187	1789.54
1028.477	1745.48
1028.766	1733.27
1029.055	1725.59
1029.344	1711.58
1029.634	1693.73
1029.923	1686.95
1030.212	1670
1030.501	1666.38
1030.79	1653.05
1031.078	1675.87
1031.367	1653.73
1031.656	1655.54
1031.945	1623.22
1032.233	1623.9
1032.522	1626.61
1032.81	1609.89
1033.099	1573.28
1033.387	1580.74
1033.675	1542.77
1033.963	1567.63
1034.251	1525.82
1034.54	1504.13
1034.828	1508.42
1035.116	1467.52
1035.403	1476.56
1035.691	1461.87
1035.979	1485.6
1036.267	1459.83
1036.554	1446.5
1036.842	1415.99
1037.129	1430.23
1037.417	1423.9
1037.704	1418.93
1037.992	1428.65
1038.279	1389.33
1038.566	1394.07
1038.853	1394.07
1039.14	1394.07
