Data from 18-5621_FLMS001491_004.txt Node
Date: Thu Apr 19 15:15:22 BST 2018
User: hsy
Spectrometer: FLMS00149
Trigger mode: 0
Integration Time (sec): 1.000000E-2
Scans to average: 10
Electric dark correction enabled: true
Nonlinearity correction enabled: false
Boxcar width: 0
XAxis mode: Wavelengths
Number of Pixels in Spectrum: 2048
>>>>>Begin Spectral Data<<<<<
341.393	-16.28
341.776	-16.28
342.16	-16.28
342.543	-33.69
342.927	-56.96
343.31	-73.23
343.693	-76.62
344.077	-61.48
344.46	-55.38
344.843	-61.26
345.226	-49.73
345.61	-42.27
345.993	-16.51
346.376	4.51
346.759	-0.24
347.142	25.3
347.525	54
347.908	61.91
348.291	75.92
348.674	102.81
349.057	112.3
349.44	157.95
349.823	139.87
350.206	157.72
350.588	221.67
350.971	244.5
351.354	259.19
351.737	270.26
352.119	267.32
352.502	275.91
352.884	298.74
353.267	307.55
353.65	305.74
354.032	313.42
354.414	349.13
354.797	345.06
355.179	355
355.562	357.94
355.944	354.78
356.326	367.43
356.709	373.08
357.091	366.3
357.473	389.13
357.855	385.96
358.238	380.31
358.62	387.77
359.002	365.85
359.384	367.89
359.766	366.98
360.148	390.94
360.53	375.57
360.912	354.1
361.294	381.22
361.676	376.25
362.057	362.24
362.439	383.7
362.821	379.41
363.203	358.62
363.584	350.94
363.966	367.43
364.348	376.93
364.729	366.08
365.111	361.11
365.493	346.64
365.874	401.11
366.256	353.87
366.637	366.3
367.019	361.33
367.4	368.34
367.781	343.93
368.163	359.52
368.544	373.31
368.925	376.25
369.306	380.09
369.688	361.56
370.069	361.11
370.45	346.42
370.831	376.93
371.212	375.8
371.593	364.95
371.974	351.16
372.355	349.81
372.736	387.32
373.117	373.31
373.498	378.51
373.879	371.28
374.26	363.82
374.641	368.56
375.021	374.67
375.402	368.56
375.783	381.67
376.163	375.12
376.544	392.52
376.925	380.77
377.305	386.42
377.686	384.61
378.066	375.8
378.447	387.77
378.827	385.96
379.208	369.02
379.588	399.52
379.968	409.24
380.349	390.26
380.729	409.47
381.109	400.88
381.489	402.01
381.87	412.18
382.25	419.41
382.63	420.54
383.01	385.74
383.39	417.6
383.77	407.21
384.15	413.76
384.53	420.09
384.91	419.18
385.29	433.65
385.67	421.44
386.049	436.13
386.429	421.44
386.809	431.84
387.189	451.73
387.568	448.56
387.948	453.99
388.328	444.27
388.707	457.6
389.087	448.11
389.466	469.58
389.846	459.41
390.225	453.08
390.605	446.75
390.984	473.42
391.363	482.69
391.743	483.81
392.122	477.26
392.501	498.28
392.881	484.49
393.26	493.08
393.639	506.87
394.018	508.22
394.397	504.83
394.776	495.11
395.155	523.14
395.534	520.65
395.913	505.51
396.292	524.94
396.671	536.47
397.05	503.25
397.429	526.3
397.808	534.89
398.186	542.12
398.565	533.98
398.944	527.43
399.323	567.88
399.701	559.07
400.08	545.28
400.458	559.52
400.837	561.33
401.215	574.89
401.594	568.78
401.972	574.21
402.351	567.2
402.729	550.25
403.107	573.76
403.486	588.67
403.864	612.63
404.242	582.34
404.62	632.51
404.999	631.61
405.377	629.35
405.755	640.65
406.133	618.73
406.511	629.8
406.889	626.64
407.267	620.53
407.645	638.39
408.023	648.56
408.401	641.32
408.779	665.28
409.156	684.04
409.534	679.29
409.912	701.89
410.29	714.54
410.667	747.76
411.045	734.66
411.422	731.04
411.8	726.75
412.178	771.27
412.555	755.45
412.933	768.55
413.31	770.36
413.687	778.5
414.065	791.6
414.442	799.51
414.819	791.6
415.197	799.29
415.574	820.98
415.951	829.12
416.328	847.87
416.705	829.57
417.082	852.84
417.46	853.3
417.837	876.12
418.214	844.03
418.591	892.17
418.967	878.61
419.344	904.37
419.721	907.08
420.098	926.52
420.475	917.7
420.852	909.57
421.228	919.28
421.605	946.63
421.982	931.71
422.358	955.67
422.735	974.88
423.111	952.96
423.488	995.44
423.864	993.41
424.241	1009
424.617	1028.66
424.994	988.21
425.37	1015.55
425.746	1027.08
426.123	1065.04
426.499	1037.7
426.875	1046.06
427.251	1060.3
427.627	1087.41
428.003	1116.11
428.379	1145.04
428.756	1119.5
429.132	1111.37
429.507	1158.6
429.883	1158.6
430.259	1178.94
430.635	1197.69
431.011	1218.94
431.387	1220.07
431.763	1216.9
432.138	1232.27
432.514	1279.27
432.89	1267.3
433.265	1288.09
433.641	1308.43
434.016	1313.85
434.392	1328.99
434.767	1325.83
435.143	1353.85
435.518	1341.87
435.894	1379.16
436.269	1407.18
436.644	1415.09
437.02	1444.24
437.395	1454.86
437.77	1459.16
438.145	1461.64
438.52	1508.65
438.895	1505.48
439.271	1512.71
439.646	1527.86
440.021	1536.22
440.395	1557.46
440.77	1535.09
441.145	1569.66
441.52	1589.1
441.895	1602.2
442.27	1617.34
442.645	1590.9
443.019	1656.89
443.394	1616.21
443.769	1633.39
444.143	1633.16
444.518	1680.17
444.892	1652.15
445.267	1670.68
445.641	1702.99
446.016	1668.64
446.39	1719.26
446.764	1734.4
447.139	1714.74
447.513	1733.05
447.887	1737.79
448.262	1780.5
448.636	1753.39
449.01	1794.97
449.384	1813.05
449.758	1818.47
450.132	1856.66
450.506	1836.32
450.88	1872.25
451.254	1874.51
451.628	1883.78
452.002	1942.76
452.376	1940.27
452.75	1952.02
453.123	1992.25
453.497	1973.49
453.871	2021.18
454.244	2057.33
454.618	2041.51
454.992	2073.15
455.365	2085.58
455.739	2159.03
456.112	2172.13
456.486	2173.94
456.859	2195.86
457.232	2235.86
457.606	2242.86
457.979	2257.33
458.352	2293.71
458.725	2337.55
459.099	2342.75
459.472	2435.63
459.845	2419.58
460.218	2431.33
460.591	2442.86
460.964	2529.86
461.337	2525.12
461.71	2586.13
462.083	2619.35
462.456	2573.25
462.829	2615.06
463.201	2665.45
463.574	2710.42
463.947	2731.89
464.32	2780.7
464.692	2768.73
465.065	2782.29
465.438	2834.04
465.81	2865.9
466.183	2878.33
466.555	2904.09
466.928	2957.65
467.3	2994.94
467.672	2989.06
468.045	3116.74
468.417	3111.09
468.789	3090.3
469.161	3099.34
469.534	3168.72
469.906	3197.87
470.278	3289.62
470.65	3319.22
471.022	3355.6
471.394	3361.03
471.766	3406.9
472.138	3474.24
472.51	3564.86
472.882	3598.31
473.253	3606.22
473.625	3627.69
473.997	3715.82
474.369	3741.81
474.74	3782.71
475.112	3907.91
475.484	3927.79
475.855	4017.73
476.227	4016.83
476.598	4168.69
476.97	4203.94
477.341	4249.82
477.713	4290.49
478.084	4332.3
478.455	4476.03
478.827	4496.36
479.198	4623.82
479.569	4631.05
479.94	4774.78
480.311	4781.78
480.682	4890.48
481.053	5020.87
481.424	5100.19
481.795	5150.36
482.166	5234.88
482.537	5342.9
482.908	5421.99
483.279	5497.02
483.65	5574.08
484.021	5657.92
484.391	5788.99
484.762	5809.78
485.133	5902.88
485.503	6027.4
485.874	6188.75
486.244	6197.11
486.615	6307.62
486.985	6425.58
487.356	6592.58
487.726	6596.2
488.097	6837.55
488.467	6832.8
488.837	6945.11
489.207	7072.34
489.578	7149.63
489.948	7283.18
490.318	7381.03
490.688	7424.2
491.058	7581.48
491.428	7737.86
491.798	7782.83
492.168	7959.78
492.538	8094.01
492.908	8165.19
493.278	8237.74
493.648	8338.3
494.017	8539.42
494.387	8608.8
494.757	8650.83
495.126	8776.03
495.496	8798.17
495.866	8962.46
496.235	9016.7
496.605	9161.33
496.974	9297.59
497.344	9359.74
497.713	9412.85
498.082	9559.28
498.452	9643.8
498.821	9740.29
499.19	9782.55
499.559	9917.47
499.928	9968.09
500.298	10058.25
500.667	10215.08
501.036	10188.42
501.405	10340.28
501.774	10359.94
502.143	10483.55
502.512	10539.14
502.88	10606.71
503.249	10646.03
503.618	10783.21
503.987	10891
504.356	10904.56
504.724	10982.75
505.093	11052.8
505.462	11153.82
505.83	11168.05
506.199	11305.23
506.567	11503.41
506.936	11447.82
507.304	11533.02
507.672	11621.38
508.041	11732.78
508.409	11811.43
508.777	11900.69
509.145	11982.95
509.514	12008.48
509.882	12138.88
510.25	12259.32
510.618	12339.77
510.986	12259.78
511.354	12455.25
511.722	12486.21
512.09	12657.96
512.458	12676.04
512.826	12703.38
513.193	12822.93
513.561	12833.55
513.929	12963.94
514.297	13040.55
514.664	13126.87
515.032	13138.4
515.4	13368.9
515.767	13343.14
516.135	13376.81
516.502	13293.87
516.869	13628.33
517.237	13659.74
517.604	13626.07
517.972	13790.13
518.339	13873.52
518.706	13860.64
519.073	13970.24
519.44	13989.67
519.808	14202.32
520.175	14246.16
520.542	14310.12
520.909	14398.7
521.276	14487.51
521.643	14657.23
522.009	14752.14
522.376	14916.2
522.743	14878.01
523.11	15026.71
523.477	15132.7
523.843	15202.75
524.21	15396.19
524.577	15421.73
524.943	15577.2
525.31	15595.28
525.676	15765.22
526.043	15838.44
526.409	15926.12
526.776	16085.66
527.142	16068.72
527.508	16247.02
527.874	16435.03
528.241	16486.78
528.607	16508.25
528.973	16694.69
529.339	16707.12
529.705	16898.3
530.071	16980.1
530.437	17038.63
530.803	17187.33
531.169	17228.46
531.535	17246.76
531.901	17317.5
532.267	17436.82
532.632	17543.03
532.998	17601.78
533.364	17684.49
533.73	17686.07
534.095	17824.83
534.461	17873.64
534.826	17920.19
535.192	17976.91
535.557	18028.66
535.923	18096.46
536.288	18182.78
536.653	18288.54
537.019	18228.66
537.384	18178.49
537.749	18279.96
538.114	18277.47
538.479	18312.72
538.845	18390.01
539.21	18347.98
539.575	18374.19
539.94	18547.07
540.305	18569.67
540.67	18446.51
541.034	18556.11
541.399	18511.82
541.764	18631.81
542.129	18701.87
542.494	18722.66
542.858	18820.96
543.223	18734.86
543.587	18793.39
543.952	18752.71
544.316	18752.94
544.681	18732.37
545.045	18784.12
545.41	18863.22
545.774	18730.11
546.138	18851.24
546.503	18899.6
546.867	18942.31
547.231	18956.1
547.595	19003.1
547.959	19011.01
548.324	18996.1
548.688	19077.22
549.052	19104.79
549.416	19071.35
549.779	19119.26
550.143	19040.84
550.507	19257.78
550.871	19171.46
551.235	19160.84
551.599	19359.02
551.962	19367.39
552.326	19393.6
552.689	19381.85
553.053	19306.6
553.417	19404
553.78	19553.14
554.143	19416.88
554.507	19542.52
554.87	19575.52
555.234	19708.17
555.597	19502.07
555.96	19515.63
556.323	19656.87
556.686	19760.14
557.05	19728.28
557.413	19761.73
557.776	19832.91
558.139	19946.58
558.502	20029.74
558.865	20033.36
559.228	20110.19
559.59	20329.62
559.953	20190.19
560.316	20500.46
560.679	20358.32
561.041	20619.56
561.404	20561.48
561.767	20592.21
562.129	20707.92
562.492	20844.64
562.854	20826.56
563.217	20856.84
563.579	20911.98
563.941	21091.41
564.304	21118.53
564.666	21334.34
565.028	21319.65
565.39	21406.2
565.753	21630.38
566.115	21686.42
566.477	21845.97
566.839	21880.54
567.201	22096.35
567.563	22052.74
567.925	22365.73
568.287	22318.5
568.648	22433.29
569.01	22551.48
569.372	22754.87
569.734	22835.54
570.095	22976.1
570.457	23157.8
570.819	23161.41
571.18	23228.75
571.542	23456.77
571.903	23562.53
572.265	23693.6
572.626	23844.78
572.987	23863.09
573.349	24131.78
573.71	24241.38
574.071	24316.18
574.432	24354.83
574.794	24633.46
575.155	24624.65
575.516	24708.49
575.877	24879.78
576.238	24880.24
576.599	25139.89
576.96	24976.28
577.32	25206.1
577.681	25350.51
578.042	25497.17
578.403	25509.82
578.763	25520.44
579.124	25535.81
579.485	25776.94
579.845	25865.07
580.206	25865.52
580.566	25884.5
580.927	25987.78
581.287	26110.03
581.648	26098.28
582.008	26245.62
582.368	26322.01
582.728	26234.78
583.089	26337.37
583.449	26376.69
583.809	26331.27
584.169	26550.7
584.529	26419.63
584.889	26579.63
585.249	26377.37
585.609	26426.64
585.969	26583.24
586.329	26489.46
586.688	26582.56
587.048	26635.22
587.408	26700.53
587.768	26669.12
588.127	26707.53
588.487	26633.18
588.846	26915.89
589.206	26627.76
589.565	26672.96
589.925	26792.95
590.284	26673.86
590.643	26656.23
591.003	26783.24
591.362	27005.6
591.721	26838.15
592.08	26895.32
592.44	27016
592.799	27045.15
593.158	26921.76
593.517	26965.6
593.876	27128.09
594.235	26929.67
594.593	26998.82
594.952	27017.81
595.311	26973.06
595.67	27067.3
596.029	27232.94
596.387	27265.03
596.746	27276.78
597.104	27167.63
597.463	27005.15
597.822	27323.34
598.18	27189.1
598.538	27235.2
598.897	27341.19
599.255	27146.62
599.613	27477.68
599.972	27302.54
600.33	27457.12
600.688	27256.9
601.046	27351.13
601.404	27512.48
601.762	27502.54
602.12	27496.66
602.478	27601.97
602.836	27623.89
603.194	27394.29
603.552	27629.99
603.91	27402.43
604.268	27561.07
604.625	27473.61
604.983	27737.56
605.341	27528.53
605.698	27700.73
606.056	27712.7
606.413	27653.72
606.771	27804.45
607.128	27833.15
607.485	27747.05
607.843	27677
608.2	27864.34
608.557	27943.21
608.914	27810.78
609.272	27958.12
609.629	28141.62
609.986	28219.13
610.343	28095.29
610.7	28234.72
611.057	28222.52
611.414	28220.94
611.771	28328.51
612.127	28477.66
612.484	28319.47
612.841	28465.23
613.198	28226.36
613.554	28269.07
613.911	28529.63
614.267	28561.72
614.624	28391.56
614.98	28505.9
615.337	28707.48
615.693	28666.12
616.05	28716.74
616.406	28895.27
616.762	28670.19
617.118	28737.31
617.475	28773.24
617.831	28964.65
618.187	28827.7
618.543	28937.76
618.899	29107.02
619.255	29008.71
619.611	28985.89
619.967	29079.9
620.323	29118.99
620.678	28955.16
621.034	29021.82
621.39	28918.1
621.746	28977.76
622.101	29348.59
622.457	29009.17
622.812	29224.53
623.168	29165.77
623.523	29135.49
623.879	29267.01
624.234	29008.94
624.589	29111.76
624.945	29304.98
625.3	29200.35
625.655	29198.77
626.01	29194.47
626.365	29266.79
626.72	29226.56
627.075	29054.59
627.43	29262.04
627.785	29245.54
628.14	29203.96
628.495	29197.64
628.85	29219.56
629.205	29142.27
629.559	29406.9
629.914	29036.74
630.269	29208.71
630.623	29056.17
630.978	28957.42
631.332	29083.51
631.687	29050.75
632.041	29021.37
632.396	29014.82
632.75	28949.96
633.104	29116.51
633.459	28958.32
633.813	28915.84
634.167	28826.57
634.521	28766.24
634.875	28882.39
635.229	28842.62
635.583	28718.55
635.937	28734.6
636.291	28660.02
636.645	28692.11
636.999	28581.83
637.352	28541.38
637.706	28359.01
638.06	28560.36
638.413	28426.58
638.767	28348.62
639.121	28555.39
639.474	28285.57
639.828	28246.02
640.181	28234.95
640.534	28414.83
640.888	28245.12
641.241	28046.48
641.594	28088.74
641.947	28273.14
642.301	28081.73
642.654	28132.81
643.007	28180.94
643.36	28148.4
643.713	28121.05
644.066	28131
644.419	27887.16
644.771	27646.04
645.124	27442.88
645.477	27477
645.83	27304.58
646.182	27411.92
646.535	27459.83
646.888	27579.6
647.24	27439.49
647.593	27566.94
647.945	27473.39
648.298	27280.85
648.65	27237.91
649.002	27108.2
649.355	26865.27
649.707	26766.06
650.059	26794.08
650.411	27197.91
650.763	27426.84
651.115	27742.08
651.467	27720.61
651.819	27802.64
652.171	27723.78
652.523	27660.5
652.875	27781.4
653.227	27671.12
653.578	27689.65
653.93	27704.57
654.282	27563.33
654.633	27519.71
654.985	27578.24
655.337	27510.9
655.688	27604.46
656.039	27822.76
656.391	27403.79
656.742	27631.12
657.094	27581.63
657.445	27576.89
657.796	27597.68
658.147	27658.69
658.498	27779.82
658.849	27659.82
659.2	27672.03
659.551	27577.57
659.902	27855.52
660.253	27687.62
660.604	27738.69
660.955	27694.62
661.306	27884.45
661.656	27844.45
662.007	27718.13
662.358	27808.75
662.708	27991.57
663.059	27841.29
663.409	27664.8
663.76	27842.19
664.11	27834.06
664.461	27873.83
664.811	27921.06
665.161	27900.5
665.511	27977.78
665.862	27909.31
666.212	27900.04
666.562	27968.06
666.912	28049.87
667.262	27804
667.612	27941.62
667.962	28020.94
668.312	27926.94
668.662	27938.46
669.011	28006.48
669.361	28005.8
669.711	27972.36
670.06	27835.64
670.41	27902.98
670.76	27897.11
671.109	28083.77
671.459	27867.73
671.808	27908.18
672.157	27884
672.507	27677.9
672.856	27720.61
673.205	27952.47
673.554	27912.7
673.904	27761.74
674.253	28018.68
674.602	27739.6
674.951	27422.54
675.3	27286.5
675.649	27821.85
675.998	27756.32
676.346	27797.9
676.695	27836.77
677.044	27584.8
677.393	27607.17
677.741	27704.79
678.09	27632.25
678.438	27553.16
678.787	27667.73
679.135	27503.67
679.484	27461.41
679.832	27570.11
680.181	27418.25
680.529	27373.5
680.877	27250.79
681.225	27192.94
681.573	27438.13
681.922	27138.71
682.27	27081.08
682.618	27115.21
682.966	27026.39
683.314	27031.82
683.661	27068.2
684.009	26958.37
684.357	26798.15
684.705	26647.42
685.053	26757.47
685.4	26586.63
685.748	26533.75
686.095	26641.55
686.443	26337.6
686.79	26383.92
687.138	26420.31
687.485	26352.06
687.832	26185.29
688.18	26175.12
688.527	26148.9
688.874	26050.83
689.221	26062.8
689.568	25791.17
689.915	25738.07
690.262	25784.17
690.609	25673.89
690.956	25499.65
691.303	25496.94
691.65	25332.2
691.997	25350.51
692.344	25162.94
692.69	25079.55
693.037	25170.17
693.383	24999.1
693.73	25001.81
694.077	24879.11
694.423	24740.13
694.769	24825.55
695.116	24597.08
695.462	24544.43
695.808	24412.9
696.155	24293.58
696.501	24188.28
696.847	24271.44
697.193	23993.03
697.539	24018.56
697.885	23794.16
698.231	23694.28
698.577	23655.41
698.923	23583.55
699.269	23387.62
699.614	23341.52
699.96	23292.71
700.306	23279.6
700.651	23146.72
700.997	23021.75
701.342	22987.63
701.688	22932.04
702.033	22780.18
702.379	22807.3
702.724	22698.37
703.069	22756.22
703.415	22372.96
703.76	22476.68
704.105	22350.81
704.45	22254.99
704.795	22151.04
705.14	22139.97
705.485	22127.99
705.83	21865.85
706.175	22068.11
706.52	21943.14
706.865	21811.84
707.209	21757.61
707.554	21591.28
707.899	21668.79
708.243	21522.81
708.588	21429.03
708.932	21386.77
709.277	21284.17
709.621	21285.75
709.966	21176.6
710.31	21217.28
710.654	21047.34
710.998	21128.24
711.342	21166.89
711.687	20933.45
712.031	20928.48
712.375	20815.26
712.719	20814.81
713.063	20731.42
713.407	20981.81
713.75	20720.12
714.094	20795.15
714.438	20721.7
714.782	20706.56
715.125	20573.46
715.469	20767.35
715.812	20494.81
716.156	20481.93
716.499	20449.39
716.843	20531.2
717.186	20387.02
717.53	20537.52
717.873	20457.98
718.216	20544.53
718.559	20370.3
718.902	20240.81
719.246	20312.9
719.589	20226.12
719.932	20178.66
720.275	20219.57
720.617	20284.42
720.96	20220.02
721.303	20107.03
721.646	20240.58
721.989	20142.28
722.331	20257.76
722.674	20187.48
723.016	20179.12
723.359	20147.7
723.701	20243.97
724.044	20056.86
724.386	20013.92
724.729	20160.13
725.071	20176.86
725.413	20142.96
725.755	20172.56
726.097	20162.85
726.439	20063.64
726.782	20079.91
727.124	20178.66
727.465	20121.49
727.807	20028.84
728.149	20095.05
728.491	20083.07
728.833	20163.3
729.175	20093.69
729.516	20175.95
729.858	20018.44
730.199	20140.47
730.541	20228.61
730.882	20131.43
731.224	20229.74
731.565	20163.98
731.906	20116.75
732.248	20342.05
732.589	20161.26
732.93	20113.81
733.271	20269.74
733.612	20227.02
733.953	20274.26
734.294	20315.61
734.635	20234.26
734.976	20448.49
735.317	20339.11
735.658	20383.4
735.999	20375.27
736.339	20448.26
736.68	20497.3
737.021	20486.68
737.361	20489.39
737.702	20621.82
738.042	20573.91
738.383	20645.09
738.723	20728.93
739.063	20697.97
739.404	20918.31
739.744	20842.83
740.084	20919.89
740.424	21031.75
740.764	21033.33
741.104	21159.2
741.444	21137.74
741.784	21137.51
742.124	21299.09
742.464	21346.32
742.804	21370.95
743.143	21432.42
743.483	21642.58
743.823	21597.61
744.162	21757.83
744.502	21909.92
744.841	21859.07
745.181	22077.6
745.52	22103.59
745.86	22181.1
746.199	22302.9
746.538	22410.7
746.877	22637.58
747.216	22688.88
747.556	22732.72
747.895	22865.15
748.234	23057.01
748.573	23177.68
748.911	23170
749.25	23471.01
749.589	23451.57
749.928	23818.57
750.267	23856.08
750.605	23940.83
750.944	24098.34
751.283	24249.29
751.621	24432.11
751.96	24496.06
752.298	24720.69
752.636	24835.94
752.975	25023.06
753.313	25062.83
753.651	25489.49
753.989	25467.79
754.327	25743.72
754.666	25576.49
755.004	26121.78
755.342	26191.39
755.679	26410.59
756.017	26424.6
756.355	26783.46
756.693	26864.59
757.031	27108.65
757.368	27226.61
757.706	27412.37
758.044	27545.93
758.381	27697.56
758.719	27872.47
759.056	28040.15
759.394	28146.82
759.731	28067.72
760.068	28294.38
760.405	28586.58
760.743	28590.19
761.08	28839.68
761.417	28867.7
761.754	28966
762.091	29128.26
762.428	29123.97
762.765	29254.36
763.102	29408.03
763.438	29585.87
763.775	29635.59
764.112	29704.97
764.449	29889.37
764.785	30019.08
765.122	29923.94
765.458	29964.85
765.795	30054.56
766.131	30285.07
766.467	30313.77
766.804	30255.69
767.14	30307.21
767.476	30332.3
767.812	30369.58
768.148	30588.79
768.485	30359.41
768.821	30201.9
769.157	30432.18
769.492	30508.11
769.828	30536.81
770.164	30352.41
770.5	30358.28
770.836	30523.7
771.171	30505.4
771.507	30476.25
771.842	30363.03
772.178	30417.72
772.513	30400.54
772.849	30366.87
773.184	30516.25
773.519	30402.12
773.855	30270.15
774.19	30412.52
774.525	30332.97
774.86	30356.48
775.195	30345.18
775.53	30136.37
775.865	29983.15
776.2	30036.03
776.535	29907.9
776.87	29922.14
777.205	29786.1
777.539	29742.48
777.874	29795.81
778.209	29644.18
778.543	29766.89
778.878	29556.95
779.212	29613.67
779.547	29481.02
779.881	29386.78
780.215	29199.22
780.55	29331.42
780.884	29110.63
781.218	29070.18
781.552	29327.12
781.886	29016.4
782.22	28872.67
782.554	28817.99
782.888	28626.8
783.222	28656.18
783.556	28582.96
783.889	28398.34
784.223	28196.98
784.557	28311.33
784.89	28375.51
785.224	28194.05
785.557	27976.43
785.891	27963.77
786.224	27946.82
786.558	27942.75
786.891	27745.7
787.224	27582.99
787.557	27566.04
787.891	27512.71
788.224	27519.94
788.557	27487.17
788.89	27415.76
789.223	27341.19
789.556	27147.52
789.888	27044.25
790.221	26980.29
790.554	26847.87
790.887	26877.7
791.219	26678.61
791.552	26724.93
791.884	26527.88
792.217	26572.85
792.549	26382.12
792.882	26322.23
793.214	26243.14
793.546	26252.63
793.879	26201.78
794.211	25943.71
794.543	26062.35
794.875	25948.23
795.207	25965.4
795.539	25824.39
795.871	25899.87
796.203	25686.09
796.535	25549.14
796.867	25600.67
797.198	25403.39
797.53	25442.48
797.862	25198.65
798.193	25401.8
798.525	25235.93
798.856	25344.63
799.188	24901.7
799.519	24931.99
799.85	24589.17
800.182	24827.13
800.513	24827.81
800.844	24503.3
801.175	24698.09
801.506	24688.15
801.837	24474.14
802.168	24490.87
802.499	24413.13
802.83	24345.56
803.161	24240.48
803.491	24160.93
803.822	24264.88
804.153	24016.76
804.483	24007.49
804.814	23882.97
805.145	23839.81
805.475	23858.79
805.805	23776.76
806.136	23757.78
806.466	23759.36
806.796	23712.81
807.126	23426.26
807.457	23405.7
807.787	23409.09
808.117	23378.13
808.447	23382.87
808.777	23478.01
809.107	23193.05
809.436	23040.74
809.766	23148.76
810.096	23231.01
810.426	23004.8
810.755	22979.49
811.085	22843.23
811.414	22866.96
811.744	22800.29
812.073	22856.56
812.403	22850.01
812.732	22589
813.061	22788.31
813.39	22587.87
813.719	22570.47
814.049	22596.45
814.378	22586.96
814.707	22426.97
815.036	22462.45
815.365	22323.01
815.693	22243.47
816.022	22230.81
816.351	22107.88
816.68	22002.35
817.008	22140.87
817.337	21977.49
817.665	21916.7
817.994	22023.36
818.322	22005.51
818.651	21749.24
818.979	21840.77
819.307	21925.29
819.636	21808.68
819.964	21659.08
820.292	21777.72
820.62	21731.62
820.948	21818.85
821.276	21866.53
821.604	21732.52
821.932	21908.11
822.259	21702.47
822.587	21818.85
822.915	21638.06
823.243	21790.15
823.57	21657.04
823.898	21730.49
824.225	21702.69
824.553	21633.32
824.88	21745.85
825.207	21789.47
825.535	21591.06
825.862	21812.75
826.189	21709.92
826.516	21850.71
826.843	21912.63
827.17	21855
827.497	21852.07
827.824	21796.93
828.151	21885.51
828.478	21708.34
828.805	21855.91
829.131	21798.73
829.458	21808.9
829.785	21689.13
830.111	21748.11
830.438	21901.56
830.764	21866.76
831.09	21820.88
831.417	21696.59
831.743	21847.55
832.069	21840.99
832.395	21674.22
832.722	21753.54
833.048	21699.53
833.374	21810.71
833.7	21686.2
834.026	21742.01
834.351	21783.14
834.677	21823.37
835.003	21820.2
835.329	21601.68
835.654	21667.44
835.98	21577.27
836.306	21735.69
836.631	21602.58
836.956	21739.75
837.282	21619.53
837.607	21449.59
837.932	21566.65
838.258	21514.22
838.583	21490.95
838.908	21434.9
839.233	21576.37
839.558	21299.76
839.883	21376.37
840.208	21220.44
840.533	21306.77
840.858	21314.45
841.182	21394
841.507	21229.48
841.832	21185.42
842.156	21266.09
842.481	21184.06
842.805	21045.08
843.13	21015.93
843.454	21040.79
843.778	21000.56
844.103	21024.97
844.427	20943.39
844.751	20852.32
845.075	20867.01
845.399	20758.99
845.723	20702.72
846.047	20718.09
846.371	20466.34
846.695	20493.68
847.019	20413.46
847.343	20338.43
847.666	20235.84
847.99	20051.66
848.313	19989.29
848.637	20002.4
848.96	19961.49
849.284	19852.8
849.607	19769.86
849.931	19740.48
850.254	19567.38
850.577	19486.71
850.9	19370.78
851.223	19388.18
851.546	19292.13
851.869	19242.64
852.192	19375.3
852.515	19022.08
852.838	18920.39
853.161	19050.33
853.483	18901.18
853.806	18702.32
854.129	18811.02
854.451	18809.66
854.774	18658.03
855.096	18639.5
855.419	18548.65
855.741	18545.03
856.063	18403.57
856.385	18371.25
856.708	18261.65
857.03	18380.29
857.352	18261.65
857.674	18156.8
857.996	18075.22
858.318	17901.89
858.64	18052.84
858.961	17916.8
859.283	17957.48
859.605	17863.47
859.926	17751.61
860.248	17701.89
860.57	17636.58
860.891	17681.33
861.212	17563.37
861.534	17521.79
861.855	17419.87
862.176	17412.86
862.498	17487.44
862.819	17506.19
863.14	17353.43
863.461	17360.43
863.782	17310.49
864.103	17333.77
864.424	17148.46
864.745	17167.22
865.065	17086.77
865.386	17098.97
865.707	17150.5
866.027	17061.68
866.348	17054.23
866.668	16960.67
866.989	17049.03
867.309	16870.5
867.63	16915.93
867.95	16928.81
868.27	16933.33
868.59	16905.98
868.91	16888.58
869.23	16719.77
869.55	16661.47
869.87	16899.2
870.19	16672.54
870.51	16737.4
870.83	16661.47
871.15	16646.33
871.469	16631.64
871.789	16712.99
872.109	16620.57
872.428	16432.55
872.748	16494.69
873.067	16479.1
873.386	16506.44
873.706	16411.98
874.025	16332.89
874.344	16256.73
874.663	16388.03
874.982	16298.99
875.301	16356.39
875.62	16247.02
875.939	16217.19
876.258	16249.5
876.577	16127.7
876.896	16080.47
877.214	16115.72
877.533	16111.43
877.852	16080.69
878.17	16066.23
878.489	16067.59
878.807	16003.41
879.125	15994.82
879.444	15916.4
879.762	15946.01
880.08	15977.19
880.398	15797.99
880.716	15844.77
881.034	15842.28
881.352	15812
881.67	15767.03
881.988	15662.62
882.306	15668.27
882.624	15661.72
882.941	15570.88
883.259	15539.01
883.577	15597.09
883.894	15506.47
884.212	15564.1
884.529	15516.64
884.846	15392.12
885.164	15369.07
885.481	15328.62
885.798	15272.58
886.115	15275.74
886.432	15304.44
886.75	15165.91
887.067	15263.54
887.383	15163.2
887.7	15164.11
888.017	14986.71
888.334	15119.81
888.651	15003.66
888.967	14904.9
889.284	14965.24
889.6	14871.23
889.917	14760.5
890.233	14829.65
890.55	14671.92
890.866	14640.96
891.182	14657.23
891.498	14641.63
891.815	14557.12
892.131	14466.5
892.447	14427.86
892.763	14338.14
893.079	14426.27
893.395	14354.86
893.71	14280.97
894.026	14275.99
894.342	14190.35
894.657	14159.84
894.973	14097.69
895.289	14119.16
895.604	14111.93
895.92	13999.39
896.235	14020.18
896.55	13969.11
896.865	13869.9
897.181	13857.02
897.496	13822.22
897.811	13737.03
898.126	13715.78
898.441	13647.76
898.756	13547.2
899.071	13489.57
899.386	13554.66
899.7	13393.98
900.015	13385.17
900.33	13334.78
900.644	13176.59
900.959	13209.58
901.273	13125.74
901.588	13190.83
901.902	13085.74
902.216	13042.81
902.531	12999.19
902.845	13006.2
903.159	12857.27
903.473	12791.29
903.787	12730.05
904.101	12695.92
904.415	12681.01
904.729	12688.24
905.042	12630.61
905.356	12512.43
905.67	12502.03
905.984	12532.09
906.297	12485.76
906.611	12295.48
906.924	12423.39
907.237	12209.83
907.551	12305.88
907.864	12188.59
908.177	12137.07
908.491	12134.36
908.804	12062.27
909.117	12004.19
909.43	11839.9
909.743	11887.81
910.056	11903.4
910.368	11794.7
910.681	11815.04
910.994	11740.47
911.307	11663.18
911.619	11612.79
911.932	11580.25
912.244	11534.37
912.557	11429.97
912.869	11391.1
913.181	11392.91
913.494	11420.02
913.806	11304.55
914.118	11317.65
914.43	11206.24
914.742	11170.31
915.054	11095.97
915.366	11022.97
915.678	11012.13
915.99	10969.87
916.302	10843.99
916.613	10876.76
916.925	10897.1
917.236	10830.66
917.548	10780.49
917.859	10768.97
918.171	10666.6
918.482	10634.73
918.794	10637.45
919.105	10596.09
919.416	10483.33
919.727	10444.91
920.038	10350.22
920.349	10362.43
920.66	10291.69
920.971	10302.99
921.282	10219.6
921.593	10194.75
921.903	10142.09
922.214	10047.63
922.525	10027.52
922.835	10018.93
923.146	9938.93
923.456	9871.82
923.767	9858.94
924.077	9849.22
924.387	9854.87
924.697	9752.5
925.008	9670.92
925.318	9719.96
925.628	9671.82
925.938	9581.43
926.248	9543.01
926.558	9431.38
926.867	9514.99
927.177	9412.62
927.487	9403.81
927.796	9315.9
928.106	9369.01
928.416	9249.91
928.725	9314.32
929.034	9189.35
929.344	9263.7
929.653	9181.21
929.962	9122.46
930.271	8975.57
930.581	9001.11
930.89	8947.1
931.199	8865.74
931.508	8951.16
931.817	8881.56
932.125	8883.82
932.434	8799.3
932.743	8712.3
933.051	8678.18
933.36	8659.87
933.669	8628.69
933.977	8629.82
934.286	8579.42
934.594	8586.88
934.902	8495.58
935.21	8430.95
935.519	8433.66
935.827	8438.63
936.135	8397.05
936.443	8361.35
936.751	8204.74
937.059	8254.23
937.367	8253.78
937.674	8224.63
937.982	8112.09
938.29	8098.3
938.597	8072.32
938.905	7985.09
939.213	7992.32
939.52	7927.91
939.827	7989.15
940.135	7919.33
940.442	7873.9
940.749	7905.54
941.056	7872.1
941.363	7722.72
941.67	7708.48
941.977	7661.25
942.284	7675.49
942.591	7649.73
942.898	7598.2
943.205	7561.59
943.511	7479.56
943.818	7510.97
944.125	7399.79
944.431	7499.22
944.738	7400.02
945.044	7362.73
945.35	7319.34
945.657	7275.5
945.963	7221.49
946.269	7191.66
946.575	7180.14
946.881	7142.85
947.187	7085.9
947.493	7105.56
947.799	7068.73
948.105	7064.21
948.41	7031.89
948.716	7054.26
949.022	6916.41
949.327	6954.61
949.633	6893.36
949.938	6817.66
950.244	6869.86
950.549	6814.95
950.854	6753.03
951.16	6783.54
951.465	6703.09
951.77	6711
952.075	6668.96
952.38	6619.92
952.685	6583.32
952.99	6475.75
953.294	6537.44
953.599	6491.79
953.904	6481.4
954.209	6400.95
954.513	6403.21
954.818	6410.44
955.122	6391
955.426	6425.35
955.731	6316.88
956.035	6264
956.339	6257.67
956.643	6246.6
956.948	6184.23
957.252	6114.63
957.556	6157.79
957.86	6100.39
958.163	6045.48
958.467	6087.74
958.771	6021.07
959.075	5980.62
959.378	5997.12
959.682	6004.35
959.985	5908.98
960.289	5881.41
960.592	5859.72
960.896	5889.32
961.199	5798.48
961.502	5834.18
961.805	5765.94
962.108	5717.12
962.411	5738.37
962.714	5693.62
963.017	5679.61
963.32	5636.9
963.623	5624.24
963.926	5620.63
964.228	5513.97
964.531	5568.2
964.833	5536.34
965.136	5480.75
965.438	5464.25
965.741	5444.81
966.043	5404.59
966.345	5384.48
966.648	5386.96
966.95	5370.92
967.252	5364.14
967.554	5353.97
967.856	5252.73
968.158	5233.75
968.46	5313.97
968.761	5216.8
969.063	5186.06
969.365	5170.7
969.666	5177.48
969.968	5103.58
970.269	5122.11
970.571	5096.8
970.872	5093.41
971.174	4993.07
971.475	5041.66
971.776	5011.38
972.077	4972.28
972.378	4936.81
972.679	4969.35
972.98	4961.21
973.281	4883.25
973.582	4904.72
973.883	4883.7
974.183	4805.51
974.484	4775.45
974.785	4758.73
975.085	4772.29
975.386	4801.67
975.686	4738.39
975.986	4645.97
976.287	4733.19
976.587	4634.44
976.887	4674.67
977.187	4585.18
977.487	4575.68
977.787	4609.58
978.087	4561.9
978.387	4536.82
978.687	4501.34
978.987	4453.43
979.286	4455.24
979.586	4441
979.885	4442.81
980.185	4380.66
980.484	4341.11
980.784	4373.88
981.083	4332.75
981.382	4366.42
981.682	4276.94
981.981	4291.62
982.28	4261.34
982.579	4279.65
982.878	4234.9
983.177	4210.27
983.475	4199.2
983.774	4149.48
984.073	4126.21
984.372	4138.86
984.67	4099.77
984.969	4090.95
985.267	4046.89
985.566	4044.85
985.864	4045.53
986.162	4023.38
986.461	3976.83
986.759	3971.63
987.057	3930.96
987.355	3915.82
987.653	3893.44
987.951	3889.38
988.249	3881.92
988.547	3864.07
988.844	3849.38
989.142	3806.21
989.44	3818.19
989.737	3792.2
990.035	3770.51
990.332	3769.15
990.63	3744.75
990.927	3727.35
991.224	3730.74
991.521	3640.34
991.819	3712.88
992.116	3657.29
992.413	3647.8
992.71	3583.85
993.006	3607.12
993.303	3573.68
993.6	3580
993.897	3565.77
994.193	3526.9
994.49	3522.38
994.787	3511.53
995.083	3481.7
995.379	3476.05
995.676	3442.16
995.972	3425.88
996.268	3383.4
996.565	3373.23
996.861	3372.55
997.157	3367.35
997.453	3308.37
997.749	3322.16
998.044	3291.88
998.34	3294.59
998.636	3266.79
998.932	3223.4
999.227	3208.04
999.523	3231.77
999.818	3227.7
1000.114	3168.26
1000.409	3142.05
1000.704	3128.04
1001	3116.29
1001.295	3110.64
1001.59	3088.94
1001.885	3135.27
1002.18	3072.9
1002.475	3027.25
1002.77	3073.58
1003.065	2982.51
1003.359	2995.39
1003.654	2991.09
1003.949	2950.87
1004.243	2952.68
1004.538	2901.38
1004.832	2897.99
1005.127	2888.5
1005.421	2886.69
1005.715	2860.02
1006.009	2849.63
1006.304	2809.4
1006.598	2820.02
1006.892	2792.68
1007.186	2766.01
1007.48	2741.83
1007.773	2728.95
1008.067	2760.59
1008.361	2726.92
1008.655	2667.94
1008.948	2696.86
1009.242	2659.8
1009.535	2652.8
1009.829	2658
1010.122	2611.44
1010.415	2613.93
1010.708	2613.25
1011.001	2568.51
1011.295	2550.65
1011.588	2509.98
1011.881	2531.44
1012.173	2507.72
1012.466	2490.54
1012.759	2474.72
1013.052	2487.6
1013.344	2468.85
1013.637	2450.32
1013.93	2420.49
1014.222	2401.96
1014.514	2400.6
1014.807	2389.3
1015.099	2339.13
1015.391	2337.33
1015.683	2333.94
1015.976	2319.47
1016.268	2286.25
1016.56	2297.1
1016.851	2270.89
1017.143	2270.89
1017.435	2237.44
1017.727	2204.9
1018.018	2216.42
1018.31	2182.75
1018.602	2173.26
1018.893	2134.84
1019.185	2175.75
1019.476	2105.69
1019.767	2122.19
1020.058	2110.44
1020.35	2094.39
1020.641	2083.32
1020.932	2059.37
1021.223	2020.05
1021.514	2048.97
1021.804	1995.19
1022.095	2018.01
1022.386	1997.67
1022.677	1942.31
1022.967	1938.47
1023.258	1994.06
1023.548	1956.77
1023.839	1931.91
1024.129	1940.95
1024.419	1906.38
1024.709	1894.85
1025	1869.09
1025.29	1841.75
1025.58	1865.25
1025.87	1833.16
1026.16	1824.34
1026.449	1809.66
1026.739	1778.7
1027.029	1796.32
1027.319	1801.29
1027.608	1775.31
1027.898	1765.14
1028.187	1706.38
1028.477	1708.87
1028.766	1699.83
1029.055	1696.89
1029.344	1700.96
1029.634	1699.6
1029.923	1664.35
1030.212	1646.04
1030.501	1631.58
1030.79	1637.91
1031.078	1607.4
1031.367	1597.01
1031.656	1574.41
1031.945	1610.79
1032.233	1577.35
1032.522	1574.18
1032.81	1552.26
1033.099	1581.41
1033.387	1536.44
1033.675	1501.87
1033.963	1513.62
1034.251	1495.31
1034.54	1476.78
1034.828	1481.75
1035.116	1496.9
1035.403	1464.13
1035.691	1449.89
1035.979	1428.65
1036.267	1415.32
1036.554	1389.33
1036.842	1379.84
1037.129	1411.93
1037.417	1378.03
1037.704	1373.96
1037.992	1380.74
1038.279	1377.58
1038.566	1329.67
1038.853	1329.67
1039.14	1329.67
