Data from 19-1250_FLMS001491_007.txt Node
Date: Thu Apr 19 16:28:25 BST 2018
User: hsy
Spectrometer: FLMS00149
Trigger mode: 0
Integration Time (sec): 1.000000E-2
Scans to average: 10
Electric dark correction enabled: true
Nonlinearity correction enabled: false
Boxcar width: 0
XAxis mode: Wavelengths
Number of Pixels in Spectrum: 2048
>>>>>Begin Spectral Data<<<<<
341.393	-12.03
341.776	-12.03
342.16	-12.03
342.543	-49.09
342.927	-69.89
343.31	-49.32
343.693	-75.76
344.077	-64.91
344.46	-77.12
344.843	-60.85
345.226	-21.52
345.61	-19.04
345.993	-24.91
346.376	-3.45
346.759	8.3
347.142	11.24
347.525	41.07
347.908	58.7
348.291	78.36
348.674	89.66
349.057	109.55
349.44	132.37
349.823	174.85
350.206	169.43
350.588	237.68
350.971	254.4
351.354	270.67
351.737	278.35
352.119	285.59
352.502	307.28
352.884	329.65
353.267	307.73
353.65	305.47
354.032	330.56
354.414	329.65
354.797	350.67
355.179	353.15
355.562	378.24
355.944	379.37
356.326	379.37
356.709	373.94
357.091	411.46
357.473	394.28
357.855	387.05
358.238	397.9
358.62	390.22
359.002	388.18
359.384	391.8
359.766	388.63
360.148	389.09
360.53	372.36
360.912	392.25
361.294	387.5
361.676	393.15
362.057	366.49
362.439	398.13
362.821	360.39
363.203	366.94
363.584	382.31
363.966	376.2
364.348	361.74
364.729	366.49
365.111	367.17
365.493	388.18
365.874	368.75
366.256	354.28
366.637	379.59
367.019	380.5
367.4	367.17
367.781	369.88
368.163	369.43
368.544	403.55
368.925	381.4
369.306	385.47
369.688	392.02
370.069	366.49
370.45	367.39
370.831	371.69
371.212	402.87
371.593	367.84
371.974	388.18
372.355	391.35
372.736	406.49
373.117	402.64
373.498	408.07
373.879	378.46
374.26	397.67
374.641	369.88
375.021	404.45
375.402	427.5
375.783	395.64
376.163	414.17
376.544	415.53
376.925	433.6
377.305	404.23
377.686	419.14
378.066	416.88
378.447	427.95
378.827	416.2
379.208	400.84
379.588	421.4
379.968	412.59
380.349	428.18
380.729	451.68
381.109	442.64
381.489	435.64
381.87	443.77
382.25	442.87
382.63	435.64
383.01	435.41
383.39	453.49
383.77	458.24
384.15	453.72
384.53	472.47
384.91	442.64
385.29	446.94
385.67	465.47
386.049	467.28
386.429	489.42
386.809	483.32
387.189	507.73
387.568	485.58
387.948	485.13
388.328	488.97
388.707	479.25
389.087	509.76
389.466	497.33
389.846	500.04
390.225	514.05
390.605	517.22
390.984	512.02
391.363	530.78
391.743	545.69
392.122	522.87
392.501	540.72
392.881	518.35
393.26	541.17
393.639	531.45
394.018	538.01
394.397	556.09
394.776	549.53
395.155	535.75
395.534	577.78
395.913	574.62
396.292	573.94
396.671	576.43
397.05	573.94
397.429	594.96
397.808	575.07
398.186	601.96
398.565	589.08
398.944	600.61
399.323	589.53
399.701	645.35
400.08	619.14
400.458	617.33
400.837	613.26
401.215	608.97
401.594	651.9
401.972	632.02
402.351	652.36
402.729	634.05
403.107	630.89
403.486	658.01
403.864	658.91
404.242	659.14
404.62	642.86
404.999	668.4
405.377	669.53
405.755	672.69
406.133	701.85
406.511	691.9
406.889	677.44
407.267	707.95
407.645	713.37
408.023	749.08
408.401	734.39
408.779	718.34
409.156	757.89
409.534	743.2
409.912	746.82
410.29	799.7
410.667	762.41
411.045	774.39
411.422	806.02
411.8	788.4
412.178	809.87
412.555	805.12
412.933	816.87
413.31	819.81
413.687	820.26
414.065	850.99
414.442	880.37
414.819	868.85
415.197	869.75
415.574	881.05
415.951	875.17
416.328	890.99
416.705	910.43
417.082	941.84
417.46	905
417.837	949.75
418.214	933.25
418.591	947.49
418.967	947.94
419.344	952.69
419.721	967.15
420.098	975.06
420.475	991.33
420.852	974.38
421.228	1012.8
421.605	987.49
421.982	1013.93
422.358	1008.96
422.735	1025.91
423.111	1003.53
423.488	1054.15
423.864	1081.27
424.241	1082.85
424.617	1093.25
424.994	1091.89
425.37	1055.96
425.746	1099.58
426.123	1109.97
426.499	1073.36
426.875	1128.5
427.251	1142.51
427.627	1151.55
428.003	1164.43
428.379	1176.86
428.756	1182.06
429.132	1200.36
429.507	1210.99
429.883	1230.42
430.259	1253.47
430.635	1265.67
431.011	1274.03
431.387	1283.98
431.763	1300.25
432.138	1291.43
432.514	1311.77
432.89	1357.42
433.265	1388.61
433.641	1397.65
434.016	1381.15
434.392	1414.14
434.767	1443.75
435.143	1434.03
435.518	1438.55
435.894	1455.72
436.269	1490.75
436.644	1476.06
437.02	1491.66
437.395	1502.5
437.77	1533.69
438.145	1553.35
438.52	1563.07
438.895	1578.21
439.271	1550.41
439.646	1594.7
440.021	1643.52
440.395	1651.65
440.77	1610.97
441.145	1652.1
441.52	1659.11
441.895	1682.16
442.27	1686.9
442.645	1689.16
443.019	1697.98
443.394	1702.5
443.769	1738.2
444.143	1713.57
444.518	1740.24
444.892	1746.79
445.267	1735.72
445.641	1773.91
446.016	1782.27
446.39	1810.29
446.764	1824.53
447.139	1780.01
447.513	1825.21
447.887	1835.38
448.262	1832.44
448.636	1845.77
449.01	1874.7
449.384	1909.5
449.758	1927.8
450.132	1911.53
450.506	1939.33
450.88	1933.68
451.254	1947.01
451.628	1991.08
452.002	2001.47
452.376	1999.21
452.75	2074.24
453.123	2062.26
453.497	2087.12
453.871	2112.2
454.244	2135.71
454.618	2147.68
454.992	2165.76
455.365	2187.91
455.739	2224.97
456.112	2245.76
456.486	2307.23
456.859	2304.29
457.232	2304.97
457.606	2341.35
457.979	2417.73
458.352	2422.25
458.725	2439.2
459.099	2476.71
459.472	2486.88
459.845	2542.93
460.218	2554.45
460.591	2596.26
460.964	2634
461.337	2610.27
461.71	2694.79
462.083	2706.76
462.456	2724.62
462.829	2761.45
463.201	2790.15
463.574	2780.21
463.947	2855.91
464.32	2876.7
464.692	2897.95
465.065	2941.11
465.438	3004.16
465.81	3016.14
466.183	3035.8
466.555	3084.83
466.928	3095.23
467.3	3110.6
467.672	3155.11
468.045	3236.69
468.417	3231.5
468.789	3306.07
469.161	3297.26
469.534	3348.33
469.906	3427.65
470.278	3477.37
470.65	3492.73
471.022	3552.17
471.394	3579.74
471.766	3645.05
472.138	3686.17
472.51	3724.37
472.882	3802.56
473.253	3787.19
473.625	3886.39
473.997	3930.46
474.369	4006.39
474.74	4046.62
475.112	4148.53
475.484	4172.72
475.855	4259.94
476.227	4282.32
476.598	4381.98
476.97	4412.03
477.341	4553.5
477.713	4568.18
478.084	4628.97
478.455	4729.54
478.827	4772.47
479.198	4931.11
479.569	4943.32
479.94	5077.32
480.311	5145.8
480.682	5248.62
481.053	5350.09
481.424	5471.21
481.795	5506.92
482.166	5574.03
482.537	5665.78
482.908	5746.46
483.279	5880.69
483.65	5948.71
484.021	6100.12
484.391	6151.65
484.762	6253.79
485.133	6320.46
485.503	6357.74
485.874	6541.24
486.244	6591.86
486.615	6766.55
486.985	6861.23
487.356	6982.13
487.726	7037.95
488.097	7189.58
488.467	7288.34
488.837	7420.99
489.207	7488.33
489.578	7691.94
489.948	7801.55
490.318	7865.27
490.688	7952.95
491.058	8096
491.428	8234.98
491.798	8328.76
492.168	8521.98
492.538	8562.2
492.908	8675.87
493.278	8722.65
493.648	8800.62
494.017	8931.23
494.387	9046.26
494.757	9182.75
495.126	9189.31
495.496	9302.98
495.866	9444.89
496.235	9581.39
496.605	9685.34
496.974	9712.91
497.344	9887.14
497.713	9837.42
498.082	9949.06
498.452	10084.2
498.821	10166.68
499.19	10229.05
499.559	10323.74
499.928	10413.91
500.298	10482.61
500.667	10535.71
501.036	10604.41
501.405	10726.44
501.774	10836.95
502.143	10916.72
502.512	10995.36
502.88	11077.84
503.249	11218.63
503.618	11250.27
503.987	11287.33
504.356	11380.66
504.724	11408.46
505.093	11577.04
505.462	11662.69
505.83	11693.87
506.199	11820.88
506.567	11955.79
506.936	11968.22
507.304	12125.5
507.672	12164.6
508.041	12259.06
508.409	12426.28
508.777	12537.92
509.145	12696.78
509.514	12535.89
509.882	12727.97
510.25	12770.68
510.618	12852.49
510.986	12916.67
511.354	13075.76
511.722	13257.45
512.09	13268.52
512.458	13322.31
512.826	13483.88
513.193	13558.46
513.561	13589.19
513.929	13590.77
514.297	13856.53
514.664	14037.77
515.032	14026.69
515.4	14236.86
515.767	14187.14
516.135	14315.27
516.502	14323.86
516.869	14614.25
517.237	14669.16
517.604	14632.55
517.972	14910.06
518.339	14950.74
518.706	14987.8
519.073	15028.02
519.44	15186.89
519.808	15440.44
520.175	15374.23
520.542	15611.06
520.909	15715.69
521.276	15741.22
521.643	16025.06
522.009	16068.45
522.376	16238.84
522.743	16281.32
523.11	16555.21
523.477	16720.63
523.843	16784.36
524.21	17041.53
524.577	17160.4
524.943	17307.51
525.31	17367.62
525.676	17573.72
526.043	17655.3
526.409	17833.15
526.776	18008.96
527.142	18166.7
527.508	18212.57
527.874	18370.76
528.241	18511.55
528.607	18596.29
528.973	18860.01
529.339	18772.78
529.705	19174.58
530.071	19238.53
530.437	19322.37
530.803	19570.95
531.169	19562.82
531.535	19636.49
531.901	19758.07
532.267	19885.97
532.632	20069.47
532.998	20157.83
533.364	20273.08
533.73	20330.48
534.095	20611.6
534.461	20550.36
534.826	20694.54
535.192	20805.95
535.557	20949.68
535.923	21084.36
536.288	21071.48
536.653	21109.44
537.019	21239.39
537.384	21327.74
537.749	21436.44
538.114	21445.03
538.479	21619.71
538.845	21637.34
539.21	21692.25
539.575	21659.94
539.94	21865.13
540.305	21937.45
540.67	22000.72
541.034	22092.24
541.399	22162.75
541.764	22262.18
542.129	22205.46
542.494	22420.82
542.858	22533.36
543.223	22445.91
543.587	22622.4
543.952	22596.19
544.316	22708.27
544.681	22801.83
545.045	22991.88
545.41	23014.48
545.774	23007.47
546.138	23028.04
546.503	23103.06
546.867	23309.39
547.231	23430.74
547.595	23484.52
547.959	23486.33
548.324	23584.63
548.688	23596.16
549.052	23724.29
549.416	23810.62
549.779	23838.64
550.143	23830.5
550.507	24125.41
550.871	24204.96
551.235	24208.57
551.599	24354.11
551.962	24452.63
552.326	24493.08
552.689	24635.23
553.053	24545.06
553.417	24738.95
553.78	24907.31
554.143	24946.18
554.507	24972.85
554.87	25099.85
555.234	25312.72
555.597	25252.61
555.96	25448.54
556.323	25537.13
556.686	25561.76
557.05	25839.04
557.413	25894.86
557.776	25936.21
558.139	26036.32
558.502	26205.13
558.865	26262.08
559.228	26591.56
559.59	26642.86
559.953	26698
560.316	26962.62
560.679	26983.19
561.041	26973.02
561.404	27236.74
561.767	27528.71
562.129	27495.04
562.492	27668.59
562.854	27750.63
563.217	27891.64
563.579	27968.47
563.941	28219.09
564.304	28260.22
564.666	28527.1
565.028	28651.39
565.39	28762.35
565.753	28873.53
566.115	29083.25
566.477	29224.71
566.839	29426.51
567.201	29603.01
567.563	29636
567.925	29899.5
568.287	29994.18
568.648	30159.15
569.01	30369.09
569.372	30601.85
569.734	30552.36
570.095	30838.45
570.457	31056.08
570.819	31127.71
571.18	31226.02
571.542	31599.34
571.903	31589.4
572.265	31717.75
572.626	32047.91
572.987	32026.45
573.349	32167.23
573.71	32336.95
574.071	32516.83
574.432	32588.92
574.794	32957.04
575.155	33040.88
575.516	33060.32
575.877	33096.25
576.238	33216.02
576.599	33486.75
576.96	33695.33
577.32	33653.07
577.681	33831.82
578.042	34068.88
578.403	34202.89
578.763	34105.71
579.124	34280.85
579.485	34500.73
579.845	34672.7
580.206	34582.54
580.566	34669.09
580.927	34785.02
581.287	34900.04
581.648	34884.22
582.008	35307.49
582.368	35172.8
582.728	35338.68
583.089	35267.49
583.449	35477.43
583.809	35548.39
584.169	35646.69
584.529	35591.1
584.889	36021.82
585.249	35961.48
585.609	35923.74
585.969	36274.47
586.329	36085.55
586.688	36315.37
587.048	36424.3
587.408	36413.9
587.768	36613.9
588.127	36587.23
588.487	36649.15
588.846	37141.79
589.206	36727.34
589.565	36909.71
589.925	37324.61
590.284	37283.71
590.643	37347.44
591.003	37560.31
591.362	38016.12
591.721	37976.35
592.08	38112.84
592.44	38252.72
592.799	38315.55
593.158	38534.75
593.517	38538.14
593.876	38931.35
594.235	38998.92
594.593	39228.52
594.952	39405.24
595.311	39306.25
595.67	39690.43
596.029	39861.27
596.387	40014.94
596.746	40254.25
597.104	40204.08
597.463	40286.12
597.822	40677.07
598.18	40514.58
598.538	40820.79
598.897	41159.77
599.255	41002.93
599.613	41536.7
599.972	41497.38
600.33	41686.31
600.688	41788.9
601.046	41999.07
601.404	42290.13
601.762	42246.29
602.12	42661.42
602.478	42693.28
602.836	42870
603.194	42704.81
603.552	42911.81
603.91	42891.92
604.268	43237.22
604.625	43434.51
604.983	43561.06
605.341	43389.54
605.698	43825.91
606.056	44140.7
606.413	44045.34
606.771	44404.65
607.128	44316.74
607.485	44253.24
607.843	44575.49
608.2	44823.62
608.557	44952.43
608.914	44957.86
609.272	45151.75
609.629	45289.15
609.986	45395.13
610.343	45355.14
610.7	45922.8
611.057	45867.66
611.414	45900.88
611.771	46134.1
612.127	46266.75
612.484	46309.46
612.841	46365.5
613.198	46370.7
613.554	46439.85
613.911	46782.22
614.267	46796
614.624	46768.21
614.98	46939.5
615.337	47269.21
615.693	47090.68
616.05	47216.1
616.406	47421.52
616.762	47328.42
617.118	47409.77
617.475	47323.9
617.831	47687.96
618.187	47674.62
618.543	47772.25
618.899	48023.31
619.255	47865.58
619.611	47892.24
619.967	48019.92
620.323	48308.73
620.678	48188.96
621.034	48257.21
621.39	48122.29
621.746	48284.78
622.101	48683.41
622.457	48350.08
622.812	48638.66
623.168	48603.41
623.523	48646.12
623.879	48760.7
624.234	48517.09
624.589	48670.3
624.945	48669.17
625.3	48922.95
625.655	48892.44
626.01	48985.77
626.365	48916.62
626.72	48841.15
627.075	48811.54
627.43	48897.87
627.785	48870.3
628.14	48773.58
628.495	49022.61
628.85	48920.69
629.205	48888.83
629.559	48952.33
629.914	48704.65
630.269	48907.13
630.623	48698.32
630.978	48587.59
631.332	48821.26
631.687	48758.44
632.041	48698.78
632.396	48644.31
632.75	48781.71
633.104	48803.18
633.459	48584.65
633.813	48524.09
634.167	48476.86
634.521	48538.1
634.875	48526.8
635.229	48518.67
635.583	48254.72
635.937	48299.69
636.291	48273.93
636.645	48191.9
636.999	48085.01
637.352	48209.07
637.706	48064.22
638.06	48083.88
638.413	48042.97
638.767	47868.06
639.121	48040.71
639.474	47703.55
639.828	47879.81
640.181	47826.71
640.534	47924.79
640.888	47786.71
641.241	47497.9
641.594	47363.22
641.947	47581.52
642.301	47432.37
642.654	47560.27
643.007	47386.95
643.36	47462.2
643.713	47299.72
644.066	47428.98
644.419	47078.03
644.771	46800.07
645.124	46450.93
645.477	46474.43
645.83	46226.75
646.182	46280.99
646.535	46193.53
646.888	46372.74
647.24	46193.53
647.593	46204.38
647.945	46184.72
648.298	45942.01
648.65	45782.69
649.002	45482.82
649.355	45466.54
649.707	45264.74
650.059	45497.96
650.411	45946.31
650.763	46294.55
651.115	46889.56
651.467	46691.37
651.819	46658.6
652.171	46495.44
652.523	46649.34
652.875	46571.37
653.227	46321.66
653.578	46785.38
653.93	46573.18
654.282	46402.57
654.633	46372.06
654.985	46440.53
655.337	46389.68
655.688	46425.84
656.039	46532.73
656.391	46018.62
656.742	46191.27
657.094	46268.56
657.445	46341.32
657.796	46207.32
658.147	46167.54
658.498	46224.04
658.849	46261.33
659.2	46242.12
659.551	46082.12
659.902	46455.67
660.253	46149.69
660.604	46249.57
660.955	46030.15
661.306	46214.32
661.656	46118.96
662.007	46095.91
662.358	46233.98
662.708	46169.8
663.059	46151.72
663.409	45982.92
663.76	46172.74
664.11	46170.48
664.461	46262.23
664.811	46166.64
665.161	46141.1
665.511	45981.79
665.862	46118.73
666.212	46176.58
666.562	46239.86
666.912	46064.72
667.262	45837.83
667.612	46082.8
667.962	46166.19
668.312	45922.13
668.662	46134.1
669.011	45962.58
669.361	45974.33
669.711	46013.87
670.06	45849.36
670.41	45904.5
670.76	45740.44
671.109	46045.96
671.459	46048.68
671.808	45932.07
672.157	46072.4
672.507	45664.05
672.856	45809.81
673.205	45822.69
673.554	45912.86
673.904	45787.44
674.253	45934.55
674.602	45833.99
674.951	45325.08
675.3	45164.18
675.649	45777.95
675.998	45742.24
676.346	45855.23
676.695	45777.04
677.044	45597.61
677.393	45559.88
677.741	45686.2
678.09	45627.44
678.438	45491.18
678.787	45571.63
679.135	45542.25
679.484	45272.43
679.832	45457.51
680.181	45310.84
680.529	45334.57
680.877	45078.31
681.225	45071.53
681.573	45260.45
681.922	45164.63
682.27	45054.35
682.618	45033.34
682.966	44888.48
683.314	44909.05
683.661	44816.39
684.009	44737.75
684.357	44767.13
684.705	44544.31
685.053	44762.38
685.4	44486.01
685.748	44347.25
686.095	44356.29
686.443	44183.41
686.79	44104.77
687.138	44158.33
687.485	44178.44
687.832	43922.4
688.18	44011.67
688.527	43858.23
688.874	43642.86
689.221	43596.54
689.568	43351.12
689.915	43424.79
690.262	43405.58
690.609	43269.77
690.956	43074.74
691.303	43069.09
691.65	42816.22
691.997	42802.89
692.344	42618.48
692.69	42492.61
693.037	42591.82
693.383	42265.5
693.73	42371.94
694.077	42120.64
694.423	42182.56
694.769	41870.48
695.116	41933.76
695.462	41655.12
695.808	41482.02
696.155	41543.94
696.501	41199.99
696.847	41317.5
697.193	41011.75
697.539	40951.86
697.885	40737.63
698.231	40781.24
698.577	40444.3
698.923	40542.38
699.269	40439.78
699.614	40190.3
699.96	40026.46
700.306	39892.68
700.651	39800.93
700.997	39612.91
701.342	39522.97
701.688	39452.69
702.033	39321.62
702.379	39359.59
702.724	39132.25
703.069	39148.29
703.415	38763.44
703.76	38761.18
704.105	38713.5
704.45	38676.89
704.795	38374.3
705.14	38207.3
705.485	38083.91
705.83	38024.71
706.175	38125.04
706.52	37874.65
706.865	37788.55
707.209	37730.93
707.554	37716.69
707.899	37663.81
708.243	37460.88
708.588	37491.39
708.932	37349.92
709.277	37182.02
709.621	37171.17
709.966	36922.59
710.31	36968.91
710.654	36802.37
710.998	36772.31
711.342	36754.68
711.687	36741.58
712.031	36584.52
712.375	36410.74
712.719	36396.73
713.063	36347.01
713.407	36479.21
713.75	36204.19
714.094	36256.17
714.438	36204.42
714.782	35994.93
715.125	35857.76
715.469	36029.28
715.812	35777.31
716.156	35649.85
716.499	35523.3
716.843	35636.52
717.186	35619.57
717.53	35628.16
717.873	35621.83
718.216	35423.64
718.559	35264.33
718.902	35133.93
719.246	35157.21
719.589	35055.07
719.932	35102.3
720.275	35169.19
720.617	34999.02
720.96	34926.71
721.303	34956.31
721.646	34996.09
721.989	34818.91
722.331	34858.69
722.674	34648.75
723.016	34638.35
723.359	34531.24
723.701	34759.26
724.044	34509.54
724.386	34448.98
724.729	34476.33
725.071	34438.81
725.413	34446.27
725.755	34289.89
726.097	34194.75
726.439	34081.53
726.782	34167.41
727.124	34232.72
727.465	34099.39
727.807	34064.36
728.149	34002.67
728.491	33962.67
728.833	34037.92
729.175	33969.9
729.516	33903.91
729.858	33990.46
730.199	34002.44
730.541	33937.81
730.882	33842.9
731.224	33823.46
731.565	33616.23
731.906	33790.69
732.248	33995.89
732.589	33798.15
732.93	33741.88
733.271	33734.88
733.612	33626.63
733.953	33872.95
734.294	33659.17
734.635	33673.18
734.976	33810.81
735.317	33545.28
735.658	33534.43
735.999	33620.53
736.339	33684.71
736.68	33574.88
737.021	33548.44
737.361	33535.33
737.702	33799.73
738.042	33631.6
738.383	33597.48
738.723	33653.3
739.063	33541.43
739.404	33750.24
739.744	33645.84
740.084	33484.03
740.424	33572.85
740.764	33572.62
741.104	33719.96
741.444	33597.25
741.784	33709.57
742.124	33788.43
742.464	33729
742.804	33740.53
743.143	33646.52
743.483	33749.56
743.823	33754.31
744.162	33693.29
744.502	33786.4
744.841	33666.63
745.181	33936.9
745.52	33849.9
745.86	33934.64
746.199	33979.16
746.538	33987.52
746.877	34158.59
747.216	34106.84
747.556	34076.34
747.895	34144.36
748.234	34131.93
748.573	34159.5
748.911	34147.75
749.25	34249.44
749.589	34063
749.928	34382.09
750.267	34387.51
750.605	34344.8
750.944	34386.16
751.283	34359.49
751.621	34462.54
751.96	34394.75
752.298	34460.51
752.636	34552.71
752.975	34408.3
753.313	34475.87
753.651	34637.9
753.989	34596.77
754.327	34715.64
754.666	34560.16
755.004	34683.55
755.342	34773.04
755.679	34790.67
756.017	34642.65
756.355	34885.13
756.693	34765.58
757.031	35004.45
757.368	34647.39
757.706	34897.33
758.044	34804.23
758.381	34965.8
758.719	34774.17
759.056	34930.32
759.394	34878.12
759.731	34652.37
760.068	34708.41
760.405	34912.92
760.743	34681.97
761.08	34781.18
761.417	34763.32
761.754	34755.41
762.091	34745.24
762.428	34634.06
762.765	34614.63
763.102	34677.45
763.438	34517.23
763.775	34319.04
764.112	34455.76
764.449	34478.81
764.785	34371.47
765.122	34284.01
765.458	34205.15
765.795	34166.05
766.131	34310.23
766.467	34316.33
766.804	34092.15
767.14	33944.14
767.476	34098.93
767.812	33909.11
768.148	34016
768.485	33712.5
768.821	33654.2
769.157	33616.91
769.492	33654.88
769.828	33645.61
770.164	33326.3
770.5	33327.43
770.836	33228.22
771.171	33182.8
771.507	33044.72
771.842	32956.37
772.178	32934.22
772.513	32856.93
772.849	32759.99
773.184	32714.34
773.519	32541.01
773.855	32455.59
774.19	32487
774.525	32349.83
774.86	32230.06
775.195	32185.76
775.53	31978.31
775.865	31837.3
776.2	31715.72
776.535	31605.44
776.87	31630.98
777.205	31454.03
777.539	31385.78
777.874	31545.1
778.209	31138.79
778.543	31181.72
778.878	31005.91
779.212	31015.4
779.547	30727.27
779.881	30764.11
780.215	30492.93
780.55	30527.73
780.884	30358.02
781.218	30231.69
781.552	30388.3
781.886	30208.41
782.22	30024.92
782.554	29857.46
782.888	29791.25
783.222	29694.98
783.556	29475.33
783.889	29421.54
784.223	29263.58
784.557	29208.22
784.89	29390.81
785.224	29004.38
785.557	28769.58
785.891	28899.3
786.224	28769.81
786.558	28776.59
786.891	28591.96
787.224	28514.9
787.557	28353.1
787.891	28476.71
788.224	28140.45
788.557	28065.19
788.89	28135.93
789.223	28025.87
789.556	27909.49
789.888	27849.38
790.221	27719.89
790.554	27612.32
790.887	27503.18
791.219	27427.02
791.552	27242.84
791.884	27268.83
792.217	27190.64
792.549	27005.11
792.882	26827.49
793.214	26806.24
793.546	26783.42
793.879	26534.16
794.211	26432.24
794.543	26462.98
794.875	26400.61
795.207	26411
795.539	26274.73
795.871	26259.14
796.203	26151.57
796.535	25942.54
796.867	25867.96
797.198	25832.03
797.53	25832.48
797.862	25566.5
798.193	25667.97
798.525	25557.69
798.856	25533.51
799.188	25153.41
799.519	25136.91
799.85	25005.84
800.182	25162.45
800.513	25238.38
800.844	24860.98
801.175	24947.99
801.506	24881.32
801.837	24789.35
802.168	24773.3
802.499	24712.06
802.83	24535.57
803.161	24424.61
803.491	24509.13
803.822	24547.09
804.153	24223.71
804.483	24152.08
804.814	23985.53
805.145	24103.26
805.475	24011.52
805.805	23960.44
806.136	23995.7
806.466	23784.4
806.796	23857.85
807.126	23617.18
807.457	23594.8
807.787	23542.15
808.117	23522.71
808.447	23347.8
808.777	23583.96
809.107	23228.94
809.436	23250.63
809.766	23195.94
810.096	23243.4
810.426	23144.42
810.755	23113.91
811.085	23059
811.414	22957.76
811.744	22836.86
812.073	22977.64
812.403	22830.3
812.732	22729.29
813.061	22803.19
813.39	22589.63
813.719	22381.95
814.049	22658.33
814.378	22468.73
814.707	22480.93
815.036	22486.81
815.365	22231.68
815.693	22092.24
816.022	22159.59
816.351	22107.84
816.68	21988.07
817.008	22146.03
817.337	21848.86
817.665	21919.82
817.994	21865.81
818.322	21867.39
818.651	21760.28
818.979	21667.62
819.307	21691.58
819.636	21587.17
819.964	21592.6
820.292	21692.48
820.62	21557.57
820.948	21689.54
821.276	21717.56
821.604	21594.63
821.932	21734.97
822.259	21493.39
822.587	21536.78
822.915	21525.71
823.243	21633.72
823.57	21467.85
823.898	21587.85
824.225	21525.71
824.553	21479.6
824.88	21617
825.207	21468.76
825.535	21373.39
825.862	21517.57
826.189	21443.22
826.516	21620.62
826.843	21692.93
827.17	21636.44
827.497	21559.6
827.824	21614.06
828.151	21610.9
828.478	21501.98
828.805	21714.17
829.131	21556.66
829.458	21692.93
829.785	21373.84
830.111	21587.17
830.438	21715.3
830.764	21588.75
831.09	21536.78
831.417	21449.77
831.743	21688.41
832.069	21551.24
832.395	21569.09
832.722	21653.16
833.048	21398.25
833.374	21498.36
833.7	21461.98
834.026	21425.82
834.351	21461.75
834.677	21443.45
835.003	21445.48
835.329	21472.15
835.654	21442.77
835.98	21331.59
836.306	21502.65
836.631	21329.78
836.956	21333.17
837.282	21326.61
837.607	21200.06
837.932	21254.75
838.258	21196.45
838.583	21229.44
838.908	21142.66
839.233	21163.23
839.558	20984.25
839.883	20877.59
840.208	20905.83
840.533	21029.67
840.858	20925.95
841.182	20987.41
841.507	20897.93
841.832	20827.87
842.156	20821.77
842.481	20852.28
842.805	20738.61
843.13	20644.37
843.454	20654.99
843.778	20533.19
844.103	20547.88
844.427	20514.43
844.751	20487.99
845.075	20494.55
845.399	20358.73
845.723	20255.23
846.047	20333.42
846.371	20121.22
846.695	20031.73
847.019	19978.85
847.343	19883.49
847.666	19830.61
847.99	19792.87
848.313	19579.32
848.637	19731.18
848.96	19565.08
849.284	19572.99
849.607	19356.72
849.931	19268.82
850.254	19268.36
850.577	19169.38
850.9	18976.39
851.223	19110.63
851.546	19023.17
851.869	18729.39
852.192	18942.72
852.515	18736.4
852.838	18630.87
853.161	18633.35
853.483	18558.78
853.806	18474.26
854.129	18372.57
854.451	18442.4
854.774	18240.37
855.096	18225.68
855.419	18212.35
855.741	18204.21
856.063	18099.35
856.385	17996.76
856.708	17927.38
857.03	17958.12
857.352	17848.06
857.674	17719.93
857.996	17716.09
858.318	17538.92
858.64	17684.22
858.961	17591.57
859.283	17514.74
859.605	17503.44
859.926	17543.44
860.248	17451.01
860.57	17453.95
860.891	17348.87
861.212	17245.14
861.534	17209.21
861.855	17233.16
862.176	17040.85
862.498	17120.85
862.819	17032.72
863.14	16999.04
863.461	17053.05
863.782	16966.05
864.103	17004.47
864.424	16885.83
864.745	16920.63
865.065	16846.73
865.386	16781.88
865.707	16919.27
866.027	16754.53
866.348	16771.71
866.668	16700.07
866.989	16635.21
867.309	16589.79
867.63	16527.64
867.95	16574.65
868.27	16555.21
868.59	16583.69
868.91	16484.93
869.23	16450.13
869.55	16236.13
869.87	16395.67
870.19	16350.93
870.51	16392.73
870.83	16270.02
871.15	16266.18
871.469	16235.45
871.789	16209.46
872.109	16273.87
872.428	16064.15
872.748	16154.55
873.067	16081.33
873.386	16093.31
873.706	16107.99
874.025	15954.78
874.344	15965.4
874.663	16020.09
874.982	15957.04
875.301	15958.62
875.62	15964.27
875.939	15857.83
876.258	15852.86
876.577	15808.79
876.896	15815.35
877.214	15698.74
877.533	15773.31
877.852	15716.59
878.17	15771.05
878.489	15759.53
878.807	15638.85
879.125	15578.74
879.444	15521.34
879.762	15616.03
880.08	15510.5
880.398	15455.13
880.716	15489.25
881.034	15580.55
881.352	15412.42
881.67	15404.51
881.988	15401.57
882.306	15411.52
882.624	15329.03
882.941	15141.01
883.259	15239.77
883.577	15324.29
883.894	15143.5
884.212	15143.5
884.529	15181.24
884.846	14984.63
885.164	15011.53
885.481	14991.41
885.798	14950.96
886.115	14867.12
886.432	14865.99
886.75	14878.87
887.067	14821.25
887.383	14779.89
887.7	14784.41
888.017	14702.38
888.334	14815.15
888.651	14719.78
888.967	14639.11
889.284	14536.06
889.6	14486.34
889.917	14391.66
890.233	14435.27
890.55	14359.11
890.866	14413.8
891.182	14341.26
891.498	14309.85
891.815	14293.13
892.131	14179.91
892.447	14172.68
892.763	14087.03
893.079	14111.44
893.395	14035.05
893.71	13955.96
894.026	13938.79
894.342	13893.59
894.657	13798.9
894.973	13779.02
895.289	13767.27
895.604	13688.62
895.92	13655.63
896.235	13649.98
896.55	13602.52
896.865	13538.34
897.181	13477.56
897.496	13495.41
897.811	13479.36
898.126	13340.16
898.441	13379.93
898.756	13325.24
899.071	13213.61
899.386	13229.2
899.7	13155.3
900.015	13108.98
900.33	12984.23
900.644	13046.83
900.959	13000.28
901.273	12912.6
901.588	12812.49
901.902	12751.47
902.216	12673.28
902.531	12752.15
902.845	12670.34
903.159	12628.99
903.473	12598.26
903.787	12436.45
904.101	12505.6
904.415	12428.09
904.729	12423.35
905.042	12351.71
905.356	12315.33
905.67	12301.09
905.984	12273.97
906.297	12208.66
906.611	12117.59
906.924	12197.36
907.237	12090.47
907.551	12019.06
907.864	11971.38
908.177	11898.16
908.491	11843.02
908.804	11854.77
909.117	11743.59
909.43	11684.83
909.743	11717.83
910.056	11629.02
910.368	11623.82
910.681	11643.71
910.994	11418.4
911.307	11364.39
911.619	11352.87
911.932	11423.6
912.244	11268.57
912.557	11259.08
912.869	11204.17
913.181	11160.33
913.494	11123.72
913.806	11025.42
914.118	11046.21
914.43	11007.56
914.742	10944.74
915.054	10949.03
915.366	10889.83
915.678	10810.96
915.99	10803.73
916.302	10789.72
916.613	10729.6
916.925	10686.89
917.236	10639.66
917.548	10520.34
917.859	10594.92
918.171	10553.34
918.482	10435.6
918.794	10420.69
919.105	10332.78
919.416	10222.27
919.727	10218.66
920.038	10265.21
920.349	10204.19
920.66	10066.35
920.971	10093.01
921.282	10100.47
921.593	10046.91
921.903	9970.3
922.214	9920.36
922.525	9829.74
922.835	9849.4
923.146	9812.34
923.456	9757.43
923.767	9725.56
924.077	9691.89
924.387	9632.23
924.697	9612.57
925.008	9568.05
925.318	9554.72
925.628	9509.07
925.938	9499.81
926.248	9400.83
926.558	9329.87
926.867	9373.48
927.177	9243.54
927.487	9254.39
927.796	9200.61
928.106	9143.43
928.416	9145.92
928.725	9087.84
929.034	9059.37
929.344	9011.91
929.653	9028.18
929.962	8900.5
930.271	8905.02
930.581	8945.25
930.89	8835.19
931.199	8751.8
931.508	8711.13
931.817	8676.78
932.125	8732.14
932.434	8663.22
932.743	8577.35
933.051	8546.39
933.36	8463.68
933.669	8508.42
933.977	8383
934.286	8399.72
934.594	8348.42
934.902	8335.77
935.21	8326.96
935.519	8296.45
935.827	8289.9
936.135	8207.86
936.443	8162.44
936.751	8085.38
937.059	8132.84
937.367	8000.86
937.674	8027.53
937.982	8001.54
938.29	7987.53
938.597	7922.22
938.905	7870.25
939.213	7840.19
939.52	7743.02
939.827	7756.12
940.135	7803.81
940.442	7707.54
940.749	7676.35
941.056	7722.9
941.363	7586.18
941.67	7574.66
941.977	7555
942.284	7573.98
942.591	7452.63
942.898	7425.06
943.205	7425.06
943.511	7327.43
943.818	7264.39
944.125	7230.71
944.431	7298.73
944.738	7234.78
945.044	7274.55
945.35	7208.34
945.657	7149.36
945.963	7132.86
946.269	7129.02
946.575	7157.04
946.881	7007.89
947.187	7009.7
947.493	6957.73
947.799	6960.21
948.105	6925.19
948.41	6854.9
948.716	6818.52
949.022	6820.1
949.327	6822.81
949.633	6770.61
949.938	6756.15
950.244	6704.4
950.549	6663.05
950.854	6619.88
951.16	6605.19
951.465	6554.57
951.77	6498.76
952.075	6445.42
952.38	6501.47
952.685	6503.95
952.99	6385.09
953.294	6407.91
953.599	6366.1
953.904	6325.65
954.209	6300.79
954.513	6337.63
954.818	6246.11
955.122	6254.92
955.426	6226.45
955.731	6174.02
956.035	6132.21
956.339	6070.29
956.643	6147.8
956.948	6039.56
957.252	6048.6
957.556	6015.83
957.86	6018.54
958.163	6005.21
958.467	5953.23
958.771	5888.83
959.075	5938.09
959.378	5864.87
959.682	5891.54
959.985	5821.71
960.289	5779.23
960.592	5831.43
960.896	5759.79
961.199	5678.44
961.502	5729.96
961.805	5712.11
962.108	5628.27
962.411	5643.86
962.714	5580.59
963.017	5495.17
963.32	5595.28
963.623	5542.4
963.926	5508.5
964.228	5485.45
964.531	5458.56
964.833	5486.35
965.136	5407.48
965.438	5349.86
965.741	5314.83
966.043	5342.85
966.345	5288.39
966.648	5248.39
966.95	5276.87
967.252	5202.97
967.554	5226.92
967.856	5202.97
968.158	5176.53
968.46	5129.07
968.761	5127.94
969.063	5094.27
969.365	5098.11
969.666	5035.97
969.968	4968.63
970.269	5030.09
970.571	5061.28
970.872	4971.11
971.174	4952.81
971.475	4921.4
971.776	4922.07
972.077	4897.67
972.378	4833.04
972.679	4798.46
972.98	4837.78
973.281	4818.8
973.582	4802.98
973.883	4759.14
974.183	4710.55
974.484	4688.86
974.785	4697.45
975.085	4623.32
975.386	4628.97
975.686	4591.91
975.986	4602.08
976.287	4553.27
976.587	4511.46
976.887	4542.87
977.187	4487.06
977.487	4531.58
977.787	4492.93
978.087	4449.32
978.387	4471.01
978.687	4419.26
978.987	4392.82
979.286	4322.32
979.586	4363.9
979.885	4287.97
980.185	4277.35
980.484	4247.97
980.784	4256.78
981.083	4279.38
981.382	4239.15
981.682	4235.76
981.981	4160.96
982.28	4203
982.579	4129.55
982.878	4152.83
983.177	4099.27
983.475	4095.2
983.774	4094.07
984.073	4051.59
984.372	4014.53
984.67	3981.53
984.969	4028.31
985.267	4006.62
985.566	3966.84
985.864	3941.08
986.162	3941.31
986.461	3912.16
986.759	3918.71
987.057	3841.88
987.355	3866.96
987.653	3859.05
987.951	3846.4
988.249	3821.99
988.547	3752.16
988.844	3781.54
989.142	3752.16
989.44	3767.53
989.737	3694.08
990.035	3683.01
990.332	3723.69
990.63	3702.67
990.927	3674.65
991.224	3612.05
991.521	3645.72
991.819	3605.95
992.116	3627.64
992.413	3562.34
992.71	3523.69
993.006	3487.76
993.303	3533.18
993.6	3537.48
993.897	3500.42
994.193	3455.22
994.49	3477.37
994.787	3426.97
995.083	3415.67
995.379	3420.19
995.676	3356.01
995.972	3359.86
996.268	3356.01
996.565	3346.3
996.861	3315.11
997.157	3343.58
997.453	3292.29
997.749	3262.68
998.044	3236.92
998.34	3263.59
998.636	3225.4
998.932	3192.85
999.227	3151.05
999.523	3168.9
999.818	3125.96
1000.114	3117.83
1000.409	3144.27
1000.704	3069.92
1001	3110.37
1001.295	3029.69
1001.59	3034.67
1001.885	3005.74
1002.18	2977.04
1002.475	3023.37
1002.77	2990.6
1003.065	2953.31
1003.359	2951.28
1003.654	2934.78
1003.949	2965.97
1004.243	2879.42
1004.538	2850.94
1004.832	2836.25
1005.127	2862.92
1005.421	2812.3
1005.715	2780.44
1006.009	2784.05
1006.304	2793.99
1006.598	2792.41
1006.892	2774.79
1007.186	2729.36
1007.48	2705.18
1007.773	2714.67
1008.067	2687.33
1008.361	2679.87
1008.655	2652.76
1008.948	2633.09
1009.242	2639.65
1009.535	2609.37
1009.829	2604.85
1010.122	2589.48
1010.415	2578.86
1010.708	2568.46
1011.001	2531.18
1011.295	2514.23
1011.588	2476.04
1011.881	2457.05
1012.173	2470.16
1012.466	2432.65
1012.759	2447.56
1013.052	2424.96
1013.344	2396.04
1013.637	2390.84
1013.93	2379.54
1014.222	2380.9
1014.514	2347.45
1014.807	2311.3
1015.099	2303.16
1015.391	2328.02
1015.683	2267
1015.976	2285.08
1016.268	2289.37
1016.56	2233.11
1016.851	2237.85
1017.143	2217.96
1017.435	2216.83
1017.727	2163.5
1018.018	2168.25
1018.31	2158.98
1018.602	2147.01
1018.893	2158.98
1019.185	2144.07
1019.476	2109.27
1019.767	2082.15
1020.058	2085.09
1020.35	2071.53
1020.641	2027.23
1020.932	2011.19
1021.223	2028.36
1021.514	2019.78
1021.804	1973.68
1022.095	1975.94
1022.386	1965.99
1022.677	1929.61
1022.967	1939.78
1023.258	1933.68
1023.548	1955.15
1023.839	1888.71
1024.129	1891.65
1024.419	1885.09
1024.709	1898.2
1025	1845.09
1025.29	1844.19
1025.58	1812.78
1025.87	1797.18
1026.16	1801.48
1026.449	1780.01
1026.739	1729.84
1027.029	1747.02
1027.319	1720.8
1027.608	1773.68
1027.898	1757.86
1028.187	1721.03
1028.477	1693.91
1028.766	1688.94
1029.055	1649.84
1029.344	1686.23
1029.634	1641.71
1029.923	1648.49
1030.212	1608.49
1030.501	1613.01
1030.79	1632.44
1031.078	1571.88
1031.367	1600.35
1031.656	1551.77
1031.945	1553.8
1032.233	1573.24
1032.522	1554.03
1032.81	1527.36
1033.099	1513.58
1033.387	1497.53
1033.675	1525.33
1033.963	1477.42
1034.251	1495.05
1034.54	1454.59
1034.828	1485.78
1035.116	1464.09
1035.403	1450.98
1035.691	1429.96
1035.979	1415.27
1036.267	1429.96
1036.554	1420.92
1036.842	1399
1037.129	1386.8
1037.417	1390.19
1037.704	1387.48
1037.992	1375.95
1038.279	1348.16
1038.566	1323.75
1038.853	1323.75
1039.14	1323.75
