Data from 19-1250_FLMS001491_010.txt Node
Date: Thu Apr 19 16:28:33 BST 2018
User: hsy
Spectrometer: FLMS00149
Trigger mode: 0
Integration Time (sec): 1.000000E-2
Scans to average: 10
Electric dark correction enabled: true
Nonlinearity correction enabled: false
Boxcar width: 0
XAxis mode: Wavelengths
Number of Pixels in Spectrum: 2048
>>>>>Begin Spectral Data<<<<<
341.393	-27.65
341.776	-27.65
342.16	-27.65
342.543	-66.75
342.927	-69.24
343.31	-69.69
343.693	-63.36
344.077	-73.53
344.46	-53.42
344.843	-42.34
345.226	-30.59
345.61	-43.02
345.993	-18.62
346.376	25.45
346.759	4.89
347.142	20.71
347.525	35.39
347.908	63.19
348.291	57.99
348.674	103.87
349.057	83.08
349.44	119.69
349.823	156.52
350.206	185.45
350.588	231.32
350.971	223.86
351.354	257.31
351.737	266.8
352.119	305.22
352.502	304.31
352.884	324.88
353.267	339.12
353.65	331.21
354.032	354.71
354.414	348.15
354.797	359.23
355.179	359.68
355.562	390.87
355.944	380.47
356.326	392.67
356.709	393.35
357.091	371.66
357.473	411.2
357.855	378.89
358.238	410.07
358.62	382.5
359.002	388.61
359.384	372.33
359.766	405.33
360.148	401.94
360.53	380.47
360.912	390.87
361.294	388.38
361.676	373.69
362.057	398.32
362.439	382.28
362.821	378.66
363.203	380.92
363.584	379.11
363.966	385.67
364.348	372.79
364.729	369.17
365.111	376.18
365.493	374.37
365.874	388.15
366.256	395.39
366.637	372.33
367.019	369.85
367.4	376.63
367.781	382.5
368.163	376.18
368.544	368.04
368.925	388.15
369.306	373.24
369.688	387.7
370.069	386.8
370.45	381.6
370.831	376.18
371.212	382.73
371.593	421.37
371.974	384.09
372.355	396.51
372.736	388.15
373.117	395.84
373.498	404.88
373.879	386.57
374.26	389.06
374.641	360.36
375.021	418.66
375.402	417.31
375.783	430.86
376.163	457.53
376.544	416.18
376.925	405.33
377.305	417.76
377.686	421.37
378.066	428.6
378.447	441.49
378.827	406.46
379.208	424.99
379.588	417.98
379.968	434.71
380.349	413.69
380.729	443.07
381.109	430.41
381.489	467.25
381.87	439.9
382.25	471.54
382.63	451.88
383.01	432.22
383.39	442.84
383.77	443.07
384.15	460.02
384.53	446.46
384.91	475.16
385.29	454.37
385.67	486.23
386.049	495.04
386.429	483.29
386.809	493.69
387.189	486.23
387.568	490.3
387.948	488.94
388.328	507.7
388.707	492.11
389.087	496.4
389.466	504.08
389.846	538.88
390.225	521.94
390.605	540.92
390.984	516.51
391.363	533.69
391.743	543.4
392.122	535.72
392.501	547.92
392.881	539.11
393.26	569.39
393.639	551.99
394.018	562.61
394.397	574.36
394.776	564.87
395.155	556.06
395.534	582.27
395.913	569.17
396.292	574.14
396.671	584.98
397.05	582.5
397.429	599.45
397.808	588.37
398.186	606.23
398.565	604.87
398.944	597.64
399.323	618.43
399.701	604.19
400.08	632.89
400.458	615.72
400.837	623.4
401.215	642.38
401.594	644.19
401.972	646.68
402.351	658.88
402.729	660.24
403.107	638.77
403.486	660.46
403.864	647.36
404.242	674.02
404.62	672.89
404.999	695.94
405.377	693.91
405.755	695.04
406.133	700.69
406.511	724.19
406.889	721.25
407.267	727.81
407.645	745.21
408.023	732.78
408.401	730.74
408.779	747.92
409.156	769.39
409.534	760.12
409.912	782.72
410.29	763.96
410.667	805.54
411.045	806.45
411.422	824.98
411.8	832.21
412.178	829.05
412.555	832.44
412.933	819.55
413.31	865.66
413.687	861.81
414.065	897.52
414.442	894.13
414.819	897.07
415.197	865.43
415.574	919.21
415.951	908.59
416.328	919.44
416.705	915.37
417.082	933.68
417.46	929.61
417.837	935.94
418.214	967.57
418.591	978.87
418.967	955.6
419.344	994.47
419.721	1012.77
420.098	1016.39
420.475	1007.8
420.852	992.66
421.228	1024.97
421.605	1038.53
421.982	1043.5
422.358	1062.26
422.735	1058.87
423.111	1066.55
423.488	1057.51
423.864	1079.43
424.241	1092.54
424.617	1095.25
424.994	1110.17
425.37	1122.82
425.746	1098.42
426.123	1155.82
426.499	1169.15
426.875	1134.35
427.251	1172.09
427.627	1229.49
428.003	1210.28
428.379	1232.2
428.756	1235.36
429.132	1257.96
429.507	1242.82
429.883	1252.31
430.259	1297.73
430.635	1318.07
431.011	1296.6
431.387	1339.09
431.763	1365.98
432.138	1347
432.514	1399.43
432.89	1382.25
433.265	1420.89
433.641	1434.45
434.016	1452.98
434.392	1470.61
434.767	1468.58
435.143	1500.67
435.518	1494.11
435.894	1524.62
436.269	1545.19
436.644	1575.47
437.02	1583.6
437.395	1603.71
437.77	1634
438.145	1636.71
438.52	1625.18
438.895	1657.95
439.271	1675.35
439.646	1695.01
440.021	1711.51
440.395	1691.85
440.77	1680.55
441.145	1717.84
441.52	1741.56
441.895	1736.14
442.27	1752.41
442.645	1729.59
443.019	1773.2
443.394	1792.18
443.769	1810.94
444.143	1786.53
444.518	1851.39
444.892	1810.49
445.267	1831.05
445.641	1882.13
446.016	1882.58
446.39	1888.91
446.764	1882.13
447.139	1866.53
447.513	1920.99
447.887	1919.64
448.262	1924.61
448.636	1930.03
449.01	1991.28
449.384	1997.6
449.758	1990.37
450.132	2015.68
450.506	2046.19
450.88	2047.55
451.254	2059.97
451.628	2066.75
452.002	2103.81
452.376	2102.68
452.75	2146.3
453.123	2148.56
453.497	2182.68
453.871	2202.8
454.244	2242.79
454.618	2302.23
454.992	2303.58
455.365	2291.15
455.739	2377.25
456.112	2389.91
456.486	2382
456.859	2456.8
457.232	2443.01
457.606	2490.47
457.979	2516.69
458.352	2568.89
458.725	2562.79
459.099	2589.45
459.472	2613.63
459.845	2695.66
460.218	2712.39
460.591	2719.17
460.964	2723.01
461.337	2805.27
461.71	2827.86
462.083	2881.2
462.456	2886.39
462.829	2913.06
463.201	2970.23
463.574	2954.41
463.947	3016.79
464.32	3051.59
464.692	3083.22
465.065	3112.6
465.438	3158.48
465.81	3141.98
466.183	3203.67
466.555	3266.5
466.928	3342.65
467.3	3316.89
467.672	3353.5
468.045	3445.25
468.417	3438.02
468.789	3474.4
469.161	3503.33
469.534	3516.43
469.906	3636.66
470.278	3619.26
470.65	3662.87
471.022	3785.8
471.394	3823.09
471.766	3815.63
472.138	3890.66
472.51	3991.22
472.882	4017.44
473.253	4053.14
473.625	4141.5
473.997	4195.96
474.369	4198
474.74	4259.24
475.112	4291.78
475.484	4387.82
475.855	4493.13
476.227	4571.09
476.598	4653.8
476.97	4687.93
477.341	4740.81
477.713	4870.07
478.084	4933.12
478.455	5003.85
478.827	5033
479.198	5161.81
479.569	5237.29
479.94	5370.17
480.311	5427.12
480.682	5577.62
481.053	5644.74
481.424	5714.34
481.795	5789.37
482.166	5882.25
482.537	6019.87
482.908	6112.07
483.279	6179.64
483.65	6290.82
484.021	6395.91
484.391	6496.47
484.762	6546.86
485.133	6649.23
485.503	6693.3
485.874	6954.99
486.244	6978.04
486.615	7134.64
486.985	7233.85
487.356	7339.38
487.726	7419.16
488.097	7574.86
488.467	7634.97
488.837	7822.99
489.207	7878.8
489.578	8050.1
489.948	8055.07
490.318	8243.54
490.688	8309.3
491.058	8526.24
491.428	8632.46
491.798	8646.69
492.168	8846.24
492.538	8885.56
492.908	9083.29
493.278	9179.56
493.648	9243.74
494.017	9406.67
494.387	9474.69
494.757	9606.67
495.126	9640.34
495.496	9676.27
495.866	9851.18
496.235	9999.88
496.605	10053.44
496.974	10130.04
497.344	10230.83
497.713	10309.02
498.082	10460.88
498.452	10532.52
498.821	10611.39
499.19	10610.48
499.559	10831.95
499.928	10897.03
500.298	10951.49
500.667	11066.74
501.036	11102.9
501.405	11197.13
501.774	11263.57
502.143	11363.46
502.512	11395.77
502.88	11665.15
503.249	11623.56
503.618	11715.77
503.987	11765.48
504.356	11885.48
504.724	11987.62
505.093	12058.36
505.462	12163.21
505.83	12143.55
506.199	12253.6
506.567	12426.48
506.936	12567.27
507.304	12683.88
507.672	12670.99
508.041	12779.69
508.409	12980.59
508.777	13014.94
509.145	13051.55
509.514	13060.59
509.882	13267.59
510.25	13287.93
510.618	13405.89
510.986	13507.58
511.354	13633.68
511.722	13807.01
512.09	13917.74
512.458	13884.97
512.826	14056.27
513.193	14084.97
513.561	14230.73
513.929	14239.09
514.297	14454.22
514.664	14483.38
515.032	14640.66
515.4	14781
515.767	14794.55
516.135	14920.65
516.502	14883.37
516.869	15113.64
517.237	15273.86
517.604	15190.48
517.972	15437.25
518.339	15595.44
518.706	15693.51
519.073	15721.08
519.44	15768.09
519.808	16059.38
520.175	15985.71
520.542	16300.05
520.909	16354.06
521.276	16368.3
521.643	16689.19
522.009	16751.79
522.376	16845.57
522.743	17006.93
523.11	17253.92
523.477	17359.46
523.843	17516.97
524.21	17695.04
524.577	17864.08
524.943	17967.8
525.31	17990.18
525.676	18255.03
526.043	18351.52
526.409	18597.17
526.776	18656.15
527.142	18912.86
527.508	18936.82
527.874	19165.29
528.241	19295.45
528.607	19405.05
528.973	19610.7
529.339	19696.35
529.705	19815.44
530.071	19978.15
530.437	20072.16
530.803	20204.58
531.169	20346.5
531.535	20462.65
531.901	20594.4
532.267	20676.43
532.632	20828.97
532.998	20937.44
533.364	21057.89
533.73	21179.47
534.095	21403.19
534.461	21363.42
534.826	21523.64
535.192	21659.91
535.557	21755.5
535.923	21809.29
536.288	22019
536.653	22074.36
537.019	22159.56
537.384	22162.95
537.749	22344.64
538.114	22412.89
538.479	22343.96
538.845	22485.65
539.21	22576.5
539.575	22651.98
539.94	22674.35
540.305	22980.55
540.67	22962.25
541.034	23056.48
541.399	23181.23
541.764	23296.7
542.129	23284.5
542.494	23346.19
542.858	23405.18
543.223	23480.43
543.587	23564.72
543.952	23616.02
544.316	23700.76
544.681	23626.64
545.045	23951.83
545.41	24062.79
545.774	24034.54
546.138	24061.43
546.503	24214.65
546.867	24235.21
547.231	24407.41
547.595	24473.17
547.959	24519.27
548.324	24560.63
548.688	24650.34
549.052	24723.56
549.416	24691.24
549.779	24921.29
550.143	25024.57
550.507	25003.55
550.871	25114.28
551.235	25109.54
551.599	25500.04
551.962	25402.41
552.326	25514.05
552.689	25638.56
553.053	25558.57
553.417	25599.69
553.78	25989.06
554.143	26013.02
554.507	26008.72
554.87	26152
555.234	26466.79
555.597	26332.78
555.96	26478.54
556.323	26682.6
556.686	26604.87
557.05	26856.61
557.413	26900
557.776	27014.12
558.139	27240.78
558.502	27277.84
558.865	27310.38
559.228	27619.98
559.59	27834.44
559.953	27809.13
560.316	28075.56
560.679	28113.3
561.041	28322.56
561.404	28476.68
561.767	28680.97
562.129	28557.58
562.492	28922.54
562.854	28948.98
563.217	28949.66
563.579	29144.01
563.941	29418.58
564.304	29588.06
564.666	29942.63
565.028	29800.04
565.39	29975.17
565.753	30070.31
566.115	30202.51
566.477	30465.55
566.839	30692.22
567.201	30969.95
567.563	30933.57
567.925	31169.94
568.287	31317.51
568.648	31306.21
569.01	31704.84
569.372	31770.15
569.734	31952.52
570.095	32047.89
570.457	32329.23
570.819	32403.13
571.18	32418.27
571.542	32699.17
571.903	32722.67
572.265	33072.72
572.626	33319.27
572.987	33301.19
573.349	33616.88
573.71	33559.03
574.071	33803.55
574.432	34150.43
574.794	34253.03
575.155	34391.33
575.516	34325.57
575.877	34483.08
576.238	34593.36
576.599	34692.11
576.96	34854.82
577.32	34916.74
577.681	35194.02
578.042	35221.14
578.403	35291.64
578.763	35472.88
579.124	35593.78
579.485	35862.25
579.845	35935.69
580.206	35902.25
580.566	36018.86
580.927	36148.12
581.287	36365.96
581.648	36319.64
582.008	36423.59
582.368	36475.11
582.728	36731.83
583.089	36693.41
583.449	36762.56
583.809	36871.71
584.169	37088.66
584.529	36867.19
584.889	37389.44
585.249	37349.67
585.609	37052.73
585.969	37451.36
586.329	37465.37
586.688	37607.06
587.048	37812.93
587.408	37678.7
587.768	37813.61
588.127	38029.88
588.487	37978.35
588.846	38345.12
589.206	38129.99
589.565	38289.76
589.925	38522.97
590.284	38551.44
590.643	38595.51
591.003	38844.09
591.362	39106.68
591.721	39109.62
592.08	39094.25
592.44	39399.78
592.799	39526.33
593.158	39753.67
593.517	39716.61
593.876	40116.37
594.235	40184.62
594.593	40244.51
594.952	40469.81
595.311	40507.32
595.67	40744.15
596.029	41112.05
596.387	41230.92
596.746	41485.38
597.104	41585.04
597.463	41506.17
597.822	41815.54
598.18	41976.89
598.538	41988.19
598.897	42422.53
599.255	42271.12
599.613	42865
599.972	42724.44
600.33	42844.66
600.688	42933.48
601.046	43181.15
601.404	43455.95
601.762	43475.16
602.12	43852.55
602.478	43977.52
602.836	44037.63
603.194	43842.83
603.552	44189.26
603.91	44163.73
604.268	44421.35
604.625	44583.6
604.983	44795.8
605.341	44739.53
605.698	45081.44
606.056	45199.63
606.413	45142.01
606.771	45500.19
607.128	45600.07
607.485	45442.79
607.843	45646.62
608.2	46024.92
608.557	46194.63
608.914	46133.62
609.272	46316.21
609.629	46621.29
609.986	46889.76
610.343	46809.53
610.7	47089.98
611.057	47104.44
611.414	47108.96
611.771	47355.05
612.127	47470.76
612.484	47443.87
612.841	47771.54
613.198	47616.74
613.554	47669.4
613.911	47976.73
614.267	48068.03
614.624	48002.04
614.98	48192.09
615.337	48432.31
615.693	48397.29
616.05	48506.66
616.406	48812.87
616.762	48706.21
617.118	48680.9
617.475	48708.24
617.831	48988.46
618.187	49129.7
618.543	49061.68
618.899	49378.96
619.255	49315.45
619.611	49315.91
619.967	49490.37
620.323	49584.6
620.678	49468.67
621.034	49439.52
621.39	49431.38
621.746	49519.97
622.101	49859.17
622.457	49588.67
622.812	49793.63
623.168	49862.56
623.523	49860.07
623.879	50000.41
624.234	49737.82
624.589	49926.96
624.945	49859.17
625.3	49952.27
625.655	49952.27
626.01	49987.75
626.365	50097.58
626.72	50074.53
627.075	50041.09
627.43	50025.49
627.785	50027.75
628.14	49937.36
628.495	50058.26
628.85	50178.71
629.205	49972.39
629.559	50051.25
629.914	49903.01
630.269	50006.28
630.623	49890.35
630.978	49762.9
631.332	49964.03
631.687	49950.92
632.041	49890.58
632.396	49872.05
632.75	49883.12
633.104	49913.41
633.459	49734.2
633.813	49758.38
634.167	49685.61
634.521	49791.83
634.875	49733.3
635.229	49649.01
635.583	49475.9
635.937	49514.77
636.291	49470.03
636.645	49485.62
636.999	49232.29
637.352	49489.01
637.706	49243.37
638.06	49325.17
638.413	49209.92
638.767	49177.38
639.121	49177.61
639.474	49030.94
639.828	49032.52
640.181	49095.35
640.534	49180.09
640.888	48949.36
641.241	48802.7
641.594	48972.64
641.947	48959.08
642.301	48808.35
642.654	48870.27
643.007	48652.2
643.36	48682.48
643.713	48683.61
644.066	48902.58
644.419	48460.34
644.771	48092.66
645.124	47675.5
645.477	47761.37
645.83	47612.45
646.182	47532.9
646.535	47524.99
646.888	47657.65
647.24	47529.96
647.593	47790.98
647.945	47482.96
648.298	47525.45
648.65	47172.46
649.002	47019.02
649.355	46871
649.707	46675.52
650.059	46787.61
650.411	47283.42
650.763	47449.97
651.115	48021.03
651.467	47917.3
651.819	47856.28
652.171	47744.42
652.523	47654.48
652.875	47604.09
653.227	47549.17
653.578	47943.74
653.93	47678.44
654.282	47580.13
654.633	47486.12
654.985	47655.84
655.337	47636.4
655.688	47605.22
656.039	47710.75
656.391	47251.78
656.742	47405
657.094	47503.3
657.445	47439.35
657.796	47507.82
658.147	47386.47
658.498	47367.48
658.849	47600.92
659.2	47437.54
659.551	47392.57
659.902	47635.72
660.253	47392.79
660.604	47441.38
660.955	47430.98
661.306	47508.27
661.656	47332.23
662.007	47458.33
662.358	47270.31
662.708	47416.07
663.059	47415.39
663.409	47237.32
663.76	47550.53
664.11	47401.61
664.461	47597.76
664.811	47439.12
665.161	47440.93
665.511	47388.73
665.862	47437.09
666.212	47507.82
666.562	47572
666.912	47511.43
667.262	47246.81
667.612	47365.9
667.962	47430.98
668.312	47382.17
668.662	47484.77
669.011	47289.75
669.361	47354.83
669.711	47292.01
670.06	47298.78
670.41	47306.02
670.76	47141.27
671.109	47375.84
671.459	47189.86
671.808	47168.62
672.157	47249.52
672.507	47001.84
672.856	47178.79
673.205	47115.74
673.554	47089.07
673.904	47024.22
674.253	47336.3
674.602	47041.16
674.951	46553.49
675.3	46327.74
675.649	47080.26
675.998	47045.23
676.346	47035.97
676.695	47094.04
677.044	46616.32
677.393	46896.99
677.741	46922.98
678.09	46699.25
678.438	46696.77
678.787	46802.53
679.135	46706.03
679.484	46515.98
679.832	46619.93
680.181	46544.68
680.529	46476.21
680.877	46410.45
681.225	46344.01
681.573	46747.61
681.922	46466.04
682.27	46338.13
682.618	46256.1
682.966	46340.62
683.314	46258.36
683.661	46232.82
684.009	45975.2
684.357	45894.08
684.705	45893.85
685.053	45732.27
685.4	45781.54
685.748	45653.18
686.095	45570.24
686.443	45358.5
686.79	45403.47
687.138	45485.72
687.485	45417.93
687.832	45234.88
688.18	45276.01
688.527	44964.38
688.874	44999.86
689.221	44992.4
689.568	44761.22
689.915	44722.81
690.262	44780.43
690.609	44640.32
690.956	44412.08
691.303	44478.97
691.65	44236.72
691.997	44146.1
692.344	44057.51
692.69	43894.58
693.037	44004.18
693.383	43552.44
693.73	43586.34
694.077	43498.88
694.423	43354.48
694.769	43058.22
695.116	43231.09
695.462	42934.83
695.808	42662.75
696.155	42893.93
696.501	42543.88
696.847	42630.43
697.193	42347.05
697.539	42458.91
697.885	42113.61
698.231	41996.33
698.577	41917.23
698.923	41920.17
699.269	41654.87
699.614	41425.04
699.96	41401.99
700.306	41410.35
700.651	41253.52
700.997	41031.83
701.342	40869.35
701.688	40910.48
702.033	40680.88
702.379	40661.67
702.724	40468.68
703.069	40431.17
703.415	40169.71
703.76	40112.31
704.105	40109.6
704.45	39867.57
704.795	39863.27
705.14	39634.13
705.485	39528.14
705.83	39486.33
706.175	39557.97
706.52	39291.54
706.865	38988.04
707.209	39044.76
707.554	38926.12
707.899	38831.44
708.243	38642.74
708.588	38699.91
708.932	38485.68
709.277	38466.7
709.621	38510.77
709.966	38245.46
710.31	38235.97
710.654	37924.57
710.998	38118.01
711.342	38035.75
711.687	37753.27
712.031	37870.33
712.375	37674.4
712.719	37675.31
713.063	37688.42
713.407	37668.53
713.75	37333.4
714.094	37419.27
714.438	37312.15
714.782	37327.52
715.125	37119.17
715.469	37220.86
715.812	36916.68
716.156	36785.61
716.499	36826.52
716.843	36927.08
717.186	36726.41
717.53	36970.92
717.873	36742.68
718.216	36678.72
718.559	36581.1
718.902	36313.08
719.246	36264.27
719.589	36245.29
719.932	36047.55
720.275	36126.65
720.617	36147.44
720.96	36005.3
721.303	36156.48
721.646	36118.51
721.989	35761.46
722.331	35937.05
722.674	35843.04
723.016	35825.87
723.359	35545.65
723.701	35812.31
724.044	35716.26
724.386	35574.57
724.729	35613.44
725.071	35598.3
725.413	35637.4
725.755	35471.75
726.097	35377.29
726.439	35310.85
726.782	35308.37
727.124	35486.44
727.465	35391.75
727.807	35277.86
728.149	35241.25
728.491	35097.52
728.833	35246.9
729.175	35057.07
729.516	34936.62
729.858	35104.3
730.199	35142.72
730.541	35076.73
730.882	34885.78
731.224	34935.04
731.565	34829.51
731.906	34889.39
732.248	34931.43
732.589	34802.16
732.93	34814.82
733.271	35000.8
733.612	34628.16
733.953	34807.81
734.294	34713.8
734.635	34663.18
734.976	34869.96
735.317	34559.23
735.658	34766.23
735.999	34545.45
736.339	34712.9
736.68	34790.19
737.021	34745.67
737.361	34635.16
737.702	34924.42
738.042	34574.83
738.383	34609.4
738.723	34724.65
739.063	34495.73
739.404	34660.25
739.744	34603.3
740.084	34596.75
740.424	34789.06
740.764	34512.68
741.104	34774.59
741.444	34503.19
741.784	34459.57
742.124	34766.23
742.464	34691.21
742.804	34712.67
743.143	34458.67
743.483	34758.32
743.823	34470.87
744.162	34520.14
744.502	34579.35
744.841	34432.91
745.181	34709.96
745.52	34564.43
745.86	34675.61
746.199	34617.31
746.538	34761.04
746.877	34875.61
747.216	34803.29
747.556	34709.29
747.895	34730.75
748.234	34752.22
748.573	34706.12
748.911	34921.26
749.25	34915.83
749.589	34964.65
749.928	34980.24
750.267	35099.56
750.605	34994.02
750.944	35061.37
751.283	34997.41
751.621	35279.44
751.96	35006
752.298	35177.75
752.636	35234.7
752.975	35173.68
753.313	35142.04
753.651	35382.49
753.989	35217.52
754.327	35336.16
754.666	35133.68
755.004	35335.71
755.342	35446.89
755.679	35392.88
756.017	35154.25
756.355	35357.86
756.693	35304.3
757.031	35569.15
757.368	35356.5
757.706	35391.3
758.044	35320.57
758.381	35346.56
758.719	35333.68
759.056	35344.75
759.394	35234.92
759.731	35239.67
760.068	35209.38
760.405	35286.67
760.743	35154.7
761.08	35246.9
761.417	35089.16
761.754	35244.86
762.091	35262.94
762.428	35065.89
762.765	34946.34
763.102	35100.69
763.438	35073.12
763.775	34810.75
764.112	34917.42
764.449	35020.92
764.785	34949.96
765.122	34748.15
765.458	34662.96
765.795	34695.05
766.131	34805.1
766.467	34668.61
766.804	34543.64
767.14	34420.71
767.476	34363.08
767.812	34289.86
768.148	34407.6
768.485	34298.67
768.821	34045.12
769.157	34109.53
769.492	33988.4
769.828	34013.71
770.164	33597.9
770.5	33669.54
770.836	33719.25
771.171	33582.31
771.507	33439.71
771.842	33299.6
772.178	33293.05
772.513	33250.34
772.849	33112.72
773.184	33129.44
773.519	32988.88
773.855	32875.66
774.19	32899.84
774.525	32688.1
774.86	32740.75
775.195	32584.6
775.53	32425.28
775.865	32272.74
776.2	32211.27
776.535	31909.81
776.87	32050.37
777.205	31865.07
777.539	31901.9
777.874	31866.42
778.209	31518.41
778.543	31548.24
778.878	31372.42
779.212	31309.15
779.547	31075.71
779.881	31064.86
780.215	30967.46
780.55	30936.5
780.884	30787.13
781.218	30618.55
781.552	30840.69
781.886	30395.27
782.22	30332
782.554	30234.37
782.888	29989.41
783.222	29922.52
783.556	29781.28
783.889	29741.28
784.223	29558.01
784.557	29558.46
784.89	29635.07
785.224	29249.32
785.557	29129.09
785.891	29273.95
786.224	29036.44
786.558	29154.4
786.891	28839.16
787.224	28622.21
787.557	28569.11
787.891	28632.38
788.224	28351.03
788.557	28457.02
788.89	28228.33
789.223	28186.29
789.556	28149.68
789.888	27998.5
790.221	27918.73
790.554	27704.95
790.887	27765.29
791.219	27573.88
791.552	27663.59
791.884	27447.78
792.217	27350.61
792.549	27251.63
792.882	27150.39
793.214	27051.86
793.546	27081.69
793.879	26917.63
794.211	26672.21
794.543	26865.42
794.875	26792.43
795.207	26662.94
795.539	26631.98
795.871	26553.79
796.203	26266.8
796.535	26134.14
796.867	26254.14
797.198	25963.75
797.53	25909.74
797.862	25804.89
798.193	25936.41
798.525	25714.95
798.856	25782.51
799.188	25449.42
799.519	25442.86
799.85	25375.75
800.182	25365.12
800.513	25484.89
800.844	25100.27
801.175	25352.02
801.506	25216.88
801.837	24920.16
802.168	24923.1
802.499	24913.84
802.83	24719.94
803.161	24611.7
803.491	24720.4
803.822	24721.75
804.153	24486.5
804.483	24313.63
804.814	24229.56
805.145	24309.78
805.475	24244.93
805.805	24115.44
806.136	24183.46
806.466	24084.93
806.796	24074.31
807.126	23952.73
807.457	23821.44
807.787	23879.06
808.117	23732.4
808.447	23677.94
808.777	23733.53
809.107	23541.67
809.436	23395.01
809.766	23490.15
810.096	23499.86
810.426	23320.43
810.755	23305.52
811.085	23227.78
811.414	23187.1
811.744	23115.24
812.073	23036.6
812.403	22916.37
812.732	22884.74
813.061	22975.81
813.39	22796.38
813.719	22812.42
814.049	22893.32
814.378	22708.24
814.707	22609.49
815.036	22733.78
815.365	22439.33
815.693	22337.18
816.022	22423.73
816.351	22298.99
816.68	22336.96
817.008	22376.05
817.337	22066.45
817.665	22107.81
817.994	22021.71
818.322	22112.78
818.651	22012.44
818.979	21965.89
819.307	21933.8
819.636	21816.74
819.964	21832.11
820.292	21859.45
820.62	21808.38
820.948	21753.02
821.276	21828.27
821.604	21824.43
821.932	21958.66
822.259	21846.12
822.587	21757.54
822.915	21717.54
823.243	21854.71
823.57	21703.07
823.898	21824.65
824.225	21817.87
824.553	21789.4
824.88	21852.45
825.207	21882.28
825.535	21640.7
825.862	21852.45
826.189	21815.16
826.516	21882.73
826.843	21945.1
827.17	21972.22
827.497	21861.26
827.824	21908.72
828.151	21885.89
828.478	21821.71
828.805	22024.42
829.131	21994.37
829.458	21889.74
829.785	21687.48
830.111	21710.76
830.438	21875.95
830.764	21903.29
831.09	21903.97
831.417	21770.42
831.743	21752.56
832.069	21776.74
832.395	21683.19
832.722	21842.5
833.048	21734.49
833.374	21744.2
833.7	21603.19
834.026	21708.72
834.351	21602.74
834.677	21746.91
835.003	21688.61
835.329	21577.2
835.654	21566.13
835.98	21550.08
836.306	21674.83
836.631	21470.31
836.956	21631.66
837.282	21592.34
837.607	21522.74
837.932	21424.21
838.258	21424.21
838.583	21473.93
838.908	21257.44
839.233	21290.43
839.558	21177.21
839.883	21228.74
840.208	21096.99
840.533	21158.68
840.858	21119.13
841.182	21044.79
841.507	21165.46
841.832	21005.01
842.156	21012.92
842.481	20963.66
842.805	20865.81
843.13	20832.14
843.454	20723.44
843.778	20759.14
844.103	20743.55
844.427	20626.49
844.751	20778.13
845.075	20704.46
845.399	20464.91
845.723	20424.69
846.047	20459.04
846.371	20283.22
846.695	20299.27
847.019	20174.53
847.343	20122.32
847.666	20061.76
847.99	19845.5
848.313	19784.03
848.637	19819.96
848.96	19705.39
849.284	19735.67
849.607	19433.3
849.931	19541.55
850.254	19451.16
850.577	19217.26
850.9	19095.46
851.223	19197.6
851.546	19072.18
851.869	18980.66
852.192	19116.02
852.515	18889.59
852.838	18712.19
853.161	18850.95
853.483	18633.55
853.806	18627
854.129	18537.96
854.451	18509.71
854.774	18375.7
855.096	18408.47
855.419	18253.67
855.741	18199.66
856.063	18127.35
856.385	18111.08
856.708	18104.07
857.03	18007.35
857.352	18071.53
857.674	17898.65
857.996	17804.64
858.318	17758.54
858.64	17720.13
858.961	17657.3
859.283	17644.88
859.605	17604.88
859.926	17632.45
860.248	17582.05
860.57	17452.34
860.891	17409.4
861.212	17295.96
861.534	17307.48
861.855	17319.69
862.176	17257.99
862.498	17316.3
862.819	17239.46
863.14	17215.73
863.461	17112.01
863.782	17127.83
864.103	17086.7
864.424	16966.47
864.745	17101.16
865.065	16914.05
865.386	16808.74
865.707	17042.18
866.027	16954.5
866.348	16799.25
866.668	16791.34
866.989	16741.17
867.309	16619.14
867.63	16630.66
867.95	16691.68
868.27	16546.37
868.59	16666.37
868.91	16538.01
869.23	16568.97
869.55	16368.98
869.87	16515.87
870.19	16411.46
870.51	16470.44
870.83	16450.1
871.15	16313.38
871.469	16295.53
871.789	16346.6
872.109	16320.84
872.428	16302.76
872.748	16273.16
873.067	16227.96
873.386	16262.99
873.706	16134.18
874.025	16106.16
874.344	16078.81
874.663	16142.09
874.982	16053.05
875.301	16135.54
875.62	16021.64
875.939	15872.04
876.258	16098.48
876.577	15959.72
876.896	15938.03
877.214	15846.96
877.533	15920.17
877.852	15874.98
878.17	15816
878.489	15815.54
878.807	15744.13
879.125	15722.67
879.444	15774.42
879.762	15667.53
880.08	15771.03
880.398	15604.02
880.716	15684.25
881.034	15531.48
881.352	15620.52
881.67	15460.07
881.988	15573.52
882.306	15414.43
882.624	15460.53
882.941	15408.55
883.259	15343.69
883.577	15316.12
883.894	15347.76
884.212	15273.86
884.529	15284.26
884.846	15177.14
885.164	15193.87
885.481	15084.49
885.798	15144.6
886.115	15077.71
886.432	15025.51
886.75	14994.1
887.067	15024.15
887.383	14928.79
887.7	14858.28
888.017	14735.8
888.334	14852.18
888.651	14829.81
888.967	14733.54
889.284	14696.48
889.6	14605.18
889.917	14582.13
890.233	14577.39
890.55	14433.66
890.866	14511.4
891.182	14425.98
891.498	14507.33
891.815	14344.62
892.131	14359.76
892.447	14263.95
892.763	14233.21
893.079	14231.86
893.395	14216.26
893.71	14214.68
894.026	14033.22
894.342	14086.78
894.657	13961.81
894.973	13887.91
895.289	13873.67
895.604	13884.3
895.92	13782.15
896.235	13767.46
896.55	13777.18
896.865	13709.84
897.181	13678.88
897.496	13578.99
897.811	13536.51
898.126	13480.24
898.441	13459.45
898.756	13399.79
899.071	13310.07
899.386	13358.89
899.7	13235.5
900.015	13201.38
900.33	13175.84
900.644	12994.83
900.959	13078.22
901.273	13049.74
901.588	12959.8
901.902	12965.22
902.216	12900.59
902.531	12792.57
902.845	12750.77
903.159	12683.88
903.473	12703.31
903.787	12684.78
904.101	12542.86
904.415	12598.23
904.729	12441.85
905.042	12480.72
905.356	12446.82
905.67	12404.79
905.984	12394.84
906.297	12323.88
906.611	12169.76
906.924	12197.33
907.237	12177.67
907.551	12100.61
907.864	12031.92
908.177	12062.87
908.491	12012.93
908.804	11867.63
909.117	11881.64
909.43	11688.65
909.743	11700.17
910.056	11741.3
910.368	11624.24
910.681	11593.28
910.994	11590.57
911.307	11519.39
911.619	11482.78
911.932	11460.18
912.244	11284.14
912.557	11367.75
912.869	11201.88
913.181	11220.41
913.494	11249.34
913.806	11130.02
914.118	11043.47
914.43	11111.04
914.742	11093.41
915.054	10944.71
915.366	10913.53
915.678	10890.25
915.99	10831.27
916.302	10729.35
916.613	10723.48
916.925	10695.91
917.236	10750.59
917.548	10599.64
917.859	10595.57
918.171	10622.91
918.482	10442.8
918.794	10517.38
919.105	10455.91
919.416	10336.59
919.727	10331.17
920.038	10278.06
920.349	10236.48
920.66	10178.63
920.971	10110.16
921.282	10142.93
921.593	10032.65
921.903	9934.8
922.214	10001.46
922.525	9881.01
922.835	9845.98
923.146	9798.3
923.456	9717.63
923.767	9721.02
924.077	9741.13
924.387	9733.9
924.697	9642.6
925.008	9623.84
925.318	9591.08
925.628	9517.86
925.938	9516.28
926.248	9391.31
926.558	9323.96
926.867	9373
927.177	9311.99
927.487	9239.22
927.796	9227.02
928.106	9233.12
928.416	9151.77
928.725	9142.73
929.034	9083.52
929.344	9050.75
929.653	9049.85
929.962	8943.63
930.271	8930.53
930.581	8888.04
930.89	8855.5
931.199	8852.11
931.508	8778.22
931.817	8793.13
932.125	8738.22
932.434	8654.15
932.743	8561.05
933.051	8523.08
933.36	8534.83
933.669	8478.34
933.977	8438.79
934.286	8499.35
934.594	8394.72
934.902	8398.56
935.21	8279.7
935.519	8290.54
935.827	8249.64
936.135	8195.18
936.443	8210.09
936.751	8137.33
937.059	8090.55
937.367	8093.71
937.674	8101.85
937.982	8067.73
938.29	7961.74
938.597	7994.28
938.905	7880.84
939.213	7901.85
939.52	7875.64
939.827	7834.74
940.135	7758.36
940.442	7755.19
940.749	7729.66
941.056	7717.9
941.363	7688.3
941.67	7601.52
941.977	7590.22
942.284	7548.42
942.591	7531.69
942.898	7499.38
943.205	7478.14
943.511	7429.55
943.818	7382.55
944.125	7336.9
944.431	7307.97
944.738	7263.68
945.044	7278.37
945.35	7207.86
945.657	7122.21
945.963	7172.38
946.269	7068.43
946.575	7123.34
946.881	7021.88
947.187	7071.14
947.493	6980.3
947.799	6951.82
948.105	6963.35
948.41	6866.85
948.716	6874.99
949.022	6858.72
949.327	6834.76
949.633	6778.04
949.938	6777.36
950.244	6685.39
950.549	6654.43
950.854	6634.54
951.16	6695.33
951.465	6576.47
951.77	6557.26
952.075	6570.36
952.38	6493.3
952.685	6504.83
952.99	6395.91
953.294	6400.88
953.599	6424.61
953.904	6374.89
954.209	6330.82
954.513	6289.47
954.818	6272.52
955.122	6257.38
955.426	6271.84
955.731	6246.76
956.035	6152.52
956.339	6223.25
956.643	6155.23
956.948	6084.95
957.252	6070.49
957.556	6099.64
957.86	6033.65
958.163	6043.82
958.467	5992.07
958.771	5986.42
959.075	5933.32
959.378	5899.42
959.682	5928.35
959.985	5858.97
960.289	5796.15
960.592	5811.06
960.896	5784.17
961.199	5768.8
961.502	5704.85
961.805	5704.4
962.108	5657.17
962.411	5625.53
962.714	5578.98
963.017	5554.8
963.32	5631.63
963.623	5543.05
963.926	5512.09
964.228	5506.66
964.531	5489.26
964.833	5451.07
965.136	5414.46
965.438	5389.83
965.741	5379.89
966.043	5357.97
966.345	5290.4
966.648	5282.71
966.95	5307.12
967.252	5257.4
967.554	5209.04
967.856	5212.21
968.158	5199.33
968.46	5107.8
968.761	5163.17
969.063	5156.62
969.365	5101.93
969.666	5120.91
969.968	5045.88
970.269	5071.19
970.571	5021.03
970.872	4993.46
971.174	4955.27
971.475	4938.99
971.776	4933.12
972.077	4903.74
972.378	4851.09
972.679	4886.57
972.98	4873.01
973.281	4819.22
973.582	4819.45
973.883	4822.39
974.183	4737.87
974.484	4757.76
974.785	4709.17
975.085	4706.68
975.386	4677.08
975.686	4633.69
975.986	4639.79
976.287	4612.9
976.587	4607.25
976.887	4554.37
977.187	4571.09
977.487	4542.17
977.787	4537.88
978.087	4499.91
978.387	4465.56
978.687	4445
978.987	4394.15
979.286	4373.13
979.586	4439.12
979.885	4366.58
980.185	4328.16
980.484	4311.67
980.784	4294.49
981.083	4296.07
981.382	4289.75
981.682	4270.54
981.981	4218.79
982.28	4233.02
982.579	4180.14
982.878	4182.86
983.177	4166.81
983.475	4147.6
983.774	4124.78
984.073	4093.37
984.372	4087.72
984.67	4068.28
984.969	4041.62
985.267	4045.23
985.566	4017.89
985.864	3982.41
986.162	3979.47
986.461	3961.39
986.759	3934.5
987.057	3913.94
987.355	3901.51
987.653	3888.17
987.951	3894.73
988.249	3873.71
988.547	3843.88
988.844	3815.18
989.142	3789.19
989.44	3790.32
989.737	3793.49
990.035	3726.37
990.332	3712.13
990.63	3679.59
990.927	3693.15
991.224	3654.06
991.521	3658.35
991.819	3633.27
992.116	3604.11
992.413	3617
992.71	3534.96
993.006	3559.6
993.303	3539.71
993.6	3542.42
993.897	3551.69
994.193	3497
994.49	3482.08
994.787	3469.43
995.083	3457.45
995.379	3421.29
995.676	3413.16
995.972	3358.7
996.268	3360.73
996.565	3336.78
996.861	3370.22
997.157	3354.4
997.453	3304.01
997.749	3337.45
998.044	3263.56
998.34	3254.74
998.636	3185.59
998.932	3236.67
999.227	3146.73
999.523	3159.83
999.818	3145.14
1000.114	3143.56
1000.409	3110.12
1000.704	3111.92
1001	3113.73
1001.295	3067.86
1001.59	3057.69
1001.885	3055.88
1002.18	3038.25
1002.475	3037.8
1002.77	3025.37
1003.065	2950.35
1003.359	2974.98
1003.654	2936.34
1003.949	2915.32
1004.243	2924.81
1004.538	2907.41
1004.832	2890.69
1005.127	2861.76
1005.421	2813.63
1005.715	2845.49
1006.009	2858.6
1006.304	2770.69
1006.598	2793.97
1006.892	2774.53
1007.186	2716.91
1007.48	2739.73
1007.773	2732.27
1008.067	2708.09
1008.361	2663.35
1008.655	2690.24
1008.948	2666.96
1009.242	2626.06
1009.535	2611.15
1009.829	2627.64
1010.122	2613.18
1010.415	2565.95
1010.708	2556.68
1011.001	2553.07
1011.295	2528.44
1011.588	2491.38
1011.881	2436.69
1012.173	2468.1
1012.466	2476.23
1012.759	2474.43
1013.052	2456.35
1013.344	2446.4
1013.637	2440.53
1013.93	2424.26
1014.222	2381.1
1014.514	2339.97
1014.807	2330.25
1015.099	2354.66
1015.391	2309.91
1015.683	2307.88
1015.976	2303.13
1016.268	2281.44
1016.56	2265.39
1016.851	2287.31
1017.143	2262.91
1017.435	2217.71
1017.727	2176.13
1018.018	2202.12
1018.31	2203.02
1018.602	2167.77
1018.893	2166.41
1019.185	2155.56
1019.476	2112.85
1019.767	2125.06
1020.058	2107.43
1020.35	2108.79
1020.641	2036.7
1020.932	2004.16
1021.223	2025.62
1021.514	1996.92
1021.804	2015
1022.095	2007.32
1022.386	1962.8
1022.677	1963.71
1022.967	1942.01
1023.258	1930.26
1023.548	1906.31
1023.839	1900.2
1024.129	1891.84
1024.419	1892.97
1024.709	1853.65
1025	1875.35
1025.29	1829.02
1025.58	1828.12
1025.87	1826.99
1026.16	1806.2
1026.449	1802.13
1026.739	1764.39
1027.029	1760.55
1027.319	1761.9
1027.608	1756.25
1027.898	1732.75
1028.187	1727.33
1028.477	1709.47
1028.766	1682.36
1029.055	1684.62
1029.344	1673.32
1029.634	1676.71
1029.923	1648.69
1030.212	1632.64
1030.501	1636.03
1030.79	1632.64
1031.078	1616.14
1031.367	1595.58
1031.656	1567.11
1031.945	1568.91
1032.233	1559.2
1032.522	1558.97
1032.81	1521.91
1033.099	1545.41
1033.387	1525.3
1033.675	1517.16
1033.963	1498.18
1034.251	1493.44
1034.54	1495.24
1034.828	1493.44
1035.116	1470.39
1035.403	1437.84
1035.691	1450.27
1035.979	1449.14
1036.267	1432.87
1036.554	1449.37
1036.842	1403.72
1037.129	1397.17
1037.417	1404.85
1037.704	1369.6
1037.992	1380.67
1038.279	1343.83
1038.566	1373.21
1038.853	1373.21
1039.14	1373.21
