Data from 19-1250_FLMS001491_006.txt Node
Date: Thu Apr 19 16:28:23 BST 2018
User: hsy
Spectrometer: FLMS00149
Trigger mode: 0
Integration Time (sec): 1.000000E-2
Scans to average: 10
Electric dark correction enabled: true
Nonlinearity correction enabled: false
Boxcar width: 0
XAxis mode: Wavelengths
Number of Pixels in Spectrum: 2048
>>>>>Begin Spectral Data<<<<<
341.393	-22.54
341.776	-22.54
342.16	-22.54
342.543	-61.18
342.927	-76.55
343.31	-55.31
343.693	-72.26
344.077	-70.22
344.46	-62.31
344.843	-65.25
345.226	-43.56
345.61	-22.77
345.993	-3.11
346.376	-10.79
346.759	15.65
347.142	26.95
347.525	34.63
347.908	66.95
348.291	51.58
348.674	100.39
349.057	109.43
349.44	137.91
349.823	139.26
350.206	171.58
350.588	243.44
350.971	249.77
351.354	242.08
351.737	285.02
352.119	279.6
352.502	290.67
352.884	299.03
353.267	316.66
353.65	325.02
354.032	332.93
354.414	346.04
354.797	341.06
355.179	360.72
355.562	360.5
355.944	353.27
356.326	361.85
356.709	350.56
357.091	362.76
357.473	383.32
357.855	363.89
358.238	350.78
358.62	381.29
359.002	384
359.384	378.13
359.766	355.3
360.148	378.8
360.53	406.37
360.912	376.77
361.294	367.5
361.676	383.32
362.057	374.28
362.439	371.57
362.821	365.7
363.203	390.33
363.584	369.99
363.966	381.06
364.348	353.95
364.729	354.62
365.111	359.37
365.493	385.58
365.874	377.67
366.256	364.11
366.637	367.28
367.019	369.54
367.4	365.47
367.781	353.72
368.163	347.39
368.544	390.78
368.925	374.51
369.306	383.1
369.688	385.58
370.069	353.04
370.45	366.37
370.831	377
371.212	368.41
371.593	370.44
371.974	353.72
372.355	383.78
372.736	391.23
373.117	362.08
373.498	377.9
373.879	361.18
374.26	364.34
374.641	393.49
375.021	395.3
375.402	394.17
375.783	396.43
376.163	401.4
376.544	409.09
376.925	364.34
377.305	404.57
377.686	405.92
378.066	417.45
378.447	434.62
378.827	424.45
379.208	419.93
379.588	416.32
379.968	408.63
380.349	401.18
380.729	410.44
381.109	428.52
381.489	422.87
381.87	454.28
382.25	433.27
382.63	420.84
383.01	432.36
383.39	437.33
383.77	443.89
384.15	426.03
384.53	445.02
384.91	441.17
385.29	454.73
385.67	445.24
386.049	471
386.429	440.04
386.809	454.96
387.189	463.32
387.568	460.38
387.948	474.85
388.328	487.73
388.707	476.2
389.087	462.87
389.466	493.6
389.846	491.34
390.225	505.81
390.605	506.94
390.984	498.8
391.363	492.47
391.743	515.75
392.122	515.3
392.501	522.53
392.881	519.82
393.26	535.64
393.639	548.52
394.018	524.56
394.397	518.01
394.776	518.69
395.155	540.83
395.534	541.96
395.913	532.47
396.292	541.06
396.671	552.36
397.05	574.96
397.429	553.49
397.808	569.53
398.186	555.3
398.565	568.18
398.944	567.95
399.323	576.54
399.701	561.17
400.08	571.11
400.458	571.11
400.837	586.03
401.215	588.52
401.594	581.28
401.972	572.47
402.351	589.19
402.729	612.92
403.107	613.83
403.486	631
403.864	632.81
404.242	651.56
404.62	632.58
404.999	651.34
405.377	623.77
405.755	658.34
406.133	663.09
406.511	668.29
406.889	669.19
407.267	690.43
407.645	682.07
408.023	669.64
408.401	699.25
408.779	688.4
409.156	734.95
409.534	728.85
409.912	712.58
410.29	753.03
410.667	729.3
411.045	742.64
411.422	731.56
411.8	775.4
412.178	785.12
412.555	786.25
412.933	772.24
413.31	781.5
413.687	815.18
414.065	790.09
414.442	812.24
414.819	804.33
415.197	832.58
415.574	847.27
415.951	866.25
416.328	837.55
416.705	867.6
417.082	858.79
417.46	853.59
417.837	892.01
418.214	878.45
418.591	894.5
418.967	885
419.344	915.96
419.721	922.29
420.098	916.19
420.475	932.46
420.852	946.92
421.228	928.39
421.605	940.14
421.982	946.02
422.358	964.32
422.735	978.11
423.111	966.81
423.488	977.66
423.864	995.06
424.241	1003.42
424.617	985.79
424.994	1018.33
425.37	1032.12
425.746	1039.35
426.123	1029.18
426.499	1023.08
426.875	1047.94
427.251	1108.95
427.627	1112.34
428.003	1113.93
428.379	1128.61
428.756	1118.9
429.132	1133.36
429.507	1153.47
429.883	1135.39
430.259	1172.46
430.635	1154.15
431.011	1186.47
431.387	1209.97
431.763	1231.44
432.138	1227.37
432.514	1261.04
432.89	1259.23
433.265	1288.38
433.641	1315.5
434.016	1281.6
434.392	1300.36
434.767	1354.15
435.143	1327.93
435.518	1388.72
435.894	1369.74
436.269	1370.42
436.644	1409.06
437.02	1409.51
437.395	1416.06
437.77	1445.89
438.145	1450.19
438.52	1448.83
438.895	1484.09
439.271	1458.55
439.646	1499.23
440.021	1551.2
440.395	1518.43
440.77	1501.94
441.145	1525.21
441.52	1574.25
441.895	1536.06
442.27	1556.4
442.645	1564.54
443.019	1569.96
443.394	1596.17
443.769	1630.52
444.143	1598.43
444.518	1635.27
444.892	1597.75
445.267	1621.26
445.641	1645.66
446.016	1639.56
446.39	1688.6
446.764	1667.13
447.139	1654.93
447.513	1719.11
447.887	1696.51
448.262	1719.56
448.636	1718.2
449.01	1735.15
449.384	1742.61
449.758	1770.63
450.132	1806.34
450.506	1785.77
450.88	1820.8
451.254	1820.12
451.628	1828.26
452.002	1840.46
452.376	1882.04
452.75	1930.18
453.123	1885.88
453.497	1955.03
453.871	1943.96
454.244	1979.44
454.618	1992.77
454.992	2040.45
455.365	2028.48
455.739	2082.04
456.112	2079.55
456.486	2113.45
456.859	2167.23
457.232	2150.73
457.606	2161.36
457.979	2186.21
458.352	2280.45
458.725	2276.38
459.099	2316.83
459.472	2317.06
459.845	2371.07
460.218	2386.66
460.591	2375.59
460.964	2376.72
461.337	2440.44
461.71	2515.47
462.083	2526.77
462.456	2584.85
462.829	2569.71
463.201	2579.65
463.574	2578.29
463.947	2642.92
464.32	2669.59
464.692	2696.03
465.065	2709.82
465.438	2758.63
465.81	2774.22
466.183	2768.35
466.555	2867.33
466.928	2865.29
467.3	2869.59
467.672	2929.25
468.045	2985.97
468.417	3004.5
468.789	3036.59
469.161	3050.6
469.534	3086.53
469.906	3147.77
470.278	3171.05
470.65	3235
471.022	3275.45
471.394	3318.39
471.766	3352.51
472.138	3373.98
472.51	3426.86
472.882	3489
473.253	3509.57
473.625	3599.51
473.997	3633.86
474.369	3643.12
474.74	3686.51
475.112	3734.87
475.484	3814.19
475.855	3869.33
476.227	3915.89
476.598	4017.35
476.97	4086.05
477.341	4166.73
477.713	4241.98
478.084	4232.26
478.455	4399.26
478.827	4390.22
479.198	4479.26
479.569	4538.24
479.94	4625.47
480.311	4703.66
480.682	4834.73
481.053	4933.71
481.424	4999.7
481.795	4994.28
482.166	5105.68
482.537	5158.56
482.908	5296.41
483.279	5342.06
483.65	5480.82
484.021	5562.62
484.391	5619.57
484.762	5681.94
485.133	5747.02
485.503	5855.72
485.874	5975.04
486.244	6026.34
486.615	6196.73
486.985	6288.7
487.356	6365.31
487.726	6509.94
488.097	6595.36
488.467	6587.23
488.837	6786.77
489.207	6800.78
489.578	6941.34
489.948	7023.15
490.318	7236.25
490.688	7224.5
491.058	7397.6
491.428	7452.52
491.798	7501.78
492.168	7723.24
492.538	7786.52
492.908	7898.61
493.278	8020.18
493.648	8013.63
494.017	8189.45
494.387	8284.58
494.757	8312.83
495.126	8409.78
495.496	8606.84
495.866	8624.46
496.235	8664.46
496.605	8884.79
496.974	8864.68
497.344	8984
497.713	9085.69
498.082	9072.81
498.452	9236.65
498.821	9293.15
499.19	9295.86
499.559	9396.19
499.928	9515.96
500.298	9712.12
500.667	9682.97
501.036	9790.99
501.405	9845.67
501.774	9875.28
502.143	9936.29
502.512	10114.14
502.88	10119.56
503.249	10145.1
503.618	10237.98
503.987	10393.68
504.356	10459.67
504.724	10510.51
505.093	10559.55
505.462	10610.85
505.83	10724.97
506.199	10766.1
506.567	10926.77
506.936	10934.46
507.304	10969.49
507.672	11163.15
508.041	11244.96
508.409	11301
508.777	11451.28
509.145	11523.6
509.514	11519.08
509.882	11603.14
510.25	11682.24
510.618	11796.81
510.986	11818.28
511.354	11964.04
511.722	12145.73
512.09	12257.59
512.458	12190.92
512.826	12339.62
513.193	12457.13
513.561	12450.12
513.929	12599.73
514.297	12667.29
514.664	12794.75
515.032	12839.72
515.4	12965.59
515.767	13086.72
516.135	13165.36
516.502	13122.65
516.869	13414.62
517.237	13508.18
517.604	13476.99
517.972	13617.33
518.339	13664.78
518.706	13829.98
519.073	13850.54
519.44	14013.93
519.808	14107.26
520.175	14153.81
520.542	14343.63
520.909	14398.77
521.276	14568.94
521.643	14732.1
522.009	14761.02
522.376	14903.62
522.743	15002.37
523.11	15143.61
523.477	15343.83
523.843	15372.76
524.21	15583.15
524.577	15706.99
524.943	15790.6
525.31	15866.53
525.676	16089.12
526.043	16229.01
526.409	16392.17
526.776	16508.55
527.142	16601.2
527.508	16751.93
527.874	16886.17
528.241	16941.98
528.607	16993.28
528.973	17263.78
529.339	17315.99
529.705	17551.91
530.071	17664
530.437	17785.13
530.803	17928.62
531.169	18004.78
531.535	18165
531.901	18241.16
532.267	18258.33
532.632	18467.14
532.998	18459.91
533.364	18606.57
533.73	18745.1
534.095	18856.51
534.461	18909.39
534.826	19087.92
535.192	19183.51
535.557	19242.04
535.923	19391.86
536.288	19396.61
536.653	19551.63
537.019	19528.36
537.384	19635.02
537.749	19830.5
538.114	19915.24
538.479	19876.14
538.845	20035.46
539.21	19972.86
539.575	20051.73
539.94	20139.41
540.305	20300.09
540.67	20334.66
541.034	20404.94
541.399	20527.65
541.764	20620.53
542.129	20636.58
542.494	20675.67
542.858	20761.32
543.223	20676.35
543.587	20952.73
543.952	20907.76
544.316	21051.48
544.681	21096.45
545.045	21243.79
545.41	21249.89
545.774	21258.71
546.138	21331.02
546.503	21563.56
546.867	21405.37
547.231	21641.3
547.595	21716.77
547.959	21769.88
548.324	21886.03
548.688	21940.72
549.052	21935.52
549.416	21989.31
549.779	22098.68
550.143	22216.2
550.507	22267.72
550.871	22407.38
551.235	22333.48
551.599	22625.45
551.962	22701.38
552.326	22775.5
552.689	22695.05
553.053	22755.84
553.417	22864.54
553.78	23076.06
554.143	23137.53
554.507	23079.22
554.87	23341.59
555.234	23554.92
555.597	23403.28
555.96	23492.09
556.323	23649.83
556.686	23731.18
557.05	23900.67
557.413	23994.68
557.776	23999.65
558.139	24232.64
558.502	24191.96
558.865	24415.23
559.228	24626.98
559.59	24671.27
559.953	24677.15
560.316	25019.06
560.679	25007.31
561.041	25241.2
561.404	25276.23
561.767	25493.17
562.129	25528.65
562.492	25875.99
562.854	25812.94
563.217	25835.08
563.579	25937
563.941	26182.87
564.304	26378.57
564.666	26585.8
565.028	26639.81
565.39	26758.22
565.753	26907.82
566.115	26985.34
566.477	27162.96
566.839	27327.47
567.201	27515.94
567.563	27482.05
567.925	27917.29
568.287	27851.75
568.648	28025.31
569.01	28232.53
569.372	28525.86
569.734	28599.08
570.095	28678.17
570.457	29004.94
570.819	28986.64
571.18	28983.25
571.542	29312.73
571.903	29439.96
572.265	29624.81
572.626	29710.24
572.987	29758.37
573.349	30033.17
573.71	30166.27
574.071	30328.07
574.432	30455.53
574.794	30767.38
575.155	30766.71
575.516	30773.94
575.877	30878.34
576.238	31013.48
576.599	31210.08
576.96	31312.91
577.32	31405.56
577.681	31506.8
578.042	31788.15
578.403	31760.58
578.763	31864.3
579.124	32059.78
579.485	32288.02
579.845	32316.95
580.206	32207.35
580.566	32276.95
580.927	32376.38
581.287	32561.23
581.648	32594.45
582.008	32763.71
582.368	32826.09
582.728	32896.82
583.089	32891.17
583.449	33008.68
583.809	33249.58
584.169	33286.41
584.529	33196.02
584.889	33675.33
585.249	33395.56
585.609	33453.87
585.969	33753.07
586.329	33776.12
586.688	33981.54
587.048	34059.27
587.408	33992.84
587.768	34154.41
588.127	34255.65
588.487	34321.64
588.846	34716.66
589.206	34446.16
589.565	34581.07
589.925	34957.33
590.284	35040.49
590.643	35104.67
591.003	35371.78
591.362	35598.22
591.721	35666.24
592.08	35802.28
592.44	36052.67
592.799	36084.08
593.158	36084.31
593.517	36251.08
593.876	36589.83
594.235	36731.75
594.593	36684.52
594.952	36889.26
595.311	36907.33
595.67	37208.8
596.029	37434.78
596.387	37545.51
596.746	37863.92
597.104	37767.88
597.463	37925.84
597.822	38237.02
598.18	38146.85
598.538	38395.21
598.897	38726.72
599.255	38705.48
599.613	39191.12
599.972	39017.56
600.33	39359.25
600.688	39297.33
601.046	39597.21
601.404	39979.57
601.762	40052.34
602.12	40258.66
602.478	40342.95
602.836	40543.85
603.194	40300.69
603.552	40726.67
603.91	40796.72
604.268	40910.17
604.625	41009.37
604.983	41381.57
605.341	41210.95
605.698	41641.67
606.056	41811.16
606.413	41727.09
606.771	42044.37
607.128	42215.9
607.485	42086.18
607.843	42174.09
608.2	42492.27
608.557	42746.96
608.914	42726.84
609.272	43061.75
609.629	43231.24
609.986	43388.07
610.343	43321.86
610.7	43728.4
611.057	43739.47
611.414	43751.22
611.771	43910.99
612.127	44071.89
612.484	44264.43
612.841	44343.3
613.198	44313.69
613.554	44541.71
613.911	44851.98
614.267	44833.68
614.624	44660.13
614.98	45098.76
615.337	45184.18
615.693	45112.54
616.05	45257.85
616.406	45487.67
616.762	45333.1
617.118	45529.25
617.475	45555.69
617.831	45681.12
618.187	45867.55
618.543	45837.95
618.899	46090.82
619.255	46041.33
619.611	46057.6
619.967	46301.44
620.323	46336.24
620.678	46372.85
621.034	46319.29
621.39	46303.25
621.746	46494.88
622.101	46884.93
622.457	46603.12
622.812	46844.47
623.168	46929.22
623.523	46806.51
623.879	47079.5
624.234	46771.03
624.589	46952.49
624.945	47007.86
625.3	46979.84
625.655	47088.54
626.01	47165.6
626.365	47074.75
626.72	47002.44
627.075	46935.55
627.43	47044.24
627.785	47177.12
628.14	47132.15
628.495	47152.94
628.85	47114.52
629.205	47126.5
629.559	47179.83
629.914	46983
630.269	47049.44
630.623	46854.19
630.978	46790.24
631.332	47037.92
631.687	47120.17
632.041	46927.64
632.396	47090.34
632.75	46950.01
633.104	46977.35
633.459	46695.78
633.813	46752.73
634.167	46726.96
634.521	46900.29
634.875	46768.09
635.229	46784.14
635.583	46642.22
635.937	46585.95
636.291	46547.31
636.645	46578.94
636.999	46384.15
637.352	46605.61
637.706	46278.16
638.06	46479.96
638.413	46327.65
638.767	46241.33
639.121	46325.84
639.474	46210.14
639.828	46129.92
640.181	46027.32
640.534	46122.46
640.888	45971.28
641.241	45852.41
641.594	45791.17
641.947	46025.96
642.301	45753.66
642.654	45823.94
643.007	45710.27
643.36	45857.83
643.713	45701.45
644.066	45805.86
644.419	45673.88
644.771	45231.64
645.124	44852.66
645.477	44739.45
645.83	44534.93
646.182	44764.98
646.535	44526.12
646.888	44547.13
647.24	44539
647.593	44745.32
647.945	44671.65
648.298	44466.68
648.65	44205.9
649.002	44045.45
649.355	43698.34
649.707	43556.88
650.059	43620.83
650.411	44245.45
650.763	44466.01
651.115	45101.47
651.467	44902.83
651.819	44912.55
652.171	44779.9
652.523	44766.11
652.875	44746.9
653.227	44596.17
653.578	44796.84
653.93	44798.88
654.282	44476.63
654.633	44539.45
654.985	44665.1
655.337	44628.94
655.688	44649.96
656.039	44720.69
656.391	44240.02
656.742	44462.84
657.094	44317.99
657.445	44553.01
657.796	44369.74
658.147	44419.91
658.498	44394.6
658.849	44371.32
659.2	44210.19
659.551	44233.02
659.902	44494.03
660.253	44390.53
660.604	44423.97
660.955	44266.24
661.306	44543.07
661.656	44203.19
662.007	44324.54
662.358	44220.14
662.708	44481.6
663.059	44267.82
663.409	44259.46
663.76	44461.71
664.11	44375.16
664.461	44484.31
664.811	44463.52
665.161	44459.68
665.511	44320.7
665.862	44467.81
666.212	44460.13
666.562	44488.15
666.912	44379
667.262	44379.68
667.612	44450.19
667.962	44405.22
668.312	44374.71
668.662	44541.71
669.011	44506.23
669.361	44266.69
669.711	44394.82
670.06	44367.48
670.41	44232.11
670.76	44254.49
671.109	44269.63
671.459	44334.26
671.808	44365.67
672.157	44429.4
672.507	44066.69
672.856	44119.57
673.205	43994.38
673.554	44249.06
673.904	44044.1
674.253	44365.67
674.602	44124.77
674.951	43512.13
675.3	43335.41
675.649	44047.71
675.998	43927.94
676.346	44103.08
676.695	44018.56
677.044	43894.04
677.393	43883.2
677.741	43913.03
678.09	43883.42
678.438	43787.61
678.787	43962.06
679.135	43874.16
679.484	43716.42
679.832	43733.37
680.181	43564.56
680.529	43730.66
680.877	43527.27
681.225	43387.62
681.573	43650.89
681.922	43389.42
682.27	43206.6
682.618	43339.93
682.966	43197.79
683.314	43203.67
683.661	43196.66
684.009	42879.61
684.357	42879.61
684.705	42704.92
685.053	42886.39
685.4	42650.46
685.748	42469.22
686.095	42729.1
686.443	42312.84
686.79	42388.32
687.138	42510.35
687.485	42375.44
687.832	42153.98
688.18	42026.3
688.527	42085.28
688.874	42007.77
689.221	42082.34
689.568	41657.72
689.915	41626.31
690.262	41557.38
690.609	41607.1
690.956	41323.94
691.303	41448.01
691.65	41084.63
691.997	41205.75
692.344	40963.95
692.69	40935.93
693.037	40896.16
693.383	40577.29
693.73	40776.84
694.077	40528.71
694.423	40428.37
694.769	40326.23
695.116	40323.74
695.462	40073.81
695.808	40035.16
696.155	40069.51
696.501	39707.71
696.847	39707.49
697.193	39414.16
697.539	39708.39
697.885	39139.59
698.231	39050.78
698.577	39059.37
698.923	39112.25
699.269	38850.56
699.614	38712.48
699.96	38474.53
700.306	38514.75
700.651	38367.41
700.997	38274.08
701.342	38094.42
701.688	38057.81
702.033	37968.1
702.379	37874.31
702.724	37626.41
703.069	37626.86
703.415	37220.77
703.76	37239.98
704.105	37215.35
704.45	37032.3
704.795	36924.28
705.14	36892.42
705.485	36871.63
705.83	36548.25
706.175	36730.84
706.52	36539.89
706.865	36522.49
707.209	36398.42
707.554	36351.64
707.899	36328.59
708.243	36184.19
708.588	35957.3
708.932	35904.2
709.277	35893.8
709.621	35656.52
709.966	35478.9
710.31	35408.62
710.654	35318.9
710.998	35363.19
711.342	35403.87
711.687	35231.9
712.031	35186.93
712.375	35073.71
712.719	34979.25
713.063	34977.89
713.407	35076.2
713.75	34773.15
714.094	34805.02
714.438	34598.47
714.782	34518.7
715.125	34495.65
715.469	34676.21
715.812	34319.61
716.156	34224.47
716.499	34256.78
716.843	34312.6
717.186	34012.04
717.53	34306.95
717.873	34201.42
718.216	34144.24
718.559	34076
718.902	33833.97
719.246	33764.82
719.589	33733.41
719.932	33659.51
720.275	33588.33
720.617	33591.72
720.96	33625.61
721.303	33545.84
721.646	33535.67
721.989	33422.91
722.331	33434.66
722.674	33476.92
723.016	33318.05
723.359	33128.45
723.701	33296.81
724.044	32998.51
724.386	33142.91
724.729	33107.43
725.071	33045.52
725.413	32922.58
725.755	32939.98
726.097	32838.97
726.439	32815.01
726.782	32801.68
727.124	32987.66
727.465	32843.03
727.807	32647.56
728.149	32744.28
728.491	32672.19
728.833	32655.92
729.175	32800.55
729.516	32639.42
729.858	32614.79
730.199	32636.49
730.541	32558.3
730.882	32396.72
731.224	32431.52
731.565	32408.7
731.906	32479.2
732.248	32437.62
732.589	32369.37
732.93	32344.74
733.271	32408.92
733.612	32430.39
733.953	32530.27
734.294	32388.36
734.635	32208.02
734.976	32480.56
735.317	32362.6
735.658	32252.99
735.999	32245.08
736.339	32279.66
736.68	32316.72
737.021	32372.76
737.361	32236.05
737.702	32413.22
738.042	32252.09
738.383	32246.21
738.723	32402.14
739.063	32236.5
739.404	32379.09
739.744	32249.83
740.084	32275.82
740.424	32282.37
740.764	32199.21
741.104	32400.56
741.444	32286.44
741.784	32229.49
742.124	32427.23
742.464	32244.63
742.804	32410.96
743.143	32370.5
743.483	32461.58
743.823	32351.97
744.162	32282.15
744.502	32593.78
744.841	32372.31
745.181	32605.98
745.52	32465.64
745.86	32606.88
746.199	32683.26
746.538	32550.84
746.877	32783.83
747.216	32730.95
747.556	32786.99
747.895	32909.47
748.234	32671.29
748.573	32828.12
748.911	32843.49
749.25	32703.38
749.589	32772.53
749.928	32932.3
750.267	33211.61
750.605	32899.3
750.944	32942.02
751.283	32961.22
751.621	33131.61
751.96	32964.39
752.298	33243.48
752.636	33174.1
752.975	33249.13
753.313	33203.25
753.651	33398.05
753.989	33252.74
754.327	33330.03
754.666	33184.49
755.004	33445.28
755.342	33455.45
755.679	33510.59
756.017	33394.43
756.355	33590.13
756.693	33633.52
757.031	33707.19
757.368	33458.84
757.706	33627.42
758.044	33624.71
758.381	33593.52
758.719	33486.18
759.056	33558.5
759.394	33594.43
759.731	33466.52
760.068	33547.2
760.405	33634.88
760.743	33618.61
761.08	33626.52
761.417	33556.24
761.754	33528.89
762.091	33453.87
762.428	33411.61
762.765	33320.54
763.102	33487.76
763.438	33439.86
763.775	33282.8
764.112	33421.1
764.449	33438.27
764.785	33386.07
765.122	33089.58
765.458	33187.21
765.795	33181.1
766.131	33105.85
766.467	33124.84
766.804	32902.69
767.14	32890.27
767.476	32793.32
767.812	32879.42
768.148	32902.47
768.485	32745.18
768.821	32612.53
769.157	32500.22
769.492	32452.08
769.828	32497.28
770.164	32157.86
770.5	32297.51
770.836	32165.31
771.171	32041.93
771.507	32027.46
771.842	31759.9
772.178	31820.46
772.513	31747.24
772.849	31663.18
773.184	31659.11
773.519	31648.49
773.855	31416.63
774.19	31575.27
774.525	31149.97
774.86	31265.9
775.195	31194.49
775.53	31019.81
775.865	30870.88
776.2	30728.06
776.535	30573.26
776.87	30554.51
777.205	30420.05
777.539	30367.85
777.874	30448.07
778.209	30040.62
778.543	30064.12
778.878	30010.34
779.212	30031.36
779.547	29763.79
779.881	29609.22
780.215	29517.92
780.55	29576.23
780.884	29307.53
781.218	29284.94
781.552	29391.15
781.886	29108.44
782.22	28908.45
782.554	28881.78
782.888	28591.85
783.222	28664.16
783.556	28600.43
783.889	28422.81
784.223	28266.88
784.557	28296.04
784.89	28337.62
785.224	28056.49
785.557	27927.23
785.891	27916.16
786.224	27859.89
786.558	27895.59
786.891	27616.73
787.224	27429.62
787.557	27381.48
787.891	27263.52
788.224	27248.38
788.557	27234.37
788.89	27250.64
789.223	27055.84
789.556	26849.97
789.888	26851.33
790.221	26774.95
790.554	26605.68
790.887	26645.91
791.219	26465.35
791.552	26437.33
791.884	26241.85
792.217	26113.04
792.549	26015.87
792.882	25899.04
793.214	25890.68
793.546	25825.82
793.879	25791.02
794.211	25475.77
794.543	25735.88
794.875	25615.43
795.207	25455.43
795.539	25250.01
795.871	25379.05
796.203	25290.01
796.535	25052.96
796.867	25116.46
797.198	24926.18
797.53	24928.89
797.862	24787.43
798.193	24825.84
798.525	24730.71
798.856	24870.59
799.188	24424.73
799.519	24294.33
799.85	24277.61
800.182	24227.89
800.513	24337.04
800.844	23919.65
801.175	24219.53
801.506	24176.6
801.837	23966.43
802.168	23993.78
802.499	23861.58
802.83	23722.82
803.161	23578.19
803.491	23612.99
803.822	23646.89
804.153	23440.8
804.483	23282.61
804.814	23322.61
805.145	23279.9
805.475	23218.88
805.805	23113.35
806.136	23090.52
806.466	23130.52
806.796	22943.41
807.126	22896.63
807.457	22865.22
807.787	22857.99
808.117	22758.33
808.447	22650.99
808.777	22756.52
809.107	22587.26
809.436	22523.08
809.766	22506.13
810.096	22533.7
810.426	22353.59
810.755	22413.03
811.085	22286.93
811.414	22457.32
811.744	22099.81
812.073	22138.91
812.403	22031.57
812.732	21903.21
813.061	22102.98
813.39	21866.15
813.719	21838.35
814.049	21962.42
814.378	21858.92
814.707	21680.39
815.036	21873.83
815.365	21582.77
815.693	21476.1
816.022	21533.73
816.351	21426.16
816.68	21266.84
817.008	21316.56
817.337	21154.53
817.665	21139.39
817.994	21136.68
818.322	21285.37
818.651	21122.44
818.979	21038.15
819.307	21052.38
819.636	21036.79
819.964	20837.02
820.292	20924.03
820.62	20894.42
820.948	20947.53
821.276	20958.6
821.604	20911.15
821.932	20971.03
822.259	20918.38
822.587	20900.3
822.915	20843.35
823.243	20862.11
823.57	20685.39
823.898	20871.82
824.225	20846.74
824.553	20745.27
824.88	20771.04
825.207	20945.95
825.535	20746.86
825.862	20906.85
826.189	20842.9
826.516	20978.26
826.843	21035.21
827.17	20924.25
827.497	20900.75
827.824	20860.07
828.151	21033.4
828.478	20824.59
828.805	20978.49
829.131	20788.66
829.458	20785.5
829.785	20647.2
830.111	20792.96
830.438	21044.7
830.764	20803.8
831.09	20790.92
831.417	20813.52
831.743	20892.39
832.069	20752.51
832.395	20786.18
832.722	20860.3
833.048	20756.35
833.374	20838.83
833.7	20678.38
834.026	20739.4
834.351	20758.38
834.677	20797.93
835.003	20778.49
835.329	20675.9
835.654	20552.06
835.98	20566.75
836.306	20691.72
836.631	20617.14
836.956	20776.46
837.282	20682.68
837.607	20572.85
837.932	20594.09
838.258	20507.31
838.583	20524.94
838.908	20496.69
839.233	20483.59
839.558	20379.41
839.883	20415.79
840.208	20233.42
840.533	20366.3
840.858	20281.33
841.182	20283.59
841.507	20237.26
841.832	20226.19
842.156	20177.83
842.481	20157.04
842.805	20118.4
843.13	20059.42
843.454	19965.63
843.778	20027.1
844.103	19900.1
844.427	19905.07
844.751	19813.32
845.075	19857.39
845.399	19716.6
845.723	19712.08
846.047	19712.31
846.371	19530.62
846.695	19427.79
847.019	19426.44
847.343	19293.79
847.666	19223.96
847.99	19160.91
848.313	18971.76
848.637	19085.43
848.96	19063.96
849.284	18970.41
849.607	18851.76
849.931	18729.28
850.254	18784.2
850.577	18658.77
850.9	18405
851.223	18437.31
851.546	18419.01
851.869	18267.6
852.192	18363.19
852.515	18126.13
852.838	18044.33
853.161	18087.26
853.483	17941.96
853.806	17939.47
854.129	17855.18
854.451	17906.48
854.774	17730.66
855.096	17626.94
855.419	17639.14
855.741	17561.85
856.063	17529.31
856.385	17434.63
856.708	17407.06
857.03	17310.56
857.352	17332.03
857.674	17246.16
857.996	17097.69
858.318	17110.79
858.64	17105.82
858.961	17046.39
859.283	16983.56
859.605	16879.61
859.926	16943.34
860.248	16812.95
860.57	16816.11
860.891	16832.61
861.212	16631.71
861.534	16636.23
861.855	16568.66
862.176	16593.07
862.498	16577.93
862.819	16552.62
863.14	16564.59
863.461	16500.19
863.782	16492.05
864.103	16486.4
864.424	16363.92
864.745	16349.91
865.065	16261.32
865.386	16186.98
865.707	16261.55
866.027	16286.41
866.348	16261.55
866.668	16157.15
866.989	16113.08
867.309	15993.08
867.63	15964.61
867.95	16066.53
868.27	15883.03
868.59	16004.61
868.91	15864.05
869.23	15907.66
869.55	15928.68
869.87	15927.55
870.19	15876.7
870.51	15811.17
870.83	15759.64
871.15	15584.73
871.469	15745.86
871.789	15706.08
872.109	15583.83
872.428	15650.49
872.748	15712.41
873.067	15574.11
873.386	15604.17
873.706	15531.4
874.025	15556.94
874.344	15473.1
874.663	15533.66
874.982	15499.31
875.301	15426.77
875.62	15395.58
875.939	15441.01
876.258	15355.36
876.577	15146.32
876.896	15292.08
877.214	15213.89
877.533	15195.59
877.852	15208.92
878.17	15221.35
878.489	15172.76
878.807	15194.91
879.125	15110.62
879.444	15140.9
879.762	15048.7
880.08	15098.64
880.398	15062.94
880.716	14987.01
881.034	14914.92
881.352	14909.95
881.67	14948.82
881.988	14995.14
882.306	14862.72
882.624	14857.74
882.941	14788.82
883.259	14782.04
883.577	14701.36
883.894	14673.34
884.212	14787.92
884.529	14686.68
884.846	14611.65
885.164	14601.48
885.481	14583.85
885.798	14575.49
886.115	14375.72
886.432	14415.72
886.75	14303.18
887.067	14396.74
887.383	14352.9
887.7	14354.71
888.017	14270.64
888.334	14349.28
888.651	14325.33
888.967	14215.5
889.284	14089.86
889.6	14029.29
889.917	13992.68
890.233	14052.34
890.55	14028.61
890.866	13958.33
891.182	13963.08
891.498	13903.19
891.815	13685.35
892.131	13698.45
892.447	13735.97
892.763	13682.86
893.079	13636.08
893.395	13638.12
893.71	13555.63
894.026	13503.66
894.342	13596.08
894.657	13468.18
894.973	13434.73
895.289	13400.38
895.604	13391.34
895.92	13262.98
896.235	13229.09
896.55	13230.44
896.865	13173.95
897.181	13159.03
897.496	13154.74
897.811	13168.52
898.126	12919.26
898.441	12931.02
898.756	12901.86
899.071	12796.33
899.386	12807.4
899.7	12762.88
900.015	12702.1
900.33	12577.13
900.644	12625.94
900.959	12618.03
901.273	12572.83
901.588	12459.16
901.902	12460.97
902.216	12383.01
902.531	12396.11
902.845	12363.57
903.159	12244.71
903.473	12204.03
903.787	12094.2
904.101	12127.2
904.415	12061.43
904.729	12086.97
905.042	11925.84
905.356	11956.35
905.67	11879.52
905.984	11945.05
906.297	11930.36
906.611	11781.67
906.924	11742.35
907.237	11675.91
907.551	11719.97
907.864	11590.71
908.177	11604.05
908.491	11602.92
908.804	11443.15
909.117	11444.73
909.43	11332.87
909.743	11408.34
910.056	11338.06
910.368	11263.49
910.681	11236.37
910.994	11079.09
911.307	11029.15
911.619	11003.61
911.932	10994.8
912.244	10932.42
912.557	11051.07
912.869	10849.26
913.181	10752.99
913.494	10769.26
913.806	10737.63
914.118	10716.16
914.43	10675.71
914.742	10666.22
915.054	10560.68
915.366	10477.07
915.678	10556.84
915.99	10450.63
916.302	10417.64
916.613	10322.04
916.925	10276.85
917.236	10280.69
917.548	10178.55
917.859	10256.96
918.171	10171.31
918.482	10151.65
918.794	10090.41
919.105	9966.35
919.416	9943.75
919.727	9927.93
920.038	9937.42
920.349	9826.92
920.66	9781.95
920.971	9759.12
921.282	9775.17
921.593	9651.78
921.903	9629.63
922.214	9619.46
922.525	9598
922.835	9532.24
923.146	9456.76
923.456	9410.2
923.767	9369.98
924.077	9315.52
924.387	9379.92
924.697	9331.34
925.008	9349.42
925.318	9226.25
925.628	9247.5
925.938	9191
926.248	9129.31
926.558	9065.81
926.867	9059.71
927.177	8941.52
927.487	8956.66
927.796	8843.89
928.106	8822.65
928.416	8784.46
928.725	8789.2
929.034	8766.61
929.344	8773.61
929.653	8749.43
929.962	8689.55
930.271	8659.94
930.581	8630.79
930.89	8557.35
931.199	8462.66
931.508	8480.96
931.817	8463.56
932.125	8419.27
932.434	8424.47
932.743	8315.54
933.051	8225.6
933.36	8221.31
933.669	8214.76
933.977	8090.92
934.286	8152.38
934.594	8154.64
934.902	8106.06
935.21	7991.71
935.519	7984.93
935.827	7989.45
936.135	7866.97
936.443	7824.03
936.751	7825.16
937.059	7791.26
937.367	7822.9
937.674	7823.81
937.982	7737.93
938.29	7709.46
938.597	7633.08
938.905	7662.68
939.213	7540.2
939.52	7594.21
939.827	7484.83
940.135	7496.58
940.442	7492.29
940.749	7452.52
941.056	7399.86
941.363	7324.61
941.67	7320.77
941.977	7343.82
942.284	7304.5
942.591	7300.2
942.898	7208
943.205	7215.23
943.511	7146.76
943.818	7120.55
944.125	7080.77
944.431	7035.35
944.738	7097.72
945.044	7044.39
945.35	6962.13
945.657	6909.03
945.963	6947.44
946.269	6872.19
946.575	6841.68
946.881	6820.44
947.187	6801.01
947.493	6719.65
947.799	6783.15
948.105	6685.98
948.41	6650.5
948.716	6651.63
949.022	6613.89
949.327	6611.63
949.633	6508.59
949.938	6516.27
950.244	6490.96
950.549	6499.09
950.854	6485.08
951.16	6417.74
951.465	6398.76
951.77	6375.26
952.075	6295.48
952.38	6350.85
952.685	6329.61
952.99	6218.2
953.294	6281.93
953.599	6204.19
953.904	6184.53
954.209	6171.19
954.513	6232.89
954.818	6122.16
955.122	6104.3
955.426	6063.17
955.731	6017.3
956.035	6017.53
956.339	5955.38
956.643	5960.58
956.948	5956.06
957.252	5874.7
957.556	5948.37
957.86	5854.37
958.163	5818.66
958.467	5795.61
958.771	5817.08
959.075	5769.85
959.378	5733.69
959.682	5695.73
959.985	5632.68
960.289	5657.08
960.592	5643.52
960.896	5551.55
961.199	5563.98
961.502	5578.67
961.805	5456.64
962.108	5461.38
962.411	5433.59
962.714	5472
963.017	5455.51
963.32	5413.93
963.623	5397.43
963.926	5320.37
964.228	5275.85
964.531	5303.87
964.833	5323.31
965.136	5261.39
965.438	5272.01
965.741	5177.32
966.043	5220.71
966.345	5179.36
966.648	5102.52
966.95	5133.71
967.252	5113.82
967.554	5059.13
967.856	5041.73
968.158	5014.39
968.46	4996.08
968.761	5016.87
969.063	5037.21
969.365	4977.1
969.666	4931.9
969.968	4870.66
970.269	4844.22
970.571	4829.76
970.872	4870.21
971.174	4779.14
971.475	4815.07
971.776	4787.28
972.077	4763.1
972.378	4756.09
972.679	4707.28
972.98	4692.81
973.281	4666.83
973.582	4703.89
973.883	4636.77
974.183	4609.2
974.484	4606.72
974.785	4531.01
975.085	4533.5
975.386	4527.4
975.686	4532.14
975.986	4496.21
976.287	4470.9
976.587	4401.07
976.887	4422.54
977.187	4418.47
977.487	4426.61
977.787	4377.79
978.087	4353.61
978.387	4363.56
978.687	4329.66
978.987	4298.93
979.286	4309.55
979.586	4312.49
979.885	4265.48
980.185	4233.84
980.484	4207.86
980.784	4189.1
981.083	4121.53
981.382	4190.23
981.682	4157.46
981.981	4061.64
982.28	4114.98
982.579	4069.33
982.878	4059.16
983.177	4030.23
983.475	4029.78
983.774	4017.58
984.073	3976.68
984.372	3947.52
984.67	3937.81
984.969	3962.66
985.267	3898.03
985.566	3893.29
985.864	3798.15
986.162	3836.34
986.461	3840.41
986.759	3824.36
987.057	3754.76
987.355	3736
987.653	3725.38
987.951	3761.77
988.249	3710.69
988.547	3720.86
988.844	3658.49
989.142	3659.17
989.44	3647.64
989.737	3657.14
990.035	3587.08
990.332	3593.18
990.63	3605.16
990.927	3574.65
991.224	3574.88
991.521	3494.2
991.819	3503.47
992.116	3498.95
992.413	3441.77
992.71	3474.54
993.006	3462.56
993.303	3431.38
993.6	3422.57
993.897	3396.13
994.193	3376.24
994.49	3365.62
994.787	3368.1
995.083	3344.15
995.379	3302.34
995.676	3280.87
995.972	3280.42
996.268	3264.6
996.565	3244.49
996.861	3238.62
997.157	3212.18
997.453	3194.77
997.749	3233.19
998.044	3177.6
998.34	3158.62
998.636	3092.4
998.932	3100.99
999.227	3107.77
999.523	3131.05
999.818	3053.99
1000.114	3068.45
1000.409	3023.71
1000.704	3010.15
1001	3028.68
1001.295	2985.74
1001.59	2958.17
1001.885	2934.67
1002.18	2948.68
1002.475	2917.95
1002.77	2893.31
1003.065	2881.56
1003.359	2886.99
1003.654	2879.53
1003.949	2857.83
1004.243	2790.04
1004.538	2808.8
1004.832	2807.67
1005.127	2786.2
1005.421	2786.65
1005.715	2787.1
1006.009	2775.35
1006.304	2718.63
1006.598	2701.45
1006.892	2685.41
1007.186	2677.5
1007.48	2627.78
1007.773	2649.93
1008.067	2596.6
1008.361	2622.36
1008.655	2585.3
1008.948	2555.02
1009.242	2566.09
1009.535	2554.79
1009.829	2540.78
1010.122	2519.99
1010.415	2513.66
1010.708	2487.45
1011.001	2474.79
1011.295	2479.54
1011.588	2436.38
1011.881	2390.95
1012.173	2369.03
1012.466	2406.77
1012.759	2354.57
1013.052	2328.81
1013.344	2363.38
1013.637	2352.09
1013.93	2339.43
1014.222	2336.94
1014.514	2277.96
1014.807	2277.06
1015.099	2290.62
1015.391	2249.94
1015.683	2267.79
1015.976	2235.25
1016.268	2209.94
1016.56	2195.7
1016.851	2152.77
1017.143	2185.31
1017.435	2164.52
1017.727	2134.01
1018.018	2133.79
1018.31	2098.76
1018.602	2136.72
1018.893	2096.5
1019.185	2053.11
1019.476	2058.76
1019.767	2032.55
1020.058	2044.97
1020.35	2010.17
1020.641	2008.82
1020.932	1972.43
1021.223	1975.6
1021.514	1990.29
1021.804	1953.45
1022.095	1953.23
1022.386	1913.45
1022.677	1912.1
1022.967	1900.35
1023.258	1904.41
1023.548	1850.18
1023.839	1853.12
1024.129	1847.01
1024.419	1823.29
1024.709	1835.26
1025	1793
1025.29	1827.13
1025.58	1771.76
1025.87	1763.4
1026.16	1736.28
1026.449	1754.13
1026.739	1724.53
1027.029	1728.6
1027.319	1724.53
1027.608	1715.49
1027.898	1714.81
1028.187	1680.01
1028.477	1673.91
1028.766	1647.47
1029.055	1609.28
1029.344	1631.2
1029.634	1639.79
1029.923	1610.41
1030.212	1617.42
1030.501	1563.41
1030.79	1594.82
1031.078	1576.74
1031.367	1545.55
1031.656	1531.99
1031.945	1534.25
1032.233	1524.31
1032.522	1533.58
1032.81	1496.97
1033.099	1494.71
1033.387	1525.44
1033.675	1470.98
1033.963	1466.68
1034.251	1444.31
1034.54	1410.41
1034.828	1429.17
1035.116	1452.22
1035.403	1400.92
1035.691	1403.64
1035.979	1378.55
1036.267	1430.3
1036.554	1398.66
1036.842	1375.84
1037.129	1353.92
1037.417	1369.96
1037.704	1337.65
1037.992	1325.67
1038.279	1337.42
1038.566	1316.18
1038.853	1316.18
1039.14	1316.18
