Data from 19-1250_FLMS001491_002.txt Node
Date: Thu Apr 19 16:28:11 BST 2018
User: hsy
Spectrometer: FLMS00149
Trigger mode: 0
Integration Time (sec): 1.000000E-2
Scans to average: 10
Electric dark correction enabled: true
Nonlinearity correction enabled: false
Boxcar width: 0
XAxis mode: Wavelengths
Number of Pixels in Spectrum: 2048
>>>>>Begin Spectral Data<<<<<
341.393	-8.21
341.776	-8.21
342.16	-8.21
342.543	-51.14
342.927	-61.31
343.31	-69
343.693	-60.86
344.077	-54.53
344.46	-55.21
344.843	-51.14
345.226	-45.49
345.61	-49.11
345.993	3.09
346.376	-8.43
346.759	5.8
347.142	30.89
347.525	44.9
347.908	48.29
348.291	75.41
348.674	87.84
349.057	97.55
349.44	109.08
349.823	144.56
350.206	164.67
350.588	222.75
350.971	241.5
351.354	260.71
351.737	282.41
352.119	265.23
352.502	288.51
352.884	328.96
353.267	313.59
353.65	316.08
354.032	342.52
354.414	350.88
354.797	335.51
355.179	360.15
355.562	375.96
355.944	381.61
356.326	364.44
356.709	370.54
357.091	395.63
357.473	382.07
357.855	401.27
358.238	392.24
358.62	394.95
359.002	397.21
359.384	376.42
359.766	380.03
360.148	381.61
360.53	385.91
360.912	394.95
361.294	356.3
361.676	371.67
362.057	374.83
362.439	376.64
362.821	368.28
363.203	382.52
363.584	375.74
363.966	395.4
364.348	384.33
364.729	389.98
365.111	360.37
365.493	383.42
365.874	387.94
366.256	371.67
366.637	376.87
367.019	384.1
367.4	385.23
367.781	382.07
368.163	381.61
368.544	385.46
368.925	377.09
369.306	372.57
369.688	373.48
370.069	375.51
370.45	365.57
370.831	385.68
371.212	382.29
371.593	379.81
371.974	389.3
372.355	395.63
372.736	394.72
373.117	376.42
373.498	417.55
373.879	387.04
374.26	362.86
374.641	381.61
375.021	399.47
375.402	426.13
375.783	418.22
376.163	430.2
376.544	423.42
376.925	418
377.305	405.12
377.686	422.74
378.066	429.3
378.447	416.64
378.827	445.12
379.208	417.77
379.588	410.99
379.968	424.33
380.349	446.7
380.729	416.64
381.109	439.01
381.489	442.86
381.87	443.76
382.25	460.71
382.63	446.25
383.01	433.36
383.39	449.64
383.77	453.48
384.15	450.76
384.53	439.01
384.91	465.68
385.29	454.15
385.67	452.35
386.049	493.02
386.429	477.88
386.809	507.49
387.189	469.52
387.568	477.66
387.948	487.6
388.328	486.02
388.707	504.1
389.087	480.82
389.466	499.8
389.846	498.45
390.225	517.66
390.605	532.57
390.984	531.89
391.363	495.06
391.743	526.02
392.122	525.34
392.501	532.8
392.881	535.51
393.26	553.81
393.639	562.17
394.018	559.46
394.397	540.48
394.776	565.34
395.155	548.39
395.534	556.07
395.913	565.34
396.292	558.33
396.671	582.96
397.05	591.55
397.429	594.49
397.808	589.29
398.186	592
398.565	576.64
398.944	611.44
399.323	604.43
399.701	603.53
400.08	617.77
400.458	616.86
400.837	602.4
401.215	626.58
401.594	627.48
401.972	614.38
402.351	621.61
402.729	631.78
403.107	630.65
403.486	632.68
403.864	664.77
404.242	665
404.62	655.05
404.999	648.95
405.377	674.94
405.755	676.3
406.133	702.51
406.511	687.59
406.889	697.31
407.267	693.92
407.645	717.65
408.023	714.94
408.401	704.32
408.779	731.21
409.156	730.76
409.534	744.77
409.912	777.76
410.29	777.76
410.667	766.69
411.045	780.02
411.422	802.39
411.8	805.78
412.178	802.85
412.555	803.75
412.933	827.03
413.31	861.6
413.687	843.52
414.065	863.86
414.442	864.99
414.819	871.09
415.197	876.29
415.574	911.32
415.951	869.51
416.328	881.94
416.705	892.79
417.082	894.6
417.46	915.39
417.837	920.13
418.214	946.12
418.591	927.59
418.967	954.93
419.344	943.41
419.721	957.64
420.098	960.36
420.475	989.28
420.852	980.47
421.228	1003.07
421.605	991.32
421.982	1010.3
422.358	1003.74
422.735	993.35
423.111	1019.79
423.488	1012.33
423.864	1066.57
424.241	1057.98
424.617	1056.62
424.994	1071.31
425.37	1083.29
425.746	1069.96
426.123	1096.4
426.499	1086.68
426.875	1122.84
427.251	1132.78
427.627	1155.83
428.003	1162.84
428.379	1161.71
428.756	1166
429.132	1194.02
429.507	1200.8
429.883	1210.75
430.259	1250.29
430.635	1266.34
431.011	1243.74
431.387	1267.92
431.763	1321.7
432.138	1307.69
432.514	1308.82
432.89	1342.04
433.265	1362.61
433.641	1403.06
434.016	1363.06
434.392	1408.71
434.767	1440.34
435.143	1436.5
435.518	1454.35
435.894	1459.55
436.269	1471.08
436.644	1493.9
437.02	1485.54
437.395	1509.72
437.77	1533.45
438.145	1571.19
438.52	1534.8
438.895	1582.49
439.271	1530.51
439.646	1601.47
440.021	1600.79
440.395	1635.59
440.77	1614.35
441.145	1642.6
441.52	1688.92
441.895	1645.54
442.27	1681.24
442.645	1676.04
443.019	1692.54
443.394	1705.65
443.769	1681.02
444.143	1716.04
444.518	1736.83
444.892	1710.17
445.267	1729.6
445.641	1745.42
446.016	1759.43
446.39	1777.51
446.764	1763.05
447.139	1799.66
447.513	1797.17
447.887	1787.9
448.262	1821.8
448.636	1840.78
449.01	1831.75
449.384	1847.11
449.758	1857.73
450.132	1916.04
450.506	1904.06
450.88	1917.62
451.254	1928.69
451.628	1956.26
452.002	1984.74
452.376	2024.51
452.75	2023.6
453.123	2026.54
453.497	2049.37
453.871	2067.9
454.244	2100.44
454.618	2142.47
454.992	2179.53
455.365	2168.69
455.739	2226.76
456.112	2215.24
456.486	2266.76
456.859	2265.18
457.232	2316.03
457.606	2315.12
457.979	2342.47
458.352	2395.8
458.725	2419.98
459.099	2459.98
459.472	2450.71
459.845	2480.77
460.218	2560.31
460.591	2579.07
460.964	2574.1
461.337	2597.38
461.71	2646.41
462.083	2692.51
462.456	2673.76
462.829	2689.8
463.201	2811.38
463.574	2789.23
463.947	2817.93
464.32	2882.34
464.692	2892.73
465.065	2930.25
465.438	2958.27
465.81	2965.95
466.183	3001.21
466.555	3062
466.928	3102.45
467.3	3104.25
467.672	3091.37
468.045	3189.45
468.417	3226.29
468.789	3245.72
469.161	3274.87
469.534	3313.06
469.906	3364.59
470.278	3396.68
470.65	3459.95
471.022	3468.09
471.394	3499.72
471.766	3598.48
472.138	3611.59
472.51	3715.31
472.882	3703.11
473.253	3765.25
473.625	3785.82
473.997	3909.21
474.369	3892.03
474.74	3981.29
475.112	4052.48
475.484	4049.77
475.855	4193.94
476.227	4205.47
476.598	4311.45
476.97	4341.96
477.341	4453.37
477.713	4510.32
478.084	4539.7
478.455	4710.77
478.827	4726.81
479.198	4846.13
479.569	4805
479.94	4970.65
480.311	5057.88
480.682	5160.25
481.053	5242.28
481.424	5327.47
481.795	5402.95
482.166	5517.3
482.537	5615.6
482.908	5682.94
483.279	5720.23
483.65	5897.85
484.021	5961.81
484.391	6108.7
484.762	6093.55
485.133	6214.46
485.503	6256.04
485.874	6429.36
486.244	6508.23
486.615	6656.48
486.985	6736.7
487.356	6895.79
487.726	6988.22
488.097	7110.25
488.467	7153.64
488.837	7323.35
489.207	7425.95
489.578	7527.87
489.948	7618.94
490.318	7783.68
490.688	7802.21
491.058	8011.47
491.428	8088.53
491.798	8126.27
492.168	8341.63
492.538	8361.29
492.908	8466.37
493.278	8582.53
493.648	8657.55
494.017	8780.49
494.387	8880.83
494.757	9044.44
495.126	9104.1
495.496	9146.81
495.866	9198.11
496.235	9381.83
496.605	9485.33
496.974	9568.04
497.344	9658.88
497.713	9730.52
498.082	9829.05
498.452	9885.32
498.821	9992.21
499.19	10065.2
499.559	10121.7
499.928	10250.73
500.298	10366.21
500.667	10436.72
501.036	10481.91
501.405	10579.31
501.774	10662.25
502.143	10733.43
502.512	10801.68
502.88	10992.86
503.249	10986.99
503.618	11149.01
503.987	11159.18
504.356	11234.89
504.724	11340.42
505.093	11373.19
505.462	11510.36
505.83	11510.14
506.199	11632.62
506.567	11825.38
506.936	11824.93
507.304	12040.29
507.672	12002.1
508.041	12033.29
508.409	12148.54
508.777	12311.7
509.145	12398.25
509.514	12424.46
509.882	12529.09
510.25	12715.53
510.618	12793.04
510.986	12829.87
511.354	12901.06
511.722	13075.74
512.09	13282.97
512.458	13140.37
512.826	13376.75
513.193	13351.44
513.561	13476.19
513.929	13541.72
514.297	13748.49
514.664	13828.94
515.032	13983.29
515.4	14028.71
515.767	14137.64
516.135	14143.06
516.502	14110.29
516.869	14323.85
517.237	14603.39
517.604	14523.84
517.972	14684.97
518.339	14741.01
518.706	14900.33
519.073	14951.4
519.44	15043.15
519.808	15307.55
520.175	15349.13
520.542	15511.84
520.909	15616.02
521.276	15686.75
521.643	15852.85
522.009	16079.73
522.376	16103.46
522.743	16150.92
523.11	16508.2
523.477	16590.45
523.843	16645.59
524.21	16945.47
524.577	17086.03
524.943	17116.99
525.31	17244.67
525.676	17448.28
526.043	17529.64
526.409	17640.14
526.776	17904.77
527.142	17928.05
527.508	17978.67
527.874	18304.31
528.241	18430.41
528.607	18485.09
528.973	18689.16
529.339	18676.27
529.705	18928.7
530.071	19114.23
530.437	19241.23
530.803	19331.85
531.169	19535.01
531.535	19455.69
531.901	19699.3
532.267	19729.13
532.632	19957.37
532.998	20019.97
533.364	20235.56
533.73	20220.41
534.095	20557.35
534.461	20513.97
534.826	20576.34
535.192	20646.62
535.557	20827.18
535.923	20923.9
536.288	20986.5
536.653	21161.86
537.019	21152.82
537.384	21276.43
537.749	21373.83
538.114	21469.65
538.479	21354.17
538.845	21590.1
539.21	21485.69
539.575	21750.77
539.94	21747.83
540.305	21812.24
540.67	22009.97
541.034	22011.55
541.399	22075.73
541.764	22173.13
542.129	22261.26
542.494	22263.98
542.858	22392.56
543.223	22471.65
543.587	22762.49
543.952	22611.99
544.316	22801.82
544.681	22710.74
545.045	22926.78
545.41	23001.81
545.774	22929.27
546.138	23119.1
546.503	23130.39
546.867	23375.13
547.231	23451.97
547.595	23494.9
547.959	23496.94
548.324	23553.66
548.688	23666.65
549.052	23672.08
549.416	23747.78
549.779	23880.21
550.143	23946.42
550.507	24179.63
550.871	24155.68
551.235	24254.66
551.599	24313.64
551.962	24412.85
552.326	24500.98
552.689	24639.73
553.053	24496.91
553.417	24728.32
553.78	24983.23
554.143	24910.46
554.507	25047.86
554.87	25075.88
555.234	25412.14
555.597	25127.86
555.96	25459.6
556.323	25509.54
556.686	25577.34
557.05	25754.28
557.413	25935.52
557.776	25955.86
558.139	26155.4
558.502	26253.7
558.865	26279.46
559.228	26647.14
559.59	26556.07
559.953	26595.61
560.316	27048.94
560.679	27019.33
561.041	27224.3
561.404	27151.98
561.767	27557.85
562.129	27577.74
562.492	27724.17
562.854	27776.6
563.217	27861.57
563.579	28080.77
563.941	28218.17
564.304	28305.63
564.666	28628.33
565.028	28584.71
565.39	28812.73
565.753	28994.42
566.115	29106.51
566.477	29303.34
566.839	29366.61
567.201	29761.18
567.563	29792.37
567.925	29937.67
568.287	29991.68
568.648	30141.28
569.01	30366.81
569.372	30596.86
569.734	30532.01
570.095	30878.44
570.457	31153.69
570.819	31203.4
571.18	31105.78
571.542	31475.49
571.903	31530.17
572.265	31727.46
572.626	31880.22
572.987	31944.17
573.349	32183.26
573.71	32406.08
574.071	32540.99
574.432	32602.46
574.794	32969.91
575.155	32951.38
575.516	33012.17
575.877	33215.78
576.238	33164.48
576.599	33333.06
576.96	33584.13
577.32	33587.97
577.681	33679.95
578.042	33993.84
578.403	33915.65
578.763	34124.23
579.124	34178.24
579.485	34385.69
579.845	34508.17
580.206	34512.47
580.566	34571.22
580.927	34589.53
581.287	34840.14
581.648	34814.38
582.008	35132.11
582.368	35056.18
582.728	35085.56
583.089	35229.51
583.449	35302.5
583.809	35465.89
584.169	35613.46
584.529	35606
584.889	35826.11
585.249	35701.82
585.609	35734.58
585.969	36027.91
586.329	35998.3
586.688	36257.73
587.048	36504.51
587.408	36293.44
587.768	36334.79
588.127	36466.77
588.487	36503.38
588.846	36954.21
589.206	36763.48
589.565	36725.07
589.925	37259.06
590.284	37413.86
590.643	37366.4
591.003	37554.65
591.362	37871.25
591.721	37798.71
592.08	37950.12
592.44	38206.38
592.799	38423.1
593.158	38341.97
593.517	38465.81
593.876	38989.19
594.235	38887.27
594.593	39016.3
594.952	39141.95
595.311	39347.82
595.67	39568.61
596.029	39836.62
596.387	39939.22
596.746	40308.02
597.104	40195.93
597.463	40276.38
597.822	40572.87
598.18	40459.2
598.538	40790.95
598.897	41083.82
599.255	40909.36
599.613	41489.91
599.972	41350.03
600.33	41534.2
600.688	41559.51
601.046	41822.33
601.404	42258.03
601.762	42173.28
602.12	42392.04
602.478	42574.86
602.836	42897.56
603.194	42605.14
603.552	42816.66
603.91	42863.66
604.268	43311.33
604.625	43339.13
604.983	43409.18
605.341	43435.85
605.698	43689.4
606.056	44023.63
606.413	43990.19
606.771	44377.52
607.128	44318.54
607.485	44371.19
607.843	44466.33
608.2	44701.58
608.557	44997.39
608.914	44821.58
609.272	45114.22
609.629	45332.75
609.986	45579.75
610.343	45564.61
610.7	45753.3
611.057	45889.34
611.414	45823.58
611.771	46141.32
612.127	46175.89
612.484	46325.26
612.841	46378.6
613.198	46290.69
613.554	46386.28
613.911	46722.77
614.267	46819.94
614.624	46748.08
614.98	46998.02
615.337	47318.23
615.693	47192.36
616.05	47304
616.406	47481.62
616.762	47436.2
617.118	47497.21
617.475	47435.29
617.831	47810.65
618.187	47830.99
618.543	47873.47
618.899	48077.54
619.255	48031.89
619.611	48015.84
619.967	48279.11
620.323	48409.28
620.678	48280.02
621.034	48337.87
621.39	48235.72
621.746	48310.98
622.101	48701.25
622.457	48455.15
622.812	48605.88
623.168	48760.23
623.523	48707.12
623.879	48832.77
624.234	48660.34
624.589	48813.11
624.945	48767.01
625.3	48883.16
625.655	48889.94
626.01	48882.26
626.365	49030.5
626.72	48772.43
627.075	48802.26
627.43	48760.91
627.785	48964.29
628.14	48896.04
628.495	48898.53
628.85	49004.06
629.205	48872.54
629.559	49089.71
629.914	48920.9
630.269	48923.39
630.623	48703.28
630.978	48762.94
631.332	49025.98
631.687	48914.12
632.041	48882.03
632.396	48766.1
632.75	48680.23
633.104	48852.66
633.459	48543.51
633.813	48674.13
634.167	48597.75
634.521	48594.13
634.875	48540.35
635.229	48558.65
635.583	48395.04
635.937	48198.89
636.291	48339.9
636.645	48211.32
636.999	48209.06
637.352	48289.96
637.706	48071.21
638.06	48300.58
638.413	48178.78
638.767	48088.61
639.121	48167.93
639.474	47886.58
639.828	47882.96
640.181	47831.67
640.534	47944.43
640.888	47690.65
641.241	47629.41
641.594	47678.68
641.947	47726.36
642.301	47613.37
642.654	47687.04
643.007	47459.47
643.36	47593.25
643.713	47506.93
644.066	47697.88
644.419	47397.1
644.771	46803.22
645.124	46607.52
645.477	46523.68
645.83	46579.5
646.182	46544.02
646.535	46490.46
646.888	46539.72
647.24	46378.37
647.593	46495.66
647.945	46382.66
648.298	46190.13
648.65	45985.16
649.002	45605.96
649.355	45687.54
649.707	45486.87
650.059	45568.45
650.411	46146.51
650.763	46372.04
651.115	47070.33
651.467	46755.31
651.819	46764.35
652.171	46775.42
652.523	46532.27
652.875	46625.6
653.227	46550.57
653.578	46814.74
653.93	46692.49
654.282	46436.67
654.633	46448.65
654.985	46472.38
655.337	46493.17
655.688	46451.59
656.039	46588.53
656.391	46192.16
656.742	46204.36
657.094	46268.32
657.445	46372.95
657.796	46305.38
658.147	46088.21
658.498	46308.77
658.849	46414.75
659.2	46299.5
659.551	46161.2
659.902	46389.22
660.253	46260.86
660.604	46350.12
660.955	46124.82
661.306	46320.75
661.656	46031.49
662.007	46158.49
662.358	46134.08
662.708	46149.9
663.059	46171.14
663.409	46014.09
663.76	46194.19
664.11	46164.82
664.461	46317.13
664.811	46288.43
665.161	46166.63
665.511	46094.54
665.862	46216.57
666.212	46364.59
666.562	46405.26
666.912	46370.69
667.262	45979.74
667.612	46222.89
667.962	46102.67
668.312	46084.37
668.662	46323.46
669.011	46319.16
669.361	46249.79
669.711	46245.49
670.06	46005.27
670.41	46033.75
670.76	46083.46
671.109	46227.41
671.459	46160.75
671.808	46213.63
672.157	46204.36
672.507	46014.54
672.856	46033.3
673.205	46013.63
673.554	46054.54
673.904	45915.78
674.253	46262.67
674.602	46006.63
674.951	45495.68
675.3	45226.76
675.649	45913.98
675.998	45921.89
676.346	46085.05
676.695	45980.42
677.044	45694.77
677.393	45810.7
677.741	45822
678.09	45682.57
678.438	45625.85
678.787	45760.99
679.135	45742.23
679.484	45411.84
679.832	45600.31
680.181	45512.41
680.529	45499.07
680.877	45235.12
681.225	45450.03
681.573	45511.73
681.922	45224.73
682.27	45185.86
682.618	45108.35
682.966	45143.38
683.314	45019.99
683.661	44959.43
684.009	44967.56
684.357	44709.94
684.705	44607.57
685.053	44765.53
685.4	44513.11
685.748	44511.53
686.095	44437.41
686.443	44332.1
686.79	44253.91
687.138	44303.85
687.485	44194.02
687.832	44048.49
688.18	43914.93
688.527	43833.58
688.874	43682.62
689.221	43808.27
689.568	43501.38
689.915	43399.47
690.262	43585.68
690.609	43266.81
690.956	43147.5
691.303	43240.83
691.65	43165.12
691.997	42965.81
692.344	42751.35
692.69	42728.07
693.037	42762.65
693.383	42417.35
693.73	42589.77
694.077	42265.03
694.423	42262.55
694.769	42080.63
695.116	42125.83
695.462	41846.51
695.808	41775.55
696.155	41883.12
696.501	41455.56
696.847	41527.65
697.193	41338.73
697.539	41440.2
697.885	40931.73
698.231	40943.26
698.577	40849.93
698.923	40935.58
699.269	40509.82
699.614	40352.09
699.96	40258.08
700.306	40243.17
700.651	40005.21
700.997	39981.93
701.342	39880.24
701.688	39701.26
702.033	39532.45
702.379	39573.13
702.724	39372.68
703.069	39396.41
703.415	38973.59
703.76	38906.25
704.105	38939.7
704.45	38798.01
704.795	38549.88
705.14	38616.09
705.485	38534.06
705.83	38342.2
706.175	38394.17
706.52	38217.23
706.865	38087.74
707.209	38000.74
707.554	37967.07
707.899	37984.24
708.243	37661.31
708.588	37591.48
708.932	37381.77
709.277	37515.33
709.621	37197.14
709.966	36949.92
710.31	37111.95
710.654	36890.94
710.998	36860.43
711.342	36960.09
711.687	36686.42
712.031	36604.62
712.375	36365.07
712.719	36452.08
713.063	36225.19
713.407	36555.8
713.75	36274
714.094	36226.55
714.438	36132.54
714.782	36157.62
715.125	35916.73
715.469	36125.76
715.812	35828.37
716.156	35692.78
716.499	35773.23
716.843	35749.27
717.186	35625.66
717.53	35709.27
717.873	35566
718.216	35462.95
718.559	35386.34
718.902	35281.04
719.246	35210.3
719.589	35182.96
719.932	35101.83
720.275	35126.69
720.617	35119.46
720.96	34994.04
721.303	34912.68
721.646	35133.24
721.989	34790.43
722.331	34977.09
722.674	34757.89
723.016	34835.4
723.359	34648.51
723.701	34801.73
724.044	34618.45
724.386	34483.32
724.729	34621.39
725.071	34581.62
725.413	34478.57
725.755	34411
726.097	34352.02
726.439	34231.35
726.782	34348.18
727.124	34506.37
727.465	34335.75
727.807	34180.05
728.149	34454.62
728.491	34196.09
728.833	34300.04
729.175	34144.12
729.516	34091.69
729.858	34119.26
730.199	34308.18
730.541	34251.68
730.882	34091.46
731.224	34138.92
731.565	33919.26
731.906	34136.88
732.248	34138.47
732.589	33916.78
732.93	33872.49
733.271	33977.34
733.612	33900.73
733.953	33982.99
734.294	33877.23
734.635	33901.41
734.976	33868.19
735.317	33847.4
735.658	33769.89
735.999	33851.92
736.339	33830
736.68	33828.87
737.021	33715.88
737.361	33687.41
737.702	33884.91
738.042	33782.32
738.383	33787.06
738.723	33718.82
739.063	33689.89
739.404	33795.65
739.744	33772.37
740.084	33788.42
740.424	33864.12
740.764	33806.95
741.104	34033.84
741.444	33796.1
741.784	33733.28
742.124	33834.07
742.464	33689.21
742.804	33800.4
743.143	33799.94
743.483	33800.4
743.823	33811.47
744.162	33769.89
744.502	34012.82
744.841	33867.51
745.181	33893.95
745.52	33875.87
745.86	34016.66
746.199	33904.12
746.538	33957
746.877	34226.6
747.216	34097.56
747.556	34068.41
747.895	34213.72
748.234	34185.25
748.573	34215.75
748.911	34167.62
749.25	34282.19
749.589	34186.83
749.928	34306.37
750.267	34354.28
750.605	34366.03
750.944	34460.27
751.283	34325.81
751.621	34660.26
751.96	34443.54
752.298	34477.89
752.636	34495.75
752.975	34568.74
753.313	34501.85
753.651	34690.54
753.989	34597.44
754.327	34763.76
754.666	34488.74
755.004	34742.52
755.342	34923.3
755.679	34813.7
756.017	34770.77
756.355	34997.2
756.693	34904.77
757.031	34988.16
757.368	34742.29
757.706	34919.69
758.044	34836.53
758.381	34986.13
758.719	34824.1
759.056	34905.45
759.394	34890.09
759.731	34759.69
760.068	34681.28
760.405	34872.91
760.743	34834.95
761.08	34848.96
761.417	34864.55
761.754	34902.06
762.091	34869.97
762.428	34600.83
762.765	34712.91
763.102	34756.3
763.438	34692.8
763.775	34575.29
764.112	34705.91
764.449	34545.24
764.785	34659.13
765.122	34382.98
765.458	34311.8
765.795	34300.5
766.131	34399.02
766.467	34263.89
766.804	34154.96
767.14	34095.76
767.476	33961.3
767.812	34067.06
768.148	33950.68
768.485	33886.27
768.821	33755.43
769.157	33697.12
769.492	33594.53
769.828	33703.9
770.164	33567.86
770.5	33329.22
770.836	33499.61
771.171	33378.49
771.507	33251.03
771.842	33041.77
772.178	32896.24
772.513	32839.29
772.849	32876.81
773.184	32836.13
773.519	32751.61
773.855	32568.34
774.19	32565.17
774.525	32297.16
774.86	32338.51
775.195	32224.62
775.53	32232.53
775.865	32060.78
776.2	31839.09
776.535	31658.08
776.87	31675.48
777.205	31586.67
777.539	31601.58
777.874	31403.62
778.209	31160.01
778.543	31183.06
778.878	31053.35
779.212	31048.38
779.547	30789.4
779.881	30830.53
780.215	30566.13
780.55	30650.65
780.884	30436.87
781.218	30432.12
781.552	30446.59
781.886	30247.72
782.22	30146.03
782.554	29927.28
782.888	29741.29
783.222	29744.23
783.556	29590.34
783.889	29527.51
784.223	29307.18
784.557	29360.97
784.89	29389.21
785.224	29266.5
785.557	29025.38
785.891	28930.02
786.224	29018.15
786.558	28881.2
786.891	28687.31
787.224	28462.68
787.557	28417.94
787.891	28448.67
788.224	28264.27
788.557	28294.78
788.89	28136.59
789.223	28107.21
789.556	27905.41
789.888	27895.92
790.221	27681.46
790.554	27542.03
790.887	27565.76
791.219	27427.68
791.552	27334.13
791.884	27198.31
792.217	27147.01
792.549	27076.05
792.882	26920.35
793.214	26897.08
793.546	26859.79
793.879	26583.41
794.211	26536.41
794.543	26759.68
794.875	26551.32
795.207	26619.12
795.539	26389.07
795.871	26359.91
796.203	26130.32
796.535	26017.78
796.867	26103.65
797.198	25893.03
797.53	25870.21
797.862	25662.31
798.193	25733.49
798.525	25587.96
798.856	25740.04
799.188	25335.99
799.519	25233.39
799.85	25145.26
800.182	25107.74
800.513	25345.48
800.844	24910.46
801.175	25037.01
801.506	25022.32
801.837	24837.24
802.168	24746.62
802.499	24772.39
802.83	24594.76
803.161	24566.06
803.491	24576.46
803.822	24587.31
804.153	24398.16
804.483	24344.83
804.814	24175.56
805.145	24194.55
805.475	24217.82
805.805	23983.93
806.136	24109.8
806.466	24000.2
806.796	23915.68
807.126	23707.1
807.457	23672.75
807.787	23839.98
808.117	23617.39
808.447	23514.79
808.777	23736.93
809.107	23408.35
809.436	23244.97
809.766	23312.99
810.096	23348.92
810.426	23183.5
810.755	23302.82
811.085	23228.25
811.414	23139.21
811.744	22983.28
812.073	22905.77
812.403	22823.28
812.732	22738.54
813.061	22874.58
813.39	22608.6
813.719	22746.9
814.049	22711.87
814.378	22585.78
814.707	22578.32
815.036	22509.62
815.365	22457.19
815.693	22274.6
816.022	22352.56
816.351	22089.29
816.68	22101.27
817.008	22181.72
817.337	21970.88
817.665	21939.01
817.994	22070.76
818.322	22028.95
818.651	21921.39
818.979	21915.06
819.307	21890.43
819.636	21869.86
819.964	21787.38
820.292	21814.72
820.62	21762.75
820.948	21867.83
821.276	21826.02
821.604	21684.33
821.932	21918.68
822.259	21668.96
822.587	21701.51
822.915	21647.95
823.243	21821.73
823.57	21548.97
823.898	21714.16
824.225	21674.61
824.553	21688.17
824.88	21782.18
825.207	21736.76
825.535	21635.97
825.862	21788.96
826.189	21631
826.516	21767.49
826.843	21765.01
827.17	21808.62
827.497	21828.51
827.824	21720.26
828.151	21720.71
828.478	21760.94
828.805	21835.74
829.131	21813.14
829.458	21758
829.785	21515.52
830.111	21644.78
830.438	21762.3
830.764	21690.66
831.09	21692.01
831.417	21623.77
831.743	21727.49
832.069	21600.72
832.395	21660.38
832.722	21726.36
833.048	21500.16
833.374	21657.89
833.7	21572.47
834.026	21589.19
834.351	21620.38
834.677	21591
835.003	21587.84
835.329	21517.1
835.654	21541.96
835.98	21390.1
836.306	21530.66
836.631	21409.08
836.956	21486.37
837.282	21551.45
837.607	21475.07
837.932	21401.85
838.258	21343.55
838.583	21321.85
838.908	21211.12
839.233	21278.69
839.558	21113.27
839.883	21061.97
840.208	21024.46
840.533	21008.19
840.858	20984.69
841.182	20977.68
841.507	21030.11
841.832	20913.5
842.156	20889.55
842.481	20764.13
842.805	20809.33
843.13	20628.09
843.454	20814.52
843.778	20625.15
844.103	20566.39
844.427	20483.23
844.751	20559.16
845.075	20419.96
845.399	20433.06
845.723	20340.86
846.047	20386.51
846.371	20214.09
846.695	20117.37
847.019	20003.7
847.343	19954.21
847.666	19878.28
847.99	19781.33
848.313	19725.06
848.637	19697.94
848.96	19586.31
849.284	19623.59
849.607	19419.08
849.931	19487.33
850.254	19234.68
850.577	19161.46
850.9	19130.73
851.223	19108.58
851.546	19023.38
851.869	18926.66
852.192	18978.19
852.515	18830.39
852.838	18681.7
853.161	18636.05
853.483	18576.16
853.806	18538.2
854.129	18457.98
854.451	18449.84
854.774	18224.31
855.096	18305.66
855.419	18200.81
855.741	18087.82
856.063	18102.05
856.385	18008.95
856.708	17935.95
857.03	17941.83
857.352	17931.21
857.674	17931.89
857.996	17850.99
858.318	17673.81
858.64	17670.43
858.961	17600.37
859.283	17600.37
859.605	17471.79
859.926	17463.2
860.248	17409.87
860.57	17428.62
860.891	17361.28
861.212	17215.52
861.534	17208.06
861.855	17286.25
862.176	17225.47
862.498	17225.47
862.819	17265.24
863.14	17110.89
863.461	17145.24
863.782	17083.55
864.103	16978.92
864.424	17008.52
864.745	16930.33
865.065	16908.64
865.386	16842.42
865.707	16827.06
866.027	16828.87
866.348	16831.13
866.668	16780.96
866.989	16649.89
867.309	16688.76
867.63	16645.37
867.95	16602.88
868.27	16579.61
868.59	16590
868.91	16366.28
869.23	16548.42
869.55	16438.37
869.87	16451.47
870.19	16435.2
870.51	16455.99
870.83	16465.71
871.15	16284.02
871.469	16250.35
871.789	16365.37
872.109	16258.03
872.428	16209.67
872.748	16252.16
873.067	16193.85
873.386	16218.49
873.706	16117.25
874.025	16054.87
874.344	16088.32
874.663	16131.26
874.982	16085.61
875.301	16111.14
875.62	16011.26
875.939	15976.46
876.258	15916.12
876.577	15802.45
876.896	15871.6
877.214	15852.17
877.533	15827.99
877.852	15811.04
878.17	15832.73
878.489	15825.28
878.807	15668.44
879.125	15713.41
879.444	15694.66
879.762	15611.72
880.08	15645.39
880.398	15579.18
880.716	15560.2
881.034	15538.05
881.352	15547.32
881.67	15560.42
881.988	15515.68
882.306	15449.47
882.624	15418.28
882.941	15369.02
883.259	15236.14
883.577	15305.97
883.894	15225.97
884.212	15231.62
884.529	15264.16
884.846	15139.19
885.164	15094.45
885.481	15152.3
885.798	15075.69
886.115	14911.85
886.432	15054.67
886.75	14903.94
887.067	14887.22
887.383	14916.15
887.7	14833.66
888.017	14738.98
888.334	14816.71
888.651	14675.25
888.967	14694.68
889.284	14604.74
889.6	14647.23
889.917	14475.03
890.233	14525.88
890.55	14378.31
890.866	14449.72
891.182	14401.13
891.498	14349.38
891.815	14322.49
892.131	14266.22
892.447	14182.16
892.763	14178.54
893.079	14120.01
893.395	14157.98
893.71	14086.56
894.026	14059.67
894.342	14003.18
894.657	13854.03
894.973	13929.28
895.289	13874.59
895.604	13830.53
895.92	13745.78
896.235	13767.03
896.55	13638.21
896.865	13535.17
897.181	13571.1
897.496	13574.49
897.811	13501.72
898.126	13457.43
898.441	13315.06
898.756	13379.46
899.071	13277.77
899.386	13295.62
899.7	13149.41
900.015	13131.79
900.33	13100.15
900.644	13111
900.959	13080.26
901.273	12991.23
901.588	12982.19
901.902	12851.12
902.216	12784.23
902.531	12796.2
902.845	12743.78
903.159	12680.05
903.473	12668.07
903.787	12555.31
904.101	12480.96
904.415	12548.53
904.729	12459.04
905.042	12385.59
905.356	12393.5
905.67	12355.76
905.984	12344.92
906.297	12292.71
906.611	12214.98
906.924	12233.96
907.237	12132.49
907.551	12066.73
907.864	12001.2
908.177	11968.65
908.491	11960.52
908.804	11871.03
909.117	11836.23
909.43	11679.62
909.743	11770.47
910.056	11689.57
910.368	11571.6
910.681	11634.2
910.994	11545.39
911.307	11492.51
911.619	11419.97
911.932	11399.18
912.244	11367.54
912.557	11309.46
912.869	11253.19
913.181	11251.38
913.494	11209.13
913.806	11078.51
914.118	11100.65
914.43	11054.78
914.742	11080.99
915.054	10979.98
915.366	10919.19
915.678	10923.26
915.99	10823.37
916.302	10806.88
916.613	10741.79
916.925	10711.51
917.236	10729.36
917.548	10604.85
917.859	10602.36
918.171	10516.04
918.482	10414.8
918.794	10413.21
919.105	10372.99
919.416	10279.89
919.727	10328.47
920.038	10226.78
920.349	10223.16
920.66	10201.24
920.971	10115.37
921.282	9998.31
921.593	10041.7
921.903	9934.36
922.214	9943.85
922.525	9816.85
922.835	9834.25
923.146	9760.12
923.456	9743.4
923.767	9715.38
924.077	9681.93
924.387	9667.25
924.697	9636.29
925.008	9636.06
925.318	9543.18
925.628	9451.88
925.938	9533.69
926.248	9337.09
926.558	9328.95
926.867	9252.12
927.177	9317.65
927.487	9250.31
927.796	9043.76
928.106	9196.52
928.416	9133.47
928.725	9046.47
929.034	9061.39
929.344	9058.22
929.653	8985
929.962	8886.93
930.271	8882.86
930.581	8849.19
930.89	8826.14
931.199	8733.26
931.508	8827.04
931.817	8725.12
932.125	8721.96
932.434	8714.5
932.743	8618.01
933.051	8560.38
933.36	8529.65
933.669	8496.2
933.977	8509.31
934.286	8408.97
934.594	8434.28
934.902	8354.74
935.21	8380.27
935.519	8298.69
935.827	8286.04
936.135	8200.84
936.443	8146.83
936.751	8100.28
937.059	8110.22
937.367	8085.59
937.674	8080.62
937.982	8015.76
938.29	7974.18
938.597	7945.94
938.905	7878.37
939.213	7838.59
939.52	7807.41
939.827	7822.1
940.135	7743.23
940.442	7712.27
940.749	7696.68
941.056	7675.43
941.363	7609.45
941.67	7554.76
941.977	7561.31
942.284	7564.25
942.591	7528.09
942.898	7459.85
943.205	7455.78
943.511	7431.37
943.818	7417.59
944.125	7301.88
944.431	7291.49
944.738	7240.64
945.044	7253.52
945.35	7207.2
945.657	7135.33
945.963	7135.33
946.269	7088.56
946.575	7069.12
946.881	7063.92
947.187	7084.49
947.493	7025.28
947.799	6972.63
948.105	6886.53
948.41	6894.44
948.716	6879.3
949.022	6841.56
949.327	6869.58
949.633	6785.74
949.938	6808.56
950.244	6765.18
950.549	6728.34
950.854	6624.39
951.16	6609.93
951.465	6626.65
951.77	6604.28
952.075	6505.97
952.38	6542.36
952.685	6529.48
952.99	6465.3
953.294	6413.32
953.599	6407.67
953.904	6385.07
954.209	6260.33
954.513	6355.69
954.818	6283.83
955.122	6229.82
955.426	6279.09
955.731	6189.6
956.035	6147.79
956.339	6157.28
956.643	6138.3
956.948	6065.53
957.252	6065.08
957.556	6057.62
957.86	5993.44
958.163	6014.91
958.467	5988.47
958.771	5922.26
959.075	5946.44
959.378	5819.89
959.682	5926.78
959.985	5823.96
960.289	5821.7
960.592	5747.57
960.896	5792.77
961.199	5742.83
961.502	5709.38
961.805	5678.88
962.108	5619.22
962.411	5683.4
962.714	5605.66
963.017	5578.09
963.32	5645.88
963.623	5520.46
963.926	5540.35
964.228	5506.68
964.531	5464.64
964.833	5475.72
965.136	5394.82
965.438	5404.99
965.741	5372.44
966.043	5334.7
966.345	5314.82
966.648	5285.89
966.95	5296.74
967.252	5224.65
967.554	5204.54
967.856	5215.16
968.158	5171.77
968.46	5173.35
968.761	5161.83
969.063	5123.41
969.365	5127.7
969.666	5060.81
969.968	5002.06
970.269	5038.89
970.571	5050.64
970.872	5009.29
971.174	4939.01
971.475	4946.01
971.776	4912.79
972.077	4885
972.378	4863.53
972.679	4877.77
972.98	4852.68
973.281	4832.34
973.582	4752.57
973.883	4781.72
974.183	4764.78
974.484	4759.13
974.785	4714.16
975.085	4686.59
975.386	4685.68
975.686	4576.31
975.986	4593.03
976.287	4626.7
976.587	4590.54
976.887	4587.38
977.187	4549.87
977.487	4539.7
977.787	4482.75
978.087	4514.61
978.387	4471.22
978.687	4445.46
978.987	4446.37
979.286	4407.5
979.586	4454.95
979.885	4373.37
980.185	4320.95
980.484	4363.88
980.784	4320.27
981.083	4276.43
981.382	4235.3
981.682	4230.1
981.981	4254.28
982.28	4212.47
982.579	4169.09
982.878	4182.42
983.177	4144.45
983.475	4184.23
983.774	4167.28
984.073	4093.38
984.372	4075.3
984.67	4075.08
984.969	4052.25
985.267	4050.44
985.566	3983.78
985.864	3949.43
986.162	3948.53
986.461	3946.04
986.759	3932.93
987.057	3887.28
987.355	3892.71
987.653	3854.29
987.951	3844.8
988.249	3844.8
988.547	3804.8
988.844	3791.92
989.142	3803.45
989.44	3751.47
989.737	3777.01
990.035	3711.92
990.332	3724.13
990.63	3715.31
990.927	3695.88
991.224	3665.14
991.521	3662.43
991.819	3606.84
992.116	3570.23
992.413	3578.59
992.71	3544.69
993.006	3587.18
993.303	3550.57
993.6	3541.08
993.897	3506.96
994.193	3478.03
994.49	3474.41
994.787	3487.52
995.083	3445.26
995.379	3387.64
995.676	3362.1
995.972	3388.54
996.268	3365.04
996.565	3344.47
996.861	3327.75
997.157	3326.4
997.453	3302.89
997.749	3261.76
998.044	3261.09
998.34	3272.39
998.636	3212.27
998.932	3172.28
999.227	3160.98
999.523	3192.61
999.818	3156.68
1000.114	3134.08
1000.409	3115.78
1000.704	3118.49
1001	3091.83
1001.295	3082.56
1001.59	3035.33
1001.885	3054.54
1002.18	2987.87
1002.475	2993.3
1002.77	3009.34
1003.065	2962.34
1003.359	2956.24
1003.654	2916.01
1003.949	2958.27
1004.243	2911.27
1004.538	2880.76
1004.832	2866.75
1005.127	2863.58
1005.421	2852.74
1005.715	2818.39
1006.009	2839.18
1006.304	2802.57
1006.598	2804.38
1006.892	2777.03
1007.186	2744.72
1007.48	2719.86
1007.773	2715.34
1008.067	2712.4
1008.361	2681.89
1008.655	2691.38
1008.948	2662.23
1009.242	2627.43
1009.535	2620.43
1009.829	2646.87
1010.122	2588.79
1010.415	2568.68
1010.708	2561.22
1011.001	2554.66
1011.295	2487.1
1011.588	2496.59
1011.881	2479.19
1012.173	2452.52
1012.466	2474.67
1012.759	2410.04
1013.052	2438.06
1013.344	2423.82
1013.637	2392.41
1013.93	2377.95
1014.222	2363.26
1014.514	2323.48
1014.807	2361.22
1015.099	2333.2
1015.391	2317.38
1015.683	2312.18
1015.976	2285.74
1016.268	2288
1016.56	2265.63
1016.851	2227.67
1017.143	2239.42
1017.435	2216.37
1017.727	2180.66
1018.018	2203.94
1018.31	2166.43
1018.602	2154.9
1018.893	2117.84
1019.185	2111.29
1019.476	2113.09
1019.767	2089.37
1020.058	2095.02
1020.35	2090.95
1020.641	2056.6
1020.932	2029.71
1021.223	2022.25
1021.514	2021.12
1021.804	2047.33
1022.095	1998.07
1022.386	2003.72
1022.677	1979.76
1022.967	1930.05
1023.258	1943.83
1023.548	1936.6
1023.839	1905.19
1024.129	1934.12
1024.419	1924.85
1024.709	1862.93
1025	1840.56
1025.29	1816.83
1025.58	1813.89
1025.87	1806.89
1026.16	1795.81
1026.449	1811.18
1026.739	1762.37
1027.029	1779.32
1027.319	1757.62
1027.608	1756.49
1027.898	1711.07
1028.187	1745.19
1028.477	1699.32
1028.766	1744.52
1029.055	1688.47
1029.344	1673.11
1029.634	1660
1029.923	1645.54
1030.212	1671.52
1030.501	1643.28
1030.79	1627.68
1031.078	1588.14
1031.367	1588.36
1031.656	1582.03
1031.945	1576.39
1032.233	1534.35
1032.522	1543.39
1032.81	1540
1033.099	1511.3
1033.387	1486.9
1033.675	1535.26
1033.963	1519.66
1034.251	1485.77
1034.54	1509.49
1034.828	1458.87
1035.116	1474.47
1035.403	1461.13
1035.691	1421.13
1035.979	1435.6
1036.267	1394.92
1036.554	1379.78
1036.842	1394.92
1037.129	1388.37
1037.417	1341.36
1037.704	1379.33
1037.992	1375.49
1038.279	1333.91
1038.566	1329.16
1038.853	1329.16
1039.14	1329.16
