Data from 19-1250_FLMS001491_008.txt Node
Date: Thu Apr 19 16:28:28 BST 2018
User: hsy
Spectrometer: FLMS00149
Trigger mode: 0
Integration Time (sec): 1.000000E-2
Scans to average: 10
Electric dark correction enabled: true
Nonlinearity correction enabled: false
Boxcar width: 0
XAxis mode: Wavelengths
Number of Pixels in Spectrum: 2048
>>>>>Begin Spectral Data<<<<<
341.393	-5.75
341.776	-5.75
342.16	-5.75
342.543	-61.57
342.927	-58.4
343.31	-84.16
343.693	-74
344.077	-72.41
344.46	-53.43
344.843	-62.24
345.226	-48.01
345.61	-22.92
345.993	-19.53
346.376	-21.57
346.759	22.5
347.142	38.77
347.525	39.45
347.908	74.02
348.291	86.9
348.674	88.26
349.057	108.37
349.44	117.19
349.823	165.77
350.206	180.46
350.588	223.85
350.971	245.09
351.354	239.44
351.737	264.53
352.119	294.81
352.502	302.72
352.884	306.33
353.267	306.79
353.65	333
354.032	341.81
354.414	348.14
354.797	341.81
355.179	375.26
355.562	350.63
355.944	367.8
356.326	377.29
356.709	374.81
357.091	384.98
357.473	354.24
357.855	371.87
358.238	381.59
358.62	383.85
359.002	388.14
359.384	377.97
359.766	411.87
360.148	379.55
360.53	389.04
360.912	388.59
361.294	389.72
361.676	391.08
362.057	385.88
362.439	392.43
362.821	387.01
363.203	369.38
363.584	383.62
363.966	380.23
364.348	357.18
364.729	358.99
365.111	386.11
365.493	386.78
365.874	382.26
366.256	371.64
366.637	363.51
367.019	370.74
367.4	383.62
367.781	353.79
368.163	359.67
368.544	382.72
368.925	371.64
369.306	369.83
369.688	351.76
370.069	390.63
370.45	377.29
370.831	396.73
371.212	379.55
371.593	383.39
371.974	379.78
372.355	367.35
372.736	401.25
373.117	380.68
373.498	369.61
373.879	389.72
374.26	390.63
374.641	382.26
375.021	395.14
375.402	401.47
375.783	379.78
376.163	414.13
376.544	408.7
376.925	416.61
377.305	410.96
377.686	398.31
378.066	403.73
378.447	412.55
378.827	414.58
379.208	408.7
379.588	412.77
379.968	429.49
380.349	412.77
380.729	411.64
381.109	441.25
381.489	444.64
381.87	433.34
382.25	435.37
382.63	413.45
383.01	450.06
383.39	461.81
383.77	469.95
384.15	469.27
384.53	470.85
384.91	469.49
385.29	444.86
385.67	452.32
386.049	476.27
386.429	477.4
386.809	484.18
387.189	464.07
387.568	485.31
387.948	461.58
388.328	495.26
388.707	487.12
389.087	460.23
389.466	501.58
389.846	500.9
390.225	510.17
390.605	506.1
390.984	508.81
391.363	510.17
391.743	515.37
392.122	511.53
392.501	521.24
392.881	534.12
393.26	549.94
393.639	554.01
394.018	554.46
394.397	534.58
394.776	550.4
395.155	554.69
395.534	547.68
395.913	584.97
396.292	567.12
396.671	559.43
397.05	545.88
397.429	573.9
397.808	598.76
398.186	584.97
398.565	585.87
398.944	592.88
399.323	621.13
399.701	605.99
400.08	586.78
400.458	610.05
400.837	584.97
401.215	637.85
401.594	648.02
401.972	616.16
402.351	626.33
402.729	627.68
403.107	637.17
403.486	634.69
403.864	641.69
404.242	657.74
404.62	653.67
404.999	656.61
405.377	663.61
405.755	667
406.133	688.7
406.511	721.92
406.889	674.01
407.267	723.05
407.645	700.9
408.023	697.06
408.401	754.46
408.779	752.65
409.156	742.71
409.534	743.84
409.912	747
410.29	761.91
410.667	775.7
411.045	780.45
411.422	768.47
411.8	775.25
412.178	785.42
412.555	819.09
412.933	836.49
413.31	826.55
413.687	851.4
414.065	854.79
414.442	866.32
414.819	866.32
415.197	875.58
415.574	900.22
415.951	895.02
416.328	886.21
416.705	887.34
417.082	898.18
417.46	903.38
417.837	921.23
418.214	914.91
418.591	932.08
418.967	942.48
419.344	921.91
419.721	949.25
420.098	973.43
420.475	981.57
420.852	1000.55
421.228	1003.49
421.605	1013.21
421.982	1010.27
422.358	1003.04
422.735	1047.56
423.111	1038.97
423.488	1038.07
423.864	1040.78
424.241	1052.75
424.617	1092.08
424.994	1056.82
425.37	1084.17
425.746	1090.95
426.123	1106.76
426.499	1092.3
426.875	1144.5
427.251	1141.11
427.627	1140.44
428.003	1131.62
428.379	1182.47
428.756	1212.52
429.132	1201.9
429.507	1235.8
429.883	1214.78
430.259	1241.68
430.635	1265.4
431.011	1269.02
431.387	1287.78
431.763	1308.57
432.138	1313.31
432.514	1341.56
432.89	1339.3
433.265	1351.05
433.641	1389.02
434.016	1389.47
434.392	1412.97
434.767	1437.15
435.143	1454.1
435.518	1444.83
435.894	1483.03
436.269	1516.47
436.644	1519.18
437.02	1529.13
437.395	1519.18
437.77	1538.39
438.145	1549.24
438.52	1526.64
438.895	1585.17
439.271	1584.04
439.646	1618.39
440.021	1632.63
440.395	1631.5
440.77	1630.59
441.145	1657.71
441.52	1684.15
441.895	1666.3
442.27	1673.98
442.645	1683.02
443.019	1694.55
443.394	1719.63
443.769	1757.37
444.143	1738.39
444.518	1757.6
444.892	1759.63
445.267	1768.89
445.641	1767.99
446.016	1798.95
446.39	1818.38
446.764	1805.73
447.139	1807.54
447.513	1853.86
447.887	1837.59
448.262	1868.33
448.636	1857.48
449.01	1861.1
449.384	1879.85
449.758	1930.47
450.132	1956.01
450.506	1959.17
450.88	1967.53
451.254	1945.39
451.628	2013.41
452.002	2041.2
452.376	2033.75
452.75	2095.67
453.123	2060.41
453.497	2110.81
453.871	2107.87
454.244	2155.32
454.618	2161.88
454.992	2257.69
455.365	2227.19
455.739	2250.92
456.112	2263.12
456.486	2278.94
456.859	2332.95
457.232	2375.88
457.606	2407.3
457.979	2417.24
458.352	2451.81
458.725	2479.61
459.099	2497.91
459.472	2569.55
459.845	2577.01
460.218	2580.17
460.591	2625.14
460.964	2642.09
461.337	2671.7
461.71	2746.72
462.083	2746.95
462.456	2741.52
462.829	2760.05
463.201	2838.02
463.574	2788.98
463.947	2884.35
464.32	2953.5
464.692	2943.78
465.065	2964.57
465.438	2997.56
465.81	3027.17
466.183	3048.63
466.555	3150.55
466.928	3163.66
467.3	3141.74
467.672	3178.35
468.045	3300.38
468.417	3298.8
468.789	3279.36
469.161	3316.42
469.534	3389.42
469.906	3440.71
470.278	3484.56
470.65	3537.21
471.022	3593.7
471.394	3661.95
471.766	3668.05
472.138	3738.56
472.51	3783.98
472.882	3817.43
473.253	3878.9
473.625	3925.45
473.997	4003.19
474.369	3964.99
474.74	4077.76
475.112	4187.81
475.484	4238.43
475.855	4242.28
476.227	4329.05
476.598	4439.78
476.97	4469.16
477.341	4630.06
477.713	4650.85
478.084	4654.24
478.455	4830.51
478.827	4843.16
479.198	4981.69
479.569	4997.96
479.94	5077.06
480.311	5187.79
480.682	5263.94
481.053	5381.68
481.424	5448.57
481.795	5531.06
482.166	5588
482.537	5685.85
482.908	5816.25
483.279	5904.6
483.65	5996.13
484.021	6190.92
484.391	6151.83
484.762	6310.92
485.133	6307.98
485.503	6442.22
485.874	6571.48
486.244	6603.8
486.615	6837.91
486.985	6863.22
487.356	7072.03
487.726	7027.74
488.097	7244.68
488.467	7304.12
488.837	7481.51
489.207	7526.48
489.578	7607.84
489.948	7781.84
490.318	7895.51
490.688	7993.82
491.058	8133.92
491.428	8219.12
491.798	8286.91
492.168	8489.17
492.538	8484.2
492.908	8614.14
493.278	8721.03
493.648	8782.72
494.017	8957.18
494.387	9040.34
494.757	9100.9
495.126	9260.45
495.496	9300.9
495.866	9459.09
496.235	9480.78
496.605	9641.91
496.974	9691.85
497.344	9763.49
497.713	9855.46
498.082	9890.49
498.452	10013.42
498.821	10181.33
499.19	10174.55
499.559	10325.05
499.928	10349.23
500.298	10402.34
500.667	10591.49
501.036	10587.19
501.405	10716.91
501.774	10709
502.143	10876.45
502.512	10958.48
502.88	10965.49
503.249	11025.6
503.618	11189.44
503.987	11230.57
504.356	11245.48
504.724	11458.36
505.093	11496.1
505.462	11518.02
505.83	11606.15
506.199	11744.45
506.567	11864.9
506.936	12042.97
507.304	12060.37
507.672	12131.79
508.041	12162.52
508.409	12339.46
508.777	12371.33
509.145	12504.66
509.514	12552.34
509.882	12710.98
510.25	12707.82
510.618	12844.99
510.986	12826
511.354	12952.78
511.722	13069.84
512.09	13233.68
512.458	13282.49
512.826	13375.82
513.193	13480
513.561	13576.95
513.929	13580.56
514.297	13821.68
514.664	13859.65
515.032	13926.99
515.4	14039.76
515.767	14187.78
516.135	14247.89
516.502	14120.89
516.869	14428.45
517.237	14468.67
517.604	14456.92
517.972	14718.38
518.339	14816.91
518.706	14913.63
519.073	15074.08
519.44	15095.1
519.808	15277.47
520.175	15327.86
520.542	15516.1
520.909	15707.06
521.276	15701.18
521.643	15951.8
522.009	15933.49
522.376	16140.04
522.743	16153.37
523.11	16357.21
523.477	16464.33
523.843	16584.78
524.21	16773.25
524.577	17059.57
524.943	17005.33
525.31	17075.84
525.676	17417.52
526.043	17540
526.409	17623.17
526.776	17810.28
527.142	17891.86
527.508	18024.06
527.874	18177.05
528.241	18331.4
528.607	18450.72
528.973	18630.6
529.339	18655.68
529.705	18838.73
530.071	18904.26
530.437	19056.12
530.803	19295.66
531.169	19334.76
531.535	19351.93
531.901	19551.7
532.267	19553.06
532.632	19722.32
532.998	19856.33
533.364	20000.96
533.73	20079.37
534.095	20277.33
534.461	20338.35
534.826	20472.58
535.192	20479.59
535.557	20778.56
535.923	20688.85
536.288	20829.86
536.653	20863.53
537.019	20889.52
537.384	21121.38
537.749	21145.33
538.114	21274.14
538.479	21125.67
538.845	21273.92
539.21	21364.09
539.575	21450.86
539.94	21615.38
540.305	21794.58
540.67	21703.96
541.034	21736.73
541.399	21875.03
541.764	21980.79
542.129	22022.6
542.494	22264.85
542.858	22209.94
543.223	22264.4
543.587	22340.56
543.952	22347.56
544.316	22506.88
544.681	22508.69
545.045	22615.35
545.41	22784.84
545.774	22660.77
546.138	22761.34
546.503	22847.44
546.867	22910.71
547.231	23130.59
547.595	23073.87
547.959	23254.66
548.324	23290.81
548.688	23296.46
549.052	23408.78
549.416	23433.86
549.779	23464.37
550.143	23641.99
550.507	23704.36
550.871	23757.92
551.235	23791.82
551.599	24128.76
551.962	24110.68
552.326	24138.25
552.689	24159.72
553.053	24085.82
553.417	24340.05
553.78	24465.92
554.143	24638.8
554.507	24691.46
554.87	24825.92
555.234	25079.92
555.597	24938
555.96	25028.4
556.323	25175.51
556.686	25216.19
557.05	25515.16
557.413	25621.6
557.776	25638.78
558.139	25764.65
558.502	25841.71
558.865	25920.35
559.228	26096.16
559.59	26187.24
559.953	26267.91
560.316	26498.41
560.679	26535.93
561.041	26740.44
561.404	26770.95
561.767	27100.43
562.129	26863.6
562.492	27278.96
562.854	27229.24
563.217	27443.7
563.579	27544.71
563.941	27618.61
564.304	27830.36
564.666	28093.85
565.028	28138.37
565.39	28346.27
565.753	28505.82
566.115	28588.53
566.477	28703.33
566.839	28945.13
567.201	29142.86
567.563	29072.81
567.925	29268.28
568.287	29502.4
568.648	29736.75
569.01	29797.31
569.372	30059.68
569.734	30018.09
570.095	30289.95
570.457	30548.7
570.819	30537.86
571.18	30570.62
571.542	30771.07
571.903	30908.69
572.265	31098.52
572.626	31281.79
572.987	31335.57
573.349	31583.48
573.71	31720.42
574.071	31907.31
574.432	32016.23
574.794	32338.94
575.155	32280.86
575.516	32305.27
575.877	32413.96
576.238	32596.78
576.599	32572.6
576.96	32900.96
577.32	33072.93
577.681	33048.3
578.042	33346.37
578.403	33224.34
578.763	33366.71
579.124	33420.94
579.485	33648.73
579.845	33870.87
580.206	33822.29
580.566	33928.5
580.927	33924.66
581.287	34194.26
581.648	34198.1
582.008	34525.55
582.368	34380.24
582.728	34416.85
583.089	34488.71
583.449	34588.6
583.809	34777.74
584.169	34824.75
584.529	34874.69
584.889	35375.02
585.249	34858.42
585.609	35029.71
585.969	35190.16
586.329	35296.15
586.688	35487.56
587.048	35558.74
587.408	35645.07
587.768	35635.8
588.127	35761.67
588.487	35866.53
588.846	36181.55
589.206	35965.06
589.565	36067.88
589.925	36537.92
590.284	36435.33
590.643	36727.07
591.003	36790.12
591.362	37086.84
591.721	37039.61
592.08	37243.44
592.44	37602.08
592.799	37594.17
593.158	37627.61
593.517	37707.38
593.876	38147.6
594.235	38001.84
594.593	38228.05
594.952	38517.53
595.311	38557.08
595.67	38586.91
596.029	39006.33
596.387	39135.6
596.746	39355.48
597.104	39263.95
597.463	39400.67
597.822	39674.11
598.18	39867.1
598.538	39933.09
598.897	40176.02
599.255	40014.44
599.613	40678.83
599.972	40369.46
600.33	40741.43
600.688	40816
601.046	41036.11
601.404	41301.87
601.762	41331.92
602.12	41616.43
602.478	41752.02
602.836	41900.95
603.194	41657.79
603.552	42064.78
603.91	42157.66
604.268	42303.42
604.625	42429.29
604.983	42779.79
605.341	42574.37
605.698	42910.86
606.056	43161.03
606.413	43069.05
606.771	43533.45
607.128	43522.37
607.485	43612.77
607.843	43656.15
608.2	43746.32
608.557	44053.66
608.914	44083.71
609.272	44263.14
609.629	44481.67
609.986	44629.69
610.343	44746.75
610.7	45019.28
611.057	44914.65
611.414	44889.12
611.771	45323.46
612.127	45240.97
612.484	45425.83
612.841	45597.57
613.198	45487.74
613.554	45626.5
613.911	45910.78
614.267	45894.06
614.624	46035.07
614.98	46111.46
615.337	46372.92
615.693	46415.18
616.05	46532.69
616.406	46639.8
616.762	46569.98
617.118	46788.95
617.475	46634.61
617.831	46950.53
618.187	46875.5
618.543	47058.32
618.899	47337.19
619.255	47299.45
619.611	47290.86
619.967	47554.81
620.323	47584.86
620.678	47541.48
621.034	47601.81
621.39	47522.27
621.746	47584.64
622.101	48024.4
622.457	47574.24
622.812	47793.45
623.168	47920.68
623.523	47778.98
623.879	48113.44
624.234	47979.88
624.589	48127.22
624.945	48130.16
625.3	48103.27
625.655	48080.9
626.01	48187.33
626.365	48152.99
626.72	48039.99
627.075	48028.02
627.43	48101.01
627.785	48072.54
628.14	48024.18
628.495	48219.42
628.85	48145.53
629.205	48063.5
629.559	48177.84
629.914	47951.18
630.269	48115.7
630.623	47938.08
630.978	47999.32
631.332	48056.94
631.687	48079.99
632.041	47935.36
632.396	48178.75
632.75	47950.73
633.104	48125.19
633.459	47768.36
633.813	47754.8
634.167	47624.41
634.521	47702.83
634.875	47729.49
635.229	47654.24
635.583	47585.09
635.937	47470.97
636.291	47499.22
636.645	47525.66
636.999	47374.47
637.352	47464.87
637.706	47186.91
638.06	47327.7
638.413	47322.27
638.767	47254.93
639.121	47299
639.474	47104.2
639.828	47062.39
640.181	47174.03
640.534	47211.77
640.888	47033.69
641.241	46788.73
641.594	46973.81
641.947	46926.12
642.301	46823.98
642.654	46857.43
643.007	46750.31
643.36	46714.38
643.713	46709.63
644.066	46813.13
644.419	46449.08
644.771	46152.13
645.124	45703.56
645.477	45916.66
645.83	45618.36
646.182	45640.06
646.535	45532.49
646.888	45607.52
647.24	45503.11
647.593	45663.79
647.945	45506.28
648.298	45437.8
648.65	45034.42
649.002	44866.74
649.355	44851.38
649.707	44575
650.059	44669.46
650.411	45246.85
650.763	45482.55
651.115	46068.52
651.467	45940.84
651.819	45892.93
652.171	45699.49
652.523	45586.27
652.875	45619.94
653.227	45515.09
653.578	45674.63
653.93	45643.22
654.282	45587.4
654.633	45540.85
654.985	45542.21
655.337	45445.71
655.688	45540.85
656.039	45574.07
656.391	45185.83
656.742	45342.44
657.094	45310.57
657.445	45452.94
657.796	45381.53
658.147	45487.52
658.498	45529.55
658.849	45517.12
659.2	45327.75
659.551	45092.95
659.902	45497.69
660.253	45399.16
660.604	45396.22
660.955	45212.72
661.306	45391.93
661.656	45390.57
662.007	45300.4
662.358	45356
662.708	45388.31
663.059	45297.47
663.409	45144.02
663.76	45401.42
664.11	45326.62
664.461	45442.32
664.811	45465.37
665.161	45363.68
665.511	45264.93
665.862	45278.94
666.212	45406.84
666.562	45296.34
666.912	45357.58
667.262	45317.58
667.612	45210.92
667.962	45262.89
668.312	45206.4
668.662	45484.13
669.011	45440.06
669.361	45253.17
669.711	45414.75
670.06	45171.82
670.41	45161.65
670.76	45139.28
671.109	45424.24
671.459	45086.63
671.808	45278.03
672.157	45192.84
672.507	44907.87
672.856	45024.25
673.205	44978.83
673.554	44939.96
673.904	44838.72
674.253	45255.89
674.602	44975.44
674.951	44531.39
675.3	44298.85
675.649	45046.17
675.998	44875.11
676.346	45041.65
676.695	44928.44
677.044	44673.75
677.393	44822.45
677.741	44964.82
678.09	44754.66
678.438	44542.68
678.787	44666.98
679.135	44775.67
679.484	44429.02
679.832	44596.24
680.181	44454.55
680.529	44515.57
680.877	44276.03
681.225	44339.53
681.573	44579.29
681.922	44366.64
682.27	44187.89
682.618	44090.95
682.966	43994.9
683.314	44205.07
683.661	43987.67
684.009	43845.75
684.357	43818.64
684.705	43678.98
685.053	43706.32
685.4	43505.88
685.748	43402.15
686.095	43513.33
686.443	43207.8
686.79	43196.28
687.138	43262.27
687.485	43270.85
687.832	43106.34
688.18	43022.72
688.527	42849.17
688.874	42761.04
689.221	42943.86
689.568	42685.11
689.915	42460.93
690.262	42530.53
690.609	42457.32
690.956	42302.07
691.303	42283.31
691.65	42056.65
691.997	41978.91
692.344	41774.62
692.69	41645.59
693.037	41681.52
693.383	41340.06
693.73	41484.46
694.077	41228.87
694.423	41175.99
694.769	41016
695.116	41147.97
695.462	40902.78
695.808	40717.47
696.155	40942.1
696.501	40486.52
696.847	40567.2
697.193	40193.19
697.539	40278.16
697.885	40118.39
698.231	40064.38
698.577	39877.5
698.923	39791.4
699.269	39573.78
699.614	39356.61
699.96	39350.96
700.306	39386.66
700.651	38973.34
700.997	38905.32
701.342	38930.18
701.688	38816.28
702.033	38651.99
702.379	38756.17
702.724	38407.93
703.069	38536.51
703.415	38211.1
703.76	38110.31
704.105	38017.88
704.45	38009.98
704.795	37829.87
705.14	37607.05
705.485	37613.83
705.83	37360.27
706.175	37450.89
706.52	37337
706.865	37251.58
707.209	37092.49
707.554	37093.39
707.899	36846.84
708.243	36736.56
708.588	36706.73
708.932	36526.85
709.277	36563.23
709.621	36471.94
709.966	36263.35
710.31	36236.46
710.654	36145.62
710.998	36104.26
711.342	36124.38
711.687	35839.64
712.031	35744.05
712.375	35753.76
712.719	35658.62
713.063	35659.3
713.407	35827.21
713.75	35496.59
714.094	35384.51
714.438	35287.33
714.782	35267.67
715.125	35060.22
715.469	35413.89
715.812	35061.35
716.156	35017.96
716.499	34923.28
716.843	34916.72
717.186	34788.82
717.53	35085.98
717.873	34968.93
718.216	34822.04
718.559	34657.07
718.902	34328.94
719.246	34556.73
719.589	34474.47
719.932	34314.93
720.275	34385.21
720.617	34359.9
720.96	34189.96
721.303	34319.22
721.646	34196.06
721.989	34094.6
722.331	34090.98
722.674	34006.46
723.016	34031.1
723.359	33928.73
723.701	33853.25
724.044	33917.88
724.386	33562.86
724.729	33834.04
725.071	33721.95
725.413	33613.25
725.755	33584.78
726.097	33620.26
726.439	33473.37
726.782	33415.52
727.124	33462.98
727.465	33432.69
727.807	33331.23
728.149	33463.65
728.491	33267.05
728.833	33386.59
729.175	33288.29
729.516	33195.86
729.858	33177.79
730.199	33435.18
730.541	33197.9
730.882	33259.14
731.224	33226.6
731.565	33063.21
731.906	33053.27
732.248	33155.87
732.589	32935.31
732.93	32952.93
733.271	32971.01
733.612	33070.67
733.953	33140.5
734.294	32944.35
734.635	33043.55
734.976	33128.97
735.317	32844.01
735.658	32919.04
735.999	32953.38
736.339	32844.46
736.68	32951.8
737.021	32858.47
737.361	32832.03
737.702	32994.29
738.042	32910
738.383	32996.1
738.723	33008.07
739.063	32846.5
739.404	32952.93
739.744	32883.33
740.084	32826.16
740.424	32962.65
740.764	32869.55
741.104	33141.85
741.444	32898.02
741.784	32894.4
742.124	33069.77
742.464	32938.47
742.804	32840.62
743.143	32752.26
743.483	32952.93
743.823	32874.97
744.162	32948.41
744.502	33080.16
744.841	32943.89
745.181	33081.52
745.52	32988.86
745.86	33149.31
746.199	33026.15
746.538	33177.56
746.877	33390.44
747.216	33241.96
747.556	33261.4
747.895	33265.24
748.234	33224.56
748.573	33322.19
748.911	33225.69
749.25	33448.06
749.589	33291
749.928	33361.51
750.267	33482.86
750.605	33394.5
750.944	33421.85
751.283	33479.25
751.621	33559.7
751.96	33317.22
752.298	33547.27
752.636	33525.57
752.975	33566.02
753.313	33489.87
753.651	33630.88
753.989	33585.23
754.327	33625.91
754.666	33390.44
755.004	33800.37
755.342	33798.79
755.679	33872.23
756.017	33678.34
756.355	33861.38
756.693	33872.68
757.031	33981.83
757.368	33908.84
757.706	33984.09
758.044	33834.94
758.381	33993.81
758.719	33885.11
759.056	33901.16
759.394	33990.19
759.731	33766.47
760.068	33817.99
760.405	33823.42
760.743	33795.17
761.08	33843.53
761.417	33752.46
761.754	33800.59
762.091	33668.62
762.428	33598.11
762.765	33548.17
763.102	33541.17
763.438	33679.47
763.775	33261.17
764.112	33454.84
764.449	33450.1
764.785	33469.3
765.122	33384.11
765.458	33191.8
765.795	33180.95
766.131	33170.1
766.467	33019.37
766.804	32992.48
767.14	32967.85
767.476	32962.65
767.812	32737.12
768.148	32811.92
768.485	32756.33
768.821	32521.53
769.157	32673.84
769.492	32609.67
769.828	32494.64
770.164	32211.26
770.5	32360.18
770.836	32273.4
771.171	32206.06
771.507	32136.91
771.842	31926.07
772.178	31961.32
772.513	31826.63
772.849	31783.25
773.184	31705.73
773.519	31466.42
773.855	31445.18
774.19	31326.54
774.525	31301.9
774.86	31202.02
775.195	31144.39
775.53	30992.53
775.865	30890.16
776.2	30734.01
776.535	30538.08
776.87	30618.08
777.205	30432.32
777.539	30351.87
777.874	30414.02
778.209	30120.01
778.543	30044.99
778.878	29996.85
779.212	29937.42
779.547	29734.94
779.881	29703.75
780.215	29593.7
780.55	29536.07
780.884	29330.2
781.218	29278.23
781.552	29377.21
781.886	29013.38
782.22	29035.52
782.554	28879.59
782.888	28647.96
783.222	28536.55
783.556	28551.01
783.889	28483.45
784.223	28230.57
784.557	28357.35
784.89	28388.31
785.224	28087.52
785.557	27994.65
785.891	27894.76
786.224	27889.34
786.558	27811.15
786.891	27610.47
787.224	27485.51
787.557	27397.82
787.891	27344.27
788.224	27061.56
788.557	27261.56
788.89	27263.14
789.223	27232.18
789.556	26969.59
789.888	26863.83
790.221	26763.27
790.554	26693.89
790.887	26660.44
791.219	26408.25
791.552	26386.55
791.884	26335.71
792.217	26303.16
792.549	26174.81
792.882	26035.15
793.214	25937.75
793.546	25859.33
793.879	25761.94
794.211	25441.49
794.543	25588.15
794.875	25509.51
795.207	25527.82
795.539	25439.68
795.871	25519.46
796.203	25164.21
796.535	25216.64
796.867	25123.31
797.198	24832.02
797.53	24957.66
797.862	24753.15
798.193	24738.69
798.525	24664.34
798.856	24757.22
799.188	24372.37
799.519	24425.25
799.85	24388.64
800.182	24270
800.513	24318.58
800.844	23936.9
801.175	24112.94
801.506	24031.81
801.837	24005.6
802.168	23942.1
802.499	23991.59
802.83	23733.29
803.161	23600.64
803.491	23594.53
803.822	23608.09
804.153	23469.79
804.483	23375.11
804.814	23217.82
805.145	23253.53
805.475	23284.49
805.805	23159.97
806.136	23268.44
806.466	23062.12
806.796	23079.07
807.126	22844.72
807.457	22868.23
807.787	22915.91
808.117	22785.52
808.447	22677.04
808.777	22779.64
809.107	22522.25
809.436	22433.66
809.766	22515.47
810.096	22464.62
810.426	22336.71
810.755	22259.88
811.085	22282.71
811.414	22294.68
811.744	22098.53
812.073	22075.93
812.403	22041.58
812.732	21870.29
813.061	22007.46
813.39	21772.89
813.719	21803.17
814.049	21897.18
814.378	21807.46
814.707	21621.48
815.036	21743.96
815.365	21605.21
815.693	21391.43
816.022	21468.94
816.351	21377.19
816.68	21246.12
817.008	21285.44
817.337	21119.12
817.665	21198.67
817.994	21117.76
818.322	21216.29
818.651	21089.52
818.979	20995.06
819.307	21075.73
819.636	20920.93
819.964	20956.64
820.292	20984.89
820.62	20953.25
820.948	20986.24
821.276	20981.04
821.604	20804.55
821.932	20994.15
822.259	20936.3
822.587	20927.03
822.915	20825.57
823.243	20850.2
823.57	20753.93
823.898	20874.61
824.225	20732.01
824.553	20761.39
824.88	20847.71
825.207	20878.45
825.535	20849.07
825.862	20927.03
826.189	20791.44
826.516	20935.85
826.843	20986.02
827.17	20964.77
827.497	20945.79
827.824	20980.82
828.151	20970.88
828.478	20794.61
828.805	20892.91
829.131	20799.13
829.458	20807.49
829.785	20714.84
830.111	20768.62
830.438	20844.78
830.764	20814.27
831.09	20869.63
831.417	20776.53
831.743	20912.57
832.069	20860.6
832.395	20790.31
832.722	20794.38
833.048	20804.55
833.374	20780.6
833.7	20672.8
834.026	20790.09
834.351	20651.79
834.677	20786.25
835.003	20689.75
835.329	20713.25
835.654	20623.31
835.98	20560.94
836.306	20658.34
836.631	20456.09
836.956	20658.34
837.282	20645.46
837.607	20501.73
837.932	20452.24
838.258	20568.17
838.583	20448.63
838.908	20366.6
839.233	20409.31
839.558	20267.16
839.883	20361.63
840.208	20150.33
840.533	20282.53
840.858	20070.79
841.182	20255.19
841.507	20186.04
841.832	20101.97
842.156	20145.81
842.481	20007.06
842.805	19975.65
843.13	19936.1
843.454	19958.92
843.778	19933.84
844.103	19921.86
844.427	19854.97
844.751	19747.63
845.075	19762.55
845.399	19611.59
845.723	19662.43
846.047	19548.99
846.371	19359.17
846.695	19372.73
847.019	19327.3
847.343	19306.06
847.666	19225.61
847.99	19103.35
848.313	19047.08
848.637	19029.68
848.96	18990.14
849.284	18893.87
849.607	18737.94
849.931	18752.18
850.254	18649.81
850.577	18428.12
850.9	18405.52
851.223	18395.58
851.546	18295.92
851.869	18177.95
852.192	18380.66
852.515	18066.54
852.838	18125.3
853.161	18031.74
853.483	17878.53
853.806	17955.14
854.129	17796.27
854.451	17861.35
854.774	17704.52
855.096	17575.71
855.419	17518.54
855.741	17463.62
856.063	17407.58
856.385	17333.23
856.708	17319.9
857.03	17355.15
857.352	17192.22
857.674	17140.47
857.996	17062.5
858.318	16940.25
858.64	17005.78
858.961	16933.47
859.283	16946.35
859.605	16841.27
859.926	16871.1
860.248	16789.06
860.57	16653.93
860.891	16668.62
861.212	16612.35
861.534	16503.42
861.855	16543.87
862.176	16600.14
862.498	16536.19
862.819	16619.58
863.14	16475.4
863.461	16426.59
863.782	16342.97
864.103	16365.12
864.424	16438.79
864.745	16360.15
865.065	16283.09
865.386	16143.43
865.707	16215.07
866.027	16180.94
866.348	16087.39
866.668	16091.68
866.989	16064.11
867.309	16034.73
867.63	16012.36
867.95	16032.93
868.27	16007.16
868.59	16053.72
868.91	15888.75
869.23	15958.35
869.55	15845.13
869.87	15883.55
870.19	15837.22
870.51	15783.21
870.83	15736.44
871.15	15779.37
871.469	15771.24
871.789	15785.7
872.109	15711.8
872.428	15554.97
872.748	15666.38
873.067	15664.12
873.386	15606.72
873.706	15594.07
874.025	15511.13
874.344	15439.27
874.663	15421.19
874.982	15448.53
875.301	15406.05
875.62	15277.47
875.939	15353.62
876.258	15370.8
876.577	15264.36
876.896	15288.31
877.214	15131.25
877.533	15197.69
877.852	15190.24
878.17	15236.11
878.489	15188.88
878.807	15214.87
879.125	15157.24
879.444	15099.39
879.762	15080.18
880.08	15097.58
880.398	14921.32
880.716	14990.24
881.034	14913.18
881.352	14938.94
881.67	14890.58
881.988	14888.78
882.306	14793.41
882.624	14805.39
882.941	14726.75
883.259	14686.52
883.577	14765.61
883.894	14651.04
884.212	14640.42
884.529	14693.07
884.846	14589.35
885.164	14503.02
885.481	14523.14
885.798	14495.11
886.115	14477.49
886.432	14376.92
886.75	14321.33
887.067	14371.05
887.383	14332.63
887.7	14376.47
888.017	14215.57
888.334	14261.67
888.651	14221.67
888.967	14221.9
889.284	14125.63
889.6	14105.07
889.917	13948.23
890.233	14031.4
890.55	13901.46
890.866	13820.33
891.182	13853.55
891.498	13884.96
891.815	13766.09
892.131	13666.89
892.447	13744.17
892.763	13665.3
893.079	13630.5
893.395	13681.12
893.71	13499.89
894.026	13532.88
894.342	13539.88
894.657	13374.01
894.973	13384.41
895.289	13383.05
895.604	13274.35
895.92	13156.17
896.235	13235.71
896.55	13201.81
896.865	13149.61
897.181	13132.44
897.496	13123.4
897.811	12931.99
898.126	12955.27
898.441	12906
898.756	12837.08
899.071	12819.45
899.386	12859
899.7	12782.84
900.015	12666.91
900.33	12554.37
900.644	12540.14
900.959	12626.91
901.273	12564.32
901.588	12505.11
901.902	12478.9
902.216	12306.02
902.531	12344.21
902.845	12234.16
903.159	12183.08
903.473	12296.75
903.787	12066.25
904.101	12044.1
904.415	12055.86
904.729	12029.19
905.042	11931.34
905.356	11933.15
905.67	11868.06
905.984	11869.65
906.297	11793.49
906.611	11760.95
906.924	11728.63
907.237	11648.86
907.551	11622.19
907.864	11586.26
908.177	11509.2
908.491	11548.75
908.804	11414.97
909.117	11302.88
909.43	11282.77
909.743	11248.19
910.056	11301.75
910.368	11213.17
910.681	11129.33
910.994	11105.82
911.307	11083.9
911.619	10974.08
911.932	10989.67
912.244	10892.04
912.557	10887.07
912.869	10818.37
913.181	10753.52
913.494	10758.04
913.806	10622.9
914.118	10588.55
914.43	10588.55
914.742	10581.32
915.054	10489.57
915.366	10403.92
915.678	10420.42
915.99	10431.49
916.302	10263.81
916.613	10269.91
916.925	10270.59
917.236	10261.78
917.548	10158.28
917.859	10192.4
918.171	10070.6
918.482	10022.01
918.794	10023.59
919.105	9961.9
919.416	9947.44
919.727	9944.05
920.038	9839.87
920.349	9734.56
920.66	9766.65
920.971	9761.9
921.282	9729.36
921.593	9630.83
921.903	9530.05
922.214	9608.91
922.525	9504.28
922.835	9474.68
923.146	9434.23
923.456	9381.35
923.767	9358.3
924.077	9329.15
924.387	9322.14
924.697	9297.28
925.008	9172.09
925.318	9157.4
925.628	9121.7
925.938	9098.64
926.248	9021.58
926.558	8985.88
926.867	8992.21
927.177	8956.05
927.487	8914.24
927.796	8803.96
928.106	8831.53
928.416	8758.31
928.725	8787.01
929.034	8744.3
929.344	8701.59
929.653	8704.08
929.962	8532.33
930.271	8526.23
930.581	8542.73
930.89	8512.9
931.199	8471.09
931.508	8436.74
931.817	8383.64
932.125	8366.46
932.434	8306.8
932.743	8255.28
933.051	8231.78
933.36	8262.06
933.669	8224.09
933.977	8185.45
934.286	8155.84
934.594	8100.71
934.902	8046.02
935.21	8007.37
935.519	7966.47
935.827	7931.9
936.135	7907.26
936.443	7846.7
936.751	7830.66
937.059	7765.12
937.367	7686.93
937.674	7753.82
937.982	7730.32
938.29	7676.31
938.597	7690.09
938.905	7570.55
939.213	7536.65
939.52	7460.5
939.827	7597.89
940.135	7527.84
940.442	7454.17
940.749	7350.44
941.056	7394.06
941.363	7299.6
941.67	7332.36
941.977	7276.77
942.284	7234.97
942.591	7211.24
942.898	7164.68
943.205	7172.59
943.511	7084.01
943.818	7173.27
944.125	7094.63
944.431	7047.85
944.738	7043.78
945.044	6971.24
945.35	6937.12
945.657	6881.3
945.963	6908.65
946.269	6822.32
946.575	6804.02
946.881	6728.99
947.187	6762.21
947.493	6705.94
947.799	6737.35
948.105	6684.92
948.41	6623.46
948.716	6661.65
949.022	6601.31
949.327	6583.68
949.633	6531.71
949.938	6504.59
950.244	6543.23
950.549	6466.62
950.854	6399.51
951.16	6389.79
951.465	6401.31
951.77	6339.62
952.075	6345.05
952.38	6316.35
952.685	6261.21
952.99	6239.29
953.294	6228.44
953.599	6213.75
953.904	6167.87
954.209	6065.28
954.513	6105.73
954.818	6083.81
955.122	6053.75
955.426	6027.99
955.731	5985.28
956.035	5964.04
956.339	5898.73
956.643	5925.62
956.948	5879.75
957.252	5851.5
957.556	5879.75
957.86	5813.76
958.163	5740.09
958.467	5717.94
958.771	5766.98
959.075	5765.63
959.378	5663.26
959.682	5686.98
959.985	5607.21
960.289	5585.29
960.592	5559.08
960.896	5544.61
961.199	5545.97
961.502	5473.66
961.805	5458.06
962.108	5455.12
962.411	5449.25
962.714	5384.39
963.017	5397.73
963.32	5336.26
963.623	5322.47
963.926	5296.71
964.228	5287.22
964.531	5282.93
964.833	5234.34
965.136	5242.25
965.438	5195.47
965.741	5149.82
966.043	5096.72
966.345	5129.26
966.648	5086.1
966.95	5074.8
967.252	5014.01
967.554	5029.6
967.856	5031.63
968.158	4946.66
968.46	4965.42
968.761	4929.94
969.063	4933.56
969.365	4897.4
969.666	4832.77
969.968	4842.71
970.269	4870.73
970.571	4811.3
970.872	4777.4
971.174	4787.8
971.475	4745.99
971.776	4711.42
972.077	4698.31
972.378	4714.81
972.679	4653.34
972.98	4671.19
973.281	4631.64
973.582	4606.11
973.883	4580.12
974.183	4547.13
974.484	4544.64
974.785	4484.75
975.085	4508.71
975.386	4492.44
975.686	4492.44
975.986	4414.93
976.287	4416.51
976.587	4387.13
976.887	4374.93
977.187	4371.99
977.487	4327.7
977.787	4367.47
978.087	4285.66
978.387	4276.4
978.687	4275.04
978.987	4237.08
979.286	4199.79
979.586	4214.93
979.885	4183.75
980.185	4165.89
980.484	4202.95
980.784	4152.56
981.083	4101.94
981.382	4109.17
981.682	4101.49
981.981	4030.76
982.28	4078.89
982.579	4021.72
982.878	3993.92
983.177	3959.57
983.475	3957.54
983.774	3961.15
984.073	3946.24
984.372	3895.62
984.67	3936.52
984.969	3885.22
985.267	3855.84
985.566	3923.64
985.864	3808.84
986.162	3794.15
986.461	3808.16
986.759	3782.4
987.057	3729.75
987.355	3722.29
987.653	3743.76
987.951	3695.4
988.249	3714.15
988.547	3684.55
988.844	3673.48
989.142	3632.12
989.44	3621.73
989.737	3598.9
990.035	3606.13
990.332	3623.99
990.63	3584.21
990.927	3523.88
991.224	3531.33
991.521	3517.55
991.819	3497.66
992.116	3532.69
992.413	3428.06
992.71	3460.83
993.006	3451.79
993.303	3416.53
993.6	3378.12
993.897	3392.81
994.193	3354.62
994.49	3402.3
994.787	3385.12
995.083	3367.04
995.379	3295.86
995.676	3241.62
995.972	3244.11
996.268	3249.99
996.565	3196.88
996.861	3238.69
997.157	3192.36
997.453	3160.5
997.749	3153.26
998.044	3161.17
998.34	3164.56
998.636	3147.84
998.932	3113.94
999.227	3050.89
999.523	3080.5
999.818	3071.68
1000.114	3020.39
1000.409	3007.51
1000.704	2997.34
1001	2986.72
1001.295	3023.55
1001.59	2960.05
1001.885	2946.04
1002.18	2927.51
1002.475	2925.02
1002.77	2879.15
1003.065	2918.24
1003.359	2843.67
1003.654	2828.53
1003.949	2859.71
1004.243	2796.21
1004.538	2779.94
1004.832	2771.35
1005.127	2778.13
1005.421	2724.12
1005.715	2708.76
1006.009	2717.12
1006.304	2692.94
1006.598	2677.12
1006.892	2683.9
1007.186	2633.28
1007.48	2692.03
1007.773	2616.56
1008.067	2602.54
1008.361	2581.53
1008.655	2550.12
1008.948	2572.71
1009.242	2545.37
1009.535	2545.14
1009.829	2470.34
1010.122	2500.63
1010.415	2462.44
1010.708	2471.25
1011.001	2458.82
1011.295	2456.11
1011.588	2436.9
1011.881	2401.42
1012.173	2373.4
1012.466	2386.28
1012.759	2352.83
1013.052	2361.42
1013.344	2376.11
1013.637	2338.37
1013.93	2290.91
1014.222	2321.2
1014.514	2293.17
1014.807	2300.63
1015.099	2249.33
1015.391	2243.01
1015.683	2200.52
1015.976	2198.26
1016.268	2198.94
1016.56	2191.03
1016.851	2155.32
1017.143	2159.84
1017.435	2170.47
1017.727	2148.55
1018.018	2125.04
1018.31	2084.82
1018.602	2091.15
1018.893	2083.46
1019.185	2051.15
1019.476	2049.34
1019.767	2062.45
1020.058	1983.13
1020.35	2017.02
1020.641	2012.73
1020.932	1974.54
1021.223	1952.17
1021.514	1956.46
1021.804	1961.43
1022.095	1949.91
1022.386	1955.56
1022.677	1926.4
1022.967	1896.35
1023.258	1842.11
1023.548	1854.99
1023.839	1836.46
1024.129	1831.27
1024.419	1787.88
1024.709	1809.8
1025	1798.72
1025.29	1816.35
1025.58	1778.16
1025.87	1760.98
1026.16	1722.57
1026.449	1746.97
1026.739	1746.97
1027.029	1717.82
1027.319	1673.98
1027.608	1694.55
1027.898	1659.74
1028.187	1655
1028.477	1654.09
1028.766	1638.73
1029.055	1637.6
1029.344	1598.73
1029.634	1607.54
1029.923	1584.49
1030.212	1569.35
1030.501	1575
1030.79	1547.66
1031.078	1571.39
1031.367	1548.33
1031.656	1545.62
1031.945	1531.61
1032.233	1494.78
1032.522	1504.27
1032.81	1471.05
1033.099	1500.88
1033.387	1478.05
1033.675	1462.69
1033.963	1447.55
1034.251	1440.54
1034.54	1425.4
1034.828	1429.24
1035.116	1424.72
1035.403	1423.37
1035.691	1386.31
1035.979	1370.26
1036.267	1384.5
1036.554	1371.16
1036.842	1363.93
1037.129	1341.56
1037.417	1338.4
1037.704	1326.87
1037.992	1331.62
1038.279	1302.47
1038.566	1294.1
1038.853	1294.1
1039.14	1294.1
