Data from 19-1250_FLMS001491_004.txt Node
Date: Thu Apr 19 16:28:15 BST 2018
User: hsy
Spectrometer: FLMS00149
Trigger mode: 0
Integration Time (sec): 1.000000E-2
Scans to average: 10
Electric dark correction enabled: true
Nonlinearity correction enabled: false
Boxcar width: 0
XAxis mode: Wavelengths
Number of Pixels in Spectrum: 2048
>>>>>Begin Spectral Data<<<<<
341.393	-7.92
341.776	-7.92
342.16	-7.92
342.543	-59
342.927	-91.09
343.31	-77.53
343.693	-70.52
344.077	-79.33
344.46	-69.84
344.843	-46.11
345.226	-43.4
345.61	-27.13
345.993	-5.89
346.376	-10.18
346.759	17.39
347.142	32.98
347.525	43.6
347.908	46.99
348.291	69.36
348.674	93.54
349.057	126.08
349.44	116.37
349.823	148
350.206	180.77
350.588	223.93
350.971	250.6
351.354	268.91
351.737	261.67
352.119	307.32
352.502	294.89
352.884	305.29
353.267	310.26
353.65	332.18
354.032	337.6
354.414	360.88
354.797	340.32
355.179	329.02
355.562	369.92
355.944	369.02
356.326	376.93
356.709	378.28
357.091	380.54
357.473	353.2
357.855	368.11
358.238	377.38
358.62	367.21
359.002	383.48
359.384	391.16
359.766	382.57
360.148	365.63
360.53	373.31
360.912	376.47
361.294	386.87
361.676	385.06
362.057	395.91
362.439	378.73
362.821	387.55
363.203	373.54
363.584	388
363.966	381.67
364.348	388.68
364.729	392.97
365.111	380.09
365.493	390.94
365.874	379.18
366.256	372.86
366.637	399.75
367.019	349.13
367.4	367.66
367.781	362.01
368.163	360.43
368.544	354.33
368.925	376.47
369.306	384.61
369.688	371.73
370.069	376.25
370.45	366.76
370.831	369.02
371.212	386.87
371.593	382.35
371.974	395
372.355	369.92
372.736	409.01
373.117	372.63
373.498	378.73
373.879	376.25
374.26	369.69
374.641	375.34
375.021	384.16
375.402	399.98
375.783	394.55
376.163	408.11
376.544	388.9
376.925	432.52
377.305	406.53
377.686	418.96
378.066	406.75
378.447	404.04
378.827	420.77
379.208	426.87
379.588	428
379.968	432.97
380.349	407.66
380.729	428.45
381.109	441.78
381.489	419.41
381.87	433.42
382.25	426.64
382.63	446.53
383.01	435.68
383.39	441.56
383.77	440.43
384.15	418.96
384.53	441.33
384.91	459.63
385.29	428.68
385.67	462.35
386.049	480.88
386.429	465.74
386.809	487.66
387.189	449.92
387.568	476.36
387.948	463.48
388.328	486.07
388.707	482.69
389.087	496.02
389.466	486.75
389.846	499.18
390.225	520.42
390.605	486.3
390.984	496.02
391.363	505.96
391.743	510.03
392.122	520.65
392.501	519.52
392.881	529.24
393.26	514.32
393.639	549.12
394.018	540.54
394.397	542.12
394.776	544.83
395.155	555.68
395.534	542.8
395.913	556.36
396.292	576.69
396.671	546.64
397.05	553.87
397.429	557.94
397.808	554.1
398.186	569.01
398.565	584.15
398.944	570.59
399.323	578.28
399.701	568.78
400.08	603.81
400.458	606.52
400.837	604.04
401.215	601.1
401.594	589.57
401.972	614.66
402.351	614.88
402.729	611.95
403.107	615.11
403.486	618.73
403.864	635.9
404.242	651.72
404.62	632.74
404.999	624.15
405.377	662.57
405.755	649.01
406.133	652.17
406.511	678.84
406.889	689.46
407.267	668.44
407.645	689.23
408.023	708.44
408.401	716.8
408.779	702.34
409.156	726.07
409.534	736.92
409.912	774.65
410.29	753.86
410.667	763.36
411.045	743.02
411.422	784.37
411.8	762.9
412.178	779.4
412.555	785.73
412.933	805.61
413.31	808.33
413.687	821.89
414.065	812.85
414.442	845.39
414.819	840.42
415.197	854.65
415.574	851.26
415.951	861.66
416.328	886.97
416.705	858.49
417.082	882
417.46	876.57
417.837	887.65
418.214	905.95
418.591	899.4
418.967	893.07
419.344	894.65
419.721	922.9
420.098	924.93
420.475	940.53
420.852	967.87
421.228	957.25
421.605	938.04
421.982	987.76
422.358	996.34
422.735	1005.38
423.111	994.54
423.488	1016.91
423.864	999.51
424.241	1004.03
424.617	1033.63
424.994	1037.02
425.37	1027.98
425.746	1021.65
426.123	1050.81
426.499	1049.22
426.875	1032.73
427.251	1093.97
427.627	1111.14
428.003	1118.37
428.379	1107.75
428.756	1156.57
429.132	1163.35
429.507	1153.4
429.883	1164.7
430.259	1186.17
430.635	1209.45
431.011	1244.02
431.387	1264.36
431.763	1281.76
432.138	1254.87
432.514	1278.37
432.89	1295.09
433.265	1297.8
433.641	1326.28
434.016	1326.5
434.392	1364.92
434.767	1357.92
435.143	1378.48
435.518	1391.14
435.894	1399.95
436.269	1414.19
436.644	1420.97
437.02	1445.37
437.395	1452.15
437.77	1469.55
438.145	1502.09
438.52	1504.58
438.895	1527.4
439.271	1524.01
439.646	1550.91
440.021	1561.75
440.395	1556.33
440.77	1537.8
441.145	1558.81
441.52	1595.65
441.895	1619.6
442.27	1592.71
442.645	1620.73
443.019	1621.86
443.394	1641.3
443.769	1635.88
444.143	1652.15
444.518	1640.39
444.892	1648.53
445.267	1660.06
445.641	1681.52
446.016	1704.35
446.39	1705.25
446.764	1718.13
447.139	1731.69
447.513	1731.47
447.887	1739.6
448.262	1782.31
448.636	1753.61
449.01	1798.58
449.384	1803.78
449.758	1794.97
450.132	1827.06
450.506	1835.64
450.88	1858.02
451.254	1830.22
451.628	1880.16
452.002	1919.48
452.376	1941.4
452.75	1943.21
453.123	1947.28
453.497	2000.39
453.871	1997.9
454.244	2041.51
454.618	2031.8
454.992	2080.16
455.365	2080.84
455.739	2124.9
456.112	2164.9
456.486	2166.48
456.859	2173.26
457.232	2217.33
457.606	2239.48
457.979	2247.61
458.352	2297.1
458.725	2328.51
459.099	2352.01
459.472	2369.87
459.845	2392.24
460.218	2421.39
460.591	2460.26
460.964	2486.25
461.337	2521.05
461.71	2568.51
462.083	2571.9
462.456	2630.43
462.829	2632.69
463.201	2660.03
463.574	2685.34
463.947	2688.05
464.32	2736.64
464.692	2733.02
465.065	2782.06
465.438	2823.19
465.81	2831.1
466.183	2865
466.555	2907.03
466.928	2931.66
467.3	2926.69
467.672	2980.02
468.045	3067.7
468.417	3125.33
468.789	3108.83
469.161	3137.3
469.534	3172.33
469.906	3239.22
470.278	3233.35
470.65	3298.2
471.022	3359.67
471.394	3408.48
471.766	3449.84
472.138	3454.81
472.51	3524.86
472.882	3575.49
473.253	3627.69
473.625	3705.2
473.997	3729.38
474.369	3731.87
474.74	3819.09
475.112	3891.41
475.484	3929.83
475.855	3976.38
476.227	4061.57
476.598	4174.79
476.97	4157.39
477.341	4263.6
477.713	4360.32
478.084	4372.3
478.455	4473.99
478.827	4571.17
479.198	4664.72
479.569	4669.24
479.94	4761.89
480.311	4846.86
480.682	4940.87
481.053	5030.59
481.424	5131.6
481.795	5240.75
482.166	5250.47
482.537	5320.98
482.908	5450.92
483.279	5545.15
483.65	5664.7
484.021	5774.52
484.391	5767.07
484.762	5908.76
485.133	5999.38
485.503	6046.61
485.874	6192.37
486.244	6249.31
486.615	6356.43
486.985	6496.09
487.356	6550.1
487.726	6617.44
488.097	6803.2
488.467	6842.07
488.837	7012.46
489.207	7024.43
489.578	7160.7
489.948	7342.62
490.318	7419
490.688	7478.43
491.058	7610.41
491.428	7767.24
491.798	7820.35
492.168	7990.96
492.538	7952.55
492.908	8169.94
493.278	8266.44
493.648	8332.87
494.017	8458.07
494.387	8515.69
494.757	8629.82
495.126	8696.93
495.496	8783.03
495.866	8828.23
496.235	8980.54
496.605	9059.86
496.974	9093.76
497.344	9298.72
497.713	9298.5
498.082	9396.35
498.452	9506.85
498.821	9614.42
499.19	9676.12
499.559	9766.06
499.928	9801.76
500.298	9938.48
500.667	9979.61
501.036	10036.78
501.405	10131.7
501.774	10187.74
502.143	10284.46
502.512	10340.05
502.88	10543.66
503.249	10552.93
503.618	10606.71
503.987	10693.26
504.356	10852.58
504.724	10888.74
505.093	10896.87
505.462	11035.85
505.83	11118.11
506.199	11175.74
506.567	11387.71
506.936	11416.86
507.304	11509.06
507.672	11503.86
508.041	11621.83
508.409	11719.45
508.777	11799
509.145	11911.76
509.514	11891.2
509.882	12043.51
510.25	12130.06
510.618	12255.26
510.986	12265.88
511.354	12386.78
511.722	12508.81
512.09	12575.7
512.458	12648.47
512.826	12808.91
513.193	12805.07
513.561	12860.66
513.929	13033.32
514.297	13208.9
514.664	13217.27
515.032	13268.56
515.4	13386.75
515.767	13479.18
516.135	13690.02
516.502	13610.02
516.869	13858.38
517.237	13881.65
517.604	13777.02
517.972	14023.8
518.339	14200.06
518.706	14308.76
519.073	14377.23
519.44	14401.19
519.808	14658.81
520.175	14645.48
520.542	14826.04
520.909	14890.22
521.276	14951.91
521.643	15183.32
522.009	15269.19
522.376	15382.18
522.743	15554.15
523.11	15653.81
523.477	15815.62
523.843	15990.98
524.21	16201.14
524.577	16251.08
524.943	16333.34
525.31	16401.59
525.676	16630.96
526.043	16802.93
526.409	16835.25
526.776	17068.46
527.142	17205.18
527.508	17324.5
527.874	17524.5
528.241	17558.85
528.607	17729.46
528.973	17911.61
529.339	17948.21
529.705	18111.6
530.071	18264.36
530.437	18331.48
530.803	18484.02
531.169	18615.77
531.535	18713.84
531.901	18763.79
532.267	18834.52
532.632	19022.76
532.998	19119.94
533.364	19201.29
533.73	19333.71
534.095	19501.62
534.461	19585.91
534.826	19658.9
535.192	19695.06
535.557	19966.47
535.923	19966.24
536.288	20002.17
536.653	20152
537.019	20179.79
537.384	20272
537.749	20368.72
538.114	20456.4
538.479	20428.6
538.845	20527.58
539.21	20600.57
539.575	20660.01
539.94	20855.26
540.305	21103.84
540.67	20954.92
541.034	21140.45
541.399	21111.75
541.764	21281.91
542.129	21307.45
542.494	21385.41
542.858	21376.15
543.223	21441.46
543.587	21596.03
543.952	21570.27
544.316	21844.38
544.681	21770.26
545.045	21833.99
545.41	22008.67
545.774	22020.2
546.138	22167.31
546.503	22153.08
546.867	22283.69
547.231	22282.11
547.595	22385.61
547.959	22495.44
548.324	22503.35
548.688	22545.38
549.052	22596.23
549.416	22648.88
549.779	22732.04
550.143	22871.7
550.507	23014.07
550.871	23038.02
551.235	23071.02
551.599	23284.12
551.962	23295.64
552.326	23517.56
552.689	23559.14
553.053	23460.61
553.417	23548.75
553.78	23894.72
554.143	23980.82
554.507	24004.78
554.87	24051.56
555.234	24384.2
555.597	24209.07
555.96	24413.81
556.323	24527.25
556.686	24572
557.05	24652.67
557.413	24777.41
557.776	24764.31
558.139	25067.8
558.502	25169.72
558.865	25054.92
559.228	25344.18
559.59	25496.26
559.953	25569.71
560.316	25839.53
560.679	25731.29
561.041	26051.05
561.404	26222.35
561.767	26334.66
562.129	26290.59
562.492	26555.45
562.854	26591.15
563.217	26739.17
563.579	26878.6
563.941	27048.31
564.304	27330.34
564.666	27508.64
565.028	27409.89
565.39	27564.91
565.753	27788.63
566.115	27859.14
566.477	28097.1
566.839	28168.06
567.201	28493.25
567.563	28493.7
567.925	28762.39
568.287	28779.57
568.648	28955.38
569.01	29105.89
569.372	29357.18
569.734	29291.19
570.095	29582.71
570.457	29887.79
570.819	29885.75
571.18	29811.63
571.542	30155.8
571.903	30178.63
572.265	30361
572.626	30615.9
572.987	30768.67
573.349	30872.62
573.71	31139.05
574.071	31254.98
574.432	31290.91
574.794	31574.75
575.155	31697.01
575.516	31674.18
575.877	31860.17
576.238	31983.33
576.599	32134.28
576.96	32261.96
577.32	32334.28
577.681	32457.66
578.042	32506.48
578.403	32690.88
578.763	32765.23
579.124	32779.24
579.485	33154.14
579.845	33209.28
580.206	33260.13
580.566	33208.38
580.927	33312.56
581.287	33546.45
581.648	33525.43
582.008	33775.59
582.368	33754.58
582.728	33882.71
583.089	33827.57
583.449	34011.97
583.809	34006.32
584.169	34280.21
584.529	34132.65
584.889	34519.08
585.249	34432.07
585.609	34414
585.969	34696.25
586.329	34607.21
586.688	34808.56
587.048	34821.67
587.408	35151.83
587.768	35090.59
588.127	35158.16
588.487	35352.95
588.846	35662.78
589.206	35425.04
589.565	35648.31
589.925	36008.98
590.284	35846.73
590.643	36043.33
591.003	36170.11
591.362	36521.96
591.721	36657.55
592.08	36609.19
592.44	37079.46
592.799	36937.77
593.158	37080.37
593.517	37131.66
593.876	37479.45
594.235	37581.82
594.593	37785.88
594.952	37891.87
595.311	37851.42
595.67	38207.12
596.029	38418.86
596.387	38655.01
596.746	38974.1
597.104	38739.31
597.463	39015.91
597.822	39294.55
598.18	39350.59
598.538	39379.52
598.897	39839.39
599.255	39745.16
599.613	40180.4
599.972	40076.22
600.33	40387.62
600.688	40394.63
601.046	40708.07
601.404	40995.97
601.762	40991
602.12	41250.43
602.478	41433.02
602.836	41640.47
603.194	41344.89
603.552	41656.97
603.91	41743.3
604.268	42090.86
604.625	42032.1
604.983	42401.81
605.341	42198.2
605.698	42495.82
606.056	42964.28
606.413	42743.27
606.771	43094.9
607.128	43180.09
607.485	43162.47
607.843	43275.46
608.2	43421.22
608.557	43646.52
608.914	43759.51
609.272	43834.09
609.629	44198.15
609.986	44207.86
610.343	44364.24
610.7	44616.44
611.057	44695.08
611.414	44670
611.771	44990.89
612.127	45119.25
612.484	45136.65
612.841	45303.43
613.198	45277.44
613.554	45253.26
613.911	45692.34
614.267	45756.3
614.624	45702.29
614.98	45934.6
615.337	46181.82
615.693	46173.69
616.05	46258.66
616.406	46401.25
616.762	46367.35
617.118	46467.92
617.475	46538.88
617.831	46696.39
618.187	46811.18
618.543	46831.3
618.899	47067.9
619.255	46955.14
619.611	47126.43
619.967	47296.82
620.323	47448.23
620.678	47238.97
621.034	47353.09
621.39	47311.96
621.746	47270.61
622.101	47835.11
622.457	47433.77
622.812	47667.21
623.168	47734.32
623.523	47704.72
623.879	47915.34
624.234	47659.75
624.589	47943.58
624.945	47770.71
625.3	47824.72
625.655	47925.28
626.01	48099.06
626.365	48019.29
626.72	47875.11
627.075	47816.13
627.43	47913.53
627.785	48086.86
628.14	48013.86
628.495	47986.29
628.85	48051.15
629.205	47906.07
629.559	48102
629.914	48013.19
630.269	47896.13
630.623	47751.5
630.978	47712.86
631.332	47960.31
631.687	47863.81
632.041	47861.55
632.396	47820.2
632.75	47740.88
633.104	47755.79
633.459	47697.26
633.813	47740.65
634.167	47639.86
634.521	47640.99
634.875	47655.91
635.229	47600.32
635.583	47306.76
635.937	47264.28
636.291	47356.25
636.645	47330.49
636.999	47206.88
637.352	47360.32
637.706	47021.35
638.06	47290.27
638.413	47256.14
638.767	46987.68
639.121	47195.36
639.474	46926.66
639.828	46806.66
640.181	46987
640.534	47071.06
640.888	46864.52
641.241	46637.63
641.594	46695.71
641.947	46870.62
642.301	46634.69
642.654	46697.97
643.007	46583.62
643.36	46614.81
643.713	46491.42
644.066	46770.51
644.419	46421.36
644.771	46028.83
645.124	45630.65
645.477	45599.46
645.83	45464.55
646.182	45451.45
646.535	45399.02
646.888	45460.26
647.24	45451.67
647.593	45703.19
647.945	45288.06
648.298	45226.82
648.65	45180.94
649.002	44767.4
649.355	44607.63
649.707	44411.02
650.059	44328.76
650.411	45036.32
650.763	45208.97
651.115	45961.94
651.467	45770.76
651.819	45679.69
652.171	45672.23
652.523	45527.38
652.875	45606.24
653.227	45465.91
653.578	45837.88
653.93	45676.52
654.282	45449.64
654.633	45349.3
654.985	45522.86
655.337	45569.64
655.688	45446.25
656.039	45579.8
656.391	45159.02
656.742	45340.94
657.094	45345.01
657.445	45397.66
657.796	45464.55
658.147	45303.65
658.498	45387.72
658.849	45544.1
659.2	45297.55
659.551	45219.59
659.902	45481.5
660.253	45290.55
660.604	45472.69
660.955	45177.56
661.306	45380.26
661.656	45200.61
662.007	45180.49
662.358	45222.98
662.708	45157.44
663.059	45273.82
663.409	45029.31
663.76	45379.81
664.11	45217.33
664.461	45507.26
664.811	45234.95
665.161	45250.55
665.511	45221.85
665.862	45304.56
666.212	45271.79
666.562	45276.31
666.912	45123.32
667.262	45231.56
667.612	45234.5
667.962	45124.68
668.312	45160.15
668.662	45371.45
669.011	45411.22
669.361	45205.35
669.711	45275.63
670.06	45237.89
670.41	45100.72
670.76	45080.38
671.109	45323.99
671.459	45162.41
671.808	45156.09
672.157	45274.28
672.507	44979.14
672.856	44832.25
673.205	44990.89
673.554	45037.67
673.904	45003.32
674.253	45169.87
674.602	44941.86
674.951	44461.87
675.3	44329.22
675.649	44874.96
675.998	44797.68
676.346	44888.52
676.695	44911.12
677.044	44612.82
677.393	44735.76
677.741	44795.19
678.09	44622.99
678.438	44595.2
678.787	44594.07
679.135	44488.31
679.484	44460.29
679.832	44589.32
680.181	44270.46
680.529	44191.82
680.877	44158.15
681.225	44238.82
681.573	44502.32
681.922	44132.84
682.27	44126.51
682.618	44060.52
682.966	43933.07
683.314	44065.95
683.661	43928.55
684.009	43799.06
684.357	43709.8
684.705	43676.35
685.053	43705.73
685.4	43601.55
685.748	43438.84
686.095	43372.18
686.443	43275.01
686.79	43102.81
687.138	43230.49
687.485	43247.21
687.832	43061.23
688.18	43071.17
688.527	42828.01
688.874	42774.23
689.221	42917.5
689.568	42677.06
689.915	42520.45
690.262	42536.72
690.609	42502.6
690.956	42340.34
691.303	42191.64
691.65	41958.2
691.997	41999.11
692.344	41727.02
692.69	41623.3
693.037	41695.16
693.383	41370.65
693.73	41511.89
694.077	41316.41
694.423	41256.3
694.769	41207.49
695.116	41071.45
695.462	40967.27
695.808	40736.54
696.155	40821.96
696.501	40506.72
696.847	40563.67
697.193	40227.4
697.539	40407.06
697.885	39965.94
698.231	39941.31
698.577	39836.68
698.923	39700.18
699.269	39583.58
699.614	39584.26
699.96	39267.88
700.306	39260.2
700.651	39120.77
700.997	38881.22
701.342	39025.85
701.688	38796.93
702.033	38587.22
702.379	38737.95
702.724	38446.66
703.069	38565.3
703.415	38101.36
703.76	38171.41
704.105	38206.21
704.45	37942.04
704.795	37749.05
705.14	37732.33
705.485	37746.34
705.83	37418.44
706.175	37538.21
706.52	37298.67
706.865	37432.67
707.209	37122.17
707.554	37135.28
707.899	37125.79
708.243	36862.75
708.588	36839.24
708.932	36505.69
709.277	36591.11
709.621	36559.48
709.966	36291.24
710.31	36360.84
710.654	36109.77
710.998	36204.68
711.342	36223.44
711.687	36079.94
712.031	35946.16
712.375	35892.83
712.719	35674.53
713.063	35691.48
713.407	35731.48
713.75	35550.69
714.094	35477.47
714.438	35307.08
714.782	35424.14
715.125	35204.03
715.469	35273.41
715.812	35084.49
716.156	35077.71
716.499	35056.01
716.843	35125.62
717.186	34851.27
717.53	34933.76
717.873	35001.55
718.216	34822.35
718.559	34688.79
718.902	34456.26
719.246	34662.8
719.589	34551.17
719.932	34425.3
720.275	34489.7
720.617	34345.3
720.96	34147.56
721.303	34308.46
721.646	34259.88
721.989	34152.53
722.331	34311.63
722.674	34119.09
723.016	34021.69
723.359	33805.65
723.701	34073.21
724.044	33845.65
724.386	33710.51
724.729	33933.33
725.071	33922.71
725.413	33840.45
725.755	33692.89
726.097	33636.84
726.439	33608.59
726.782	33549.61
727.124	33584.64
727.465	33501.48
727.807	33348.04
728.149	33411.99
728.491	33359.56
728.833	33420.8
729.175	33306.91
729.516	33175.38
729.858	33208.83
730.199	33345.55
730.541	33221.71
730.882	33261.03
731.224	33179.23
731.565	33216.29
731.906	32997.99
732.248	33139.45
732.589	33090.19
732.93	32931.1
733.271	33034.37
733.612	32988.95
733.953	33023.52
734.294	33072.34
734.635	32858.33
734.976	32991.89
735.317	32970.19
735.658	33039.8
735.999	32964.32
736.339	32872.12
736.68	32969.06
737.021	32953.24
737.361	32899.69
737.702	33109.17
738.042	32874.6
738.383	33035.05
738.723	33024.43
739.063	32821.5
739.404	33112.56
739.744	32928.16
740.084	32947.59
740.424	33032.56
740.764	32870.53
741.104	33054.71
741.444	32980.81
741.784	32921.38
742.124	33071.43
742.464	33147.36
742.804	33094.03
743.143	33012
743.483	33022.62
743.823	32962.06
744.162	32860.59
744.502	33115.05
744.841	32965.67
745.181	33155.05
745.52	33050.64
745.86	33257.87
746.199	33100.58
746.538	33273.69
746.877	33439.56
747.216	33350.75
747.556	33335.83
747.895	33382.84
748.234	33424.19
748.573	33434.36
748.911	33286.34
749.25	33366.34
749.589	33333.12
749.928	33454.47
750.267	33506.22
750.605	33491.08
750.944	33604.3
751.283	33550.97
751.621	33634.58
751.96	33484.76
752.298	33692.43
752.636	33795.71
752.975	33710.74
753.313	33635.71
753.651	33859.89
753.989	33828.25
754.327	33807.23
754.666	33677.74
755.004	33860.79
755.342	34032.09
755.679	33941.69
756.017	33768.36
756.355	34105.76
756.693	33986.21
757.031	34104.17
757.368	33973.56
757.706	33973.33
758.044	33970.62
758.381	33956.16
758.719	34041.8
759.056	33952.54
759.394	34001.35
759.731	33757.06
760.068	33952.09
760.405	34027.79
760.743	33952.09
761.08	34017.4
761.417	33889.04
761.754	33936.27
762.091	33989.83
762.428	33897.63
762.765	33698.99
763.102	33964.52
763.438	33815.14
763.775	33613.79
764.112	33688.14
764.449	33786.89
764.785	33759.55
765.122	33447.69
765.458	33489.27
765.795	33481.14
766.131	33531.31
766.467	33465.09
766.804	33318.21
767.14	33272.56
767.476	33227.81
767.812	33101.04
768.148	33231.2
768.485	33094.26
768.821	32892.91
769.157	32737.43
769.492	32752.35
769.828	32827.37
770.164	32558.9
770.5	32549.41
770.836	32546.47
771.171	32564.1
771.507	32433.94
771.842	32367.5
772.178	32188.07
772.513	32158.46
772.849	32089.54
773.184	32086.6
773.519	32073.04
773.855	31878.92
774.19	31901.52
774.525	31719.83
774.86	31659.04
775.195	31482.55
775.53	31384.47
775.865	31275.55
776.2	31131.82
776.535	30945.61
776.87	30964.6
777.205	30836.01
777.539	30810.25
777.874	30811.15
778.209	30604.83
778.543	30509.92
778.878	30330.04
779.212	30222.69
779.547	30141.34
779.881	30047.11
780.215	29869.26
780.55	30085.52
780.884	29719.66
781.218	29783.84
781.552	29886.21
781.886	29548.59
782.22	29510.17
782.554	29246.45
782.888	29031.31
783.222	29030.63
783.556	28789.96
783.889	28810.3
784.223	28805.33
784.557	28656.41
784.89	28779.34
785.224	28556.98
785.557	28388.84
785.891	28375.28
786.224	28231.11
786.558	28061.17
786.891	28014.16
787.224	27883.32
787.557	27644.23
787.891	27818.92
788.224	27493.05
788.557	27539.37
788.89	27584.57
789.223	27394.52
789.556	27332.6
789.888	27143.23
790.221	27130.12
790.554	26986.17
790.887	26890.8
791.219	26833.4
791.552	26783.91
791.884	26676.8
792.217	26595.9
792.549	26396.13
792.882	26149.58
793.214	26231.84
793.546	26166.3
793.879	25952.52
794.211	25765.41
794.543	25917.5
794.875	25845.18
795.207	25871.17
795.539	25668.01
795.871	25747.78
796.203	25564.51
796.535	25408.36
796.867	25496.26
797.198	25344.4
797.53	25230.73
797.862	25062.38
798.193	25247.68
798.525	24898.77
798.856	24977.41
799.188	24614.03
799.519	24680.47
799.85	24541.04
800.182	24534.93
800.513	24614.03
800.844	24327.48
801.175	24534.71
801.506	24400.47
801.837	24287.26
802.168	24263.3
802.499	24233.7
802.83	24037.55
803.161	23901.73
803.491	23977.66
803.822	23869.19
804.153	23791
804.483	23635.3
804.814	23492.02
805.145	23617.22
805.475	23546.71
805.805	23468.75
806.136	23446.38
806.466	23371.8
806.796	23399.82
807.126	23237.34
807.457	23162.54
807.787	23186.49
808.117	23112.15
808.447	23034.86
808.777	23210.22
809.107	22983.11
809.436	22819.27
809.766	22811.82
810.096	22779.95
810.426	22682.1
810.755	22803
811.085	22615.44
811.414	22662.67
811.744	22537.25
812.073	22515.55
812.403	22414.76
812.732	22295.67
813.061	22432.39
813.39	22237.37
813.719	22140.65
814.049	22317.14
814.378	22120.08
814.707	21964.83
815.036	22136.13
815.365	21942.69
815.693	21926.64
816.022	21815.91
816.351	21811.84
816.68	21713.99
817.008	21630.15
817.337	21533.88
817.665	21501.34
817.994	21445.3
818.322	21587.44
818.651	21337.05
818.979	21312.65
819.307	21352.87
819.636	21316.04
819.964	21191.75
820.292	21246.21
820.62	21240.11
820.948	21375.02
821.276	21443.72
821.604	21322.82
821.932	21293.21
822.259	21255.02
822.587	21288.92
822.915	21160.56
823.243	21254.57
823.57	21046.21
823.898	21206.21
824.225	21145.87
824.553	21108.81
824.88	21148.81
825.207	21163.95
825.535	21082.82
825.862	21242.37
826.189	21125.31
826.516	21336.6
826.843	21192.65
827.17	21283.04
827.497	21270.61
827.824	21209.6
828.151	21357.62
828.478	21204.17
828.805	21264.74
829.131	21236.26
829.458	21291.63
829.785	21127.79
830.111	21134.35
830.438	21130.05
830.764	21180.67
831.09	21197.85
831.417	21021.81
831.743	21192.2
832.069	21066.32
832.395	21158.98
832.722	21091.41
833.048	21042.37
833.374	21169.6
833.7	21074.23
834.026	20999.43
834.351	21019.77
834.677	21174.34
835.003	21062.03
835.329	20961.02
835.654	20891.41
835.98	20769.38
836.306	21019.55
836.631	20883.5
836.956	20998.08
837.282	20992.88
837.607	20771.42
837.932	20791.98
838.258	20793.11
838.583	20726.22
838.908	20621.36
839.233	20622.49
839.558	20639.9
839.883	20618.43
840.208	20548.82
840.533	20482.16
840.858	20539.33
841.182	20621.59
841.507	20492.1
841.832	20435.61
842.156	20466.34
842.481	20385.21
842.805	20294.82
843.13	20195.61
843.454	20219.57
843.778	20113.36
844.103	20164.65
844.427	20100.47
844.751	20130.3
845.075	20001.49
845.399	19954.04
845.723	19868.16
846.047	19950.65
846.371	19769.41
846.695	19750.2
847.019	19666.81
847.343	19530.55
847.666	19425.69
847.99	19479.47
848.313	19414.39
848.637	19301.4
848.96	19217.11
849.284	19262.3
849.607	19019.6
849.931	18985.7
850.254	18897.34
850.577	18833.39
850.9	18664.81
851.223	18698.7
851.546	18606.5
851.869	18432.04
852.192	18611.7
852.515	18357.7
852.838	18265.95
853.161	18272.95
853.483	18183.01
853.806	18054.88
854.129	18010.13
854.451	18040.64
854.774	17873.64
855.096	17942.56
855.419	17830.25
855.741	17730.82
856.063	17769.01
856.385	17628.45
856.708	17556.13
857.03	17550.48
857.352	17518.62
857.674	17504.38
857.996	17404.5
858.318	17196.37
858.64	17342.58
858.961	17255.8
859.283	17245.63
859.605	17107.33
859.926	17158.4
860.248	17091.06
860.57	17030.05
860.891	16972.42
861.212	16845.19
861.534	16899.65
861.855	16721.13
862.176	16852.42
862.498	16845.64
862.819	16768.58
863.14	16646.1
863.461	16592.54
863.782	16481.81
864.103	16654.92
864.424	16492.89
864.745	16601.58
865.065	16347.8
865.386	16352.32
865.707	16492.89
866.027	16421.47
866.348	16433.68
866.668	16315.94
866.989	16324.08
867.309	16157.53
867.63	16156.17
867.95	16194.36
868.27	16191.42
868.59	16078.21
868.91	16155.72
869.23	16024.2
869.55	15990.07
869.87	16063.07
870.19	16008.15
870.51	15934.26
870.83	15976.51
871.15	15889.29
871.469	15896.97
871.789	16001.6
872.109	15898.78
872.428	15824.88
872.748	15915.5
873.067	15836.63
873.386	15803.64
873.706	15801.15
874.025	15725.22
874.344	15665.34
874.663	15690.42
874.982	15660.82
875.301	15654.04
875.62	15649.29
875.939	15633.47
876.258	15560.48
876.577	15522.52
876.896	15470.09
877.214	15502.86
877.533	15495.17
877.852	15424.67
878.17	15436.64
878.489	15377.66
878.807	15354.61
879.125	15318.23
879.444	15340.15
879.762	15259.7
880.08	15296.76
880.398	15131.11
880.716	15183.54
881.034	15167.5
881.352	15238.68
881.67	15052.47
881.988	15122.3
882.306	15037.1
882.624	15133.37
882.941	15017.44
883.259	14981.06
883.577	14948.29
883.894	14897.22
884.212	14857.9
884.529	14832.59
884.846	14724.57
885.164	14710.56
885.481	14752.37
885.798	14724.8
886.115	14606.83
886.432	14619.04
886.75	14558.02
887.067	14626.95
887.383	14511.24
887.7	14533.39
888.017	14372.26
888.334	14409.32
888.651	14304.02
888.967	14369.55
889.284	14184.25
889.6	14182.89
889.917	14150.8
890.233	14153.06
890.55	14253.17
890.866	14134.08
891.182	14091.37
891.498	14046.4
891.815	13883.24
892.131	13883.69
892.447	13957.13
892.763	13913.74
893.079	13900.64
893.395	13830.81
893.71	13767.53
894.026	13662.45
894.342	13635.79
894.657	13589.69
894.973	13569.8
895.289	13623.13
895.604	13539.97
895.92	13412.29
896.235	13384.27
896.55	13385.62
896.865	13385.17
897.181	13282.12
897.496	13254.78
897.811	13183.59
898.126	13161.22
898.441	13096.59
898.756	13051.17
899.071	12969.59
899.386	12963.71
899.7	12936.59
900.015	12862.02
900.33	12693.44
900.644	12787.45
900.959	12740.22
901.273	12666.32
901.588	12686.21
901.902	12590.62
902.216	12619.54
902.531	12505.65
902.845	12523.95
903.159	12340
903.473	12422.26
903.787	12323.5
904.101	12256.16
904.415	12293.9
904.729	12319.89
905.042	12175.48
905.356	12107.46
905.67	12084.41
905.984	12063.17
906.297	12021.59
906.611	11900.69
906.924	11905.44
907.237	11834.48
907.551	11802.39
907.864	11714.48
908.177	11768.94
908.491	11744.99
908.804	11579.57
909.117	11540.93
909.43	11430.65
909.743	11457.76
910.056	11393.58
910.368	11295.96
910.681	11260.25
910.994	11221.84
911.307	11196.75
911.619	11162.86
911.932	11154.04
912.244	11036.08
912.557	11124.44
912.869	10974.16
913.181	10976.19
913.494	10953.82
913.806	10844.67
914.118	10823.88
914.43	10800.15
914.742	10715.64
915.054	10703.66
915.366	10652.14
915.678	10634.28
915.99	10549.76
916.302	10515.87
916.613	10434.97
916.925	10473.61
917.236	10408.53
917.548	10314.06
917.859	10293.27
918.171	10279.49
918.482	10216.67
918.794	10188.87
919.105	10157.91
919.416	10041.98
919.727	9992.27
920.038	10029.55
920.349	9980.74
920.66	9947.29
920.971	9877.92
921.282	9863
921.593	9787.75
921.903	9726.96
922.214	9753.85
922.525	9638.38
922.835	9623.69
923.146	9536.91
923.456	9479.74
923.767	9518.38
924.077	9442
924.387	9423.47
924.697	9317.93
925.008	9349.8
925.318	9305.96
925.628	9267.76
925.938	9296.69
926.248	9181.21
926.558	9146.64
926.867	9111.84
927.177	9065.96
927.487	9041.1
927.796	8959.3
928.106	9021.67
928.416	9011.05
928.725	8911.62
929.034	8875.23
929.344	8900.54
929.653	8886.08
929.962	8743.94
930.271	8740.32
930.581	8687.89
930.89	8658.52
931.199	8595.47
931.508	8564.28
931.817	8578.07
932.125	8578.07
932.434	8487.22
932.743	8421.91
933.051	8347.56
933.36	8338.98
933.669	8280.67
933.977	8329.48
934.286	8244.74
934.594	8244.74
934.902	8195.7
935.21	8099.21
935.519	8028.7
935.827	8067.8
936.135	7954.13
936.443	8019.21
936.751	7888.14
937.059	7912.09
937.367	7918.42
937.674	7868.93
937.982	7842.04
938.29	7813.11
938.597	7744.19
938.905	7724.08
939.213	7656.73
939.52	7605.66
939.827	7647.47
940.135	7588.26
940.442	7536.06
940.749	7475.27
941.056	7498.55
941.363	7402.73
941.67	7384.88
941.977	7384.42
942.284	7376.29
942.591	7331.09
942.898	7309.85
943.205	7273.69
943.511	7275.73
943.818	7257.87
944.125	7186.01
944.431	7133.36
944.738	7175.62
945.044	7081.61
945.35	7097.88
945.657	7005.68
945.963	6974.49
946.269	6949.86
946.575	6973.81
946.881	6855.85
947.187	6885
947.493	6789.64
947.799	6792.58
948.105	6736.76
948.41	6730.43
948.716	6688.17
949.022	6673.26
949.327	6694.73
949.633	6592.58
949.938	6594.84
950.244	6599.59
950.549	6529.76
950.854	6505.8
951.16	6523.88
951.465	6467.39
951.77	6419.48
952.075	6429.2
952.38	6419.48
952.685	6355.3
952.99	6355.52
953.294	6280.05
953.599	6207.73
953.904	6216.77
954.209	6217.68
954.513	6199.37
954.818	6163.67
955.122	6141.07
955.426	6134.74
955.731	6075.76
956.035	6095.87
956.339	6053.16
956.643	6015.65
956.948	6012.48
957.252	5963.9
957.556	5941.3
957.86	5934.75
958.163	5900.17
958.467	5835.09
958.771	5870.57
959.075	5789.44
959.378	5798.93
959.682	5765.03
959.985	5743.56
960.289	5717.8
960.592	5672.38
960.896	5606.84
961.199	5654.07
961.502	5615.66
961.805	5520.74
962.108	5562.1
962.411	5579.05
962.714	5503.8
963.017	5449.33
963.32	5490.69
963.623	5460.18
963.926	5396.91
964.228	5354.42
964.531	5382.22
964.833	5358.72
965.136	5294.54
965.438	5322.56
965.741	5271.03
966.043	5276.46
966.345	5229.23
966.648	5208.89
966.95	5200.75
967.252	5196.91
967.554	5156.46
967.856	5134.54
968.158	5068.78
968.46	5107.2
968.761	5063.36
969.063	5056.8
969.365	5009.12
969.666	4982.91
969.968	4953.53
970.269	4949.46
970.571	4924.83
970.872	4917.82
971.174	4871.27
971.475	4878.95
971.776	4828.79
972.077	4825.4
972.378	4800.54
972.679	4799.63
972.98	4755.12
973.281	4732.52
973.582	4734.32
973.883	4710.37
974.183	4663.59
974.484	4662.01
974.785	4600.09
975.085	4614.78
975.386	4572.97
975.686	4526.87
975.986	4546.98
976.287	4513.09
976.587	4459.53
976.887	4451.17
977.187	4429.25
977.487	4434.45
977.787	4431.73
978.087	4391.73
978.387	4379.31
978.687	4391.28
978.987	4321.23
979.286	4299.99
979.586	4293.66
979.885	4275.58
980.185	4240.78
980.484	4248.24
980.784	4222.7
981.083	4181.8
981.382	4173.66
981.682	4166.43
981.981	4158.75
982.28	4038.52
982.579	4118.52
982.878	4072.65
983.177	4087.34
983.475	4037.17
983.774	3977.28
984.073	3980.9
984.372	3965.31
984.67	3940
984.969	3934.57
985.267	3914.01
985.566	3929.6
985.864	3916.72
986.162	3889.38
986.461	3852.31
986.759	3837.4
987.057	3790.62
987.355	3767.8
987.653	3772.99
987.951	3785.42
988.249	3722.37
988.547	3724.86
988.844	3704.52
989.142	3700.91
989.44	3690.74
989.737	3692.32
990.035	3634.92
990.332	3650.29
990.63	3627.46
990.927	3618.2
991.224	3576.84
991.521	3593.56
991.819	3556.05
992.116	3578.42
992.413	3535.26
992.71	3481.93
993.006	3482.15
993.303	3462.49
993.6	3487.35
993.897	3451.42
994.193	3422.72
994.49	3408.71
994.787	3381.59
995.083	3370.29
995.379	3354.25
995.676	3331.88
995.972	3317.41
996.268	3285.55
996.565	3249.39
996.861	3270.41
997.157	3237.87
997.453	3197.87
997.749	3203.07
998.044	3212.78
998.34	3184.99
998.636	3187.7
998.932	3120.58
999.227	3118.32
999.523	3098.89
999.818	3093.92
1000.114	3082.62
1000.409	3083.97
1000.704	3031.09
1001	3014.82
1001.295	3001.94
1001.59	2997.65
1001.885	2966.69
1002.18	2948.38
1002.475	2980.92
1002.77	2884.66
1003.065	2904.32
1003.359	2878.33
1003.654	2896.63
1003.949	2873.36
1004.243	2847.14
1004.538	2804.43
1004.832	2837.43
1005.127	2785.68
1005.421	2773.92
1005.715	2756.52
1006.009	2751.55
1006.304	2735.51
1006.598	2693.93
1006.892	2692.57
1007.186	2697.54
1007.48	2651.44
1007.773	2686.02
1008.067	2669.97
1008.361	2588.39
1008.655	2610.09
1008.948	2597.66
1009.242	2615.96
1009.535	2546.36
1009.829	2559.69
1010.122	2551.33
1010.415	2517.43
1010.708	2502.74
1011.001	2484.21
1011.295	2488.51
1011.588	2461.62
1011.881	2427.49
1012.173	2435.85
1012.466	2421.17
1012.759	2389.3
1013.052	2400.83
1013.344	2370.55
1013.637	2356.76
1013.93	2382.07
1014.222	2369.19
1014.514	2315.63
1014.807	2298.23
1015.099	2302.52
1015.391	2268.17
1015.683	2279.02
1015.976	2281.73
1016.268	2277.67
1016.56	2248.74
1016.851	2223.43
1017.143	2190.89
1017.435	2170.78
1017.727	2117.67
1018.018	2147.05
1018.31	2120.61
1018.602	2120.61
1018.893	2079.03
1019.185	2097.11
1019.476	2066.82
1019.767	2064.34
1020.058	2063.43
1020.35	2025.24
1020.641	1997
1020.932	2026.83
1021.223	1964.68
1021.514	2007.16
1021.804	1979.37
1022.095	1955.19
1022.386	1935.98
1022.677	1925.13
1022.967	1937.79
1023.258	1888.98
1023.548	1901.63
1023.839	1860.28
1024.129	1881.29
1024.419	1835.19
1024.709	1844.68
1025	1862.99
1025.29	1836.77
1025.58	1778.24
1025.87	1779.6
1026.16	1772.59
1026.449	1784.35
1026.739	1753.84
1027.029	1758.81
1027.319	1708.19
1027.608	1728.98
1027.898	1682.2
1028.187	1690.56
1028.477	1690.56
1028.766	1679.94
1029.055	1635.88
1029.344	1663.67
1029.634	1645.82
1029.923	1615.54
1030.212	1608.98
1030.501	1592.03
1030.79	1582.54
1031.078	1578.25
1031.367	1551.58
1031.656	1571.47
1031.945	1530.12
1032.233	1527.63
1032.522	1520.62
1032.81	1528.08
1033.099	1513.39
1033.387	1485.14
1033.675	1490.12
1033.963	1480.85
1034.251	1482.43
1034.54	1459.61
1034.828	1442.43
1035.116	1421.64
1035.403	1449.67
1035.691	1409.21
1035.979	1388.42
1036.267	1402.21
1036.554	1404.47
1036.842	1378.25
1037.129	1375.99
1037.417	1362.44
1037.704	1316.11
1037.992	1340.06
1038.279	1318.82
1038.566	1332.61
1038.853	1332.61
1039.14	1332.61
