Data from 19-1250_FLMS001491_009.txt Node
Date: Thu Apr 19 16:28:30 BST 2018
User: hsy
Spectrometer: FLMS00149
Trigger mode: 0
Integration Time (sec): 1.000000E-2
Scans to average: 10
Electric dark correction enabled: true
Nonlinearity correction enabled: false
Boxcar width: 0
XAxis mode: Wavelengths
Number of Pixels in Spectrum: 2048
>>>>>Begin Spectral Data<<<<<
341.393	-8.93
341.776	-8.93
342.16	-8.93
342.543	-54.12
342.927	-70.85
343.31	-78.08
343.693	-77.63
344.077	-59.55
344.46	-58.64
344.843	-57.51
345.226	-45.54
345.61	-31.52
345.993	-6.44
346.376	-6.44
346.759	6.44
347.142	43.95
347.525	43.05
347.908	45.99
348.291	64.07
348.674	85.99
349.057	131.86
349.44	134.8
349.823	139.54
350.206	177.96
350.588	225.42
350.971	243.72
351.354	254.8
351.737	278.98
352.119	281.69
352.502	328.24
352.884	305.19
353.267	311.29
353.65	329.6
354.032	330.5
354.414	345.41
354.797	327.11
355.179	362.59
355.562	371.85
355.944	362.36
356.326	383.61
356.709	378.63
357.091	383.83
357.473	374.34
357.855	373.66
358.238	391.74
358.62	396.94
359.002	384.06
359.384	369.14
359.766	391.52
360.148	373.66
360.53	397.39
360.912	393.55
361.294	369.82
361.676	375.47
362.057	387
362.439	378.86
362.821	384.96
363.203	372.31
363.584	368.01
363.966	361.46
364.348	369.82
364.729	350.16
365.111	377.05
365.493	379.54
365.874	383.15
366.256	375.7
366.637	371.4
367.019	372.08
367.4	384.28
367.781	374.79
368.163	363.49
368.544	381.57
368.925	376.83
369.306	380.89
369.688	375.02
370.069	388.58
370.45	367.33
370.831	374.79
371.212	377.96
371.593	384.96
371.974	374.34
372.355	374.34
372.736	386.77
373.117	404.4
373.498	396.71
373.879	389.48
374.26	381.57
374.641	381.57
375.021	373.44
375.402	398.07
375.783	391.97
376.163	409.37
376.544	393.77
376.925	405.98
377.305	395.36
377.686	394.9
378.066	392.19
378.447	398.29
378.827	387.9
379.208	415.7
379.588	412.08
379.968	423.6
380.349	417.73
380.729	416.83
381.109	434
381.489	418.41
381.87	436.49
382.25	437.16
382.63	421.12
383.01	439.65
383.39	432.42
383.77	412.08
384.15	430.84
384.53	445.53
384.91	431.06
385.29	448.01
385.67	437.62
386.049	455.92
386.429	459.99
386.809	462.7
387.189	454.56
387.568	448.46
387.948	468.12
388.328	475.13
388.707	480.78
389.087	488.01
389.466	476.03
389.846	469.93
390.225	489.37
390.605	504.96
390.984	470.16
391.363	486.88
391.743	501.12
392.122	509.48
392.501	517.39
392.881	523.04
393.26	514.45
393.639	532.08
394.018	523.72
394.397	528.01
394.776	548.57
395.155	540.89
395.534	529.82
395.913	519.65
396.292	540.66
396.671	547.67
397.05	570.27
397.429	583.6
397.808	563.71
398.186	548.35
398.565	543.38
398.944	546.99
399.323	574.34
399.701	572.08
400.08	570.27
400.458	572.3
400.837	598.29
401.215	589.7
401.594	584.05
401.972	615.92
402.351	610.94
402.729	620.66
403.107	601.91
403.486	601.68
403.864	641
404.242	621.57
404.62	624.5
404.999	632.64
405.377	624.28
405.755	674.9
406.133	659.3
406.511	632.64
406.889	655.01
407.267	677.16
407.645	664.28
408.023	684.61
408.401	691.85
408.779	711.28
409.156	683.48
409.534	712.86
409.912	723.71
410.29	717.38
410.667	724.61
411.045	721.9
411.422	763.48
411.8	749.25
412.178	760.77
412.555	773.65
412.933	768.68
413.31	791.28
413.687	799.19
414.065	789.47
414.442	808.68
414.819	806.65
415.197	804.61
415.574	826.08
415.951	830.83
416.328	834.22
416.705	858.17
417.082	852.52
417.46	870.37
417.837	865.4
418.214	883.48
418.591	873.31
418.967	909.92
419.344	905.4
419.721	891.84
420.098	901.56
420.475	923.93
420.852	901.11
421.228	907.66
421.605	928.22
421.982	917.83
422.358	950.14
422.735	946.75
423.111	958.05
423.488	953.08
423.864	965.74
424.241	984.72
424.617	1007.32
424.994	977.26
425.37	1022.01
425.746	994.89
426.123	1020.65
426.499	1039.41
426.875	1061.1
427.251	1076.92
427.627	1073.31
428.003	1087.09
428.379	1086.41
428.756	1106.52
429.132	1127.09
429.507	1125.28
429.883	1121.21
430.259	1153.98
430.635	1166.64
431.011	1167.09
431.387	1201.89
431.763	1207.09
432.138	1205.05
432.514	1234.88
432.89	1243.02
433.265	1281.21
433.641	1291.15
434.016	1281.21
434.392	1325.73
434.767	1317.37
435.143	1328.67
435.518	1322.34
435.894	1342.45
436.269	1357.59
436.644	1358.72
437.02	1385.16
437.395	1428.1
437.77	1431.49
438.145	1459.28
438.52	1443.01
438.895	1449.79
439.271	1459.28
439.646	1476.68
440.021	1526.17
440.395	1505.61
440.77	1480.3
441.145	1513.52
441.52	1539.28
441.895	1496.8
442.27	1565.04
442.645	1535.21
443.019	1563.46
443.394	1551.71
443.769	1578.15
444.143	1606.17
444.518	1614.99
444.892	1589.9
445.267	1619.28
445.641	1610.92
446.016	1662.44
446.39	1666.51
446.764	1686.85
447.139	1669
447.513	1688.2
447.887	1704.25
448.262	1680.52
448.636	1713.74
449.01	1730.69
449.384	1749.22
449.758	1759.84
450.132	1740.86
450.506	1827.41
450.88	1795.32
451.254	1789.22
451.628	1807.75
452.002	1832.38
452.376	1866.96
452.75	1877.58
453.123	1879.84
453.497	1895.2
453.871	1914.19
454.244	1953.73
454.618	2007.07
454.992	2004.13
455.365	2034.18
455.739	2072.83
456.112	2077.57
456.486	2077.57
456.859	2105.59
457.232	2158.02
457.606	2153.28
457.979	2194.41
458.352	2195.54
458.725	2209.32
459.099	2272.37
459.472	2273.5
459.845	2318.47
460.218	2366.15
460.591	2399.6
460.964	2393.04
461.337	2425.36
461.71	2469.43
462.083	2524.34
462.456	2547.62
462.829	2550.33
463.201	2569.99
463.574	2594.85
463.947	2577.45
464.32	2661.06
464.692	2653.6
465.065	2688.63
465.438	2716.88
465.81	2773.15
466.183	2785.8
466.555	2841.17
466.928	2855.63
467.3	2843.65
467.672	2898.79
468.045	2992.8
468.417	2935.4
468.789	2977.21
469.161	3036.42
469.534	3055.4
469.906	3108.51
470.278	3132.91
470.65	3192.12
471.022	3236.19
471.394	3252.46
471.766	3296.52
472.138	3333.36
472.51	3419.01
472.882	3434.15
473.253	3478.44
473.625	3538.33
473.997	3612
474.369	3665.1
474.74	3676.4
475.112	3755.72
475.484	3826.45
475.855	3849.73
476.227	3870.52
476.598	3996.84
476.97	4057.63
477.341	4090.63
477.713	4136.73
478.084	4186.44
478.455	4291.75
478.827	4328.81
479.198	4440
479.569	4473.89
479.94	4573.1
480.311	4625.08
480.682	4758.63
481.053	4834.56
481.424	4908.46
481.795	4941.45
482.166	5026.65
482.537	5116.81
482.908	5199.3
483.279	5278.17
483.65	5402.46
484.021	5489.01
484.391	5530.82
484.762	5608.55
485.133	5712.51
485.503	5773.97
485.874	5931.93
486.244	5963.35
486.615	6127.41
486.985	6192.49
487.356	6258.48
487.726	6362.88
488.097	6481.07
488.467	6524.91
488.837	6696.43
489.207	6738.69
489.578	6845.58
489.948	6942.98
490.318	7066.14
490.688	7121.28
491.058	7240.37
491.428	7381.39
491.798	7365.8
492.168	7535.73
492.538	7620.25
492.908	7760.36
493.278	7864.09
493.648	7864.31
494.017	8078.32
494.387	8091.65
494.757	8230.86
495.126	8305.66
495.496	8383.17
495.866	8468.59
496.235	8519.44
496.605	8628.81
496.974	8660.68
497.344	8766.89
497.713	8828.58
498.082	8952.87
498.452	9004.85
498.821	9074.68
499.19	9152.41
499.559	9204.62
499.928	9338.17
500.298	9439.64
500.667	9535.91
501.036	9509.47
501.405	9649.8
501.774	9667.66
502.143	9780.42
502.512	9891.6
502.88	9946.52
503.249	10026.52
503.618	10098.83
503.987	10174.31
504.356	10250.69
504.724	10344.93
505.093	10336.11
505.462	10415.43
505.83	10511.93
506.199	10619.27
506.567	10690.68
506.936	10646.39
507.304	10811.81
507.672	10876.21
508.041	10954.85
508.409	11078.47
508.777	11203.43
509.145	11282.08
509.514	11283.88
509.882	11476.2
510.25	11423.32
510.618	11572.69
510.986	11536.98
511.354	11677.77
511.722	11870.76
512.09	11934.71
512.458	11872.8
512.826	12065.56
513.193	11972.23
513.561	12252.67
513.929	12196.18
514.297	12369.28
514.664	12435.94
515.032	12576.28
515.4	12662.38
515.767	12710.97
516.135	12818.08
516.502	12764.98
516.869	12981.01
517.237	13084.51
517.604	13009.71
517.972	13289.48
518.339	13290.84
518.706	13400.44
519.073	13509.14
519.44	13583.03
519.808	13755.01
520.175	13733.54
520.542	13844.49
520.909	13944.15
521.276	14140.76
521.643	14225.05
522.009	14356.35
522.376	14512.05
522.743	14620.52
523.11	14763.11
523.477	14982.54
523.843	14979.38
524.21	15193.84
524.577	15287.39
524.943	15262.31
525.31	15419.59
525.676	15655.97
526.043	15800.15
526.409	15863.88
526.776	16087.15
527.142	16188.61
527.508	16324.88
527.874	16385.9
528.241	16535.05
528.607	16579.34
528.973	16707.24
529.339	16802.84
529.705	16974.58
530.071	17107.01
530.437	17253.22
530.803	17419.77
531.169	17463.16
531.535	17561.23
531.901	17641.68
532.267	17702.25
532.632	17863.37
532.998	18011.39
533.364	18106.08
533.73	18155.79
534.095	18298.84
534.461	18396.47
534.826	18477.82
535.192	18591.94
535.557	18783.35
535.923	18721.43
536.288	18755.55
536.653	18921.2
537.019	18920.75
537.384	19095.43
537.749	19174.52
538.114	19185.37
538.479	19183.11
538.845	19335.65
539.21	19374.97
539.575	19460.62
539.94	19575.19
540.305	19615.42
540.67	19665.36
541.034	19750.55
541.399	19831.23
541.764	19903.32
542.129	20071.45
542.494	20021.96
542.858	20118.23
543.223	20190.54
543.587	20218.34
543.952	20228.28
544.316	20266.25
544.681	20345.79
545.045	20463.3
545.41	20642.28
545.774	20623.53
546.138	20608.61
546.503	20773.35
546.867	20849.06
547.231	20976.96
547.595	21021.48
547.959	21079.78
548.324	21125.89
548.688	21203.62
549.052	21366.78
549.416	21409.49
549.779	21499.89
550.143	21436.39
550.507	21683.61
550.871	21695.59
551.235	21711.41
551.599	21945.98
551.962	22003.38
552.326	22023.71
552.689	22070.49
553.053	22055.58
553.417	22127.89
553.78	22435
554.143	22447.66
554.507	22529.69
554.87	22499.41
555.234	22791.38
555.597	22645.85
555.96	22792.06
556.323	22903.69
556.686	23074.76
557.05	23194.53
557.413	23204.25
557.776	23298.26
558.139	23506.84
558.502	23637.23
558.865	23661.86
559.228	23832.03
559.59	23814.85
559.953	23876.1
560.316	24121.51
560.679	24234.28
561.041	24261.85
561.404	24428.17
561.767	24696.19
562.129	24628.39
562.492	24912.45
562.854	25000.81
563.217	24936.18
563.579	25171.88
563.941	25343.85
564.304	25473.57
564.666	25709.27
565.028	25696.39
565.39	25758.98
565.753	26006.43
566.115	26088.01
566.477	26303.6
566.839	26379.31
567.201	26635.12
567.563	26614.1
567.925	26961.21
568.287	26982.68
568.648	27015.9
569.01	27252.05
569.372	27418.38
569.734	27486.4
570.095	27732.27
570.457	27794.86
570.819	27831.25
571.18	28089.32
571.542	28188.75
571.903	28277.79
572.265	28416.99
572.626	28640.26
572.987	28590.55
573.349	28778.34
573.71	28958.67
574.071	29082.51
574.432	29210.19
574.794	29508.49
575.155	29469.39
575.516	29549.17
575.877	29723.4
576.238	29730.4
576.599	29940.57
576.96	30014.01
577.32	30200.9
577.681	30236.61
578.042	30456.94
578.403	30394.34
578.763	30534
579.124	30503.27
579.485	30805.86
579.845	30913.2
580.206	30908.23
580.566	31017.6
580.927	31055.12
581.287	31269.57
581.648	31193.64
582.008	31293.08
582.368	31466.63
582.728	31497.36
583.089	31642.67
583.449	31620.98
583.809	31778.49
584.169	31924.02
584.529	31844.25
584.889	32174.18
585.249	32180.06
585.609	32027.29
585.969	32359.94
586.329	32270.45
586.688	32424.57
587.048	32626.37
587.408	32633.61
587.768	32694.39
588.127	32814.17
588.487	32998.34
588.846	33335.28
589.206	32981.62
589.565	33367.6
589.925	33539.34
590.284	33672.45
590.643	33742.5
591.003	33913.12
591.362	34217.29
591.721	34239.21
592.08	34393.56
592.44	34662.25
592.799	34801.23
593.158	34859.08
593.517	34954.22
593.876	35141.34
594.235	35367.77
594.593	35435.11
594.952	35663.13
595.311	35620.65
595.67	35898.38
596.029	36283.68
596.387	36379.27
596.746	36679.83
597.104	36436.9
597.463	36535.2
597.822	36987.39
598.18	36905.13
598.538	37024.9
598.897	37326.59
599.255	37339.47
599.613	37752.79
599.972	37751.89
600.33	37963.63
600.688	38005.22
601.046	38156.85
601.404	38591.19
601.762	38484.3
602.12	38765.42
602.478	38998.86
602.836	39243.15
603.194	39041.57
603.552	39221.23
603.91	39209.48
604.268	39637.26
604.625	39628
604.983	39942.11
605.341	39756.36
605.698	40173.29
606.056	40412.16
606.413	40394.31
606.771	40702.55
607.128	40750.23
607.485	40759.49
607.843	40728.53
608.2	41126.72
608.557	41289.65
608.914	41262.76
609.272	41616.87
609.629	41775.29
609.986	41994.26
610.343	41842.18
610.7	42237.65
611.057	42140.93
611.414	42160.81
611.771	42420.92
612.127	42617.3
612.484	42664.3
612.841	42793.56
613.198	42843.05
613.554	42843.96
613.911	43186.32
614.267	43297.28
614.624	43283.04
614.98	43461.57
615.337	43682.13
615.693	43654.78
616.05	43704.73
616.406	43829.02
616.762	43791.96
617.118	43903.37
617.475	44015.9
617.831	44156.92
618.187	44084.6
618.543	44299.51
618.899	44427.19
619.255	44598.71
619.611	44499.06
619.967	44680.07
620.323	44829.22
620.678	44785.15
621.034	44850.69
621.39	44780.63
621.746	44783.12
622.101	45201.64
622.457	44866.5
622.812	45166.38
623.168	45239.38
623.523	45307.17
623.879	45292.03
624.234	45204.8
624.589	45360.05
624.945	45367.28
625.3	45328.41
625.655	45450.9
626.01	45541.51
626.365	45576.09
626.72	45398.24
627.075	45472.14
627.43	45518.24
627.785	45521.85
628.14	45558.24
628.495	45541.06
628.85	45636.2
629.205	45332.93
629.559	45511.46
629.914	45489.76
630.269	45535.64
630.623	45271.69
630.978	45235.31
631.332	45476.88
631.687	45362.08
632.041	45583.77
632.396	45471.01
632.75	45374.06
633.104	45287.28
633.459	45251.8
633.813	45150.34
634.167	45217.46
634.521	45165.71
634.875	45154.41
635.229	45108.53
635.583	44874.64
635.937	44926.62
636.291	44842.1
636.645	44789.9
636.999	44635.55
637.352	44994.41
637.706	44597.36
638.06	44809.56
638.413	44645.04
638.767	44532.28
639.121	44589.22
639.474	44533.63
639.828	44558.94
640.181	44510.58
640.534	44542.9
640.888	44229.46
641.241	44147.65
641.594	44292.73
641.947	44442.11
642.301	44201.66
642.654	44265.16
643.007	44067.65
643.36	44167.99
643.713	44003.02
644.066	44171.83
644.419	43872.18
644.771	43501.34
645.124	43053.9
645.477	43090.51
645.83	42820.23
646.182	42940.45
646.535	42878.99
646.888	43050.96
647.24	42939.32
647.593	43109.04
647.945	42834.69
648.298	42790.17
648.65	42477.64
649.002	42410.75
649.355	42273.58
649.707	41992.91
650.059	42043.53
650.411	42581.14
650.763	42772.1
651.115	43429.25
651.467	43297.96
651.819	43345.19
652.171	43146.78
652.523	43140.67
652.875	43142.26
653.227	43074.91
653.578	43196.27
653.93	42985.65
654.282	42932.32
654.633	42966.89
654.985	42986.78
655.337	42889.83
655.688	42909.04
656.039	43035.82
656.391	42701.82
656.742	42773.68
657.094	42684.64
657.445	42785.2
657.796	42889.61
658.147	42696.62
658.498	42769.16
658.849	42919.66
659.2	42888.93
659.551	42742.49
659.902	42901.13
660.253	42771.42
660.604	42855.48
660.955	42726.22
661.306	42829.27
661.656	42771.64
662.007	42727.35
662.358	42844.41
662.708	42894.58
663.059	42733
663.409	42560.8
663.76	42736.39
664.11	42925.99
664.461	42807.35
664.811	42818.42
665.161	42818.65
665.511	42714.24
665.862	42832.66
666.212	42756.73
666.562	42871.98
666.912	42769.84
667.262	42541.82
667.612	42758.31
667.962	42740.23
668.312	42563.51
668.662	42822.94
669.011	42886.22
669.361	42636.05
669.711	42758.08
670.06	42631.99
670.41	42604.64
670.76	42603.96
671.109	42886.44
671.459	42664.3
671.808	42624.08
672.157	42803.28
672.507	42553.34
672.856	42428.6
673.205	42450.07
673.554	42532.55
673.904	42314.48
674.253	42786.33
674.602	42600.12
674.951	41988.39
675.3	41771.44
675.649	42515.38
675.998	42355.16
676.346	42479
676.695	42353.35
677.044	42194.94
677.393	42161.04
677.741	42400.58
678.09	42252.79
678.438	42247.14
678.787	42337.08
679.135	42357.87
679.484	41977.99
679.832	42193.35
680.181	41914.27
680.529	42147.03
680.877	41916.07
681.225	41938.9
681.573	42137.08
681.922	42012.12
682.27	41815.74
682.618	41849.18
682.966	41574.39
683.314	41678.34
683.661	41567.16
684.009	41473.6
684.357	41243.1
684.705	41287.39
685.053	41412.13
685.4	41105.7
685.748	40931.47
686.095	41067.28
686.443	40865.25
686.79	40773.05
687.138	40933.5
687.485	40723.56
687.832	40661.87
688.18	40587.97
688.527	40325.61
688.874	40373.51
689.221	40339.39
689.568	40139.85
689.915	40024.6
690.262	40147.31
690.609	39992.51
690.956	39831.38
691.303	39787.54
691.65	39632.97
691.997	39425.97
692.344	39293.54
692.69	39240.66
693.037	39235.69
693.383	38939.43
693.73	39065.3
694.077	38845.19
694.423	38786.66
694.769	38604.3
695.116	38629.83
695.462	38399.56
695.808	38302.16
696.155	38308.48
696.501	38051.54
696.847	38039.79
697.193	37859.91
697.539	37873.92
697.885	37554.83
698.231	37487.94
698.577	37390.09
698.923	37513.7
699.269	37186.25
699.614	37030.1
699.96	36988.97
700.306	37012.02
700.651	36742.65
700.997	36810.67
701.342	36565.03
701.688	36382.43
702.033	36324.58
702.379	36315.99
702.724	36169.78
703.069	36180.18
703.415	35642.34
703.76	35733.86
704.105	35842.33
704.45	35731.83
704.795	35646.41
705.14	35354.21
705.485	35405.74
705.83	35120.55
706.175	35364.38
706.52	35067.67
706.865	34899.76
707.209	34823.38
707.554	34774.79
707.899	34841
708.243	34614.34
708.588	34460
708.932	34373.9
709.277	34399.66
709.621	34254.35
709.966	34071.53
710.31	34089.39
710.654	33807.36
710.998	33874.25
711.342	34000.8
711.687	33716.97
712.031	33676.97
712.375	33440.82
712.719	33591.55
713.063	33543.41
713.407	33588.61
713.75	33317.43
714.094	33386.35
714.438	33176.42
714.782	33191.1
715.125	32984.1
715.469	33168.51
715.812	32904.78
716.156	32884.45
716.499	32843.77
716.843	32929.42
717.186	32655.98
717.53	32818.23
717.873	32813.94
718.216	32671.34
718.559	32481.74
718.902	32344.12
719.246	32464.34
719.589	32384.12
719.932	32341.86
720.275	32244.91
720.617	32258.93
720.96	32184.13
721.303	32216.44
721.646	32317.68
721.989	32009.21
722.331	32005.37
722.674	31924.25
723.016	32016.22
723.359	31941.19
723.701	31971.02
724.044	31849.9
724.386	31649.22
724.729	31945.71
725.071	31797.02
725.413	31716.12
725.755	31702.78
726.097	31487.42
726.439	31577.81
726.782	31543.24
727.124	31557.25
727.465	31606.06
727.807	31441.77
728.149	31532.84
728.491	31404.48
728.833	31529.23
729.175	31398.16
729.516	31365.16
729.858	31299.63
730.199	31515.89
730.541	31429.57
730.882	31269.35
731.224	31265.96
731.565	31178.5
731.906	31220.08
732.248	31282.45
732.589	31069.13
732.93	30927.66
733.271	31148.9
733.612	31144.15
733.953	31206.98
734.294	31101.67
734.635	31054.44
734.976	31406.97
735.317	30994.78
735.658	31078.62
735.999	31012.63
736.339	31004.72
736.68	31034.33
737.021	31037.94
737.361	30946.64
737.702	31213.08
738.042	31002.46
738.383	31058.73
738.723	31148.67
739.063	31045.4
739.404	31120.65
739.744	31076.13
740.084	31013.99
740.424	31056.92
740.764	30999.3
741.104	31151.84
741.444	30980.54
741.784	30996.13
742.124	31012.86
742.464	31048.56
742.804	31157.03
743.143	31029.58
743.483	31068.9
743.823	30976.47
744.162	31022.57
744.502	31099.41
744.841	31106.87
745.181	31405.16
745.52	31124.04
745.86	31236.35
746.199	31176.02
746.538	31150.03
746.877	31488.1
747.216	31295.34
747.556	31309.8
747.895	31345.28
748.234	31366.97
748.573	31314.09
748.911	31323.58
749.25	31535.55
749.589	31488.32
749.928	31558.83
750.267	31601.54
750.605	31544.14
750.944	31699.62
751.283	31658.26
751.621	31865.72
751.96	31736.91
752.298	31791.14
752.636	31888.77
752.975	31835.89
753.313	31789.33
753.651	32060.74
753.989	31890.12
754.327	32026.39
754.666	31896.22
755.004	31900.07
755.342	32124.01
755.679	32145.48
756.017	31985.94
756.355	32238.81
756.693	32044.92
757.031	32348.41
757.368	32226.38
757.706	32190.9
758.044	32260.28
758.381	32347.96
758.719	32238.14
759.056	32326.27
759.394	32296.89
759.731	32115.43
760.068	32090.12
760.405	32347.29
760.743	32185.93
761.08	32231.81
761.417	32069.78
761.754	32036.56
762.091	32231.13
762.428	31955.43
762.765	32073.39
763.102	32214.18
763.438	31922.44
763.775	31947.75
764.112	31962.44
764.449	32149.32
764.785	31931.7
765.122	31933.28
765.458	31761.09
765.795	31832.5
766.131	31940.74
766.467	31906.17
766.804	31728.09
767.14	31502.79
767.476	31529.45
767.812	31429.12
768.148	31615.55
768.485	31380.3
768.821	31323.13
769.157	31285.84
769.492	31366.29
769.828	31259.86
770.164	30984.38
770.5	30846.99
770.836	30942.58
771.171	30935.8
771.507	30729.25
771.842	30599.99
772.178	30638.18
772.513	30577.61
772.849	30396.15
773.184	30382.36
773.519	30373.33
773.855	30204.97
774.19	30039.55
774.525	30100.56
774.86	29981.47
775.195	29877.52
775.53	29858.99
775.865	29686.11
776.2	29504.65
776.535	29382.62
776.87	29381.94
777.205	29238.67
777.539	29268.95
777.874	29250.87
778.209	28805.23
778.543	28942.4
778.878	28708.74
779.212	28837.32
779.547	28579.93
779.881	28525.24
780.215	28262.87
780.55	28497.44
780.884	28230.33
781.218	28079.83
781.552	28132.03
781.886	27972.94
782.22	27936.78
782.554	27730.68
782.888	27533.63
783.222	27501.54
783.556	27362.11
783.889	27261.77
784.223	27056.12
784.557	27059.97
784.89	27198.72
785.224	27081.89
785.557	26878.95
785.891	26799.63
786.224	26782.46
786.558	26751.95
786.891	26638.06
787.224	26372.3
787.557	26310.83
787.891	26312.87
788.224	26019.99
788.557	26054.12
788.89	26123.04
789.223	26078.75
789.556	25856.38
789.888	25788.81
790.221	25692.54
790.554	25539.33
790.887	25533.23
791.219	25387.69
791.552	25366.9
791.884	25254.82
792.217	25173.01
792.549	25130.75
792.882	24944.32
793.214	24875.84
793.546	24931.66
793.879	24684.21
794.211	24546.13
794.543	24606.25
794.875	24572.12
795.207	24525.34
795.539	24479.24
795.871	24469.98
796.203	24374.16
796.535	24161.74
796.867	24172.81
797.198	24039.93
797.53	24021.85
797.862	23836.55
798.193	23865.02
798.525	23682.43
798.856	23881.74
799.188	23425.49
799.519	23507.74
799.85	23355.21
800.182	23374.41
800.513	23415.32
800.844	23142.78
801.175	23322.21
801.506	23246.28
801.837	22997.02
802.168	23006.97
802.499	22997.02
802.83	22816.24
803.161	22710.93
803.491	22729.23
803.822	22803.81
804.153	22598.16
804.483	22437.72
804.814	22213.99
805.145	22244.05
805.475	22475
805.805	22186.65
806.136	22297.38
806.466	22124.95
806.796	22115.01
807.126	22023.04
807.457	21994.11
807.787	21939.65
808.117	21766.32
808.447	21715.93
808.777	21921.8
809.107	21685.64
809.436	21607
809.766	21605.65
810.096	21677.28
810.426	21440.91
810.755	21385.99
811.085	21427.57
811.414	21429.83
811.744	21274.13
812.073	21333.79
812.403	21111.2
812.732	21075.04
813.061	21156.39
813.39	20973.12
813.719	20823.75
814.049	20981.93
814.378	20926.57
814.707	20758.21
815.036	20781.49
815.365	20744.88
815.693	20663.3
816.022	20528.61
816.351	20537.2
816.68	20458.33
817.008	20545.34
817.337	20360.03
817.665	20361.84
817.994	20350.76
818.322	20374.94
818.651	20284.55
818.979	20217.21
819.307	20193.25
819.636	20264.44
819.964	20056.76
820.292	20159.81
820.62	20074.84
820.948	20204.33
821.276	20204.33
821.604	20047.04
821.932	20257.66
822.259	20153.93
822.587	20044.78
822.915	20039.36
823.243	20091.11
823.57	20015.18
823.898	20180.15
824.225	20009.98
824.553	19976.54
824.88	20138.11
825.207	20159.81
825.535	20062.86
825.862	20156.87
826.189	20005.24
826.516	20124.33
826.843	20161.16
827.17	20207.94
827.497	20197.55
827.824	20206.36
828.151	20206.81
828.478	20060.38
828.805	20173.82
829.131	20111.67
829.458	20143.09
829.785	19893.38
830.111	20115.29
830.438	20113.48
830.764	20129.08
831.09	20115.52
831.417	20019.25
831.743	20207.72
832.069	20098.57
832.395	19995.29
832.722	20055.63
833.048	20030.09
833.374	20160.03
833.7	20060.15
834.026	20106.03
834.351	19974.5
834.677	20022.64
835.003	20023.09
835.329	19913.49
835.654	19993.49
835.98	19811.12
836.306	19932.02
836.631	19814.73
836.956	19909.87
837.282	19856.77
837.607	19717.79
837.932	19763.89
838.258	19747.16
838.583	19703.78
838.908	19732.02
839.233	19657.68
839.558	19544.01
839.883	19522.09
840.208	19411.35
840.533	19486.38
840.858	19417
841.182	19430.11
841.507	19473.73
841.832	19383.56
842.156	19334.07
842.481	19268.31
842.805	19187.18
843.13	19124.58
843.454	19190.57
843.778	19156.9
844.103	19095.43
844.427	19017.24
844.751	19045.26
845.075	18921.2
845.399	18885.72
845.723	18761.65
846.047	18894.31
846.371	18819.05
846.695	18725.72
847.019	18545.84
847.343	18528.89
847.666	18499.74
847.99	18307.2
848.313	18258.84
848.637	18270.37
848.96	18241.89
849.284	18140.43
849.607	18104.27
849.931	17984.5
850.254	17809.59
850.577	17824.28
850.9	17695.92
851.223	17733.66
851.546	17624.73
851.869	17576.6
852.192	17671.74
852.515	17455.02
852.838	17325.08
853.161	17339.09
853.483	17240.11
853.806	17239.66
854.129	17177.97
854.451	17064.52
854.774	16964.19
855.096	16928.93
855.419	16863.62
855.741	16842.38
856.063	16729.84
856.385	16667.7
856.708	16614.14
857.03	16593.35
857.352	16547.02
857.674	16524.65
857.996	16407.59
858.318	16324.66
858.64	16347.48
858.961	16339.12
859.283	16224.77
859.605	16166.24
859.926	16242.17
860.248	16164.66
860.57	15991.78
860.891	16058.9
861.212	16062.29
861.534	15990.88
861.855	16023.42
862.176	15955.85
862.498	15929.86
862.819	15858
863.14	15817.32
863.461	15785.23
863.782	15761.51
864.103	15667.05
864.424	15632.7
864.745	15703.65
865.065	15644
865.386	15616.43
865.707	15637.22
866.027	15613.04
866.348	15533.26
866.668	15533.72
866.989	15564.22
867.309	15382.31
867.63	15421.63
867.95	15439.93
868.27	15331.01
868.59	15387.28
868.91	15289.88
869.23	15348.64
869.55	15228.64
869.87	15324.46
870.19	15265.47
870.51	15138.7
870.83	15282.65
871.15	15112.26
871.469	15046.72
871.789	15062.32
872.109	15086.72
872.428	15042.88
872.748	15118.36
873.067	14984.35
873.386	15010.79
873.706	15001.3
874.025	14975.54
874.344	14918.14
874.663	14907.74
874.982	14993.17
875.301	14857.35
875.62	14830.01
875.939	14803.79
876.258	14800.18
876.577	14748.65
876.896	14774.64
877.214	14628.88
877.533	14674.08
877.852	14676.11
878.17	14737.35
878.489	14668.88
878.807	14649.9
879.125	14585.27
879.444	14528.77
879.762	14543.01
880.08	14597.92
880.398	14413.75
880.716	14469.79
881.034	14384.59
881.352	14447.64
881.67	14331.94
881.988	14305.73
882.306	14322.22
882.624	14298.95
882.941	14220.3
883.259	14184.37
883.577	14213.52
883.894	14201.1
884.212	14049.46
884.529	14093.75
884.846	14039.52
885.164	13993.87
885.481	13966.98
885.798	13964.94
886.115	13863.03
886.432	13882.23
886.75	13760.43
887.067	13847.88
887.383	13731.5
887.7	13783.25
888.017	13639.98
888.334	13695.57
888.651	13704.61
888.967	13593.65
889.284	13574.67
889.6	13477.72
889.917	13468.69
890.233	13424.84
890.55	13426.2
890.866	13376.26
891.182	13367.22
891.498	13317.28
891.815	13223.49
892.131	13213.78
892.447	13197.73
892.763	13115.25
893.079	13070.28
893.395	13092.42
893.71	13045.87
894.026	13105.53
894.342	13022.82
894.657	12911.19
894.973	12843.17
895.289	12833.9
895.604	12763.17
895.92	12679.33
896.235	12762.04
896.55	12623.96
896.865	12630.97
897.181	12588.48
897.496	12593.68
897.811	12457.86
898.126	12464.64
898.441	12497.41
898.756	12466.68
899.071	12349.84
899.386	12324.08
899.7	12231.88
900.015	12165.89
900.33	12184.65
900.644	12102.17
900.959	12131.32
901.273	12065.33
901.588	12007.93
901.902	11965.22
902.216	11950.08
902.531	11874.38
902.845	11834.6
903.159	11705.57
903.473	11712.8
903.787	11671.67
904.101	11625.12
904.415	11688.85
904.729	11600.26
905.042	11482.3
905.356	11462.86
905.67	11460.38
905.984	11433.03
906.297	11363.66
906.611	11299.48
906.924	11306.93
907.237	11175.64
907.551	11111.23
907.864	11196.43
908.177	11059.26
908.491	11077.56
908.804	10960.05
909.117	10934.06
909.43	10915.76
909.743	10821.52
910.056	10893.39
910.368	10740.85
910.681	10777.46
910.994	10742.88
911.307	10603.22
911.619	10599.61
911.932	10619.95
912.244	10401.65
912.557	10466.96
912.869	10410.69
913.181	10393.29
913.494	10354.19
913.806	10296.34
914.118	10305.83
914.43	10180.41
914.742	10239.17
915.054	10108.55
915.366	10082.33
915.678	10021.09
915.99	10010.25
916.302	9885.5
916.613	9968.44
916.925	9915.33
917.236	9920.76
917.548	9836.01
917.859	9791.49
918.171	9770.03
918.482	9700.42
918.794	9633.76
919.105	9612.52
919.416	9502.46
919.727	9575.91
920.038	9492.52
920.349	9446.42
920.66	9438.51
920.971	9369.58
921.282	9361.45
921.593	9308.12
921.903	9241.23
922.214	9175.01
922.525	9197.84
922.835	9146.77
923.146	9078.07
923.456	9075.35
923.767	9042.59
924.077	9006.43
924.387	9014.11
924.697	8975.24
925.008	8877.39
925.318	8865.87
925.628	8840.11
925.938	8815.93
926.248	8710.84
926.558	8647.12
926.867	8692.09
927.177	8608.25
927.487	8594.24
927.796	8553.56
928.106	8530.06
928.416	8528.93
928.725	8439.21
929.034	8451.19
929.344	8469.04
929.653	8429.27
929.962	8304.3
930.271	8267.47
930.581	8204.42
930.89	8189.05
931.199	8116.74
931.508	8172.55
931.817	8144.31
932.125	8096.62
932.434	8063.18
932.743	7928.49
933.051	7967.36
933.36	7957.42
933.669	7869.74
933.977	7856.18
934.286	7870.64
934.594	7851.43
934.902	7734.15
935.21	7700.93
935.519	7712.45
935.827	7699.57
936.135	7617.77
936.443	7665.9
936.751	7655.96
937.059	7578.22
937.367	7546.36
937.674	7515.85
937.982	7460.03
938.29	7471.33
938.597	7390.65
938.905	7335.74
939.213	7335.97
939.52	7248.96
939.827	7222.07
940.135	7236.53
940.442	7251.45
940.749	7213.48
941.056	7210.77
941.363	7056.42
941.67	7049.87
941.977	7013.94
942.284	6961.06
942.591	6994.96
942.898	6887.16
943.205	6950.44
943.511	6844
943.818	6872.47
944.125	6746.38
944.431	6770.56
944.738	6758.58
945.044	6729.88
945.35	6704.12
945.657	6668.41
945.963	6664.12
946.269	6626.15
946.575	6610.33
946.881	6583.44
947.187	6547.06
947.493	6545.93
947.799	6498.47
948.105	6460.28
948.41	6453.28
948.716	6368.53
949.022	6361.53
949.327	6359.49
949.633	6254.64
949.938	6304.35
950.244	6259.84
950.549	6284.47
950.854	6191.36
951.16	6170.57
951.465	6212.83
951.77	6143
952.075	6062.78
952.38	6124.47
952.685	6062.1
952.99	6025.04
953.294	5978.49
953.599	5974.87
953.904	5940.3
954.209	5921.09
954.513	5924.93
954.818	5853.52
955.122	5834.54
955.426	5747.98
955.731	5788.66
956.035	5724.03
956.339	5734.65
956.643	5763.8
956.948	5704.14
957.252	5700.75
957.556	5635.22
957.86	5589.8
958.163	5563.13
958.467	5562
958.771	5558.61
959.075	5545.05
959.378	5495.11
959.682	5487.2
959.985	5432.74
960.289	5430.03
960.592	5409.46
960.896	5390.71
961.199	5286.53
961.502	5370.82
961.805	5294.21
962.108	5262.12
962.411	5277.94
962.714	5235.46
963.017	5263.03
963.32	5250.14
963.623	5197.26
963.926	5198.62
964.228	5145.97
964.531	5156.59
964.833	5109.81
965.136	5035.46
965.438	5004.73
965.741	4992.98
966.043	4985.29
966.345	4953.66
966.648	4958.4
966.95	4949.59
967.252	4890.83
967.554	4901.68
967.856	4891.06
968.158	4837.27
968.46	4793.43
968.761	4812.19
969.063	4752.3
969.365	4758.86
969.666	4792.76
969.968	4684.51
970.269	4656.49
970.571	4674.57
970.872	4687.67
971.174	4637.28
971.475	4626.21
971.776	4606.77
972.077	4576.26
972.378	4515.93
972.679	4539.2
972.98	4529.71
973.281	4521.8
973.582	4399.55
973.883	4441.13
974.183	4469.37
974.484	4392.99
974.785	4385.31
975.085	4380.79
975.386	4341.47
975.686	4310.96
975.986	4273.67
976.287	4308.25
976.587	4260.34
976.887	4258.31
977.187	4269.15
977.487	4229.15
977.787	4216.73
978.087	4206.56
978.387	4145.54
978.687	4145.09
978.987	4103.06
979.286	4084.75
979.586	4061.93
979.885	4033.91
980.185	4053.79
980.484	3985.09
980.784	3956.17
981.083	3996.62
981.382	4009.27
981.682	4003.17
981.981	3943.06
982.28	3913.91
982.579	3907.35
982.878	3885.43
983.177	3854.93
983.475	3888.37
983.774	3817.19
984.073	3811.09
984.372	3792.1
984.67	3803.63
984.969	3788.49
985.267	3759.34
985.566	3740.13
985.864	3726.79
986.162	3695.84
986.461	3709.39
986.759	3680.69
987.057	3654.71
987.355	3667.81
987.653	3611.54
987.951	3595.27
988.249	3579.68
988.547	3555.5
988.844	3566.12
989.142	3528.61
989.44	3502.62
989.737	3495.84
990.035	3467.59
990.332	3486.12
990.63	3405.22
990.927	3454.03
991.224	3457.2
991.521	3433.7
991.819	3403.64
992.116	3369.74
992.413	3370.19
992.71	3372.45
993.006	3338.33
993.303	3335.62
993.6	3309.4
993.897	3323.42
994.193	3266.02
994.49	3269.41
994.787	3255.62
995.083	3233.93
995.379	3223.31
995.676	3180.14
995.972	3165.23
996.268	3127.94
996.565	3119.13
996.861	3116.64
997.157	3087.26
997.453	3082.52
997.749	3055.85
998.044	3051.33
998.34	3072.8
998.636	3029.41
998.932	2991.45
999.227	2968.17
999.523	2973.37
999.818	2967.04
1000.114	2947.15
1000.409	2920.71
1000.704	2888.17
1001	2919.13
1001.295	2883.2
1001.59	2860.15
1001.885	2876.87
1002.18	2840.72
1002.475	2840.72
1002.77	2810.89
1003.065	2789.19
1003.359	2782.64
1003.654	2722.3
1003.949	2712.81
1004.243	2724.34
1004.538	2731.57
1004.832	2687.73
1005.127	2700.38
1005.421	2665.13
1005.715	2673.72
1006.009	2635.98
1006.304	2627.84
1006.598	2577.45
1006.892	2609.54
1007.186	2563.44
1007.48	2564.11
1007.773	2541.52
1008.067	2530.67
1008.361	2525.47
1008.655	2519.37
1008.948	2529.31
1009.242	2463.78
1009.535	2448.41
1009.829	2473.95
1010.122	2419.48
1010.415	2396.89
1010.708	2367.96
1011.001	2375.42
1011.295	2394.4
1011.588	2348.07
1011.881	2328.19
1012.173	2324.12
1012.466	2303.1
1012.759	2305.82
1013.052	2292.93
1013.344	2281.86
1013.637	2299.49
1013.93	2243.9
1014.222	2228.08
1014.514	2262.88
1014.807	2223.56
1015.099	2162.77
1015.391	2169.1
1015.683	2172.49
1015.976	2161.86
1016.268	2116.89
1016.56	2131.13
1016.851	2130.68
1017.143	2112.83
1017.435	2103.79
1017.727	2105.59
1018.018	2051.13
1018.31	2039.16
1018.602	2008.42
1018.893	2012.49
1019.185	2020.62
1019.476	1971.13
1019.767	1996.9
1020.058	1972.04
1020.35	1953.28
1020.641	1940.85
1020.932	1915.99
1021.223	1943.11
1021.514	1906.73
1021.804	1908.09
1022.095	1891.14
1022.386	1870.35
1022.677	1867.41
1022.967	1833.51
1023.258	1829.67
1023.548	1816.56
1023.839	1787.41
1024.129	1800.07
1024.419	1745.83
1024.709	1784.02
1025	1747.41
1025.29	1740.86
1025.58	1743.34
1025.87	1692.5
1026.16	1697.02
1026.449	1707.86
1026.739	1705.6
1027.029	1674.65
1027.319	1645.72
1027.608	1645.04
1027.898	1614.31
1028.187	1617.02
1028.477	1618.15
1028.766	1582.67
1029.055	1575.66
1029.344	1580.41
1029.634	1560.75
1029.923	1568.66
1030.212	1563.91
1030.501	1553.29
1030.79	1528.89
1031.078	1532.05
1031.367	1544.25
1031.656	1483.46
1031.945	1489.79
1032.233	1473.75
1032.522	1489.34
1032.81	1436.69
1033.099	1448.21
1033.387	1449.34
1033.675	1431.71
1033.963	1441.88
1034.251	1438.49
1034.54	1396.01
1034.828	1422.67
1035.116	1363.69
1035.403	1370.25
1035.691	1363.47
1035.979	1356.69
1036.267	1323.69
1036.554	1325.5
1036.842	1320.53
1037.129	1306.29
1037.417	1325.05
1037.704	1271.04
1037.992	1299.29
1038.279	1278.95
1038.566	1294.99
1038.853	1294.99
1039.14	1294.99
