Data from 19-1250_FLMS001491_005.txt Node
Date: Thu Apr 19 16:28:20 BST 2018
User: hsy
Spectrometer: FLMS00149
Trigger mode: 0
Integration Time (sec): 1.000000E-2
Scans to average: 10
Electric dark correction enabled: true
Nonlinearity correction enabled: false
Boxcar width: 0
XAxis mode: Wavelengths
Number of Pixels in Spectrum: 2048
>>>>>Begin Spectral Data<<<<<
341.393	-24.42
341.776	-24.42
342.16	-24.42
342.543	-63.97
342.927	-83.85
343.31	-71.2
343.693	-83.85
344.077	-59.45
344.46	-80.46
344.843	-58.77
345.226	-40.01
345.61	-1.14
345.993	-25.55
346.376	-9.73
346.759	19.42
347.142	28.23
347.525	38.85
347.908	67.55
348.291	78.4
348.674	83.6
349.057	114.11
349.44	140.32
349.823	144.16
350.206	177.38
350.588	214.9
350.971	250.83
351.354	258.74
351.737	250.6
352.119	304.38
352.502	294.44
352.884	307.32
353.267	307.32
353.65	321.11
354.032	323.14
354.414	353.87
354.797	361.78
355.179	354.33
355.562	368.11
355.944	373.31
356.326	359.3
356.709	350.49
357.091	375.8
357.473	404.27
357.855	378.96
358.238	378.06
358.62	372.18
359.002	382.57
359.384	372.63
359.766	371.73
360.148	377.15
360.53	362.46
360.912	392.07
361.294	379.18
361.676	367.89
362.057	367.66
362.439	389.81
362.821	360.88
363.203	359.98
363.584	357.72
363.966	362.91
364.348	397.72
364.729	377.15
365.111	350.94
365.493	342.58
365.874	385.06
366.256	363.59
366.637	350.03
367.019	362.69
367.4	363.59
367.781	344.61
368.163	364.95
368.544	374.89
368.925	385.06
369.306	395.23
369.688	366.98
370.069	362.69
370.45	363.14
370.831	373.76
371.212	379.64
371.593	390.26
371.974	354.55
372.355	390.48
372.736	370.6
373.117	384.38
373.498	384.61
373.879	379.86
374.26	362.91
374.641	369.47
375.021	371.95
375.402	374.21
375.783	389.81
376.163	395.23
376.544	385.74
376.925	417.38
377.305	413.99
377.686	382.57
378.066	413.99
378.447	386.87
378.827	414.21
379.208	406.53
379.588	417.15
379.968	412.86
380.349	409.92
380.729	405.17
381.109	437.94
381.489	424.61
381.87	440.43
382.25	413.99
382.63	409.47
383.01	466.41
383.39	447.88
383.77	422.35
384.15	426.87
384.53	437.49
384.91	444.27
385.29	460.31
385.67	442.91
386.049	452.18
386.429	470.93
386.809	457.15
387.189	461.67
387.568	446.08
387.948	467.54
388.328	472.52
388.707	474.55
389.087	488.11
389.466	488.11
389.846	511.16
390.225	484.27
390.605	494.21
390.984	496.24
391.363	474.55
391.743	500.99
392.122	496.7
392.501	481.78
392.881	518.16
393.26	509.35
393.639	515
394.018	526.75
394.397	541.44
394.776	507.09
395.155	547.77
395.534	530.82
395.913	555.23
396.292	543.02
396.671	557.49
397.05	543.47
397.429	561.33
397.808	561.33
398.186	552.97
398.565	559.07
398.944	558.62
399.323	561.1
399.701	560.88
400.08	581.44
400.458	574.66
400.837	592.74
401.215	591.38
401.594	585.51
401.972	608.78
402.351	581.89
402.729	599.97
403.107	611.04
403.486	608.78
403.864	612.85
404.242	615.11
404.62	615.56
404.999	641.55
405.377	638.84
405.755	666.64
406.133	639.97
406.511	633.87
406.889	661.89
407.267	670.93
407.645	663.25
408.023	685.39
408.401	667.54
408.779	702.57
409.156	706.86
409.534	704.37
409.912	740.98
410.29	736.24
410.667	731.04
411.045	730.59
411.422	727.42
411.8	747.54
412.178	762
412.555	766.29
412.933	782.56
413.31	790.47
413.687	798.61
414.065	778.95
414.442	790.47
414.819	829.12
415.197	824.82
415.574	848.33
415.951	830.47
416.328	849
416.705	825.27
417.082	851.26
417.46	879.51
417.837	850.58
418.214	886.52
418.591	875.22
418.967	891.94
419.344	907.76
419.721	915.22
420.098	904.82
420.475	928.32
420.852	897.82
421.228	916.57
421.605	954.31
421.982	922.45
422.358	919.51
422.735	940.3
423.111	959.96
423.488	965.84
423.864	965.61
424.241	991.82
424.617	990.69
424.994	999.06
425.37	995.89
425.746	1022.78
426.123	1025.27
426.499	1032.05
426.875	1047.19
427.251	1072.95
427.627	1068.66
428.003	1076.12
428.379	1075.66
428.756	1086.96
429.132	1109.11
429.507	1120.63
429.883	1152.05
430.259	1151.14
430.635	1175.55
431.011	1173.51
431.387	1166.73
431.763	1202.67
432.138	1198.82
432.514	1234.76
432.89	1225.04
433.265	1250.35
433.641	1271.14
434.016	1282.44
434.392	1286.05
434.767	1340.29
435.143	1305.94
435.518	1328.31
435.894	1354.3
436.269	1380.51
436.644	1391.36
437.02	1381.64
437.395	1411.7
437.77	1424.58
438.145	1458.7
438.52	1440.63
438.895	1472.49
439.271	1469.78
439.646	1488.76
440.021	1510.68
440.395	1484.47
440.77	1490.57
441.145	1530.34
441.52	1515.65
441.895	1530.79
442.27	1549.1
442.645	1540.96
443.019	1545.48
443.394	1556.33
443.769	1599.49
444.143	1575.76
444.518	1590.23
444.892	1594.07
445.267	1608.53
445.641	1596.55
446.016	1638.81
446.39	1631.58
446.764	1639.94
447.139	1671.13
447.513	1688.53
447.887	1695.76
448.262	1662.77
448.636	1665.03
449.01	1694.63
449.384	1728.75
449.758	1747.96
450.132	1795.87
450.506	1768.07
450.88	1796.77
451.254	1797.45
451.628	1848.3
452.002	1854.4
452.376	1862.31
452.75	1868.64
453.123	1869.09
453.497	1900.5
453.871	1922.87
454.244	1945.47
454.618	1961.29
454.992	2023.66
455.365	1985.92
455.739	2064.79
456.112	2080.38
456.486	2115.18
456.859	2107.28
457.232	2116.99
457.606	2157.9
457.979	2173.49
458.352	2211.68
458.725	2235.18
459.099	2231.57
459.472	2271.56
459.845	2294.61
460.218	2337.1
460.591	2343.88
460.964	2391.11
461.337	2407.15
461.71	2448.28
462.083	2481.5
462.456	2488.73
462.829	2492.58
463.201	2545.68
463.574	2554.95
463.947	2586.81
464.32	2611.89
464.692	2647.37
465.065	2678.56
465.438	2671.33
465.81	2746.58
466.183	2744.77
466.555	2852.79
466.928	2818.67
467.3	2850.08
467.672	2888.95
468.045	2966.69
468.417	2929.17
468.789	3014.37
469.161	3015.5
469.534	3058.66
469.906	3086.23
470.278	3142.28
470.65	3171.88
471.022	3231.77
471.394	3292.78
471.766	3280.35
472.138	3356.73
472.51	3385.66
472.882	3413.68
473.253	3480.8
473.625	3564.19
473.997	3613
474.369	3636.05
474.74	3665.88
475.112	3734.12
475.484	3793.11
475.855	3792.2
476.227	3882.37
476.598	3981.58
476.97	4036.49
477.341	4108.13
477.713	4117.39
478.084	4198.52
478.455	4305.41
478.827	4339.31
479.198	4442.13
479.569	4436.71
479.94	4598.51
480.311	4665.63
480.682	4742.91
481.053	4891.83
481.424	4924.15
481.795	4954.66
482.166	5034.66
482.537	5100.42
482.908	5164.82
483.279	5291.82
483.65	5415.89
484.021	5515.32
484.391	5579.27
484.762	5644.36
485.133	5745.37
485.503	5786.95
485.874	5963.67
486.244	6019.71
486.615	6081.18
486.985	6188.52
487.356	6324.11
487.726	6357.78
488.097	6534.5
488.467	6579.7
488.837	6707.61
489.207	6779.24
489.578	6866.92
489.948	6984.66
490.318	7082.06
490.688	7098.33
491.058	7276.4
491.428	7379
491.798	7428.72
492.168	7616.96
492.538	7666.45
492.908	7830.74
493.278	7885.2
493.648	7942.83
494.017	8054.92
494.387	8172.65
494.757	8239.09
495.126	8328.81
495.496	8418.3
495.866	8496.26
496.235	8588.69
496.605	8705.29
496.974	8789.13
497.344	8912.29
497.713	8944.38
498.082	8978.96
498.452	9082.01
498.821	9180.54
499.19	9237.26
499.559	9352.28
499.928	9395.22
500.298	9507.08
500.667	9623.46
501.036	9592.95
501.405	9729.9
501.774	9845.15
502.143	9934.41
502.512	9928.99
502.88	10098.7
503.249	10111.58
503.618	10200.85
503.987	10248.53
504.356	10312.71
504.724	10372.82
505.093	10451.91
505.462	10549.99
505.83	10641.29
506.199	10697.33
506.567	10885.12
506.936	10864.33
507.304	11024.78
507.672	11051.67
508.041	11111.78
508.409	11282.18
508.777	11314.26
509.145	11448.27
509.514	11461.61
509.882	11542.73
510.25	11575.27
510.618	11697.76
510.986	11782.95
511.354	11837.19
511.722	12010.07
512.09	12100.46
512.458	12102.04
512.826	12206.22
513.193	12345.65
513.561	12356.95
513.929	12459.09
514.297	12529.15
514.664	12586.77
515.032	12739.09
515.4	12909.93
515.767	12970.04
516.135	13002.13
516.502	13036.93
516.869	13279.41
517.237	13295.46
517.604	13284.38
517.972	13392.63
518.339	13520.76
518.706	13649.34
519.073	13645.73
519.44	13815.22
519.808	13955.55
520.175	14053.85
520.542	14189.22
520.909	14287.75
521.276	14349.89
521.643	14511.92
522.009	14554.63
522.376	14780.39
522.743	14815.87
523.11	15043.66
523.477	15120.04
523.843	15188.97
524.21	15430.31
524.577	15621.04
524.943	15664.66
525.31	15736.3
525.676	15918.66
526.043	16052.45
526.409	16181.71
526.776	16350.74
527.142	16420.57
527.508	16480.46
527.874	16741.69
528.241	16771.75
528.607	16921.12
528.973	17061.91
529.339	17098.97
529.705	17309.14
530.071	17462.58
530.437	17556.59
530.803	17628.45
531.169	17783.7
531.535	17798.84
531.901	17914.54
532.267	18006.74
532.632	18191.15
532.998	18244.03
533.364	18402.89
533.73	18500.29
534.095	18586.39
534.461	18713.62
534.826	18776.67
535.192	18833.39
535.557	18945.25
535.923	18954.29
536.288	19094.4
536.653	19165.81
537.019	19277.67
537.384	19335.75
537.749	19271.34
538.114	19511.34
538.479	19495.97
538.845	19598.57
539.21	19666.81
539.575	19662.07
539.94	19770.09
540.305	19904.55
540.67	19953.59
541.034	20034.49
541.399	20144.99
541.764	20199.45
542.129	20195.61
542.494	20299.11
542.858	20395.83
543.223	20406.68
543.587	20449.62
543.952	20534.36
544.316	20623.62
544.681	20614.36
545.045	20785.43
545.41	20841.25
545.774	20866.33
546.138	20914.46
546.503	20972.54
546.867	21022.94
547.231	21157.62
547.595	21242.82
547.959	21332.31
548.324	21280.1
548.688	21390.38
549.052	21446.88
549.416	21462.7
549.779	21518.29
550.143	21708.79
550.507	21822.01
550.871	21855.23
551.235	21863.59
551.599	22122.57
551.962	22069.91
552.326	22186.3
552.689	22285.05
553.053	22182.45
553.417	22314.43
553.78	22547.64
554.143	22506.06
554.507	22619.96
554.87	22723.46
555.234	22986.73
555.597	22841.65
555.96	22939.95
556.323	23142.2
556.686	23156.44
557.05	23391.46
557.413	23464
557.776	23481.63
558.139	23626.94
558.502	23780.38
558.865	23828.51
559.228	23963.65
559.59	24050.2
559.953	23977.89
560.316	24329.52
560.679	24366.8
561.041	24521.6
561.404	24672.78
561.767	24860.12
562.129	24800.46
562.492	25055.82
562.854	25157.06
563.217	25116.16
563.579	25328.59
563.941	25487
564.304	25543.95
564.666	25842.47
565.028	25818.29
565.39	25915.91
565.753	26043.14
566.115	26250.37
566.477	26409.46
566.839	26430.93
567.201	26796.34
567.563	26754.76
567.925	26917.7
568.287	27064.13
568.648	27096.67
569.01	27349.1
569.372	27566.72
569.734	27458.25
570.095	27769.43
570.457	27998.35
570.819	27947.95
571.18	28036.31
571.542	28320.15
571.903	28366.92
572.265	28458.9
572.626	28629.52
572.987	28697.76
573.349	28864.09
573.71	28922.39
574.071	29119.45
574.432	29440.79
574.794	29532.09
575.155	29634.23
575.516	29760.79
575.877	29766.66
576.238	29838.3
576.599	29964.4
576.96	30134.79
577.32	30184.28
577.681	30255.24
578.042	30502.01
578.403	30547.66
578.763	30657.26
579.124	30680.76
579.485	30982.45
579.845	30958.95
580.206	30967.53
580.566	31244.81
580.927	31230.13
581.287	31328.88
581.648	31317.35
582.008	31575.43
582.368	31530.68
582.728	31646.84
583.089	31631.47
583.449	31741.3
583.809	31965.93
584.169	32055.19
584.529	31989.65
584.889	32243.66
585.249	32243.21
585.609	32237.78
585.969	32505.8
586.329	32551.22
586.688	32738.56
587.048	32873.7
587.408	32866.24
587.768	32895.39
588.127	33027.37
588.487	33051.32
588.846	33494.92
589.206	33291.31
589.565	33405.66
589.925	33812.66
590.284	33869.83
590.643	33885.87
591.003	34058.53
591.362	34361.34
591.721	34350.95
592.08	34508.01
592.44	34630.04
592.799	34734.89
593.158	34863.48
593.517	35061.89
593.876	35319.06
594.235	35367.19
594.593	35494.42
594.952	35752.49
595.311	35869.1
595.67	35907.06
596.029	36128.08
596.387	36393.15
596.746	36697.78
597.104	36563.77
597.463	36714.73
597.822	36987.26
598.18	36959.24
598.538	37134.83
598.897	37624.99
599.255	37477.87
599.613	37977.07
599.972	37754.47
600.33	37893.23
600.688	38124.18
601.046	38323.5
601.404	38749.25
601.762	38678.29
602.12	38976.14
602.478	39086.19
602.836	39233.53
603.194	39116.7
603.552	39276.02
603.91	39276.02
604.268	39693.86
604.625	39675.78
604.983	39968.88
605.341	39847.07
605.698	40161.19
606.056	40641.86
606.413	40553.04
606.771	40887.27
607.128	40861.28
607.485	40947.16
607.843	40916.42
608.2	41201.39
608.557	41482.74
608.914	41387.15
609.272	41763.18
609.629	41871.2
609.986	42046.11
610.343	41944.65
610.7	42362.26
611.057	42289.27
611.414	42311.42
611.771	42536.04
612.127	42708.24
612.484	42900.1
612.841	43094.67
613.198	43087.89
613.554	43109.59
613.911	43199.98
614.267	43446.75
614.624	43468.67
614.98	43490.37
615.337	43750.47
615.693	43825.27
616.05	43712.28
616.406	44021.65
616.762	44051.26
617.118	44067.75
617.475	44038.15
617.831	44336.22
618.187	44514.97
618.543	44538.93
618.899	44761.97
619.255	44702.09
619.611	44672.26
619.967	44835.19
620.323	45084.45
620.678	44862.31
621.034	44893.04
621.39	45022.08
621.746	44870.44
622.101	45422.29
622.457	45082.64
622.812	45340.71
623.168	45453.93
623.523	45521.73
623.879	45679.91
624.234	45476.53
624.589	45643.76
624.945	45541.39
625.3	45745.68
625.655	45681.95
626.01	45718.11
626.365	45840.36
626.72	45812.34
627.075	45656.41
627.43	45817.31
627.785	45789.29
628.14	45842.62
628.495	45890.3
628.85	45890.08
629.205	45768.05
629.559	45892.34
629.914	45605.79
630.269	45911.32
630.623	45595.62
630.978	45578.22
631.332	45784.54
631.687	45819.8
632.041	45626.13
632.396	45568.28
632.75	45580.26
633.104	45697.32
633.459	45497.55
633.813	45338.68
634.167	45419.36
634.521	45424.78
634.875	45489.41
635.229	45333.71
635.583	45037.22
635.937	45168.29
636.291	45135.07
636.645	45006.49
636.999	45054.85
637.352	45013.94
637.706	44732.14
638.06	44979.37
638.413	44914.06
638.767	44802.2
639.121	44926.71
639.474	44714.52
639.828	44558.14
640.181	44653.28
640.534	44677.91
640.888	44539.83
641.241	44324.24
641.594	44509.1
641.947	44546.39
642.301	44433.39
642.654	44353.17
643.007	44133.51
643.36	44345.49
643.713	44209.9
644.066	44357.24
644.419	43990.02
644.771	43628.44
645.124	43287.21
645.477	43368.56
645.83	43106.42
646.182	43123.15
646.535	43109.13
646.888	43160.88
647.24	43066.42
647.593	43430.48
647.945	43159.3
648.298	42975.81
648.65	42737.85
649.002	42490.85
649.355	42425.99
649.707	42326.56
650.059	42315.26
650.411	42923.83
650.763	43109.81
651.115	43784.15
651.467	43736.91
651.819	43545.28
652.171	43535.11
652.523	43355.23
652.875	43481.78
653.227	43365.85
653.578	43631.61
653.93	43500.09
654.282	43241.56
654.633	43336.7
654.985	43350.71
655.337	43441.78
655.688	43441.1
656.039	43429.8
656.391	43007.67
656.742	43154.33
657.094	43227.32
657.445	43209.92
657.796	43233.2
658.147	43102.13
658.498	43192.3
658.849	43106.88
659.2	43092.86
659.551	42996.82
659.902	43397.04
660.253	43061.45
660.604	43370.14
660.955	42937.16
661.306	43284.27
661.656	42990.95
662.007	43039.53
662.358	43103.49
662.708	43186.65
663.059	43045.86
663.409	42929.7
663.76	43152.52
664.11	43154.56
664.461	43326.76
664.811	43276.81
665.161	43093.99
665.511	43062.81
665.862	43175.12
666.212	43201.34
666.562	43197.95
666.912	43215.57
667.262	43042.47
667.612	43152.52
667.962	43251.28
668.312	43163.82
668.662	43334.44
669.011	43138.96
669.361	43275.91
669.711	43160.43
670.06	42994.79
670.41	43048.57
670.76	42922.47
671.109	43178.96
671.459	43103.94
671.808	43037.05
672.157	43042.47
672.507	42695.59
672.856	42703.72
673.205	42978.06
673.554	42820.78
673.904	42734.68
674.253	43175.12
674.602	42829.59
674.951	42264.19
675.3	42157.52
675.649	42839.31
675.998	42679.99
676.346	42719.31
676.695	42881.12
677.044	42536.49
677.393	42675.25
677.741	42622.37
678.09	42536.95
678.438	42463.5
678.787	42545.31
679.135	42348.7
679.484	42259.67
679.832	42365.2
680.181	42217.63
680.529	42243.85
680.877	42134.92
681.225	42122.49
681.573	42334.24
681.922	42099.9
682.27	41959.11
682.618	41960.69
682.966	41812.67
683.314	41915.72
683.661	41812.9
684.009	41671.43
684.357	41685.67
684.705	41489.97
685.053	41504.43
685.4	41320.03
685.748	41361.84
686.095	41222.86
686.443	41005.91
686.79	41087.72
687.138	41266.02
687.485	41052.47
687.832	40833.94
688.18	40875.97
688.527	40695.41
688.874	40639.37
689.221	40729.99
689.568	40427.4
689.915	40320.28
690.262	40355.08
690.609	40385.36
690.956	40144.69
691.303	40080.51
691.65	39912.16
691.997	39931.37
692.344	39813.63
692.69	39683.46
693.037	39707.64
693.383	39383.36
693.73	39496.12
694.077	39302.23
694.423	39151.05
694.769	39086.87
695.116	39089.35
695.462	38737.5
695.808	38680.78
696.155	38716.93
696.501	38451.86
696.847	38526.2
697.193	38151.53
697.539	38322.82
697.885	37993.11
698.231	37888.03
698.577	37945.65
698.923	37820.91
699.269	37490.3
699.614	37437.42
699.96	37287.59
700.306	37347.03
700.651	37149.97
700.997	37057.77
701.342	36928.73
701.688	36815.06
702.033	36669.53
702.379	36698.23
702.724	36551.57
703.069	36532.58
703.415	36155.87
703.76	36193.61
704.105	36070.22
704.45	36037.68
704.795	35855.54
705.14	35667.75
705.485	35827.74
705.83	35505.27
706.175	35588.2
706.52	35423.46
706.865	35290.13
707.209	35210.81
707.554	35071.83
707.899	35136.01
708.243	34947.99
708.588	34795.91
708.932	34680.66
709.277	34667.77
709.621	34700.32
709.966	34322.47
710.31	34266.43
710.654	34243.38
710.998	34226.2
711.342	34284.96
711.687	34063.95
712.031	33952.09
712.375	33922.03
712.719	33757.74
713.063	33771.3
713.407	33851.98
713.75	33666.67
714.094	33708.03
714.438	33489.95
714.782	33588.03
715.125	33395.94
715.469	33673.45
715.812	33316.62
716.156	33321.14
716.499	33223.97
716.843	33246.34
717.186	33056.29
717.53	33100.13
717.873	33094.03
718.216	32927.71
718.559	32973.81
718.902	32712.57
719.246	32725.23
719.589	32614.72
719.932	32604.55
720.275	32516.65
720.617	32593.25
720.96	32389.42
721.303	32666.25
721.646	32600.03
721.989	32421.05
722.331	32526.81
722.674	32235.97
723.016	32358.68
723.359	32287.5
723.701	32265.35
724.044	32130.67
724.386	31951.69
724.729	32068.97
725.071	32109.2
725.413	32023.78
725.755	31997.34
726.097	31803.9
726.439	31816.78
726.782	31833.05
727.124	32127.05
727.465	31866.04
727.807	31714.41
728.149	31800.73
728.491	31624.24
728.833	31725.03
729.175	31745.82
729.516	31633.73
729.858	31651.58
730.199	31664.24
730.541	31654.07
730.882	31552.6
731.224	31730
731.565	31445.03
731.906	31568.65
732.248	31505.6
732.589	31442.77
732.93	31226.74
733.271	31332.5
733.612	31408.43
733.953	31537.91
734.294	31402.55
734.635	31274.42
734.976	31440.29
735.317	31257.02
735.658	31327.3
735.999	31364.81
736.339	31297.24
736.68	31362.33
737.021	31361.2
737.361	31295.43
737.702	31522.32
738.042	31165.49
738.383	31393.28
738.723	31582.43
739.063	31301.31
739.404	31409.33
739.744	31455.43
740.084	31326.39
740.424	31211.37
740.764	31379.27
741.104	31509.44
741.444	31379.5
741.784	31289.33
742.124	31353.29
742.464	31514.86
742.804	31372.49
743.143	31505.82
743.483	31559.61
743.823	31438.48
744.162	31633.05
744.502	31699.27
744.841	31565.48
745.181	31699.72
745.52	31676.67
745.86	31821.52
746.199	31600.74
746.538	31653.39
746.877	31879.37
747.216	31833.05
747.556	31854.06
747.895	31956.89
748.234	31949.43
748.573	31838.47
748.911	31874.63
749.25	32021.06
749.589	31920.5
749.928	32040.27
750.267	32026.49
750.605	32161.4
750.944	32045.92
751.283	32197.78
751.621	32301.51
751.96	32304.9
752.298	32268.74
752.636	32334.5
752.975	32312.58
753.313	32439.36
753.651	32535.85
753.989	32435.29
754.327	32520.03
754.666	32469.41
755.004	32517.77
755.342	32592.12
755.679	32625.12
756.017	32550.99
756.355	32743.31
756.693	32793.25
757.031	32945.56
757.368	32713.25
757.706	32871.21
758.044	32736.98
758.381	32780.59
758.719	32845
759.056	32890.65
759.394	32889.74
759.731	32767.26
760.068	32748.73
760.405	32854.04
760.743	32730.42
761.08	32874.15
761.417	32652.69
761.754	32588.96
762.091	32837.77
762.428	32659.01
762.765	32583.08
763.102	32753.02
763.438	32640.03
763.775	32478.23
764.112	32579.24
764.449	32553.48
764.785	32479.13
765.122	32363.43
765.458	32309.19
765.795	32307.16
766.131	32434.61
766.467	32285.92
766.804	31995.98
767.14	32153.94
767.476	32143.55
767.812	31971.35
768.148	32113.04
768.485	32005.47
768.821	31704.01
769.157	31721.86
769.492	31624.47
769.828	31645.48
770.164	31379.73
770.5	31480.74
770.836	31449.33
771.171	31410.91
771.507	31210.01
771.842	31086.63
772.178	31133.86
772.513	31051.82
772.849	31050.92
773.184	30991.26
773.519	30793.75
773.855	30758.05
774.19	30575.91
774.525	30536.81
774.86	30464.5
775.195	30391.05
775.53	30236.93
775.865	30089.14
776.2	29940.44
776.535	29721.24
776.87	29790.61
777.205	29619.55
777.539	29617.96
777.874	29631.98
778.209	29334.58
778.543	29363.96
778.878	29189.95
779.212	29277.41
779.547	29020.01
779.881	29016.4
780.215	28777.31
780.55	28896.85
780.884	28643.53
781.218	28589.29
781.552	28748.83
781.886	28440.37
782.22	28208.06
782.554	28235.4
782.888	28029.98
783.222	27997.89
783.556	27868.41
783.889	27680.39
784.223	27529.66
784.557	27524.01
784.89	27643.55
785.224	27376.67
785.557	27264.81
785.891	27309.78
786.224	27176.45
786.558	27239.04
786.891	26923.8
787.224	26772.84
787.557	26769.9
787.891	26659.17
788.224	26503.92
788.557	26730.81
788.89	26560.64
789.223	26516.35
789.556	26319.75
789.888	26308.22
790.221	26059.19
790.554	25946.2
790.887	26009.47
791.219	25828.01
791.552	25845.41
791.884	25800.21
792.217	25638.18
792.549	25485.87
792.882	25247.68
793.214	25202.49
793.546	25377.62
793.879	25166.56
794.211	24959.56
794.543	25067.12
794.875	24934.25
795.207	24916.39
795.539	24720.01
795.871	24910.52
796.203	24659.45
796.535	24438.67
796.867	24571.54
797.198	24336.52
797.53	24322.96
797.862	24168.84
798.193	24225.11
798.525	24004.33
798.856	24101.27
799.188	23739.25
799.519	23835.07
799.85	23714.62
800.182	23668.06
800.513	23691.34
800.844	23336.77
801.175	23533.38
801.506	23613.83
801.837	23367.28
802.168	23326.6
802.499	23288.87
802.83	23191.92
803.161	23128.87
803.491	23163.67
803.822	23155.99
804.153	22948.76
804.483	22768.65
804.814	22643.23
805.145	22670.35
805.475	22611.82
805.805	22626.51
806.136	22694.53
806.466	22497.25
806.796	22537.25
807.126	22379.51
807.457	22259.29
807.787	22301.55
808.117	22231.49
808.447	22161.89
808.777	22138.61
809.107	21965.51
809.436	21877.83
809.766	21885.29
810.096	22024.04
810.426	21865.17
810.755	21935.91
811.085	21765.29
811.414	21860.2
811.744	21636.25
812.073	21667.66
812.403	21577.5
812.732	21401.68
813.061	21638.51
813.39	21275.36
813.719	21212.08
814.049	21499.99
814.378	21390.84
814.707	21203.95
815.036	21157.85
815.365	21147.9
815.693	20963.05
816.022	21005.54
816.351	20992.43
816.68	20874.92
817.008	21018.19
817.337	20658.88
817.665	20717.86
817.994	20702.04
818.322	20766.9
818.651	20648.71
818.979	20519.45
819.307	20589.05
819.636	20570.74
819.964	20450.75
820.292	20455.49
820.62	20368.26
820.948	20473.12
821.276	20518.77
821.604	20435.61
821.932	20598.54
822.259	20507.7
822.587	20396.29
822.915	20357.64
823.243	20351.32
823.57	20289.85
823.898	20532.55
824.225	20338.21
824.553	20385.66
824.88	20356.06
825.207	20395.83
825.535	20311.99
825.862	20417.3
826.189	20309.73
826.516	20507.47
826.843	20500.69
827.17	20449.84
827.497	20432.44
827.824	20426.79
828.151	20497.98
828.478	20343.63
828.805	20522.16
829.131	20524.19
829.458	20496.62
829.785	20390.18
830.111	20408.71
830.438	20522.61
830.764	20365.1
831.09	20477.87
831.417	20292.56
831.743	20338.21
832.069	20321.26
832.395	20394.48
832.722	20493.68
833.048	20348.38
833.374	20501.59
833.7	20343.41
834.026	20420.69
834.351	20419.11
834.677	20462.5
835.003	20323.07
835.329	20313.58
835.654	20243.97
835.98	20064.77
836.306	20186.35
836.631	20155.39
836.956	20274.03
837.282	20213.24
837.607	20024.77
837.932	20088.5
838.258	20071.1
838.583	20042.62
838.908	19962.4
839.233	19997.2
839.558	19959.24
839.883	19860.93
840.208	19781.84
840.533	19904.77
840.858	19831.78
841.182	19896.64
841.507	19792.46
841.832	19693.03
842.156	19620.94
842.481	19695.74
842.805	19563.31
843.13	19525.35
843.454	19512.69
843.778	19493.48
844.103	19464.56
844.427	19384.33
844.751	19404
845.075	19314.73
845.399	19319.7
845.723	19169.2
846.047	19264.79
846.371	19030.9
846.695	18994.29
847.019	18991.58
847.343	18729.44
847.666	18790
847.99	18704.58
848.313	18635.2
848.637	18647.18
848.96	18578.25
849.284	18508.65
849.607	18422.78
849.931	18334.65
850.254	18159.51
850.577	18096.91
850.9	17954.77
851.223	18012.62
851.546	17934.2
851.869	17787.77
852.192	17876.58
852.515	17699.18
852.838	17675.45
853.161	17618.51
853.483	17478.17
853.806	17500.77
854.129	17505.97
854.451	17345.74
854.774	17263.94
855.096	17263.49
855.419	17157.05
855.741	17152.3
856.063	17048.58
856.385	17023.95
856.708	17001.12
857.03	16973.32
857.352	16905.76
857.674	16906.89
857.996	16709.15
858.318	16676.38
858.64	16728.81
858.961	16638.19
859.283	16491.08
859.605	16463.51
859.926	16510.74
860.248	16411.53
860.57	16342.83
860.891	16450.63
861.212	16356.84
861.534	16270.97
861.855	16267.35
862.176	16238.65
862.498	16215.15
862.819	16259.67
863.14	16126.12
863.461	16177.64
863.782	16100.35
864.103	16055.16
864.424	15933.58
864.745	16020.81
865.065	15854.03
865.386	15897.87
865.707	15924.76
866.027	15809.97
866.348	15850.19
866.668	15781.94
866.989	15757.09
867.309	15685.22
867.63	15646.35
867.95	15621.95
868.27	15549.63
868.59	15631.44
868.91	15542.18
869.23	15674.15
869.55	15520.48
869.87	15541.05
870.19	15515.74
870.51	15391.45
870.83	15424.67
871.15	15353.48
871.469	15350.32
871.789	15425.34
872.109	15372.46
872.428	15202.98
872.748	15284.1
873.067	15251.56
873.386	15298.11
873.706	15215.63
874.025	15181.28
874.344	15173.6
874.663	15178.57
874.982	15104.9
875.301	15124.33
875.62	15013.6
875.939	15029.65
876.258	14988.52
876.577	14908.97
876.896	14955.98
877.214	14900.39
877.533	15012.47
877.852	14928.41
878.17	14878.46
878.489	14889.31
878.807	14903.1
879.125	14777.22
879.444	14859.48
879.762	14789.65
880.08	14731.35
880.398	14676.21
880.716	14646.38
881.034	14594.4
881.352	14676.21
881.67	14578.81
881.988	14616.32
882.306	14568.42
882.624	14523.67
882.941	14358.03
883.259	14362.55
883.577	14390.57
883.894	14309.89
884.212	14340.63
884.529	14304.92
884.846	14208.2
885.164	14170.91
885.481	14122.55
885.798	14198.26
886.115	14091.14
886.432	14131.37
886.75	14106.51
887.067	14007.75
887.383	14038.94
887.7	13986.28
888.017	13976.34
888.334	13927.53
888.651	13894.76
888.967	13940.41
889.284	13825.16
889.6	13685.28
889.917	13594.2
890.233	13638.95
890.55	13650.25
890.866	13584.71
891.182	13661.1
891.498	13501.1
891.815	13522.12
892.131	13431.5
892.447	13432.4
892.763	13346.75
893.079	13282.35
893.395	13345.62
893.71	13265.85
894.026	13206.42
894.342	13220.88
894.657	13078.29
894.973	13100.66
895.289	13118.29
895.604	13003.94
895.92	13021.11
896.235	13048.23
896.55	12933.43
896.865	12924.17
897.181	12824.73
897.496	12780.21
897.811	12660.22
898.126	12659.77
898.441	12639.43
898.756	12628.35
899.071	12539.09
899.386	12527.34
899.7	12487.12
900.015	12361.92
900.33	12303.17
900.644	12310.4
900.959	12324.41
901.273	12194.69
901.588	12215.03
901.902	12137.75
902.216	12065.43
902.531	12082.38
902.845	11933.46
903.159	12027.47
903.473	11922.16
903.787	11860.46
904.101	11776.4
904.415	11748.15
904.729	11769.85
905.042	11752.67
905.356	11689.17
905.67	11666.57
905.984	11598.1
906.297	11575.95
906.611	11487.59
906.924	11514.94
907.237	11427.71
907.551	11377.99
907.864	11353.59
908.177	11340.03
908.491	11269.52
908.804	11201.73
909.117	11077.89
909.43	11056.87
909.743	11015.52
910.056	10992.92
910.368	10966.03
910.681	10882.41
910.994	10854.84
911.307	10851.45
911.619	10730.55
911.932	10886.03
912.244	10618.92
912.557	10657.33
912.869	10597
913.181	10598.13
913.494	10587.05
913.806	10502.99
914.118	10497.56
914.43	10411.46
914.742	10347.96
915.054	10284.69
915.366	10311.35
915.678	10314.06
915.99	10233.16
916.302	10107.74
916.613	10107.06
916.925	10069.55
917.236	10121.53
917.548	10048.08
917.859	9976.22
918.171	9894.87
918.482	9857.58
918.794	9844.02
919.105	9844.25
919.416	9647.42
919.727	9687.41
920.038	9669.56
920.349	9540.98
920.66	9601.32
920.971	9608.77
921.282	9536.46
921.593	9522.67
921.903	9314.77
922.214	9322.23
922.525	9347.76
922.835	9306.63
923.146	9256.69
923.456	9111.84
923.767	9091.95
924.077	9155.45
924.387	9132.4
924.697	9092.63
925.008	9008.11
925.318	8956.13
925.628	8919.98
925.938	8920.2
926.248	8862.8
926.558	8818.29
926.867	8814.67
927.177	8719.76
927.487	8733.32
927.796	8628.91
928.106	8645.41
928.416	8656.71
928.725	8553.43
929.034	8559.08
929.344	8574.9
929.653	8515.24
929.962	8492.19
930.271	8413.1
930.581	8431.18
930.89	8361.12
931.199	8396.6
931.508	8301.24
931.817	8311.86
932.125	8246.32
932.434	8169.94
932.743	8075.71
933.051	8072.54
933.36	8051.53
933.669	7949.16
933.977	7956.84
934.286	7959.32
934.594	7933.56
934.902	7874.13
935.21	7850.63
935.519	7834.58
935.827	7755.04
936.135	7758.65
936.443	7649.5
936.751	7646.11
937.059	7699.9
937.367	7591.42
937.674	7625.77
937.982	7550.97
938.29	7549.17
938.597	7512.78
938.905	7443.41
939.213	7389.17
939.52	7363.41
939.827	7414.03
940.135	7296.29
940.442	7289.51
940.749	7250.64
941.056	7248.38
941.363	7176.75
941.67	7130.87
941.977	7135.17
942.284	7111.89
942.591	7129.74
942.898	7018.11
943.205	7061.5
943.511	6973.14
943.818	6946.47
944.125	6908.73
944.431	6935.17
944.738	6836.87
945.044	6825.12
945.35	6816.76
945.657	6794.61
945.963	6732.24
946.269	6758.23
946.575	6729.53
946.881	6620.83
947.187	6665.12
947.493	6574.28
947.799	6588.06
948.105	6546.71
948.41	6504.45
948.716	6545.35
949.022	6529.08
949.327	6467.61
949.633	6364.34
949.938	6380.84
950.244	6362.76
950.549	6336.09
950.854	6268.52
951.16	6267.17
951.465	6271.01
951.77	6136.1
952.075	6207.96
952.38	6170.67
952.685	6125.02
952.99	6078.92
953.294	6070.11
953.599	6060.84
953.904	6026.27
954.209	6018.81
954.513	5959.6
954.818	5908.76
955.122	5936.55
955.426	5904.46
955.731	5801.19
956.035	5812.71
956.339	5863.33
956.643	5756.9
956.948	5770.46
957.252	5723.68
957.556	5720.06
957.86	5736.78
958.163	5643.91
958.467	5662.89
958.771	5601.42
959.075	5608.65
959.378	5543.79
959.682	5513.97
959.985	5510.35
960.289	5461.31
960.592	5493.63
960.896	5400.97
961.199	5449.11
961.502	5412.05
961.805	5362.78
962.108	5353.74
962.411	5368.21
962.714	5316.68
963.017	5286.4
963.32	5285.95
963.623	5223.35
963.926	5212.28
964.228	5203.46
964.531	5177.25
964.833	5190.81
965.136	5109.46
965.438	5034.88
965.741	5034.2
966.043	5061.1
966.345	5014.09
966.648	5028.1
966.95	5009.12
967.252	4958.27
967.554	4982.68
967.856	4912.63
968.158	4949.46
968.46	4906.52
968.761	4850.71
969.063	4838.5
969.365	4861.55
969.666	4817.71
969.968	4768.9
970.269	4712.18
970.571	4724.61
970.872	4737.04
971.174	4691.61
971.475	4659.3
971.776	4651.84
972.077	4614.78
972.378	4619.07
972.679	4602.12
972.98	4566.87
973.281	4569.81
973.582	4525.74
973.883	4526.42
974.183	4520.09
974.484	4461.79
974.785	4459.53
975.085	4411.62
975.386	4412.3
975.686	4418.4
975.986	4371.85
976.287	4341.34
976.587	4305.18
976.887	4291.4
977.187	4318.29
977.487	4249.82
977.787	4256.15
978.087	4239.42
978.387	4220.89
978.687	4203.04
978.987	4208.46
979.286	4133.89
979.586	4125.75
979.885	4087.79
980.185	4098.18
980.484	4065.87
980.784	4081.01
981.083	4065.42
981.382	4027.68
981.682	4012.31
981.981	3971.41
982.28	3993.33
982.579	3960.79
982.878	3931.41
983.177	3925.31
983.475	3919.2
983.774	3887.57
984.073	3905.42
984.372	3902.48
984.67	3826.78
984.969	3823.84
985.267	3817.29
985.566	3785.65
985.864	3764.86
986.162	3757.4
986.461	3663.84
986.759	3723.96
987.057	3671.75
987.355	3670.62
987.653	3636.5
987.951	3659.1
988.249	3683.28
988.547	3623.17
988.844	3641.25
989.142	3621.81
989.44	3586.78
989.737	3557.86
990.035	3525.99
990.332	3546.33
990.63	3488.93
990.927	3519.22
991.224	3480.57
991.521	3432.21
991.819	3466.11
992.116	3420.23
992.413	3397.86
992.71	3404.64
993.006	3367.58
993.303	3365.32
993.6	3348.15
993.897	3306.34
994.193	3304.76
994.49	3290.52
994.787	3293.68
995.083	3238.32
995.379	3219.34
995.676	3211.43
995.972	3209.84
996.268	3200.81
996.565	3198.32
996.861	3145.21
997.157	3162.39
997.453	3118.32
997.749	3090.53
998.044	3039
998.34	3072.45
998.636	3057.98
998.932	3027.02
999.227	3020.7
999.523	3020.47
999.818	3027.48
1000.114	2989.06
1000.409	2941.38
1000.704	2952.45
1001	2918.78
1001.295	2907.71
1001.59	2882.85
1001.885	2872.23
1002.18	2876.52
1002.475	2863.87
1002.77	2856.63
1003.065	2814.15
1003.359	2768.5
1003.654	2806.47
1003.949	2762.63
1004.243	2757.2
1004.538	2732.34
1004.832	2717.2
1005.127	2694.38
1005.421	2686.02
1005.715	2698.67
1006.009	2692.57
1006.304	2683.53
1006.598	2617.09
1006.892	2573.7
1007.186	2575.06
1007.48	2610.09
1007.773	2572.57
1008.067	2534.38
1008.361	2498.23
1008.655	2531.22
1008.948	2525.8
1009.242	2498.9
1009.535	2492.8
1009.829	2472.01
1010.122	2414.61
1010.415	2435.4
1010.708	2444.44
1011.001	2399.24
1011.295	2389.98
1011.588	2408.28
1011.881	2380.94
1012.173	2371.22
1012.466	2351.79
1012.759	2327.61
1013.052	2325.35
1013.344	2282.64
1013.637	2302.07
1013.93	2267.95
1014.222	2279.25
1014.514	2271.79
1014.807	2231.79
1015.099	2187.95
1015.391	2212.58
1015.683	2203.77
1015.976	2161.06
1016.268	2104.56
1016.56	2166.26
1016.851	2115.41
1017.143	2122.19
1017.435	2116.31
1017.727	2085.81
1018.018	2072.47
1018.31	2074.06
1018.602	2041.51
1018.893	2035.41
1019.185	2015.07
1019.476	2012.14
1019.767	2029.99
1020.058	1994.51
1020.35	1938.24
1020.641	1975.98
1020.932	1942.76
1021.223	1961.29
1021.514	1929.2
1021.804	1913.83
1022.095	1911.12
1022.386	1890.11
1022.677	1846.49
1022.967	1860.5
1023.258	1853.27
1023.548	1823.44
1023.839	1830.45
1024.129	1805.14
1024.419	1790
1024.709	1775.31
1025	1741.63
1025.29	1774.18
1025.58	1752.71
1025.87	1728.98
1026.16	1698.25
1026.449	1705.7
1026.739	1676.33
1027.029	1687.63
1027.319	1691.24
1027.608	1672.48
1027.898	1678.13
1028.187	1639.49
1028.477	1635.42
1028.766	1630.68
1029.055	1611.47
1029.344	1601.98
1029.634	1596.78
1029.923	1580.74
1030.212	1565.14
1030.501	1545.71
1030.79	1547.74
1031.078	1534.63
1031.367	1493.73
1031.656	1519.27
1031.945	1501.64
1032.233	1491.25
1032.522	1492.15
1032.81	1467.74
1033.099	1470.23
1033.387	1438.59
1033.675	1449.67
1033.963	1453.51
1034.251	1429.78
1034.54	1404.69
1034.828	1371.02
1035.116	1392.72
1035.403	1368.76
1035.691	1357.46
1035.979	1373.74
1036.267	1331.25
1036.554	1334.64
1036.842	1323.57
1037.129	1324.92
1037.417	1340.06
1037.704	1300.06
1037.992	1288.31
1038.279	1259.84
1038.566	1295.77
1038.853	1295.77
1039.14	1295.77
