Data from 19-1250_FLMS001491_003.txt Node
Date: Thu Apr 19 16:28:13 BST 2018
User: hsy
Spectrometer: FLMS00149
Trigger mode: 0
Integration Time (sec): 1.000000E-2
Scans to average: 10
Electric dark correction enabled: true
Nonlinearity correction enabled: false
Boxcar width: 0
XAxis mode: Wavelengths
Number of Pixels in Spectrum: 2048
>>>>>Begin Spectral Data<<<<<
341.393	7.39
341.776	7.39
342.16	7.39
342.543	-66.06
342.927	-68.32
343.31	-74.19
343.693	-76.9
344.077	-85.04
344.46	-81.2
344.843	-55.89
345.226	-21.09
345.61	-32.39
345.993	-18.83
346.376	-21.99
346.759	22.3
347.142	25.01
347.525	47.61
347.908	66.82
348.291	69.31
348.674	104.11
349.057	132.36
349.44	138.91
349.823	141.39
350.206	155.63
350.588	210.09
350.971	261.84
351.354	258.91
351.737	262.3
352.119	288.74
352.502	302.75
352.884	304.78
353.267	306.59
353.65	333.71
354.032	351.56
354.414	313.59
354.797	343.42
355.179	346.13
355.562	366.47
355.944	359.69
356.326	373.93
356.709	362.86
357.091	357.89
357.473	362.41
357.855	356.98
358.238	368.51
358.62	387.49
359.002	384.78
359.384	387.04
359.766	387.04
360.148	379.35
360.53	374.38
360.912	387.26
361.294	366.47
361.676	376.19
362.057	386.59
362.439	377.55
362.821	363.54
363.203	366.7
363.584	338.45
363.966	362.86
364.348	356.53
364.729	354.95
365.111	342.97
365.493	359.24
365.874	360.82
366.256	352.46
366.637	371.67
367.019	369.86
367.4	349.98
367.781	383.2
368.163	364.67
368.544	343.42
368.925	377.32
369.306	368.51
369.688	371.22
370.069	359.24
370.45	364.89
370.831	366.25
371.212	363.31
371.593	353.82
371.974	384.78
372.355	358.11
372.736	403.31
373.117	342.75
373.498	365.57
373.879	385
374.26	352.01
374.641	364.67
375.021	388.39
375.402	377.77
375.783	391.11
376.163	387.49
376.544	413.7
376.925	382.07
377.305	385.91
377.686	392.91
378.066	383.42
378.447	404.89
378.827	386.36
379.208	421.61
379.588	404.44
379.968	400.14
380.349	418.9
380.729	420.03
381.109	432.23
381.489	426.58
381.87	422.74
382.25	402.86
382.63	428.62
383.01	425.23
383.39	422.29
383.77	412.12
384.15	426.81
384.53	441.05
384.91	427.71
385.29	418
385.67	429.07
386.049	446.92
386.429	436.08
386.809	455.96
387.189	469.75
387.568	443.99
387.948	462.74
388.328	449.41
388.707	461.84
389.087	442.63
389.466	460.03
389.846	495.28
390.225	460.93
390.605	498.45
390.984	493.7
391.363	470.65
391.743	454.61
392.122	472.46
392.501	488.28
392.881	510.42
393.26	510.88
393.639	506.81
394.018	486.92
394.397	497.77
394.776	483.08
395.155	526.7
395.534	526.24
395.913	491.44
396.292	498
396.671	520.59
397.05	514.94
397.429	497.77
397.808	515.4
398.186	530.08
398.565	524.89
398.944	533.25
399.323	535.28
399.701	564.66
400.08	550.88
400.458	549.52
400.837	534.6
401.215	558.33
401.594	557.65
401.972	571.21
402.351	550.88
402.729	579.35
403.107	574.6
403.486	585.68
403.864	575.28
404.242	617.09
404.62	603.98
404.999	594.49
405.377	614.15
405.755	606.69
406.133	613.02
406.511	633.36
406.889	632.68
407.267	640.59
407.645	624.77
408.023	637.65
408.401	651.66
408.779	667.26
409.156	645.11
409.534	652.34
409.912	657.09
410.29	671.55
410.667	686.24
411.045	703.64
411.422	695.73
411.8	699.12
412.178	717.65
412.555	725.79
412.933	718.33
413.31	730.08
413.687	738.67
414.065	747.48
414.442	768.27
414.819	754.49
415.197	759.91
415.574	750.64
415.951	779.57
416.328	791.32
416.705	782.06
417.082	795.84
417.46	789.74
417.837	782.06
418.214	821.38
418.591	827.25
418.967	799.91
419.344	826.12
419.721	851.66
420.098	841.72
420.475	840.59
420.852	851.66
421.228	844.88
421.605	845.33
421.982	867.93
422.358	895.95
422.735	893.69
423.111	874.03
423.488	906.35
423.864	917.42
424.241	912.22
424.617	923.52
424.994	930.75
425.37	940.47
425.746	933.01
426.123	939.57
426.499	965.55
426.875	954.93
427.251	994.93
427.627	990.86
428.003	991.99
428.379	1020.69
428.756	1011.88
429.132	1058.43
429.507	1037.64
429.883	1040.58
430.259	1044.42
430.635	1058.88
431.011	1067.47
431.387	1095.72
431.763	1123.06
432.138	1116.06
432.514	1139.11
432.89	1144.31
433.265	1130.52
433.641	1152.22
434.016	1136.17
434.392	1183.85
434.767	1225.43
435.143	1212.78
435.518	1232.21
435.894	1231.54
436.269	1232.44
436.644	1251.42
437.02	1244.42
437.395	1254.59
437.77	1290.06
438.145	1300.91
438.52	1301.14
438.895	1321.48
439.271	1313.57
439.646	1372.32
440.021	1364.87
440.395	1373.23
440.77	1337.3
441.145	1370.29
441.52	1388.82
441.895	1401.02
442.27	1417.29
442.645	1423.62
443.019	1428.14
443.394	1395.82
443.769	1456.61
444.143	1437.86
444.518	1464.52
444.892	1440.57
445.267	1478.08
445.641	1469.27
446.016	1478.08
446.39	1505.43
446.764	1483.28
447.139	1475.37
447.513	1480.57
447.887	1515.6
448.262	1535.26
448.636	1547.01
449.01	1584.29
449.384	1555.59
449.758	1565.31
450.132	1610.28
450.506	1586.33
450.88	1613.45
451.254	1610.28
451.628	1640.79
452.002	1663.16
452.376	1665.65
452.75	1671.3
453.123	1677.4
453.497	1745.42
453.871	1747.45
454.244	1773.89
454.618	1767.79
454.992	1815.93
455.365	1806.44
455.739	1845.76
456.112	1886.21
456.486	1862.71
456.859	1895.47
457.232	1937.05
457.606	1904.06
457.979	1980.67
458.352	2004.17
458.725	2004.85
459.099	2010.95
459.472	2044.17
459.845	2057.95
460.218	2071.29
460.591	2108.57
460.964	2146.54
461.337	2156.93
461.71	2204.84
462.083	2210.72
462.456	2233.32
462.829	2241
463.201	2269.02
463.574	2267.89
463.947	2307.89
464.32	2349.47
464.692	2387.89
465.065	2356.03
465.438	2423.59
465.81	2467.89
466.183	2465.63
466.555	2468.79
466.928	2532.74
467.3	2510.15
467.672	2587.21
468.045	2621.56
468.417	2596.25
468.789	2622.01
469.161	2670.59
469.534	2741.33
469.906	2743.81
470.278	2763.7
470.65	2809.35
471.022	2859.52
471.394	2911.04
471.766	2919.4
472.138	2930.02
472.51	3022.67
472.882	3043.24
473.253	3085.72
473.625	3143.35
473.997	3180.86
474.369	3150.36
474.74	3268.54
475.112	3276
475.484	3346.06
475.855	3384.7
476.227	3448.2
476.598	3504.24
476.97	3576.33
477.341	3646.61
477.713	3665.37
478.084	3689.1
478.455	3798.25
478.827	3845.93
479.198	3913.95
479.569	3963.67
479.94	4018.58
480.311	4078.92
480.682	4203.21
481.053	4234.85
481.424	4355.3
481.795	4377.67
482.166	4430.77
482.537	4503.31
482.908	4635.74
483.279	4671.67
483.65	4775.4
484.021	4854.94
484.391	4882.96
484.762	4949.4
485.133	5000.02
485.503	5183.52
485.874	5239.79
486.244	5288.15
486.615	5415.15
486.985	5431.42
487.356	5545.77
487.726	5569.5
488.097	5732.21
488.467	5833.45
488.837	5963.61
489.207	5944.41
489.578	6117.51
489.948	6198.18
490.318	6271.63
490.688	6305.07
491.058	6401.12
491.428	6552.07
491.798	6552.53
492.168	6736.93
492.538	6792.75
492.908	6890.6
493.278	6950.71
493.648	6931.72
494.017	7138.5
494.387	7196.8
494.757	7275.44
495.126	7349.79
495.496	7417.59
495.866	7570.58
496.235	7624.81
496.605	7685.83
496.974	7781.42
497.344	7844.92
497.713	7889.21
498.082	8038.14
498.452	8044.01
498.821	8179.6
499.19	8191.35
499.559	8248.07
499.928	8416.21
500.298	8472.02
500.667	8504.34
501.036	8558.8
501.405	8650.55
501.774	8641.74
502.143	8748.85
502.512	8841.96
502.88	8956.3
503.249	8951.33
503.618	9007.83
503.987	9084.44
504.356	9205.79
504.724	9288.05
505.093	9369.4
505.462	9333.47
505.83	9402.62
506.199	9505.22
506.567	9676.74
506.936	9664.53
507.304	9719.9
507.672	9845.77
508.041	9924.87
508.409	9984.75
508.777	10025.43
509.145	10129.15
509.514	10198.98
509.882	10355.82
510.25	10311.3
510.618	10480.33
510.986	10458.41
511.354	10635.13
511.722	10715.58
512.09	10809.81
512.458	10733.66
512.826	10993.99
513.193	10919.64
513.561	11062.92
513.929	11094.55
514.297	11167.77
514.664	11297.94
515.032	11427.2
515.4	11435.11
515.767	11566.18
516.135	11588.78
516.502	11561.21
516.869	11784.25
517.237	11854.08
517.604	11777.7
517.972	11996.9
518.339	12128.42
518.706	12153.96
519.073	12330.9
519.44	12308.08
519.808	12472.6
520.175	12544.46
520.542	12701.97
520.909	12722.76
521.276	12790.55
521.643	12953.04
522.009	13074.61
522.376	13144.89
522.743	13285.91
523.11	13418.33
523.477	13601.61
523.843	13637.76
524.21	13845.67
524.577	13892.45
524.943	14030.07
525.31	14055.61
525.676	14303.28
526.043	14395.71
526.409	14480.45
526.776	14651.52
527.142	14715.93
527.508	14790.27
527.874	14976.71
528.241	15130.15
528.607	15172.64
528.973	15346.19
529.339	15317.27
529.705	15555.45
530.071	15608.78
530.437	15695.34
530.803	15981.66
531.169	16037.25
531.535	16042.67
531.901	16161.99
532.267	16191.37
532.632	16322.89
532.998	16371.48
533.364	16612.6
533.73	16545.03
534.095	16680.62
534.461	16780.51
534.826	16877.9
535.192	17015.3
535.557	17196.54
535.923	17193.38
536.288	17301.85
536.653	17378.46
537.019	17398.57
537.384	17502.29
537.749	17629.3
538.114	17615.74
538.479	17580.26
538.845	17777.99
539.21	17767.15
539.575	17934.6
539.94	17950.64
540.305	17984.54
540.67	18065.9
541.034	18201.71
541.399	18242.61
541.764	18345.89
542.129	18284.19
542.494	18443.06
542.858	18621.13
543.223	18495.49
543.587	18708.36
543.952	18667.46
544.316	18774.13
544.681	18744.07
545.045	18918.75
545.41	19030.16
545.774	18935.02
546.138	19129.6
546.503	19137.28
546.867	19208.46
547.231	19246.88
547.595	19382.47
547.959	19327.33
548.324	19517.61
548.688	19559.42
549.052	19624.5
549.416	19684.84
549.779	19718.51
550.143	19826.53
550.507	19991.49
550.871	20016.58
551.235	20003.25
551.599	20243.46
551.962	20179.06
552.326	20375.66
552.689	20478.94
553.053	20429.22
553.417	20500.86
553.78	20774.3
554.143	20697.92
554.507	20723.9
554.87	20897.46
555.234	21152.59
555.597	20981.75
555.96	21138.36
556.323	21312.82
556.686	21352.36
557.05	21413.38
557.413	21530.21
557.776	21563.2
558.139	21743.99
558.502	21789.41
558.865	21909.64
559.228	22049.52
559.59	22133.81
559.953	22187.14
560.316	22446.34
560.679	22496.96
561.041	22567.25
561.404	22705.32
561.767	22984.86
562.129	22919.78
562.492	23191.41
562.854	23203.61
563.217	23241.35
563.579	23364.51
563.941	23563.15
564.304	23653.32
564.666	23905.74
565.028	23811.51
565.39	24043.59
565.753	24258.05
566.115	24232.29
566.477	24447.87
566.839	24573.07
567.201	24785.72
567.563	24813.74
567.925	25015.32
568.287	24943.91
568.648	25135.77
569.01	25351.13
569.372	25536.43
569.734	25486.04
570.095	25612.82
570.457	25841.74
570.819	26001.96
571.18	25989.53
571.542	26247.83
571.903	26329.86
572.265	26438.33
572.626	26644.43
572.987	26712.67
573.349	26909.28
573.71	26941.82
574.071	27137.75
574.432	27323.28
574.794	27522.37
575.155	27678.98
575.516	27480.56
575.877	27681.69
576.238	27703.16
576.599	27972.3
576.96	27926.88
577.32	28113.99
577.681	28226.08
578.042	28458.39
578.403	28433.76
578.763	28349.24
579.124	28540.42
579.485	28704.94
579.845	28857.7
580.206	28831.71
580.566	28980.64
580.927	28957.36
581.287	29157.58
581.648	29101.54
582.008	29269.44
582.368	29324.81
582.728	29623.33
583.089	29499.94
583.449	29655.65
583.809	29715.98
584.169	29976.32
584.529	29871.69
584.889	30129.98
585.249	30008.63
585.609	30083.43
585.969	30356.19
586.329	30332.92
586.688	30583.31
587.048	30596.86
587.408	30681.16
587.768	30761.61
588.127	30882.06
588.487	31021.03
588.846	31260.35
589.206	31051.32
589.565	31319.56
589.925	31634.58
590.284	31621.24
590.643	31799.09
591.003	32021.23
591.362	32232.75
591.721	32316.37
592.08	32479.98
592.44	32642.69
592.799	32767.88
593.158	32786.19
593.517	32900.08
593.876	33282.9
594.235	33242.67
594.593	33403.34
594.952	33710
595.311	33912.94
595.67	33986.15
596.029	34424.79
596.387	34608.28
596.746	34711.11
597.104	34619.81
597.463	34860.71
597.822	35216.18
598.18	35273.13
598.538	35352.67
598.897	35692.78
599.255	35664.98
599.613	36257.73
599.972	36092.54
600.33	36355.58
600.688	36205.08
601.046	36600.77
601.404	36934.33
601.762	36994.89
602.12	37205.28
602.478	37496.12
602.836	37574.08
603.194	37522.11
603.552	37763.68
603.91	37840.52
604.268	38054.3
604.625	38222.65
604.983	38437.56
605.341	38441.18
605.698	38831.22
606.056	39089.75
606.413	38941.96
606.771	39282.29
607.128	39340.36
607.485	39256.52
607.843	39480.7
608.2	39653.12
608.557	40024.41
608.914	40009.05
609.272	40179.44
609.629	40506.21
609.986	40594.79
610.343	40732.42
610.7	40851.06
611.057	40942.13
611.414	41014.9
611.771	41257.38
612.127	41533.07
612.484	41488.78
612.841	41704.14
613.198	41663.92
613.554	41757.7
613.911	42194.53
614.267	42254.64
614.624	42135.32
614.98	42303.68
615.337	42639.26
615.693	42627.06
616.05	42625.7
616.406	42974.17
616.762	42722.42
617.118	42907.95
617.475	42941.17
617.831	43290.09
618.187	43220.71
618.543	43189.3
618.899	43575.96
619.255	43454.61
619.611	43650.76
619.967	43857.08
620.323	44034.25
620.678	43931.66
621.034	43902.28
621.39	43983.86
621.746	43944.99
622.101	44434.92
622.457	44107.02
622.812	44297.75
623.168	44456.16
623.523	44401.47
623.879	44557.18
624.234	44454.81
624.589	44496.39
624.945	44602.37
625.3	44588.59
625.655	44704.29
626.01	44675.82
626.365	44843.5
626.72	44760.56
627.075	44752.42
627.43	44686.66
627.785	44756.72
628.14	44657.06
628.495	44756.94
628.85	44775.7
629.205	44682.82
629.559	44879.43
629.914	44689.6
630.269	44670.17
630.623	44568.48
630.978	44405.09
631.332	44737.51
631.687	44657.74
632.041	44596.27
632.396	44530.74
632.75	44585.88
633.104	44581.81
633.459	44421.36
633.813	44521.47
634.167	44460.68
634.521	44418.42
634.875	44348.37
635.229	44271.76
635.583	44212.78
635.937	44277.64
636.291	44216.85
636.645	44118.54
636.999	43979.34
637.352	44075.15
637.706	43922.16
638.06	44048.94
638.413	44001.48
638.767	43731.89
639.121	43965.33
639.474	43777.99
639.828	43846.46
640.181	43652.79
640.534	43841.04
640.888	43614.6
641.241	43517.88
641.594	43483.31
641.947	43723.07
642.301	43518.11
642.654	43528.28
643.007	43445.11
643.36	43545
643.713	43297.55
644.066	43643.3
644.419	43360.82
644.771	42693.5
645.124	42500.73
645.477	42559.94
645.83	42411.02
646.182	42290.79
646.535	42357.69
646.888	42358.14
647.24	42310.91
647.593	42560.84
647.945	42406.27
648.298	42135.54
648.65	41840.19
649.002	41682.22
649.355	41591.83
649.707	41367.43
650.059	41283.14
650.411	41965.15
650.763	42099.61
651.115	42910.67
651.467	42695.98
651.819	42776.43
652.171	42695.98
652.523	42640.39
652.875	42488.76
653.227	42351.36
653.578	42686.72
653.93	42455.99
654.282	42237.24
654.633	42258.71
654.985	42312.26
655.337	42347.97
655.688	42282.89
656.039	42410.57
656.391	41999.95
656.742	42142.55
657.094	42239.72
657.445	42150.69
657.796	42347.74
658.147	42195.88
658.498	42328.31
658.849	42351.81
659.2	42324.24
659.551	42024.81
659.902	42409.66
660.253	42147.07
660.604	42190.23
660.955	42104.81
661.306	42267.97
661.656	42232.72
662.007	42107.97
662.358	42149.33
662.708	42161.98
663.059	42057.58
663.409	42092.16
663.76	42103.91
664.11	42243.34
664.461	42155.43
664.811	42155.21
665.161	42046.06
665.511	41998.83
665.862	42062.1
666.212	42034.98
666.562	42295.31
666.912	41987.53
667.262	42004.47
667.612	42007.86
667.962	42006.96
668.312	42031.37
668.662	42361.98
669.011	41902.78
669.361	41910.69
669.711	41936
670.06	42016.23
670.41	41939.39
670.76	41877.02
671.109	42048.32
671.459	42009.45
671.808	42011.93
672.157	41951.82
672.507	41566.97
672.856	41628.44
673.205	41717.02
673.554	41785.5
673.904	41789.34
674.253	42054.87
674.602	41811.26
674.951	41317.94
675.3	41193.87
675.649	41850.58
675.998	41796.57
676.346	41915.44
676.695	41869.34
677.044	41625.95
677.393	41618.04
677.741	41683.35
678.09	41622.11
678.438	41638.38
678.787	41598.38
679.135	41397.26
679.484	41363.59
679.832	41501.44
680.181	41351.16
680.529	41515.9
680.877	41196.36
681.225	41260.54
681.573	41495.34
681.922	41291.73
682.27	41204.27
682.618	41212.86
682.966	40947.1
683.314	41043.82
683.661	41069.13
684.009	40937.84
684.357	40855.58
684.705	40782.81
685.053	40684.06
685.4	40534.68
685.748	40453.33
686.095	40476.61
686.443	40155.26
686.79	40189.38
687.138	40225.31
687.485	40352.09
687.832	40036.39
688.18	40007.47
688.527	39982.15
688.874	39813.8
689.221	39897.86
689.568	39681.6
689.915	39598.21
690.262	39844.76
690.609	39431.43
690.956	39257.65
691.303	39308.73
691.65	39070.77
691.997	38975.85
692.344	38932.01
692.69	38858.34
693.037	38938.57
693.383	38644.34
693.73	38662.42
694.077	38395.08
694.423	38262.88
694.769	38199.15
695.116	38221.98
695.462	37932.27
695.808	37781.99
696.155	37873.51
696.501	37528.21
696.847	37635.78
697.193	37239.63
697.539	37275.33
697.885	36965.96
698.231	36951.5
698.577	36864.27
698.923	36867.21
699.269	36531.4
699.614	36593.09
699.96	36503.15
700.306	36274.68
700.651	36177.28
700.997	36021.81
701.342	36036.72
701.688	35892.54
702.033	35667.24
702.379	35788.37
702.724	35575.49
703.069	35537.75
703.415	35268.61
703.76	35197.2
704.105	35329.62
704.45	35238.55
704.795	35007.6
705.14	34963.76
705.485	34962.63
705.83	34720.15
706.175	34733.25
706.52	34569.19
706.865	34512.69
707.209	34320.38
707.554	34321.06
707.899	34298.69
708.243	34130.11
708.588	34099.37
708.932	33907.96
709.277	33876.1
709.621	33841.98
709.966	33568.09
710.31	33711.81
710.654	33503
710.998	33568.31
711.342	33481.99
711.687	33272.05
712.031	33160.87
712.375	33066.86
712.719	33180.3
713.063	33079.96
713.407	33117.7
713.75	32957.25
714.094	32912.74
714.438	32710.03
714.782	32782.57
715.125	32594.78
715.469	32748.67
715.812	32475.91
716.156	32538.51
716.499	32470.71
716.843	32522.46
717.186	32281.34
717.53	32583.48
717.873	32410.15
718.216	32255.8
718.559	32170.16
718.902	32017.84
719.246	31985.53
719.589	31898.07
719.932	31828.92
720.275	31858.98
720.617	31836.38
720.96	31785.53
721.303	31782.82
721.646	31886.55
721.989	31727.91
722.331	31696.95
722.674	31605.2
723.016	31526.56
723.359	31481.36
723.701	31532.89
724.044	31475.71
724.386	31253.8
724.729	31284.53
725.071	31327.24
725.413	31231.42
725.755	31215.15
726.097	31070.98
726.439	31034.59
726.782	30993.01
727.124	31185.1
727.465	31171.99
727.807	30952.79
728.149	30899.68
728.491	30889.51
728.833	30964.76
729.175	30953.24
729.516	30815.16
729.858	30940.58
730.199	30986.01
730.541	30846.8
730.882	30755.28
731.224	30809.06
731.565	30646.13
731.906	30637.09
732.248	30720.7
732.589	30641.16
732.93	30674.15
733.271	30663.76
733.612	30558.67
733.953	30758.67
734.294	30611.33
734.635	30465.34
734.976	30880.47
735.317	30594.83
735.658	30561.16
735.999	30492.69
736.339	30573.81
736.68	30638.9
737.021	30611.78
737.361	30501.5
737.702	30777.2
738.042	30666.69
738.383	30711.89
738.723	30626.24
739.063	30453.82
739.404	30648.84
739.744	30780.81
740.084	30575.4
740.424	30715.96
740.764	30672.12
741.104	30786.69
741.444	30550.09
741.784	30598.45
742.124	30745.11
742.464	30794.83
742.804	30743.3
743.143	30697.88
743.483	30859.23
743.823	30699.91
744.162	30734.94
744.502	30924.99
744.841	30791.44
745.181	30944.65
745.52	30947.14
745.86	31049.28
746.199	31061.26
746.538	31009.74
746.877	31090.41
747.216	31162.05
747.556	31129.51
747.895	31096.29
748.234	31142.39
748.573	31220.58
748.911	31030.07
749.25	31124.53
749.589	31133.12
749.928	31327.69
750.267	31281.14
750.605	31316.39
750.944	31245.89
751.283	31319.33
751.621	31517.74
751.96	31308.26
752.298	31437.52
752.636	31505.09
752.975	31444.07
753.313	31302.38
753.651	31661.02
753.989	31509.38
754.327	31600
754.666	31368.6
755.004	31614.92
755.342	31750.51
755.679	31799.55
756.017	31630.51
756.355	31775.14
756.693	31766.55
757.031	31847
757.368	31725.87
757.706	31802.71
758.044	31724.52
758.381	31877.51
758.719	31743.95
759.056	31959.09
759.394	31916.83
759.731	31623.73
760.068	31713.9
760.405	31752.09
760.743	31723.84
761.08	31789.38
761.417	31726.33
761.754	31690.17
762.091	31632.54
762.428	31609.72
762.765	31556.16
763.102	31663.05
763.438	31531.53
763.775	31416.73
764.112	31539.44
764.449	31508.71
764.785	31548.93
765.122	31376.28
765.458	31286.34
765.795	31276.17
766.131	31288.15
766.467	31323.85
766.804	31041.37
767.14	31044.54
767.476	30939.91
767.812	30938.55
768.148	30951.66
768.485	30896.29
768.821	30583.08
769.157	30643.42
769.492	30784.2
769.828	30602.06
770.164	30413.82
770.5	30420.15
770.836	30327.27
771.171	30385.35
771.507	30347.83
771.842	30096.09
772.178	30162.07
772.513	30098.12
772.849	29844.57
773.184	29956.43
773.519	29789.43
773.855	29683.67
774.19	29683.89
774.525	29494.3
774.86	29548.76
775.195	29414.52
775.53	29347.18
775.865	29140.18
776.2	29065.61
776.535	28805.05
776.87	28769.34
777.205	28619.29
777.539	28485.96
777.874	28694.09
778.209	28368.9
778.543	28524.83
778.878	28337.26
779.212	28245.74
779.547	27992.87
779.881	27979.08
780.215	27885.07
780.55	27891.17
780.884	27592.42
781.218	27657.96
781.552	27683.27
781.886	27465.42
782.22	27433.56
782.554	27281.92
782.888	27000.58
783.222	27030.18
783.556	26840.35
783.889	26803.97
784.223	26668.83
784.557	26635.84
784.89	26786.12
785.224	26512
785.557	26336.41
785.891	26361.72
786.224	26300.48
786.558	26235.85
786.891	26106.81
787.224	25775.75
787.557	25906.59
787.891	25870.44
788.224	25711.12
788.557	25747.27
788.89	25653.04
789.223	25666.6
789.556	25339.15
789.888	25356.1
790.221	25232.49
790.554	25010.57
790.887	25109.78
791.219	25055.09
791.552	24950.46
791.884	24840.63
792.217	24816.23
792.549	24589.11
792.882	24448.33
793.214	24379.4
793.546	24501.88
793.879	24167.66
794.211	24128.56
794.543	24288.1
794.875	24101.67
795.207	24149.8
795.539	23992.52
795.871	24066.87
796.203	23910.26
796.535	23753.66
796.867	23790.49
797.198	23555.92
797.53	23581
797.862	23436.6
798.193	23441.12
798.525	23197.74
798.856	23366.09
799.188	23043.62
799.519	23069.38
799.85	23042.26
800.182	22953
800.513	22969.49
800.844	22644.76
801.175	22798.88
801.506	22835.49
801.837	22641.14
802.168	22695.83
802.499	22696.73
802.83	22406.12
803.161	22449.51
803.491	22290.42
803.822	22420.81
804.153	22266.24
804.483	22141.72
804.814	21903.08
805.145	22040.48
805.475	21947.37
805.805	21887.72
806.136	21932.46
806.466	21741.5
806.796	21748.51
807.126	21605.01
807.457	21503.32
807.787	21631.9
808.117	21552.13
808.447	21481.85
808.777	21526.82
809.107	21356.66
809.436	21252.7
809.766	21355.75
810.096	21271.23
810.426	21180.84
810.755	21091.8
811.085	21104.69
811.414	21078.92
811.744	20843.22
812.073	20970.9
812.403	20841.19
812.732	20775.88
813.061	20859.49
813.39	20658.37
813.719	20588.54
814.049	20733.85
814.378	20636.9
814.707	20523.68
815.036	20426.06
815.365	20365.5
815.693	20271.26
816.022	20275.33
816.351	20238.27
816.68	20001.66
817.008	20216.12
817.337	19995.34
817.665	20033.75
817.994	20048.22
818.322	20018.61
818.651	19810.71
818.979	19866.53
819.307	19954.21
819.636	19833.08
819.964	19763.48
820.292	19785.4
820.62	19773.19
820.948	19827.88
821.276	19824.04
821.604	19748.79
821.932	19879.86
822.259	19753.53
822.587	19772.29
822.915	19693.65
823.243	19730.26
823.57	19629.92
823.898	19699.07
824.225	19662.24
824.553	19619.07
824.88	19700.65
825.207	19808.45
825.535	19662.92
825.862	19798.5
826.189	19647.32
826.516	19898.84
826.843	19897.94
827.17	19825.4
827.497	19655.68
827.824	19733.42
828.151	19949.46
828.478	19717.15
828.805	19852.97
829.131	19746.75
829.458	19659.98
829.785	19669.02
830.111	19610.71
830.438	19910.14
830.764	19740.88
831.09	19747.66
831.417	19718.51
831.743	19834.44
832.069	19768.22
832.395	19666.98
832.722	19648.23
833.048	19732.07
833.374	19812.52
833.7	19625.63
834.026	19706.98
834.351	19669.47
834.677	19689.36
835.003	19616.59
835.329	19618.62
835.654	19579.08
835.98	19479.87
836.306	19565.74
836.631	19434.67
836.956	19657.72
837.282	19567.32
837.607	19419.76
837.932	19391.51
838.258	19412.3
838.583	19307.9
838.908	19339.99
839.233	19291.85
839.558	19306.09
839.883	19285.3
840.208	19178.63
840.533	19175.02
840.858	19148.8
841.182	19154.45
841.507	19064.06
841.832	18940.45
842.156	18979.77
842.481	18980.45
842.805	18850.96
843.13	18811.41
843.454	18886.21
843.778	18804.18
844.103	18858.87
844.427	18691.19
844.751	18822.03
845.075	18606.45
845.399	18697.29
845.723	18590.4
846.047	18540.01
846.371	18453
846.695	18349.28
847.019	18309.5
847.343	18241.48
847.666	18127.36
847.99	18103.86
848.313	17895.73
848.637	18090.08
848.96	17867.93
849.284	17910.64
849.607	17699.8
849.931	17749.07
850.254	17651.22
850.577	17429.75
850.9	17351.11
851.223	17442.18
851.546	17370.55
851.869	17216.88
852.192	17307.27
852.515	17111.57
852.838	17125.13
853.161	17046.26
853.483	16845.81
853.806	16853.05
854.129	16869.54
854.451	16783.67
854.774	16828.87
855.096	16678.81
855.419	16544.13
855.741	16584.13
856.063	16509.33
856.385	16472.72
856.708	16410.12
857.03	16266.62
857.352	16262.1
857.674	16373.06
857.996	16213.06
858.318	16133.52
858.64	16206.06
858.961	16126.96
859.283	16026.4
859.605	15918.61
859.926	15914.54
860.248	15918.38
860.57	15739.63
860.891	15753.19
861.212	15839.96
861.534	15742.11
861.855	15701.44
862.176	15685.84
862.498	15717.93
862.819	15734.88
863.14	15608.11
863.461	15540.31
863.782	15561.1
864.103	15624.83
864.424	15568.79
864.745	15465.74
865.065	15406.76
865.386	15372.41
865.707	15428
866.027	15353.88
866.348	15350.49
866.668	15314.33
866.989	15282.24
867.309	15256.93
867.63	15131.28
867.95	15198.63
868.27	15166.76
868.59	15142.36
868.91	15087.22
869.23	15082.02
869.55	15003.15
869.87	15072.98
870.19	14964.96
870.51	14940.55
870.83	14938.97
871.15	14908.92
871.469	14856.04
871.789	14968.58
872.109	14945.75
872.428	14845.41
872.748	14887.45
873.067	14784.63
873.386	14783.04
873.706	14795.25
874.025	14746.43
874.344	14704.63
874.663	14676.61
874.982	14734.91
875.301	14646.1
875.62	14570.62
875.939	14496.5
876.258	14534.91
876.577	14475.93
876.896	14450.4
877.214	14458.31
877.533	14425.99
877.852	14432.32
878.17	14424.41
878.489	14393.68
878.807	14365.88
879.125	14390.29
879.444	14313
879.762	14233.45
880.08	14354.13
880.398	14135.6
880.716	14282.49
881.034	14171.53
881.352	14112.78
881.67	14141.25
881.988	14075.27
882.306	14093.34
882.624	14123.17
882.941	14025.1
883.259	13950.75
883.577	13922.05
883.894	13865.78
884.212	13864.2
884.529	13758.89
884.846	13769.06
885.164	13746.91
885.481	13737.65
885.798	13679.12
886.115	13635.96
886.432	13692
886.75	13583.3
887.067	13633.47
887.383	13600.7
887.7	13539.69
888.017	13436.41
888.334	13489.97
888.651	13385.57
888.967	13373.14
889.284	13332.01
889.6	13333.82
889.917	13284.1
890.233	13263.99
890.55	13165.23
890.866	13176.76
891.182	13142.86
891.498	13072.13
891.815	13069.87
892.131	13060.6
892.447	13012.47
892.763	12972.24
893.079	12923.21
893.395	12927.95
893.71	12852.92
894.026	12781.74
894.342	12718.69
894.657	12644.34
894.973	12629.65
895.289	12697.9
895.604	12706.49
895.92	12572.25
896.235	12476.66
896.55	12548.53
896.865	12501.3
897.181	12478.47
897.496	12384.24
897.811	12366.38
898.126	12307.85
898.441	12268.53
898.756	12269.66
899.071	12171.36
899.386	12172.26
899.7	12070.57
900.015	12028.54
900.33	11920.52
900.644	11939.95
900.959	11897.47
901.273	11927.3
901.588	11890.92
901.902	11775.21
902.216	11787.64
902.531	11713.75
902.845	11635.33
903.159	11578.16
903.473	11536.12
903.787	11492.96
904.101	11422
904.415	11485.5
904.729	11372.51
905.042	11336.81
905.356	11366.41
905.67	11336.58
905.984	11320.31
906.297	11196.92
906.611	11159.18
906.924	11175.23
907.237	11168.9
907.551	11115.12
907.864	10964.16
908.177	10968.23
908.491	10949.02
908.804	10889.81
909.117	10845.75
909.43	10801
909.743	10749.25
910.056	10726.65
910.368	10669.48
910.681	10690.27
910.994	10544.96
911.307	10498.64
911.619	10428.36
911.932	10476.26
912.244	10396.72
912.557	10415.7
912.869	10322.6
913.181	10297.06
913.494	10254.8
913.806	10187.68
914.118	10137.97
914.43	10080.79
914.742	10047.57
915.054	10074.69
915.366	10009.38
915.678	9920.8
915.99	9935.49
916.302	9870.63
916.613	9824.3
916.925	9857.98
917.236	9767.81
917.548	9677.64
917.859	9636.74
918.171	9661.6
918.482	9526.68
918.794	9586.57
919.105	9498.66
919.416	9476.74
919.727	9431.55
920.038	9399.23
920.349	9373.24
920.66	9374.37
920.971	9336.63
921.282	9248.5
921.593	9240.36
921.903	9154.49
922.214	9134.15
922.525	9042.63
922.835	9103.42
923.146	8944.78
923.456	8942.29
923.767	8942.75
924.077	8907.04
924.387	8930.09
924.697	8835.18
925.008	8758.12
925.318	8725.58
925.628	8756.76
925.938	8714.05
926.248	8606.93
926.558	8580.04
926.867	8601.74
927.177	8570.55
927.487	8470.89
927.796	8457.79
928.106	8367.17
928.416	8461.85
928.725	8333.27
929.034	8322.87
929.344	8292.82
929.653	8261.41
929.962	8248.75
930.271	8215.31
930.581	8139.6
930.89	8121.07
931.199	8066.61
931.508	8020.51
931.817	8001.75
932.125	8043.79
932.434	7962.88
932.743	7894.64
933.051	7879.72
933.36	7815.32
933.669	7789.78
933.977	7801.98
934.286	7748.65
934.594	7699.39
934.902	7689.22
935.21	7618.26
935.519	7582.33
935.827	7597.02
936.135	7557.7
936.443	7411.26
936.751	7436.12
937.059	7434.54
937.367	7363.13
937.674	7426.4
937.982	7334.88
938.29	7278.61
938.597	7274.77
938.905	7222.56
939.213	7222.11
939.52	7174.43
939.827	7116.13
940.135	7183.7
940.442	7071.38
940.749	7029.35
941.056	7090.14
941.363	6979.18
941.67	7005.17
941.977	6949.58
942.284	6938.5
942.591	6893.76
942.898	6870.71
943.205	6820.77
943.511	6780.32
943.818	6810.82
944.125	6712.3
944.431	6730.37
944.738	6762.01
945.044	6623.48
945.35	6571.73
945.657	6599.76
945.963	6609.93
946.269	6581
946.575	6533.77
946.881	6514.56
947.187	6518.63
947.493	6430.04
947.799	6419.65
948.105	6357.73
948.41	6310.5
948.716	6340.55
949.022	6248.35
949.327	6266.21
949.633	6185.3
949.938	6228.24
950.244	6205.42
950.549	6157.28
950.854	6116.83
951.16	6124.74
951.465	6101.92
951.77	6041.13
952.075	5997.06
952.38	6025.99
952.685	5973.11
952.99	5968.81
953.294	5922.94
953.599	5878.19
953.904	5880.45
954.209	5830.06
954.513	5849.72
954.818	5805.88
955.122	5811.98
955.426	5724.98
955.731	5708.25
956.035	5682.49
956.339	5693.11
956.643	5680.01
956.948	5640.23
957.252	5644.53
957.556	5622.15
957.86	5561.59
958.163	5590.06
958.467	5499.22
958.771	5500.12
959.075	5489.95
959.378	5432.78
959.682	5452.22
959.985	5363.86
960.289	5387.81
960.592	5384.87
960.896	5348.72
961.199	5297.42
961.502	5292.45
961.805	5272.56
962.108	5223.75
962.411	5254.48
962.714	5158.89
963.017	5153.01
963.32	5158.89
963.623	5154.82
963.926	5134.03
964.228	5089.06
964.531	5069.17
964.833	5034.15
965.136	4990.98
965.438	4952.12
965.741	4925.68
966.043	4966.58
966.345	4908.73
966.648	4862.63
966.95	4903.53
967.252	4878.45
967.554	4881.83
967.856	4812.01
968.158	4795.06
968.46	4800.93
968.761	4789.86
969.063	4685
969.365	4691.56
969.666	4673.93
969.968	4668.96
970.269	4653.37
970.571	4594.61
970.872	4597.1
971.174	4555.06
971.475	4582.86
971.776	4550.77
972.077	4500.6
972.378	4540.37
972.679	4465.8
972.98	4465.35
973.281	4484.56
973.582	4453.82
973.883	4388.51
974.183	4406.37
974.484	4386.93
974.785	4331.34
975.085	4321.62
975.386	4310.78
975.686	4285.69
975.986	4289.99
976.287	4236.88
976.587	4243.66
976.887	4255.86
977.187	4227.39
977.487	4168.86
977.787	4155.07
978.087	4090.22
978.387	4119.82
978.687	4117.56
978.987	4091.12
979.286	4087.96
979.586	4073.95
979.885	4029.88
980.185	4033.04
980.484	3990.33
980.784	3983.1
981.083	3931.58
981.382	3962.99
981.682	3945.36
981.981	3940.84
982.28	3873.73
982.579	3851.58
982.878	3864.91
983.177	3875.99
983.475	3837.79
983.774	3808.19
984.073	3778.59
984.372	3795.99
984.67	3756.89
984.969	3757.8
985.267	3762.99
985.566	3678.48
985.864	3688.19
986.162	3661.08
986.461	3652.49
986.759	3661.53
987.057	3575.43
987.355	3618.59
987.653	3558.93
987.951	3576.11
988.249	3548.54
988.547	3532.27
988.844	3503.79
989.142	3462.21
989.44	3460.63
989.737	3446.17
990.035	3436
990.332	3469.44
990.63	3465.37
990.927	3426.51
991.224	3443.23
991.521	3396.45
991.819	3382.44
992.116	3343.8
992.413	3364.36
992.71	3309.9
993.006	3272.39
993.303	3298.83
993.6	3280.97
993.897	3234.65
994.193	3256.34
994.49	3198.72
994.787	3199.39
995.083	3208.43
995.379	3159.17
995.676	3174.08
995.972	3127.76
996.268	3102.45
996.565	3094.09
996.861	3090.7
997.157	3069.91
997.453	3062.9
997.749	3007.31
998.044	3008.89
998.34	3037.82
998.636	2962.11
998.932	2997.36
999.227	2947.87
999.523	2958.04
999.818	2949
1000.114	2912.85
1000.409	2875.56
1000.704	2862.23
1001	2901.55
1001.295	2865.39
1001.59	2825.62
1001.885	2828.1
1002.18	2837.37
1002.475	2779.29
1002.77	2790.59
1003.065	2765.96
1003.359	2738.84
1003.654	2687.32
1003.949	2749.24
1004.243	2708.78
1004.538	2659.29
1004.832	2671.72
1005.127	2663.36
1005.421	2643.25
1005.715	2627.66
1006.009	2597.38
1006.304	2619.52
1006.598	2582.23
1006.892	2589.47
1007.186	2514.21
1007.48	2501.56
1007.773	2540.2
1008.067	2520.09
1008.361	2490.49
1008.655	2511.05
1008.948	2484.16
1009.242	2470.82
1009.535	2434.67
1009.829	2414.1
1010.122	2428.57
1010.415	2409.81
1010.708	2376.59
1011.001	2384.05
1011.295	2353.99
1011.588	2337.27
1011.881	2321.45
1012.173	2325.52
1012.466	2317.61
1012.759	2325.52
1013.052	2277.16
1013.344	2284.39
1013.637	2235.35
1013.93	2212.07
1014.222	2212.75
1014.514	2216.37
1014.807	2205.3
1015.099	2198.06
1015.391	2181.79
1015.683	2175.01
1015.976	2151.29
1016.268	2119.2
1016.56	2110.83
1016.851	2111.96
1017.143	2108.8
1017.435	2083.72
1017.727	2073.77
1018.018	2050.95
1018.31	2056.15
1018.602	2000.78
1018.893	2014.57
1019.185	1987.22
1019.476	1969.6
1019.767	1981.12
1020.058	1953.55
1020.35	1977.73
1020.641	1944.06
1020.932	1913.55
1021.223	1882.37
1021.514	1904.29
1021.804	1866.77
1022.095	1876.49
1022.386	1864.06
1022.677	1831.97
1022.967	1846.66
1023.258	1820.9
1023.548	1821.8
1023.839	1774.35
1024.129	1801.69
1024.419	1752.65
1024.709	1749.04
1025	1772.31
1025.29	1741.13
1025.58	1708.59
1025.87	1701.58
1026.16	1706.1
1026.449	1696.83
1026.739	1682.6
1027.029	1661.81
1027.319	1646.21
1027.608	1655.93
1027.898	1634.24
1028.187	1630.39
1028.477	1592.66
1028.766	1594.01
1029.055	1569.15
1029.344	1550.17
1029.634	1581.13
1029.923	1547.23
1030.212	1562.83
1030.501	1528.7
1030.79	1509.49
1031.078	1527.57
1031.367	1494.58
1031.656	1483.96
1031.945	1486.67
1032.233	1463.17
1032.522	1495.26
1032.81	1470.63
1033.099	1437.63
1033.387	1445.32
1033.675	1416.39
1033.963	1415.94
1034.251	1425.43
1034.54	1388.37
1034.828	1403.73
1035.116	1373.9
1035.403	1384.98
1035.691	1358.54
1035.979	1337.52
1036.267	1328.48
1036.554	1351.31
1036.842	1336.84
1037.129	1284.64
1037.417	1311.99
1037.704	1304.08
1037.992	1306.34
1038.279	1283.29
1038.566	1248.94
1038.853	1248.94
1039.14	1248.94
