Data from 19-1250_FLMS001491_001.txt Node
Date: Thu Apr 19 16:28:08 BST 2018
User: hsy
Spectrometer: FLMS00149
Trigger mode: 0
Integration Time (sec): 1.000000E-2
Scans to average: 10
Electric dark correction enabled: true
Nonlinearity correction enabled: false
Boxcar width: 0
XAxis mode: Wavelengths
Number of Pixels in Spectrum: 2048
>>>>>Begin Spectral Data<<<<<
341.393	-9.25
341.776	-9.25
342.16	-9.25
342.543	-73.88
342.927	-70.72
343.31	-60.1
343.693	-78.18
344.077	-67.1
344.46	-67.33
344.843	-35.24
345.226	-51.06
345.61	-36.37
345.993	-11.74
346.376	-8.8
346.759	3.63
347.142	17.64
347.525	43.4
347.908	68.49
348.291	88.6
348.674	91.76
349.057	102.38
349.44	122.27
349.823	159.78
350.206	174.02
350.588	226.9
350.971	244.3
351.354	285.66
351.737	301.25
352.119	259.44
352.502	308.93
352.884	312.55
353.267	312.55
353.65	344.86
354.032	339.89
354.414	321.59
354.797	359.78
355.179	376.5
355.562	367.69
355.944	356.16
356.326	395.48
356.709	372.66
357.091	372.66
357.473	371.3
357.855	376.95
358.238	376.5
358.62	381.47
359.002	363.85
359.384	390.29
359.766	385.77
360.148	398.2
360.53	400
360.912	392.32
361.294	366.33
361.676	377.86
362.057	388.25
362.439	376.95
362.821	367.69
363.203	366.33
363.584	385.31
363.966	394.81
364.348	384.41
364.729	369.95
365.111	356.39
365.493	382.38
365.874	357.52
366.256	385.09
366.637	376.5
367.019	367.91
367.4	355.49
367.781	377.41
368.163	372.43
368.544	350.51
368.925	382.83
369.306	385.54
369.688	381.47
370.069	384.41
370.45	383.05
370.831	368.82
371.212	385.99
371.593	386.9
371.974	378.31
372.355	395.26
372.736	384.86
373.117	396.61
373.498	383.96
373.879	399.55
374.26	380.12
374.641	381.92
375.021	378.08
375.402	383.96
375.783	413.11
376.163	414.69
376.544	441.81
376.925	411.98
377.305	411.98
377.686	432.77
378.066	421.7
378.447	427.57
378.827	398.2
379.208	441.36
379.588	425.77
379.968	427.12
380.349	425.99
380.729	451.08
381.109	451.98
381.489	436.16
381.87	432.32
382.25	461.92
382.63	449.72
383.01	452.88
383.39	450.17
383.77	460.12
384.15	460.79
384.53	466.67
384.91	492.88
385.29	451.53
385.67	483.84
386.049	485.2
386.429	494.92
386.809	498.08
387.189	473.67
387.568	489.94
387.948	521.36
388.328	498.31
388.707	500.11
389.087	507.8
389.466	518.19
389.846	483.17
390.225	514.35
390.605	518.19
390.984	504.18
391.363	538.76
391.743	529.04
392.122	525.88
392.501	538.31
392.881	539.66
393.26	527.91
393.639	546.89
394.018	557.06
394.397	534.01
394.776	567
395.155	557.29
395.534	568.59
395.913	562.94
396.292	546.89
396.671	597.51
397.05	571.75
397.429	581.47
397.808	598.19
398.186	596.16
398.565	607
398.944	588.25
399.323	593.44
399.701	594.57
400.08	616.27
400.458	639.32
400.837	619.88
401.215	623.73
401.594	620.56
401.972	629.83
402.351	630.96
402.729	634.57
403.107	648.13
403.486	648.13
403.864	646.78
404.242	688.13
404.62	683.61
404.999	681.8
405.377	694.69
405.755	689.26
406.133	682.93
406.511	718.41
406.889	711.86
407.267	708.47
407.645	707.11
408.023	719.09
408.401	728.81
408.779	737.62
409.156	737.4
409.534	743.5
409.912	769.26
410.29	770.39
410.667	800.22
411.045	796.15
411.422	782.82
411.8	802.93
412.178	804.74
412.555	823.95
412.933	821.69
413.31	863.27
413.687	849.71
414.065	864.17
414.442	852.87
414.819	875.47
415.197	869.82
415.574	905.3
415.951	915.92
416.328	882.48
416.705	935.81
417.082	914.79
417.46	918.86
417.837	931.52
418.214	912.76
418.591	937.62
418.967	970.84
419.344	975.36
419.721	958.18
420.098	956.15
420.475	989.14
420.852	967.45
421.228	1005.19
421.605	1016.03
421.982	1003.15
422.358	1021.23
422.735	1042.92
423.111	1016.71
423.488	1045.41
423.864	1059.65
424.241	1080.21
424.617	1091.28
424.994	1101
425.37	1093.77
425.746	1102.36
426.123	1111.4
426.499	1101.91
426.875	1117.27
427.251	1165.41
427.627	1176.93
428.003	1173.77
428.379	1203.6
428.756	1199.98
429.132	1231.17
429.507	1228.91
429.883	1249.7
430.259	1268.91
430.635	1284.05
431.011	1304.84
431.387	1275.69
431.763	1341.9
432.138	1332.63
432.514	1384.38
432.89	1349.58
433.265	1402.01
433.641	1411.73
434.016	1395.23
434.392	1450.15
434.767	1462.8
435.143	1453.76
435.518	1476.13
435.894	1475.91
436.269	1525.17
436.644	1523.14
437.02	1534.21
437.395	1533.31
437.77	1572.18
438.145	1590.71
438.52	1576.02
438.895	1623.25
439.271	1614.21
439.646	1621.89
440.021	1640.87
440.395	1657.82
440.77	1621.21
441.145	1642.68
441.52	1679.07
441.895	1654.21
442.27	1694.21
442.645	1684.94
443.019	1721.78
443.394	1731.04
443.769	1760.42
444.143	1738.95
444.518	1768.78
444.892	1782.79
445.267	1763.81
445.641	1821.66
446.016	1803.36
446.39	1825.73
446.764	1798.84
447.139	1837.93
447.513	1845.62
447.887	1846.75
448.262	1855.11
448.636	1863.02
449.01	1893.3
449.384	1907.53
449.758	1908.89
450.132	1960.41
450.506	1933.3
450.88	1983.46
451.254	1967.42
451.628	2039.28
452.002	2057.59
452.376	2035.44
452.75	2034.76
453.123	2092.61
453.497	2104.14
453.871	2143.01
454.244	2154.08
454.618	2200.86
454.992	2202.89
455.365	2231.37
455.739	2274.53
456.112	2293.97
456.486	2302.55
456.859	2319.05
457.232	2393.85
457.606	2412.83
457.979	2403.11
458.352	2450.57
458.725	2480.17
459.099	2509.1
459.472	2559.04
459.845	2559.04
460.218	2599.95
460.591	2625.48
460.964	2625.71
461.337	2695.08
461.71	2740.51
462.083	2811.69
462.456	2794.74
462.829	2781.18
463.201	2847.4
463.574	2863.89
463.947	2924.91
464.32	2941.86
464.692	2968.52
465.065	2997
465.438	3025.7
465.81	3046.04
466.183	3062.31
466.555	3126.71
466.928	3154.96
467.3	3199.93
467.672	3214.17
468.045	3305.24
468.417	3284.67
468.789	3336.2
469.161	3394.28
469.534	3406.93
469.906	3476.53
470.278	3498.23
470.65	3494.61
471.022	3604.21
471.394	3600.15
471.766	3698.22
472.138	3737.99
472.51	3792.68
472.882	3826.81
473.253	3883.75
473.625	3958.33
473.997	4030.19
474.369	4052.79
474.74	4125.1
475.112	4154.26
475.484	4227.25
475.855	4299.56
476.227	4338.88
476.598	4403.06
476.97	4481.93
477.341	4636.95
477.713	4610.51
478.084	4773.22
478.455	4817.29
478.827	4878.3
479.198	5009.15
479.569	5013.22
479.94	5125.76
480.311	5194.68
480.682	5301.34
481.053	5349.48
481.424	5491.4
481.795	5626.08
482.166	5637.61
482.537	5817.04
482.908	5885.74
483.279	5942.46
483.65	6017.71
484.021	6110.81
484.391	6266.06
484.762	6343.12
485.133	6388.09
485.503	6519.16
485.874	6588.99
486.244	6759.16
486.615	6851.59
486.985	6943.56
487.356	6997.57
487.726	7168.64
488.097	7293.38
488.467	7364.79
488.837	7484.11
489.207	7556.65
489.578	7790.54
489.948	7876.42
490.318	8037.77
490.688	7988.96
491.058	8222.62
491.428	8292.23
491.798	8390.53
492.168	8599.79
492.538	8629.17
492.908	8784.19
493.278	8866.67
493.648	8898.54
494.017	9025.54
494.387	9134.46
494.757	9211.52
495.126	9381.91
495.496	9399.99
495.866	9503.49
496.235	9634.34
496.605	9686.99
496.974	9801.11
497.344	9917.49
497.713	10026.19
498.082	10100.77
498.452	10187.32
498.821	10300.53
499.19	10344.37
499.559	10376.92
499.928	10506.86
500.298	10614.42
500.667	10657.81
501.036	10732.61
501.405	10862.1
501.774	10939.61
502.143	10980.74
502.512	11115.2
502.88	11184.8
503.249	11207.4
503.618	11345.25
503.987	11394.29
504.356	11540.95
504.724	11599.94
505.093	11634.06
505.462	11731.23
505.83	11832.47
506.199	11881.06
506.567	12028.4
506.936	12116.98
507.304	12208.73
507.672	12264.55
508.041	12343.64
508.409	12504.09
508.777	12552
509.145	12694.82
509.514	12697.31
509.882	12946.57
510.25	12955.38
510.618	12959.45
510.986	13089.84
511.354	13220.01
511.722	13342.71
512.09	13422.03
512.458	13444.41
512.826	13534.12
513.193	13588.81
513.561	13784.74
513.929	13895.69
514.297	13995.58
514.664	14065.18
515.032	14102.69
515.4	14290.49
515.767	14325.06
516.135	14492.29
516.502	14437.15
516.869	14708.1
517.237	14732.96
517.604	14702.45
517.972	14950.36
518.339	15014.76
518.706	15181.31
519.073	15241.87
519.44	15369.55
519.808	15483.67
520.175	15611.13
520.542	15707.17
520.909	15939.48
521.276	15968.18
521.643	16223.54
522.009	16228.06
522.376	16354.16
522.743	16459.69
523.11	16608.17
523.477	16897.2
523.843	16935.39
524.21	17153.24
524.577	17327.92
524.943	17285.44
525.31	17455.83
525.676	17749.38
526.043	17836.16
526.409	17907.79
526.776	18228.69
527.142	18237.05
527.508	18376.71
527.874	18585.51
528.241	18659.18
528.607	18764.49
528.973	18986.18
529.339	19030.25
529.705	19212.16
530.071	19401.54
530.437	19537.81
530.803	19618.93
531.169	19884.92
531.535	19796.1
531.901	19947.51
532.267	20033.61
532.632	20243.32
532.998	20439.7
533.364	20409.42
533.73	20507.5
534.095	20677.89
534.461	20786.59
534.826	20911.55
535.192	20922.63
535.557	21122.17
535.923	21189.06
536.288	21436.96
536.653	21436.06
537.019	21406
537.384	21579.79
537.749	21624.76
538.114	21704.08
538.479	21815.26
538.845	21836.95
539.21	21888.7
539.575	21985.42
539.94	22128.02
540.305	22251.86
540.67	22239.88
541.034	22358.07
541.399	22510.16
541.764	22586.09
542.129	22758.51
542.494	22719.42
542.858	22707.89
543.223	22801.22
543.587	22952.63
543.952	22992.18
544.316	23049.58
544.681	23090.93
545.045	23216.35
545.41	23350.59
545.774	23313.75
546.138	23388.78
546.503	23423.35
546.867	23571.82
547.231	23732.27
547.595	23695.21
547.959	23769.56
548.324	23883.68
548.688	23879.39
549.052	24001.87
549.416	24066.73
549.779	24146.5
550.143	24238.7
550.507	24439.37
550.871	24463.55
551.235	24459.94
551.599	24728.63
551.962	24588.97
552.326	24748.74
552.689	24874.16
553.053	24786.93
553.417	25002.97
553.78	25302.63
554.143	25268.95
554.507	25420.14
554.87	25472.56
555.234	25802.05
555.597	25573.13
555.96	25758.88
556.323	25872.55
556.686	25953.68
557.05	26169.5
557.413	26182.15
557.776	26285.65
558.139	26522.48
558.502	26582.82
558.865	26614.91
559.228	26943.49
559.59	26859.19
559.953	26952.53
560.316	27284.49
560.679	27290.82
561.041	27524.04
561.404	27666.18
561.767	27806.06
562.129	27849.23
562.492	28093.06
562.854	28203.79
563.217	28279.5
563.579	28414.18
563.941	28547.96
564.304	28673.38
564.666	29027.27
565.028	29069.08
565.39	29160.15
565.753	29503.87
566.115	29393.82
566.477	29616.86
566.839	29827.93
567.201	30000.58
567.563	30147.92
567.925	30370.06
568.287	30343.17
568.648	30535.03
569.01	30750.39
569.372	31131.4
569.734	31063.38
570.095	31389.02
570.457	31636.24
570.819	31708.78
571.18	31679.86
571.542	32002.79
571.903	31930.02
572.265	32229.22
572.626	32463.34
572.987	32441.42
573.349	32666.5
573.71	32862.43
574.071	32974.51
574.432	33336.99
574.794	33391.9
575.155	33533.6
575.516	33455.18
575.877	33671.9
576.238	33794.15
576.599	34043.86
576.96	34032.57
577.32	34165.22
577.681	34201.83
578.042	34594.58
578.403	34638.88
578.763	34566.11
579.124	34833
579.485	35014.01
579.845	35143.95
580.206	35036.83
580.566	35179.43
580.927	35118.64
581.287	35419.65
581.648	35390.5
582.008	35669.58
582.368	35642.47
582.728	35730.15
583.089	35667.1
583.449	35886.53
583.809	35952.06
584.169	36186.63
584.529	36128.33
584.889	36398.38
585.249	36202.23
585.609	36270.7
585.969	36616
586.329	36505.95
586.688	36799.72
587.048	36861.42
587.408	36828.2
587.768	36933.28
588.127	37158.13
588.487	37112.03
588.846	37392.7
589.206	37247.17
589.565	37549.54
589.925	37727.16
590.284	37737.1
590.643	37859.36
591.003	38019.35
591.362	38297.99
591.721	38240.59
592.08	38304.09
592.44	38664.99
592.799	38809.39
593.158	38773.68
593.517	38941.14
593.876	39299.77
594.235	39226.78
594.593	39469.26
594.952	39671.06
595.311	39577.05
595.67	39978.17
596.029	40167.55
596.387	40299.75
596.746	40379.07
597.104	40345.39
597.463	40579.51
597.822	40956.9
598.18	40893.63
598.538	41110.35
598.897	41443.44
599.255	41252.04
599.613	41906.71
599.972	41697.67
600.33	41914.62
600.688	41973.15
601.046	42196.19
601.404	42537.43
601.762	42508.5
602.12	42890.19
602.478	42762.28
602.836	43069.16
603.194	42899.9
603.552	43178.31
603.91	43207.47
604.268	43476.61
604.625	43667.79
604.983	44055.8
605.341	43708.47
605.698	44065.75
606.056	44551.39
606.413	44435.91
606.771	44528.56
607.128	44635.45
607.485	44620.99
607.843	44818.72
608.2	45109.11
608.557	45295.77
608.914	45256.45
609.272	45499.16
609.629	45821.63
609.986	45940.05
610.343	45914.74
610.7	46264.11
611.057	46226.14
611.414	46230.66
611.771	46531.9
612.127	46651.67
612.484	46796.75
612.841	46916.07
613.198	46846.92
613.554	46967.82
613.911	47215.5
614.267	47278.77
614.624	47311.09
614.98	47425.89
615.337	47797.18
615.693	47638.76
616.05	47636.05
616.406	47892.31
616.762	47877.17
617.118	48055.47
617.475	47921.47
617.831	48145.19
618.187	48298.41
618.543	48269.25
618.899	48515.12
619.255	48569.81
619.611	48412.3
619.967	48669.47
620.323	48824.49
620.678	48690.94
621.034	48792.63
621.39	48797.83
621.746	48829.46
622.101	49202.34
622.457	48895.9
622.812	49152.62
623.168	49144.71
623.523	49152.85
623.879	49212.51
624.234	49067.2
624.589	49214.09
624.945	49296.12
625.3	49353.29
625.655	49256.8
626.01	49242.11
626.365	49368.66
626.72	49315.33
627.075	49253.41
627.43	49291.37
627.785	49329.34
628.14	49349.68
628.495	49433.29
628.85	49473.06
629.205	49327.76
629.559	49517.36
629.914	49342.9
630.269	49433.52
630.623	49195.33
630.978	49083.47
631.332	49378.6
631.687	49386.74
632.041	49270.58
632.396	49083.92
632.75	49047.09
633.104	49213.86
633.459	49032.85
633.813	49039.18
634.167	48909.69
634.521	49141.77
634.875	49040.76
635.229	48928.67
635.583	48801.22
635.937	48666.53
636.291	48790.82
636.645	48805.28
636.999	48598.06
637.352	48773.65
637.706	48403.94
638.06	48657.49
638.413	48481.9
638.767	48402.13
639.121	48459.76
639.474	48220.22
639.828	48206.43
640.181	48333.43
640.534	48344.96
640.888	48086.89
641.241	47913.1
641.594	48077.85
641.947	48196.49
642.301	47981.8
642.654	48019.99
643.007	47925.76
643.36	48084.17
643.713	47913.1
644.066	47940.67
644.419	47788.81
644.771	47361.93
645.124	46959.01
645.477	46963.98
645.83	46864.32
646.182	46911.32
646.535	46780.03
646.888	46848.95
647.24	46768.28
647.593	46984.32
647.945	46859.35
648.298	46706.36
648.65	46462.07
649.002	46161.74
649.355	45951.57
649.707	45917.9
650.059	46018.47
650.411	46573.03
650.763	46897.09
651.115	47508.82
651.467	47292.78
651.819	47225.67
652.171	47180.24
652.523	46967.37
652.875	47152.9
653.227	46962.62
653.578	47169.62
653.93	47124.65
654.282	46844.66
654.633	47000.13
654.985	46810.53
655.337	46882.62
655.688	46912.9
656.039	46981.6
656.391	46660.03
656.742	46847.6
657.094	46737.54
657.445	46763.76
657.796	47012.34
658.147	46789.97
658.498	46801.95
658.849	46902.28
659.2	46657.77
659.551	46760.59
659.902	47001.04
660.253	46649.86
660.604	46825.68
660.955	46692.57
661.306	46863.87
661.656	46562.86
662.007	46741.16
662.358	46631.33
662.708	46641.27
663.059	46568.96
663.409	46436.99
663.76	46685.34
664.11	46707.94
664.461	46732.34
664.811	46738.9
665.161	46667.26
665.511	46464.33
665.862	46529.64
666.212	46538.45
666.562	46698.9
666.912	46643.76
667.262	46486.48
667.612	46529.41
667.962	46625.68
668.312	46451.45
668.662	46727.83
669.011	46602.63
669.361	46528.96
669.711	46513.14
670.06	46540.71
670.41	46382.98
670.76	46443.31
671.109	46590.2
671.459	46446.25
671.808	46407.38
672.157	46488.74
672.507	46206.71
672.856	46329.87
673.205	46367.83
673.554	46231.79
673.904	46301.85
674.253	46488.51
674.602	46379.36
674.951	45715.65
675.3	45562.88
675.649	46365.12
675.998	46312.02
676.346	46282.86
676.695	46256.2
677.044	45914.74
677.393	46036.54
677.741	46253.94
678.09	46040.16
678.438	46033.15
678.787	46053.49
679.135	45982.31
679.484	45599.72
679.832	45926.04
680.181	45780.73
680.529	45747.06
680.877	45608.76
681.225	45581.64
681.573	45842.65
681.922	45523.56
682.27	45531.47
682.618	45406.05
682.966	45270.01
683.314	45376
683.661	45464.13
684.009	45309.78
684.357	45198.15
684.705	45034.08
685.053	45096.46
685.4	44964.93
685.748	44914.54
686.095	44893.75
686.443	44643.81
686.79	44634.09
687.138	44792.28
687.485	44568.56
687.832	44454.66
688.18	44459.18
688.527	44367.44
688.874	44240.21
689.221	44195.91
689.568	44060.32
689.915	43877.05
690.262	43981.91
690.609	43924.51
690.956	43731.07
691.303	43664.4
691.65	43569.72
691.997	43417.18
692.344	43248.59
692.69	43236.62
693.037	43184.64
693.383	42888.38
693.73	42978.32
694.077	42679.12
694.423	42596.41
694.769	42572.91
695.116	42643.41
695.462	42324.55
695.808	42202.52
696.155	42196.64
696.501	41916.2
696.847	41951.45
697.193	41591.69
697.539	41912.58
697.885	41441.18
698.231	41267.18
698.577	41189.21
698.923	41218.37
699.269	40841.2
699.614	40885.27
699.96	40692.5
700.306	40655.89
700.651	40452.28
700.997	40292.51
701.342	40229.92
701.688	40192.4
702.033	39853.2
702.379	39964.39
702.724	39756.03
703.069	39767.1
703.415	39413.67
703.76	39357.62
704.105	39431.29
704.45	39196.27
704.795	39148.36
705.14	38956.5
705.485	39042.38
705.83	38642.84
706.175	38854.13
706.52	38673.57
706.865	38562.62
707.209	38316.75
707.554	38268.39
707.899	38307.03
708.243	38128.5
708.588	38006.02
708.932	37957.43
709.277	37983.42
709.621	37681.96
709.966	37467.05
710.31	37547.95
710.654	37230.22
710.998	37266.38
711.342	37430.89
711.687	37065.48
712.031	37104.35
712.375	36905.94
712.719	36971.25
713.063	36888.99
713.407	36920.63
713.75	36814.87
714.094	36680.86
714.438	36576.68
714.782	36644.25
715.125	36450.58
715.469	36692.83
715.812	36290.59
716.156	36308.66
716.499	36209.23
716.843	36176.01
717.186	36057.15
717.53	36174.2
717.873	36028.9
718.216	35880.2
718.559	35978.96
718.902	35635.46
719.246	35772.63
719.589	35629.36
719.932	35535.35
720.275	35515.46
720.617	35689.02
720.96	35439.53
721.303	35520.66
721.646	35568.8
721.989	35265.75
722.331	35401.57
722.674	35290.84
723.016	35287
723.359	35054.91
723.701	35243.61
724.044	35109.37
724.386	34898.08
724.729	35027.79
725.071	34910.73
725.413	34959.09
725.755	34905.31
726.097	34776.73
726.439	34766.11
726.782	34634.81
727.124	34814.01
727.465	34793.22
727.807	34562.95
728.149	34625.77
728.491	34604.08
728.833	34591.65
729.175	34642.95
729.516	34459.22
729.858	34561.37
730.199	34615.38
730.541	34477.53
730.882	34367.25
731.224	34437.98
731.565	34428.26
731.906	34369.51
732.248	34513
732.589	34282.05
732.93	34242.05
733.271	34270.98
733.612	34321.37
733.953	34278.21
734.294	34122.05
734.635	34212.45
734.976	34393.01
735.317	34247.02
735.658	34108.04
735.999	34146.91
736.339	34206.12
736.68	34187.36
737.021	34175.39
737.361	34028.72
737.702	34262.39
738.042	34019.01
738.383	34174.48
738.723	34153.24
739.063	33965.45
739.404	34167.48
739.744	34084.32
740.084	34109.4
740.424	34131.32
740.764	34093.58
741.104	34226.68
741.444	33944.66
741.784	33784.44
742.124	34151.21
742.464	34028.27
742.804	34019.46
743.143	34052.68
743.483	34216.97
743.823	33896.52
744.162	34058.78
744.502	34068.95
744.841	34157.31
745.181	34317.08
745.52	34104.2
745.86	34185.33
746.199	34125.67
746.538	34248.61
746.877	34318.66
747.216	34363.86
747.556	34335.38
747.895	34396.62
748.234	34384.19
748.573	34392.33
748.911	34283.63
749.25	34349.17
749.589	34379.9
749.928	34579.22
750.267	34530.86
750.605	34542.16
750.944	34616.05
751.283	34606.34
751.621	34786.44
751.96	34588.94
752.298	34691.31
752.636	34829.83
752.975	34693.57
753.313	34662.38
753.651	34950.51
753.989	34725.88
754.327	34926.33
754.666	34765.88
755.004	34877.52
755.342	35038.19
755.679	34919.1
756.017	34867.12
756.355	35051.97
756.693	34893.56
757.031	35165.19
757.368	34967
757.706	34971.07
758.044	34911.86
758.381	35000.68
758.719	35061.92
759.056	35068.47
759.394	35166.32
759.731	34929.49
760.068	35117.51
760.405	35093.33
760.743	34915.48
761.08	35027.12
761.417	34960.45
761.754	34929.04
762.091	34862.83
762.428	34798.65
762.765	34780.57
763.102	34906.89
763.438	34747.8
763.775	34738.99
764.112	34664.87
764.449	34820.34
764.785	34697.18
765.122	34469.62
765.458	34376.51
765.795	34524.3
766.131	34540.8
766.467	34536.51
766.804	34324.54
767.14	34134.03
767.476	34176.74
767.812	34136.97
768.148	34142.62
768.485	34075.28
768.821	33692.01
769.157	33858.78
769.492	33790.76
769.828	33826.7
770.164	33657.89
770.5	33407.95
770.836	33444.56
771.171	33304.68
771.507	33298.57
771.842	33108.75
772.178	33356.88
772.513	33117.56
772.849	33005.47
773.184	32934.74
773.519	32846.61
773.855	32749.21
774.19	32627.63
774.525	32552.6
774.86	32461.31
775.195	32349.22
775.53	32384.93
775.865	32166.85
776.2	31999.62
776.535	31811.38
776.87	31859.97
777.205	31746.75
777.539	31714.89
777.874	31687.54
778.209	31265.63
778.543	31492.97
778.878	31242.36
779.212	31171.85
779.547	30988.13
779.881	31034.23
780.215	30819.54
780.55	30968.47
780.884	30624.29
781.218	30508.82
781.552	30623.39
781.886	30441.25
782.22	30212.78
782.554	30345.66
782.888	29895.05
783.222	29997.87
783.556	29793.13
783.889	29716.07
784.223	29644.21
784.557	29538.22
784.89	29546.81
785.224	29272.92
785.557	29235.86
785.891	29199.02
786.224	29122.19
786.558	29089.42
786.891	28835.64
787.224	28709.32
787.557	28620.73
787.891	28683.1
788.224	28489.89
788.557	28398.82
788.89	28433.16
789.223	28275.65
789.556	28052.84
789.888	27957.25
790.221	27942.78
790.554	27897.59
790.887	27817.14
791.219	27686.29
791.552	27598.38
791.884	27453.53
792.217	27438.84
792.549	27309.13
792.882	27129.02
793.214	27123.82
793.546	27125.18
793.879	26896.26
794.211	26824.39
794.543	26836.82
794.875	26699.65
795.207	26712.08
795.539	26575.59
795.871	26639.09
796.203	26359.32
796.535	26262.6
796.867	26241.13
797.198	26014.02
797.53	25971.31
797.862	25815.38
798.193	25983.29
798.525	25631.88
798.856	25836.85
799.188	25406.8
799.519	25450.19
799.85	25384.88
800.182	25355.96
800.513	25392.57
800.844	25018.34
801.175	25188.28
801.506	25133.36
801.837	25090.2
802.168	24912.58
802.499	24916.42
802.83	24706.03
803.161	24692.92
803.491	24661.51
803.822	24659.7
804.153	24355.98
804.483	24383.33
804.814	24247.51
805.145	24311.01
805.475	24362.54
805.805	24241.86
806.136	24201.86
806.466	23959.61
806.796	23998.71
807.126	23881.19
807.457	23803.23
807.787	23851.59
808.117	23603.24
808.447	23630.81
808.777	23716
809.107	23587.42
809.436	23352.39
809.766	23477.14
810.096	23420.19
810.426	23254.77
810.755	23334.32
811.085	23228.33
811.414	23273.07
811.744	23005.06
812.073	23135.9
812.403	22934.1
812.732	22854.78
813.061	22952.63
813.39	22765.07
813.719	22706.76
814.049	22947.89
814.378	22863.14
814.707	22678.06
815.036	22604.17
815.365	22494.11
815.693	22320.33
816.022	22390.16
816.351	22281.69
816.68	22226.55
817.008	22294.57
817.337	22076.04
817.665	22063.39
817.994	22032.66
818.322	22174.35
818.651	22055.93
818.979	21935.26
819.307	21924.41
819.636	21840.12
819.964	21825.88
820.292	21922.6
820.62	21726.67
820.948	21826.78
821.276	22014.8
821.604	21864.52
821.932	21947.46
822.259	21817.75
822.587	21802.83
822.915	21712.44
823.243	21792.89
823.57	21680.12
823.898	21890.51
824.225	21833.11
824.553	21712.21
824.88	21763.28
825.207	21889.16
825.535	21684.87
825.862	21817.75
826.189	21731.87
826.516	21907.46
826.843	21963.73
827.17	21891.64
827.497	21819.78
827.824	21901.13
828.151	21869.5
828.478	21854.58
828.805	21894.81
829.131	21860.46
829.458	21834.24
829.785	21635.6
830.111	21827.46
830.438	21865.88
830.764	21828.59
831.09	21877.63
831.417	21794.47
831.743	21854.58
832.069	21725.09
832.395	21671.08
832.722	21735.04
833.048	21713.34
833.374	21768.26
833.7	21614.36
834.026	21768.71
834.351	21636.51
834.677	21719.9
835.003	21703.85
835.329	21614.14
835.654	21605.1
835.98	21600.12
836.306	21649.39
836.631	21537.3
836.956	21693
837.282	21507.47
837.607	21467.25
837.932	21422.5
838.258	21376.85
838.583	21435.61
838.908	21253.69
839.233	21293.01
839.558	21275.16
839.883	21277.65
840.208	21087.14
840.533	21121.49
840.858	21261.15
841.182	21163.75
841.507	21142.51
841.832	20976.19
842.156	20930.09
842.481	20912.46
842.805	20829.97
843.13	20862.74
843.454	20867.04
843.778	20688.96
844.103	20686.48
844.427	20701.16
844.751	20645.12
845.075	20602.86
845.399	20512.24
845.723	20476.54
846.047	20389.53
846.371	20403.09
846.695	20269.54
847.019	20096.89
847.343	20075.87
847.666	20040.84
847.99	19987.29
848.313	19831.36
848.637	19901.41
848.96	19753.62
849.284	19841.53
849.607	19651.7
849.931	19548.88
850.254	19507.98
850.577	19257.81
850.9	19174.88
851.223	19189.34
851.546	19089.91
851.869	18924.49
852.192	19034.32
852.515	18865.73
852.838	18793.42
853.161	18735.11
853.483	18763.81
853.806	18623.03
854.129	18630.48
854.451	18563.37
854.774	18403.37
855.096	18367.44
855.419	18300.32
855.741	18268.91
856.063	18208.57
856.385	18137.39
856.708	18071.86
857.03	18039.54
857.352	17942.82
857.674	18022.59
857.996	17894.23
858.318	17732.66
858.64	17822.37
858.961	17731.75
859.283	17727.68
859.605	17622.38
859.926	17680.68
860.248	17513.45
860.57	17479.78
860.891	17445.66
861.212	17350.07
861.534	17303.51
861.855	17301.48
862.176	17258.54
862.498	17373.79
862.819	17270.97
863.14	17154.82
863.461	17095.16
863.782	17113.46
864.103	17186.68
864.424	17076.63
864.745	17015.84
865.065	16986.23
865.386	16854.03
865.707	16985.56
866.027	16943.75
866.348	16830.08
866.668	16800.02
866.989	16727.03
867.309	16646.13
867.63	16760.25
867.95	16727.94
868.27	16621.05
868.59	16718.44
868.91	16581.5
869.23	16535.62
869.55	16465.12
869.87	16598
870.19	16482.29
870.51	16521.16
870.83	16475.97
871.15	16386.48
871.469	16298.57
871.789	16367.27
872.109	16361.17
872.428	16316.42
872.748	16298.57
873.067	16348.28
873.386	16305.8
873.706	16304.22
874.025	16195.75
874.344	16123.21
874.663	16159.82
874.982	16140.83
875.301	16167.72
875.62	16064.68
875.939	15967.73
876.258	16046.37
876.577	15995.07
876.896	15967.05
877.214	15916.21
877.533	15979.03
877.852	15960.05
878.17	15870.11
878.489	15933.15
878.807	15849.99
879.125	15928.86
879.444	15803.44
879.762	15777.9
880.08	15715.31
880.398	15671.47
880.716	15687.74
881.034	15677.79
881.352	15709.21
881.67	15583.79
881.988	15638.02
882.306	15592.37
882.624	15562.99
882.941	15472.83
883.259	15379.04
883.577	15404.13
883.894	15336.11
884.212	15390.12
884.529	15330.68
884.846	15300.85
885.164	15239.16
885.481	15246.17
885.798	15142.67
886.115	15041.65
886.432	15158.71
886.75	15012.05
887.067	14984.03
887.383	14991.48
887.7	14916.68
888.017	14897.48
888.334	14925.72
888.651	14957.59
888.967	14844.6
889.284	14766.18
889.6	14681.44
889.917	14631.49
890.233	14713.98
890.55	14544.72
890.866	14583.59
891.182	14578.16
891.498	14444.83
891.815	14439.18
892.131	14395.34
892.447	14354.66
892.763	14320.77
893.079	14236.25
893.395	14273.54
893.71	14182.47
894.026	14116.25
894.342	14157.16
894.657	13984.05
894.973	14045.29
895.289	13905.19
895.604	13971.17
895.92	13851.18
896.235	13756.26
896.55	13733.66
896.865	13721.24
897.181	13748.35
897.496	13675.13
897.811	13547.45
898.126	13540.9
898.441	13525.31
898.756	13487.12
899.071	13404.41
899.386	13374.13
899.7	13270.85
900.015	13217.07
900.33	13209.16
900.644	13095.04
900.959	13159.44
901.273	13022.04
901.588	13046.68
901.902	12903.86
902.216	12923.06
902.531	12877.87
902.845	12833.57
903.159	12795.16
903.473	12728.27
903.787	12653.24
904.101	12665.44
904.415	12670.87
904.729	12558.78
905.042	12555.39
905.356	12481.95
905.67	12419.12
905.984	12434.72
906.297	12401.5
906.611	12255.96
906.924	12277.21
907.237	12209.18
907.551	12241.27
907.864	12144.78
908.177	12058.68
908.491	12054.16
908.804	11857.78
909.117	11891.45
909.43	11803.55
909.743	11800.83
910.056	11794.28
910.368	11702.53
910.681	11686.71
910.994	11661.4
911.307	11548.41
911.619	11488.75
911.932	11481.75
912.244	11440.39
912.557	11341.41
912.869	11268.19
913.181	11284.46
913.494	11224.8
913.806	11136.9
914.118	11157.23
914.43	11080.4
914.742	11101.42
915.054	11058.48
915.366	11043.57
915.678	10893.06
915.99	10870.46
916.302	10877.47
916.613	10793.18
916.925	10761.09
917.236	10709.79
917.548	10721.54
917.859	10670.24
918.171	10618.72
918.482	10531.94
918.794	10571.49
919.105	10505.27
919.416	10385.96
919.727	10366.75
920.038	10307.77
920.349	10253.08
920.66	10190.03
920.971	10218.05
921.282	10220.31
921.593	10146.19
921.903	10110.03
922.214	10081.1
922.525	10014.44
922.835	10018.51
923.146	9905.74
923.456	9855.8
923.767	9840.89
924.077	9791.62
924.387	9800.89
924.697	9688.57
925.008	9698.74
925.318	9701.45
925.628	9637.73
925.938	9571.51
926.248	9449.94
926.558	9413.33
926.867	9489.26
927.177	9434.12
927.487	9336.49
927.796	9311.86
928.106	9206.1
928.416	9237.96
928.725	9150.28
929.034	9195.93
929.344	9163.61
929.653	9097.63
929.962	9087.01
930.271	9009.72
930.581	8944.19
930.89	8935.82
931.199	8858.54
931.508	8901.7
931.817	8849.95
932.125	8836.62
932.434	8751.42
932.743	8660.13
933.051	8599.11
933.36	8626.68
933.669	8585.33
933.977	8514.37
934.286	8551.88
934.594	8461.71
934.902	8467.14
935.21	8401.38
935.519	8335.61
935.827	8327.03
936.135	8252.9
936.443	8196.41
936.751	8192.57
937.059	8183.3
937.367	8148.95
937.674	8124.09
937.982	8046.81
938.29	8063.3
938.597	8052.46
938.905	7894.95
939.213	7925.23
939.52	7844.55
939.827	7862.41
940.135	7858.11
940.442	7845.68
940.749	7752.58
941.056	7750.77
941.363	7704.22
941.67	7620.15
941.977	7606.37
942.284	7508.29
942.591	7535.86
942.898	7556.88
943.205	7492.92
943.511	7437.56
943.818	7405.7
944.125	7339.26
944.431	7322.76
944.738	7347.84
945.044	7292.03
945.35	7233.72
945.657	7165.7
945.963	7222.88
946.269	7153.95
946.575	7104.23
946.881	7053.84
947.187	7083.67
947.493	7030.11
947.799	7010.45
948.105	6930.23
948.41	6965.93
948.716	6923.22
949.022	6934.52
949.327	6870.34
949.633	6765.03
949.938	6731.81
950.244	6788.08
950.549	6705.37
950.854	6658.6
951.16	6654.53
951.465	6625.15
951.77	6586.51
952.075	6506.28
952.38	6565.49
952.685	6551.93
952.99	6442.33
953.294	6459.73
953.599	6428.09
953.904	6391.71
954.209	6384.71
954.513	6371.15
954.818	6374.08
955.122	6377.93
955.426	6288.44
955.731	6242.11
956.035	6216.35
956.339	6189.46
956.643	6183.81
956.948	6168.67
957.252	6065.62
957.556	6095
957.86	6038.73
958.163	6041.44
958.467	5990.82
958.771	6002.79
959.075	5925.51
959.378	5909.92
959.682	5937.49
959.985	5902.91
960.289	5860.88
960.592	5808.45
960.896	5807.55
961.199	5767.32
961.502	5788.11
961.805	5733.42
962.108	5706.3
962.411	5643.48
962.714	5646.42
963.017	5663.37
963.32	5565.74
963.623	5620.21
963.926	5556.7
964.228	5573.65
964.531	5530.72
964.833	5498.17
965.136	5440.32
965.438	5392.41
965.741	5401.91
966.043	5375.01
966.345	5389.25
966.648	5356.48
966.95	5298.41
967.252	5284.39
967.554	5273.77
967.856	5275.13
968.158	5208.69
968.46	5207.33
968.761	5187.45
969.063	5165.75
969.365	5119.88
969.666	5106.55
969.968	5064.97
970.269	5056.83
970.571	5069.03
970.872	5056.6
971.174	4985.42
971.475	4996.04
971.776	4933.9
972.077	4937.51
972.378	4870.62
972.679	4888.47
972.98	4903.61
973.281	4835.14
973.582	4851.86
973.883	4811.87
974.183	4805.09
974.484	4735.26
974.785	4750.62
975.085	4716.05
975.386	4685.31
975.686	4674.47
975.986	4648.93
976.287	4613
976.587	4643.73
976.887	4637.18
977.187	4555.15
977.487	4535.04
977.787	4490.52
978.087	4498.88
978.387	4530.97
978.687	4505.43
978.987	4434.25
979.286	4389.05
979.586	4430.41
979.885	4345.66
980.185	4381.14
980.484	4335.95
980.784	4324.87
981.083	4289.84
981.382	4295.49
981.682	4263.18
981.981	4262.95
982.28	4205.55
982.579	4219.11
982.878	4193.12
983.177	4188.15
983.475	4185.44
983.774	4129.4
984.073	4097.08
984.372	4091.66
984.67	4067.25
984.969	4081.94
985.267	4039.46
985.566	4032.68
985.864	4008.72
986.162	3985.67
986.461	3938.22
986.759	3962.85
987.057	3954.49
987.355	3921.04
987.653	3902.06
987.951	3877.88
988.249	3839.01
988.547	3849.86
988.844	3800.37
989.142	3812.34
989.44	3790.2
989.737	3744.1
990.035	3746.36
990.332	3735.74
990.63	3680.82
990.927	3725.57
991.224	3670.43
991.521	3682.63
991.819	3657.77
992.116	3626.59
992.413	3625.46
992.71	3578.9
993.006	3611.9
993.303	3569.19
993.6	3539.13
993.897	3545.46
994.193	3531.67
994.49	3514.95
994.787	3489.64
995.083	3464.78
995.379	3412.81
995.676	3456.42
995.972	3421.62
996.268	3350.89
996.565	3369.64
996.861	3351.79
997.157	3352.92
997.453	3299.14
997.749	3321.06
998.044	3271.11
998.34	3294.16
998.636	3259.82
998.932	3236.09
999.227	3235.64
999.523	3184.11
999.818	3195.41
1000.114	3178.01
1000.409	3121.06
1000.704	3112.93
1001	3139.37
1001.295	3069.76
1001.59	3102.98
1001.885	3043.78
1002.18	3005.13
1002.475	3025.92
1002.77	3007.62
1003.065	3010.78
1003.359	2992.03
1003.654	2988.41
1003.949	2916.32
1004.243	2936.66
1004.538	2893.27
1004.832	2869.77
1005.127	2902.54
1005.421	2853.27
1005.715	2846.04
1006.009	2826.61
1006.304	2793.84
1006.598	2809.43
1006.892	2759.26
1007.186	2786.38
1007.48	2750.68
1007.773	2724.01
1008.067	2699.83
1008.361	2695.99
1008.655	2672.71
1008.948	2661.64
1009.242	2622.09
1009.535	2606.95
1009.829	2619.38
1010.122	2604.69
1010.415	2600.85
1010.708	2601.08
1011.001	2556.78
1011.295	2556.11
1011.588	2529.67
1011.881	2480.85
1012.173	2499.84
1012.466	2467.07
1012.759	2449.67
1013.052	2433.62
1013.344	2401.53
1013.637	2437.01
1013.93	2395.21
1014.222	2386.62
1014.514	2394.53
1014.807	2353.62
1015.099	2334.87
1015.391	2316.34
1015.683	2325.38
1015.976	2311.37
1016.268	2313.17
1016.56	2257.58
1016.851	2258.03
1017.143	2217.81
1017.435	2204.02
1017.727	2196.79
1018.018	2206.28
1018.31	2199.5
1018.602	2178.94
1018.893	2133.29
1019.185	2151.6
1019.476	2147.3
1019.767	2081.09
1020.058	2063.46
1020.35	2077.47
1020.641	2090.58
1020.932	2062.11
1021.223	2020.07
1021.514	2033.41
1021.804	1984.82
1022.095	1993.18
1022.386	1977.59
1022.677	1936.46
1022.967	1913.41
1023.258	1968.55
1023.548	1919.74
1023.839	1924.94
1024.129	1899.63
1024.419	1924.48
1024.709	1888.55
1025	1883.81
1025.29	1858.5
1025.58	1826.63
1025.87	1864.15
1026.16	1829.12
1026.449	1812.17
1026.739	1767.2
1027.029	1802.23
1027.319	1754.32
1027.608	1766.07
1027.898	1735.56
1028.187	1744.38
1028.477	1753.19
1028.766	1703.92
1029.055	1691.5
1029.344	1661.89
1029.634	1685.17
1029.923	1675.22
1030.212	1622.57
1030.501	1648.33
1030.79	1622.57
1031.078	1605.4
1031.367	1584.38
1031.656	1578.96
1031.945	1572.63
1032.233	1546.64
1032.522	1548.22
1032.81	1554.55
1033.099	1551.61
1033.387	1529.01
1033.675	1522.46
1033.963	1488.79
1034.251	1512.29
1034.54	1461.44
1034.828	1458.96
1035.116	1465.06
1035.403	1447.43
1035.691	1452.41
1035.979	1426.87
1036.267	1445.63
1036.554	1442.46
1036.842	1397.94
1037.129	1386.19
1037.417	1383.71
1037.704	1366.76
1037.992	1357.27
1038.279	1357.27
1038.566	1363.14
1038.853	1363.14
1039.14	1363.14
