Data from 19-2025_FLMS001491_001.txt Node
Date: Thu Apr 19 16:34:38 BST 2018
User: hsy
Spectrometer: FLMS00149
Trigger mode: 0
Integration Time (sec): 1.000000E-2
Scans to average: 10
Electric dark correction enabled: true
Nonlinearity correction enabled: false
Boxcar width: 0
XAxis mode: Wavelengths
Number of Pixels in Spectrum: 2048
>>>>>Begin Spectral Data<<<<<
341.393	-20.78
341.776	-20.78
342.16	-20.78
342.543	-59.42
342.927	-66.65
343.31	-54.67
343.693	-89.48
344.077	-74.56
344.46	-79.98
344.843	-45.86
345.226	-28.01
345.61	-37.27
345.993	-3.15
346.376	-21.45
346.759	-1.79
347.142	28.94
347.525	30.97
347.908	57.64
348.291	102.61
348.674	93.8
349.057	122.27
349.44	121.37
349.823	148.03
350.206	186.68
350.588	207.01
350.971	241.14
351.354	253.79
351.737	275.49
352.119	284.98
352.502	299.89
352.884	289.72
353.267	308.93
353.65	320.91
354.032	335.6
354.414	338.31
354.797	343.73
355.179	360.91
355.562	368.37
355.944	343.06
356.326	355.03
356.709	365.2
357.091	373.79
357.473	374.69
357.855	375.82
358.238	399.55
358.62	384.86
359.002	389.83
359.384	394.58
359.766	378.54
360.148	363.17
360.53	389.16
360.912	365.65
361.294	375.37
361.676	381.47
362.057	374.02
362.439	379.44
362.821	388.7
363.203	383.51
363.584	376.95
363.966	362.26
364.348	377.63
364.729	357.07
365.111	369.27
365.493	385.54
365.874	369.95
366.256	369.04
366.637	370.17
367.019	370.4
367.4	366.11
367.781	371.98
368.163	368.37
368.544	362.49
368.925	369.72
369.306	350.97
369.688	360.68
370.069	390.51
370.45	375.37
370.831	381.92
371.212	382.83
371.593	366.11
371.974	357.74
372.355	374.47
372.736	366.11
373.117	399.55
373.498	393.9
373.879	387.12
374.26	376.73
374.641	369.5
375.021	387.35
375.402	392.77
375.783	408.82
376.163	400.46
376.544	409.27
376.925	411.75
377.305	391.42
377.686	419.66
378.066	410.4
378.447	406.33
378.827	392.77
379.208	437.06
379.588	411.75
379.968	409.27
380.349	400.68
380.729	432.32
381.109	428.93
381.489	417.86
381.87	439.32
382.25	432.77
382.63	453.56
383.01	433.9
383.39	435.03
383.77	439.55
384.15	425.31
384.53	467.8
384.91	469.83
385.29	438.65
385.67	451.53
386.049	478.19
386.429	467.8
386.809	472.32
387.189	468.48
387.568	503.5
387.948	472.77
388.328	486.56
388.707	482.94
389.087	470.74
389.466	481.58
389.846	489.94
390.225	501.47
390.605	517.74
390.984	522.49
391.363	515.71
391.743	525.65
392.122	519.77
392.501	525.65
392.881	540.79
393.26	543.28
393.639	551.64
394.018	535.14
394.397	548.47
394.776	559.32
395.155	554.12
395.534	526.78
395.913	568.13
396.292	549.6
396.671	535.14
397.05	572.88
397.429	599.09
397.808	602.48
398.186	567
398.565	594.35
398.944	581.69
399.323	597.96
399.701	585.99
400.08	603.16
400.458	618.75
400.837	625.53
401.215	617.17
401.594	601.58
401.972	608.59
402.351	622.14
402.729	623.05
403.107	658.53
403.486	640
403.864	642.71
404.242	665.08
404.62	682.93
404.999	657.4
405.377	680.9
405.755	680.45
406.133	666.66
406.511	688.81
406.889	700.79
407.267	704.63
407.645	703.05
408.023	700.33
408.401	729.26
408.779	732.2
409.156	740.11
409.534	748.47
409.912	740.79
410.29	757.28
410.667	809.94
411.045	795.25
411.422	811.07
411.8	780.78
412.178	811.97
412.555	816.04
412.933	822.59
413.31	801.12
413.687	858.75
414.065	844.51
414.442	868.92
414.819	863.04
415.197	871.4
415.574	889.03
415.951	871.63
416.328	923.38
416.705	888.35
417.082	891.97
417.46	911.18
417.837	914.57
418.214	945.53
418.591	958.63
418.967	939.2
419.344	952.53
419.721	970.38
420.098	948.46
420.475	974
420.852	979.42
421.228	987.78
421.605	1005.64
421.982	1005.86
422.358	1031.17
422.735	1021
423.111	1036.6
423.488	1059.65
423.864	1041.12
424.241	1045.86
424.617	1068.01
424.994	1075.01
425.37	1113.21
425.746	1076.6
426.123	1105.07
426.499	1113.88
426.875	1124.5
427.251	1141.45
427.627	1166.31
428.003	1164.73
428.379	1171.73
428.756	1214.67
429.132	1234.33
429.507	1223.48
429.883	1259.19
430.259	1248.57
430.635	1252.86
431.011	1270.04
431.387	1310.26
431.763	1342.35
432.138	1351.17
432.514	1365.18
432.89	1366.08
433.265	1406.08
433.641	1417.83
434.016	1432.29
434.392	1440.65
434.767	1494.44
435.143	1457.6
435.518	1468.22
435.894	1508.22
436.269	1524.95
436.644	1521.78
437.02	1571.5
437.395	1571.5
437.77	1591.61
438.145	1604.72
438.52	1620.54
438.895	1622.57
439.271	1596.81
439.646	1680.65
440.021	1675
440.395	1662.12
440.77	1677.94
441.145	1705.96
441.52	1723.58
441.895	1739.86
442.27	1741.21
442.645	1729.46
443.019	1740.76
443.394	1749.12
443.769	1751.38
444.143	1772.4
444.518	1796.58
444.892	1790.02
445.267	1783.92
445.641	1833.19
446.016	1828.89
446.39	1839.29
446.764	1845.16
447.139	1870.02
447.513	1902.56
447.887	1891.94
448.262	1920.42
448.636	1911.6
449.01	1943.92
449.384	1962.22
449.758	1947.08
450.132	1974.2
450.506	2003.58
450.88	2045.61
451.254	1983.69
451.628	2039.96
452.002	2051.71
452.376	2084.93
452.75	2152.73
453.123	2132.16
453.497	2171.03
453.871	2158.6
454.244	2196.11
454.618	2234.76
454.992	2257.81
455.365	2273.4
455.739	2303.68
456.112	2336.45
456.486	2336.45
456.859	2388.65
457.232	2425.71
457.606	2448.54
457.979	2429.1
458.352	2490.8
458.725	2562.88
459.099	2560.4
459.472	2602.43
459.845	2659.15
460.218	2667.29
460.591	2679.27
460.964	2707.51
461.337	2717.68
461.71	2787.06
462.083	2821.18
462.456	2825.02
462.829	2817.12
463.201	2899.6
463.574	2912.03
463.947	2924.01
464.32	3018.24
464.692	3013.95
465.065	3013.72
465.438	3043.78
465.81	3086.49
466.183	3093.94
466.555	3181.85
466.928	3218.01
467.3	3189.31
467.672	3264.56
468.045	3313.83
468.417	3336.65
468.789	3309.31
469.161	3405.12
469.534	3465.91
469.906	3507.04
470.278	3502.52
470.65	3598.34
471.022	3627.26
471.394	3653.48
471.766	3661.16
472.138	3733.93
472.51	3837.43
472.882	3906.58
473.253	3916.97
473.625	3940.93
473.997	4007.37
474.369	4035.84
474.74	4115.39
475.112	4174.37
475.484	4254.82
475.855	4308.15
476.227	4328.49
476.598	4470.41
476.97	4455.04
477.341	4578.42
477.713	4659.78
478.084	4679.89
478.455	4774.35
478.827	4861.36
479.198	4956.27
479.569	4993.78
479.94	5178.18
480.311	5181.35
480.682	5297.5
481.053	5375.69
481.424	5469.7
481.795	5505.86
482.166	5634.67
482.537	5643.71
482.908	5824.49
483.279	5902.91
483.65	5986.07
484.021	6102.23
484.391	6125.05
484.762	6262.9
485.133	6276.01
485.503	6357.81
485.874	6555.77
486.244	6558.71
486.615	6740.4
486.985	6835.54
487.356	6934.75
487.726	6966.84
488.097	7134.29
488.467	7193.05
488.837	7340.84
489.207	7375.64
489.578	7554.62
489.948	7617.89
490.318	7701.51
490.688	7779.24
491.058	7853.37
491.428	8037.09
491.798	8080.03
492.168	8312.34
492.538	8299.68
492.908	8437.98
493.278	8583.52
493.648	8548.04
494.017	8736.51
494.387	8830.29
494.757	8811.31
495.126	8912.32
495.496	8954.81
495.866	9120.23
496.235	9151.41
496.605	9258.3
496.974	9249.26
497.344	9347.56
497.713	9451.52
498.082	9512.98
498.452	9633.66
498.821	9726.76
499.19	9659.87
499.559	9779.87
499.928	9821.45
500.298	9949.81
500.667	9994.78
501.036	9998.4
501.405	10039.98
501.774	10099.41
502.143	10196.13
502.512	10323.36
502.88	10387.76
503.249	10353.19
503.618	10505.27
503.987	10531.49
504.356	10531.71
504.724	10658.94
505.093	10667.53
505.462	10713.4
505.83	10788.66
506.199	10910.69
506.567	11047.41
506.936	10942.55
507.304	11145.94
507.672	11176.9
508.041	11174.18
508.409	11341.41
508.777	11411.47
509.145	11457.11
509.514	11474.29
509.882	11562.87
510.25	11688.07
510.618	11793.15
510.986	11749.76
511.354	11880.61
511.722	12020.72
512.09	12069.75
512.458	12069.3
512.826	12150.66
513.193	12199.47
513.561	12324.66
513.929	12378.9
514.297	12493.24
514.664	12604.43
515.032	12684.65
515.4	12801.71
515.767	12880.81
516.135	12893.01
516.502	12898.43
516.869	13097.07
517.237	13215.94
517.604	13145.43
517.972	13323.96
518.339	13366.89
518.706	13492.77
519.073	13489.6
519.44	13603.27
519.808	13838.07
520.175	13928.69
520.542	14041.9
520.909	14188.34
521.276	14158.29
521.643	14341.78
522.009	14390.14
522.376	14547.43
522.743	14735.45
523.11	14833.3
523.477	15079.62
523.843	15050.69
524.21	15297.24
524.577	15368.2
524.943	15471.47
525.31	15617
525.676	15780.16
526.043	15881.18
526.409	15997.79
526.776	16152.13
527.142	16092.47
527.508	16315.97
527.874	16492.69
528.241	16605.45
528.607	16678.67
528.973	16929.74
529.339	17022.84
529.705	17162.27
530.071	17306.45
530.437	17404.75
530.803	17503.73
531.169	17738.53
531.535	17609.27
531.901	17803.61
532.267	17819.43
532.632	18064.85
532.998	18095.81
533.364	18225.3
533.73	18325.18
534.095	18554.33
534.461	18600.43
534.826	18595.68
535.192	18739.63
535.557	18993.41
535.923	18923.58
536.288	19021.43
536.653	19160.41
537.019	19114.54
537.384	19314.99
537.749	19289.9
538.114	19519.27
538.479	19384.82
538.845	19567.64
539.21	19612.15
539.575	19690.57
539.94	19747.07
540.305	19949.32
540.67	19825.03
541.034	19977.57
541.399	19999.04
541.764	20175.3
542.129	20199.48
542.494	20278.35
542.858	20275.87
543.223	20349.76
543.587	20490.55
543.952	20496.42
544.316	20593.14
544.681	20704.33
545.045	20834.04
545.41	20907.71
545.774	20851.22
546.138	20993.59
546.503	21041.04
546.867	20951.55
547.231	21208.72
547.595	21209.17
547.959	21255.05
548.324	21392.45
548.688	21336.18
549.052	21467.02
549.416	21471.99
549.779	21589.5
550.143	21758.54
550.507	21770.29
550.871	21974.35
551.235	21930.51
551.599	22104.07
551.962	22089.83
552.326	22194.46
552.689	22317.17
553.053	22132.31
553.417	22328.47
553.78	22670.6
554.143	22607.78
554.507	22801.67
554.87	22877.6
555.234	23019.97
555.597	22940.88
555.96	23125.96
556.323	23164.38
556.686	23336.8
557.05	23434.88
557.413	23595.78
557.776	23568.43
558.139	23821.31
558.502	23921.19
558.865	23925.49
559.228	24207.06
559.59	24195.31
559.953	24336.78
560.316	24662.42
560.679	24716.43
561.041	24859.02
561.404	24890.89
561.767	25080.48
562.129	25183.98
562.492	25390.08
562.854	25444.77
563.217	25538.78
563.579	25867.81
563.941	26033
564.304	26082.27
564.666	26372.65
565.028	26450.17
565.39	26627.34
565.753	26883.6
566.115	26958.4
566.477	27196.59
566.839	27432.97
567.201	27665.05
567.563	27654.65
567.925	27934.65
568.287	28126.96
568.648	28256.9
569.01	28552.26
569.372	28733.5
569.734	28784.12
570.095	29149.53
570.457	29420.48
570.819	29577.54
571.18	29646.69
571.542	29885.78
571.903	29975.05
572.265	30295.04
572.626	30523.51
572.987	30476.5
573.349	30895.47
573.71	31061.57
574.071	31240.1
574.432	31443.93
574.794	31870.14
575.155	31815
575.516	31900.42
575.877	32175.44
576.238	32264.02
576.599	32459.05
576.96	32606.39
577.32	32640.96
577.681	32907.4
578.042	33213.83
578.403	33288.18
578.763	33339.93
579.124	33463.54
579.485	33753.02
579.845	33825.79
580.206	33724.1
580.566	33771.78
580.927	33921.16
581.287	34214.93
581.648	34279.56
582.008	34269.62
582.368	34488.82
582.728	34588.94
583.089	34576.28
583.449	34608.82
583.809	34875.26
584.169	34925.42
584.529	34901.24
584.889	35405.41
585.249	35033.22
585.609	35166.55
585.969	35284.96
586.329	35299.88
586.688	35571.51
587.048	35600.66
587.408	35785.97
587.768	35762.69
588.127	35861.44
588.487	36030.93
588.846	36325.39
589.206	36027.09
589.565	36250.59
589.925	36591.59
590.284	36528.77
590.643	36687.64
591.003	36930.34
591.362	37222.76
591.721	37208.3
592.08	37384.12
592.44	37594.51
592.799	37626.6
593.158	37742.98
593.517	37820.49
593.876	38060.26
594.235	38122.85
594.593	38179.35
594.952	38455.27
595.311	38429.96
595.67	38715.38
596.029	39055.26
596.387	39140.68
596.746	39194.92
597.104	39133.22
597.463	39264.07
597.822	39760.78
598.18	39602.14
598.538	39807.78
598.897	40193.53
599.255	39881.23
599.613	40499.74
599.972	40400.76
600.33	40433.98
600.688	40675.33
601.046	40770.47
601.404	41160.06
601.762	41309.89
602.12	41444.12
602.478	41339.04
602.836	41457
603.194	41468.98
603.552	41803.66
603.91	41737.9
604.268	41949.42
604.625	41997.55
604.983	42220.6
605.341	42092.92
605.698	42460.37
606.056	42704.2
606.413	42714.37
606.771	42984.87
607.128	42775.61
607.485	42844.99
607.843	43030.07
608.2	43301.93
608.557	43651.52
608.914	43472.32
609.272	43600
609.629	43795.02
609.986	43929.03
610.343	44058.97
610.7	44290.15
611.057	44241.11
611.414	44185.97
611.771	44531.05
612.127	44629.8
612.484	44674.55
612.841	44802.45
613.198	44697.82
613.554	44810.59
613.911	45092.16
614.267	45199.73
614.624	45298.48
614.98	45403.11
615.337	45631.81
615.693	45565.82
616.05	45616.67
616.406	45809.21
616.762	45740.96
617.118	45877
617.475	45795.65
617.831	46042.42
618.187	45987.73
618.543	46121.06
618.899	46338.46
619.255	46294.39
619.611	46292.58
619.967	46484.67
620.323	46712.46
620.678	46354.28
621.034	46377.78
621.39	46413.26
621.746	46604.44
622.101	47034.94
622.457	46690.99
622.812	46921.27
623.168	46888.72
623.523	46764.21
623.879	46967.59
624.234	46780.03
624.589	46885.34
624.945	46958.78
625.3	46933.02
625.655	47168.04
626.01	47106.57
626.365	47038.33
626.72	46860.7
627.075	46850.08
627.43	46890.76
627.785	46937.76
628.14	46946.12
628.495	47056.18
628.85	47045.78
629.205	46952
629.559	47066.57
629.914	46927.14
630.269	46954.49
630.623	46746.81
630.978	46697.77
631.332	46960.14
631.687	46890.76
632.041	46740.25
632.396	46781.16
632.75	46636.75
633.104	46738.9
633.459	46514.72
633.813	46594.5
634.167	46618
634.521	46505.46
634.875	46540.03
635.229	46399.92
635.583	46277.89
635.937	46201.51
636.291	46202.19
636.645	46165.58
636.999	46066.6
637.352	46255.07
637.706	45915.42
638.06	46202.87
638.413	45896.89
638.767	46013.95
639.121	45874.29
639.474	45867.06
639.828	45855.53
640.181	45741.64
640.534	45891.24
640.888	45638.59
641.241	45495.54
641.594	45527.18
641.947	45588.19
642.301	45364.02
642.654	45542.09
643.007	45369.89
643.36	45482.89
643.713	45399.05
644.066	45510
644.419	45263.23
644.771	44758.84
645.124	44420.54
645.477	44446.53
645.83	44273.43
646.182	44351.16
646.535	44230.72
646.888	44245.63
647.24	44345.97
647.593	44354.33
647.945	44270.71
648.298	44055.13
648.65	43920.67
649.002	43635.25
649.355	43397.52
649.707	43322.94
650.059	43537.4
650.411	44031.85
650.763	44328.79
651.115	44795.67
651.467	44630.48
651.819	44581.89
652.171	44465.29
652.523	44417.6
652.875	44634.55
653.227	44232.52
653.578	44632.96
653.93	44418.06
654.282	44318.62
654.633	44267.55
654.985	44363.37
655.337	44372.41
655.688	44220.55
656.039	44384.61
656.391	44023.94
656.742	44087.89
657.094	44086.09
657.445	44197.95
657.796	44238.62
658.147	44054.67
658.498	44338.51
658.849	44252.41
659.2	44196.14
659.551	44025.98
659.902	44282.69
660.253	44132.64
660.604	44214.67
660.955	44046.77
661.306	44165.41
661.656	44024.62
662.007	43948.01
662.358	44069.14
662.708	44152.98
663.059	44070.72
663.409	43875.92
663.76	44220.77
664.11	44232.98
664.461	44308.23
664.811	44190.26
665.161	44163.37
665.511	44112.98
665.862	44364.27
666.212	44343.71
666.562	44338.06
666.912	44081.57
667.262	43968.8
667.612	44088.8
667.962	44212.41
668.312	44161.34
668.662	44252.41
669.011	44333.99
669.361	44198.85
669.711	44107.55
670.06	44024.17
670.41	44048.57
670.76	44075.47
671.109	44200.66
671.459	44049.48
671.808	43977.16
672.157	44256.25
672.507	43909.59
672.856	43900.78
673.205	43921.12
673.554	44115.01
673.904	43824.85
674.253	44089.25
674.602	43818.3
674.951	43291.76
675.3	43165.21
675.649	43800.67
675.998	43668.47
676.346	43710.5
676.695	43760.67
677.044	43550.06
677.393	43650.62
677.741	43705.76
678.09	43690.39
678.438	43522.94
678.787	43544.41
679.135	43435.26
679.484	43245.2
679.832	43505.76
680.181	43218.54
680.529	43270.29
680.877	43078.88
681.225	43178.77
681.573	43440.23
681.922	43054.7
682.27	43068.03
682.618	43001.14
682.966	42965.89
683.314	42906.46
683.661	42815.39
684.009	42612.9
684.357	42524.77
684.705	42384.89
685.053	42612
685.4	42300.6
685.748	42284.33
686.095	42230.99
686.443	42050.89
686.79	41920.95
687.138	42056.08
687.485	41895.64
687.832	41702.19
688.18	41719.37
688.527	41563.44
688.874	41453.84
689.221	41506.27
689.568	41359.6
689.915	40998.26
690.262	41312.6
690.609	41147.63
690.956	40897.7
691.303	40926.4
691.65	40838.71
691.997	40727.76
692.344	40513.98
692.69	40438.72
693.037	40426.52
693.383	40211.61
693.73	40209.58
694.077	39875.8
694.423	39833.54
694.769	39814.56
695.116	39800.78
695.462	39450.73
695.808	39327.79
696.155	39504.06
696.501	39134.58
696.847	39219.55
697.193	38894.81
697.539	38971.64
697.885	38631.99
698.231	38545.44
698.577	38492.79
698.923	38454.82
699.269	38110.42
699.614	38090.76
699.96	37921.05
700.306	37950.2
700.651	37728.51
700.997	37656.43
701.342	37429.09
701.688	37369.65
702.033	37230
702.379	37190.9
702.724	36967.63
703.069	36978.48
703.415	36682.89
703.76	36697.58
704.105	36687.64
704.45	36573.29
704.795	36295.56
705.14	36120.87
705.485	36167.2
705.83	35995
706.175	36067.99
706.52	35825.06
706.865	35680.21
707.209	35660.32
707.554	35538.97
707.899	35545.52
708.243	35357.5
708.588	35257.17
708.932	35103.72
709.277	35030.96
709.621	34803.39
709.966	34574.92
710.31	34873.45
710.654	34523.17
710.998	34567.69
711.342	34590.07
711.687	34353.24
712.031	34304.42
712.375	34341.03
712.719	34192.11
713.063	34106.91
713.407	34155.5
713.75	33953.02
714.094	33900.59
714.438	33833.02
714.782	33772.69
715.125	33703.99
715.469	33857.2
715.812	33573.82
716.156	33467.38
716.499	33446.59
716.843	33473.71
717.186	33451.34
717.53	33658.34
717.873	33602.07
718.216	33389.87
718.559	33338.35
718.902	33018.81
719.246	33062.2
719.589	33034.4
719.932	32864.69
720.275	32986.49
720.617	32953.27
720.96	32933.61
721.303	32876.44
721.646	32892.03
721.989	32774.97
722.331	32822.65
722.674	32639.61
723.016	32749.21
723.359	32680.28
723.701	32726.61
724.044	32593.73
724.386	32513.74
724.729	32629.89
725.071	32404.81
725.413	32525.71
725.755	32475.54
726.097	32235.1
726.439	32377.69
726.782	32223.8
727.124	32339.73
727.465	32291.59
727.807	32255.66
728.149	32207.3
728.491	32138.15
728.833	32307.64
729.175	32158.49
729.516	32104.48
729.858	32066.97
730.199	32181.99
730.541	32088.21
730.882	31945.84
731.224	32039.62
731.565	31963.02
731.906	31994.43
732.248	32032.62
732.589	31959.4
732.93	31868.78
733.271	31979.06
733.612	31932.96
733.953	32046.86
734.294	31978.83
734.635	31794.66
734.976	31944.26
735.317	31843.02
735.658	31841.44
735.999	31824.04
736.339	31889.8
736.68	31795.34
737.021	31860.65
737.361	31757.6
737.702	31951.72
738.042	31793.98
738.383	31808.44
738.723	31865.39
739.063	31833.3
739.404	31970.02
739.744	31709.69
740.084	31890.7
740.424	31955.33
740.764	31904.03
741.104	32026.06
741.444	31822.45
741.784	31840.76
742.124	31985.61
742.464	31963.02
742.804	32010.7
743.143	32058.61
743.483	32126.18
743.823	31905.39
744.162	31948.55
744.502	32033.07
744.841	32088.44
745.181	32141.99
745.52	32031.94
745.86	32202.33
746.199	32204.82
746.538	32237.81
746.877	32431.48
747.216	32388.99
747.556	32426.73
747.895	32374.53
748.234	32330.01
748.573	32423.34
748.911	32447.07
749.25	32386.96
749.589	32208.66
749.928	32582.66
750.267	32716.44
750.605	32550.34
750.944	32567.29
751.283	32667.63
751.621	32714.41
751.96	32720.96
752.298	32744.01
752.636	32867.85
752.975	32823.78
753.313	32835.76
753.651	32966.83
753.989	32915.98
754.327	33012.03
754.666	32801.64
755.004	32941.97
755.342	33045.02
755.679	33054.29
756.017	32837.34
756.355	33197.56
756.693	32975.87
757.031	33203.66
757.368	32864.23
757.706	33105.13
758.044	33001.63
758.381	33025.59
758.719	33092.48
759.056	33189.2
759.394	33078.92
759.731	32997.11
760.068	32958.92
760.405	33016.32
760.743	32930.22
761.08	32989.88
761.417	32814.97
761.754	32847.06
762.091	32935.87
762.428	32814.74
762.765	32690.68
763.102	32833.05
763.438	32860.39
763.775	32623.56
764.112	32572.94
764.449	32655.2
764.785	32632.6
765.122	32532.94
765.458	32464.25
765.795	32443.91
766.131	32481.42
766.467	32401.42
766.804	32174.99
767.14	32116.23
767.476	32033.75
767.812	32084.37
768.148	32154.2
768.485	32083.46
768.821	31739.97
769.157	31752.85
769.492	31749.91
769.828	31708.78
770.164	31426.53
770.5	31300.66
770.836	31401.22
771.171	31239.19
771.507	31244.62
771.842	30996.71
772.178	30935.25
772.513	30888.02
772.849	30762.82
773.184	30807.11
773.519	30692.09
773.855	30566.44
774.19	30561.92
774.525	30430.4
774.86	30364.19
775.195	30234.02
775.53	30067.47
775.865	29828.83
776.2	29733.92
776.535	29594.26
776.87	29625
777.205	29515.62
777.539	29345.23
777.874	29538.67
778.209	29229.75
778.543	29280.37
778.878	29069.98
779.212	28981.4
779.547	28853.72
779.881	28850.33
780.215	28662.99
780.55	28712.71
780.884	28393.62
781.218	28394.52
781.552	28524.24
781.886	28292.6
782.22	28164.47
782.554	27974.19
782.888	27882.22
783.222	27742.79
783.556	27553.87
783.889	27550.48
784.223	27446.07
784.557	27360.65
784.89	27441.1
785.224	27255.79
785.557	27043.6
785.891	26977.61
786.224	26915.01
786.558	26908.46
786.891	26614.46
787.224	26569.71
787.557	26466.44
787.891	26436.83
788.224	26370.62
788.557	26306.22
788.89	26232.09
789.223	26190.29
789.556	25958.65
789.888	25940.57
790.221	25775.61
790.554	25601.6
790.887	25687.93
791.219	25420.81
791.552	25440.93
791.884	25258.79
792.217	25218.33
792.549	25251.78
792.882	25084.78
793.214	24946.02
793.546	25005.91
793.879	24893.37
794.211	24671.68
794.543	24845.01
794.875	24694.96
795.207	24661.06
795.539	24572.7
795.871	24501.74
796.203	24477.11
796.535	24235.76
796.867	24205.93
797.198	24100.17
797.53	24044.81
797.862	23750.8
798.193	23928.42
798.525	23713.29
798.856	23833.29
799.188	23519.17
799.519	23455.67
799.85	23452.73
800.182	23408.66
800.513	23444.6
800.844	23109.91
801.175	23301.77
801.506	23322.34
801.837	23062.91
802.168	23080.09
802.499	23120.54
802.83	22967.77
803.161	22806.42
803.491	22704.95
803.822	22875.57
804.153	22599.87
804.483	22514.68
804.814	22374.34
805.145	22520.55
805.475	22431.51
805.805	22411.85
806.136	22372.08
806.466	22252.76
806.796	22280.11
807.126	22088.02
807.457	22076.5
807.787	22131.64
808.117	21915.6
808.447	21970.74
808.777	21851.87
809.107	21673.12
809.436	21715.38
809.766	21707.24
810.096	21679.67
810.426	21576.62
810.755	21563.97
811.085	21512.67
811.414	21516.74
811.744	21360.81
812.073	21302.96
812.403	21220.02
812.732	21220.7
813.061	21300.25
813.39	21157.65
813.719	21036.52
814.049	21085.34
814.378	21111.1
814.707	20816.19
815.036	20949.29
815.365	20773.48
815.693	20714.5
816.022	20676.98
816.351	20653.26
816.68	20516.08
817.008	20534.62
817.337	20429.53
817.665	20362.42
817.994	20416.65
818.322	20393.38
818.651	20368.52
818.979	20185.92
819.307	20229.54
819.636	20190.9
819.964	20156.77
820.292	20126.94
820.62	20093.5
820.948	20070.22
821.276	20350.44
821.604	20122.42
821.932	20314.73
822.259	20253.94
822.587	20140.95
822.915	20027.06
823.243	20075.19
823.57	20089.43
823.898	20240.84
824.225	20059.15
824.553	20002.2
824.88	20040.17
825.207	20156.32
825.535	20014.86
825.862	20178.69
826.189	20048.07
826.516	20148.41
826.843	20134.63
827.17	20192.7
827.497	20166.72
827.824	20182.76
828.151	20187.73
828.478	20118.13
828.805	20168.52
829.131	20146.83
829.458	20188.64
829.785	19985.03
830.111	20093.72
830.438	20198.13
830.764	20094.4
831.09	20181.18
831.417	20055.31
831.743	20092.14
832.069	20122.42
832.395	20061.41
832.722	20115.19
833.048	19997.45
833.374	20197.68
833.7	19989.32
834.026	20099.15
834.351	20046.04
834.677	20057.11
835.003	20017.79
835.329	20021.63
835.654	19928.76
835.98	19827.52
836.306	19933.28
836.631	19800.62
836.956	19877.46
837.282	19839.72
837.607	19833.16
837.932	19770.79
838.258	19697.8
838.583	19802.43
838.908	19619.84
839.233	19682.66
839.558	19624.58
839.883	19507.3
840.208	19480.41
840.533	19550.01
840.858	19529.67
841.182	19486.51
841.507	19432.05
841.832	19273.18
842.156	19345.49
842.481	19391.14
842.805	19315.66
843.13	19250.58
843.454	19305.04
843.778	19244.48
844.103	19142.34
844.427	19129
844.751	19125.39
845.075	19031.38
845.399	18876.35
845.723	18855.11
846.047	18848.33
846.371	18708.9
846.695	18714.78
847.019	18749.35
847.343	18516.36
847.666	18389.14
847.99	18365.86
848.313	18383.49
848.637	18308.69
848.96	18326.54
849.284	18249.48
849.607	17962.25
849.931	17924.06
850.254	17770.85
850.577	17782.37
850.9	17676.16
851.223	17715.03
851.546	17521.14
851.869	17485.43
852.192	17620.57
852.515	17328.37
852.838	17378.99
853.161	17302.16
853.483	17118.89
853.806	17174.93
854.129	17089.73
854.451	17060.81
854.774	16944.43
855.096	16850.87
855.419	16954.6
855.741	16861.04
856.063	16734.04
856.385	16627.6
856.708	16496.53
857.03	16600.93
857.352	16553.7
857.674	16484.1
857.996	16496.08
858.318	16353.71
858.64	16362.07
858.961	16305.57
859.283	16209.76
859.605	16108.29
859.926	16214.05
860.248	16088.86
860.57	16022.87
860.891	16051.34
861.212	15936.77
861.534	15985.81
861.855	15848.64
862.176	15894.96
862.498	15840.05
862.819	15840.73
863.14	15755.31
863.461	15745.81
863.782	15707.85
864.103	15617.91
864.424	15629.21
864.745	15655.42
865.065	15645.7
865.386	15513.96
865.707	15509.21
866.027	15558.7
866.348	15474.64
866.668	15461.53
866.989	15455.65
867.309	15311.02
867.63	15393.51
867.95	15456.78
868.27	15297.92
868.59	15403.45
868.91	15279.39
869.23	15236.9
869.55	15165.04
869.87	15264.92
870.19	15133.63
870.51	15143.8
870.83	15128.66
871.15	15114.19
871.469	15105.15
871.789	15147.19
872.109	15012.73
872.428	15013.86
872.748	14991.94
873.067	14955.78
873.386	15039.62
873.706	15024.03
874.025	14845.27
874.344	14852.96
874.663	14906.51
874.982	14928.21
875.301	14810.02
875.62	14708.33
875.939	14793.52
876.258	14757.14
876.577	14651.61
876.896	14683.47
877.214	14659.74
877.533	14693.87
877.852	14654.77
878.17	14595.79
878.489	14699.51
878.807	14621.55
879.125	14595.11
879.444	14504.04
879.762	14545.39
880.08	14589.91
880.398	14417.71
880.716	14439.86
881.034	14369.58
881.352	14506.75
881.67	14325.97
881.988	14367.77
882.306	14297.49
882.624	14229.92
882.941	14144.73
883.259	14124.39
883.577	14166.2
883.894	14116.93
884.212	14063.6
884.529	14018.85
884.846	14002.13
885.164	13876.03
885.481	13790.61
885.798	13927.56
886.115	13855.7
886.432	13904.51
886.75	13763.95
887.067	13862.93
887.383	13684.63
887.7	13725.08
888.017	13681.24
888.334	13611.86
888.651	13671.97
888.967	13586.55
889.284	13618.64
889.6	13544.29
889.917	13449.83
890.233	13457.29
890.55	13417.06
890.866	13368.48
891.182	13298.42
891.498	13296.39
891.815	13198.76
892.131	13206.9
892.447	13154.02
892.763	13124.19
893.079	13003.97
893.395	13059.56
893.71	13036.96
894.026	12972.78
894.342	12968.49
894.657	12896.4
894.973	12847.59
895.289	12808.26
895.604	12826.57
895.92	12674.26
896.235	12624.31
896.55	12687.36
896.865	12603.3
897.181	12577.31
897.496	12586.12
897.811	12524.88
898.126	12485.34
898.441	12410.54
898.756	12396.3
899.071	12457.31
899.386	12365.34
899.7	12287.15
900.015	12167.38
900.33	12029.98
900.644	12076.98
900.959	12139.36
901.273	12057.32
901.588	11979.36
901.902	11898.46
902.216	11908.18
902.531	11827.27
902.845	11794.28
903.159	11737.11
903.473	11699.14
903.787	11622.31
904.101	11585.25
904.415	11576.21
904.729	11512.71
905.042	11528.07
905.356	11496.44
905.67	11418.24
905.984	11493.5
906.297	11286.95
906.611	11242.88
906.924	11295.76
907.237	11259.83
907.551	11206.5
907.864	11105.26
908.177	11143
908.491	11061.87
908.804	11077.69
909.117	10957.92
909.43	10868.65
909.743	10852.38
910.056	10925.6
910.368	10805.38
910.681	10717.25
910.994	10653.29
911.307	10612.62
911.619	10484.94
911.932	10577.14
912.244	10447.42
912.557	10469.34
912.869	10369.23
913.181	10401.77
913.494	10353.64
913.806	10282
914.118	10246.07
914.43	10269.8
914.742	10194.77
915.054	10067.32
915.366	10068.45
915.678	10030.94
915.99	9966.08
916.302	9965.18
916.613	9862.13
916.925	9949.36
917.236	9888.57
917.548	9744.84
917.859	9761.79
918.171	9762.7
918.482	9744.39
918.794	9686.77
919.105	9675.01
919.416	9610.83
919.727	9501.23
920.038	9518.86
920.349	9452.87
920.66	9474.12
920.971	9423.27
921.282	9362.25
921.593	9332.2
921.903	9256.04
922.214	9229.38
922.525	9196.83
922.835	9192.09
923.146	9078.87
923.456	9023.73
923.767	9032.54
924.077	9008.82
924.387	8992.55
924.697	8945.32
925.008	8894.47
925.318	8897.86
925.628	8832.32
925.938	8851.76
926.248	8734.02
926.558	8677.53
926.867	8731.76
927.177	8633.69
927.487	8589.17
927.796	8551.43
928.106	8536.96
928.416	8510.52
928.725	8515.04
929.034	8418.78
929.344	8404.09
929.653	8361.15
929.962	8283.64
930.271	8251.55
930.581	8275.5
930.89	8194.15
931.199	8159.8
931.508	8138.11
931.817	8141.27
932.125	8108.05
932.434	8026.02
932.743	7925
933.051	7975.17
933.36	7925
933.669	7877.55
933.977	7887.26
934.286	7804.33
934.594	7766.59
934.902	7760.26
935.21	7626.03
935.519	7676.42
935.827	7671.45
936.135	7598.68
936.443	7524.11
936.751	7508.97
937.059	7502.87
937.367	7471.23
937.674	7469.2
937.982	7425.36
938.29	7410.44
938.597	7441.17
938.905	7266.94
939.213	7268.52
939.52	7255.64
939.827	7236.89
940.135	7170.67
940.442	7198.92
940.749	7169.32
941.056	7169.09
941.363	7053.61
941.67	7094.06
941.977	7055.87
942.284	6958.25
942.591	6940.62
942.898	7006.61
943.205	6897.01
943.511	6871.02
943.818	6863.56
944.125	6731.14
944.431	6759.61
944.738	6698.37
945.044	6710.12
945.35	6722.1
945.657	6601.65
945.963	6610.46
946.269	6545.6
946.575	6551.93
946.881	6544.25
947.187	6528.88
947.493	6450.24
947.799	6503.57
948.105	6433.97
948.41	6383.35
948.716	6395.55
949.022	6411.14
949.327	6281.66
949.633	6274.65
949.938	6264.48
950.244	6256.12
950.549	6209.34
950.854	6122.34
951.16	6161.43
951.465	6139.29
951.77	6067.43
952.075	6096.13
952.38	5988.56
952.685	6000.53
952.99	5953.08
953.294	6005.28
953.599	5858.17
953.904	5888.22
954.209	5852.97
954.513	5901.78
954.818	5824.04
955.122	5876.47
955.426	5759.86
955.731	5760.54
956.035	5712.41
956.339	5710.37
956.643	5710.37
956.948	5637.61
957.252	5663.82
957.556	5630.37
957.86	5591.05
958.163	5602.13
958.467	5528.23
958.771	5472.64
959.075	5521
959.378	5465.63
959.682	5446.88
959.985	5425.41
960.289	5385.64
960.592	5344.28
960.896	5362.13
961.199	5323.04
961.502	5288.91
961.805	5303.83
962.108	5208.46
962.411	5265.64
962.714	5255.47
963.017	5177.96
963.32	5202.59
963.623	5177.51
963.926	5128.47
964.228	5130.73
964.531	5072.88
964.833	5071.29
965.136	5007.34
965.438	5048.47
965.741	5002.59
966.043	4944.29
966.345	4965.76
966.648	4919.88
966.95	4941.35
967.252	4853.67
967.554	4911.07
967.856	4865.2
968.158	4836.72
968.46	4818.87
968.761	4795.14
969.063	4740.45
969.365	4727.12
969.666	4717.4
969.968	4692.09
970.269	4702.04
970.571	4641.93
970.872	4639.44
971.174	4613.45
971.475	4612.55
971.776	4579.78
972.077	4538.65
972.378	4520.57
972.679	4531.65
972.98	4473.12
973.281	4435.15
973.582	4453.91
973.883	4398.54
974.183	4408.71
974.484	4394.25
974.785	4312.9
975.085	4341.14
975.386	4328.49
975.686	4297.3
975.986	4321.71
976.287	4271.09
976.587	4230.86
976.887	4202.62
977.187	4228.6
977.487	4202.62
977.787	4168.49
978.087	4173.46
978.387	4179.79
978.687	4132.11
978.987	4090.98
979.286	4080.13
979.586	4110.64
979.885	4079.91
980.185	4048.27
980.484	4041.04
980.784	4001.49
981.083	3938.44
981.382	3972.57
981.682	3960.36
981.981	3902.06
982.28	3945
982.579	3890.99
982.878	3905
983.177	3855.73
983.475	3864.55
983.774	3875.62
984.073	3793.59
984.372	3793.13
984.67	3765.34
984.969	3787.71
985.267	3771.44
985.566	3745.23
985.864	3705.45
986.162	3674.27
986.461	3634.95
986.759	3665.68
987.057	3648.28
987.355	3561.73
987.653	3615.74
987.951	3555.4
988.249	3594.04
988.547	3547.27
988.844	3546.59
989.142	3525.57
989.44	3525.57
989.737	3488.06
990.035	3467.27
990.332	3443.09
990.63	3472.69
990.927	3441.73
991.224	3386.14
991.521	3399.7
991.819	3373.94
992.116	3389.98
992.413	3379.36
992.71	3362.19
993.006	3331.45
993.303	3321.06
993.6	3300.04
993.897	3255.07
994.193	3276.99
994.49	3216.43
994.787	3217.78
995.083	3193.83
995.379	3237.67
995.676	3190.21
995.972	3195.41
996.268	3154.06
996.565	3095.53
996.861	3069.99
997.157	3089.65
997.453	3083.55
997.749	3059.37
998.044	3006.71
998.34	3008.3
998.636	3000.39
998.932	2976.66
999.227	2992.03
999.523	2961.07
999.818	2946.38
1000.114	2933.95
1000.409	2908.41
1000.704	2905.02
1001	2856.89
1001.295	2891.01
1001.59	2838.81
1001.885	2884.01
1002.18	2796.78
1002.475	2813.73
1002.77	2798.13
1003.065	2782.99
1003.359	2753.16
1003.654	2747.29
1003.949	2722.43
1004.243	2722.43
1004.538	2716.55
1004.832	2730.56
1005.127	2666.38
1005.421	2651.02
1005.715	2645.82
1006.009	2659.83
1006.304	2596.56
1006.598	2607.63
1006.892	2580.06
1007.186	2541.19
1007.48	2586.39
1007.773	2503.68
1008.067	2503.68
1008.361	2492.6
1008.655	2473.4
1008.948	2470.68
1009.242	2460.51
1009.535	2453.96
1009.829	2450.57
1010.122	2416
1010.415	2414.87
1010.708	2388.2
1011.001	2358.82
1011.295	2362.44
1011.588	2352.49
1011.881	2314.98
1012.173	2287.64
1012.466	2294.87
1012.759	2319.73
1013.052	2286.28
1013.344	2264.59
1013.637	2246.06
1013.93	2217.81
1014.222	2216.9
1014.514	2190.24
1014.807	2180.52
1015.099	2188.43
1015.391	2166.74
1015.683	2152.27
1015.976	2156.79
1016.268	2129.45
1016.56	2122.67
1016.851	2079.73
1017.143	2075.89
1017.435	2080.19
1017.727	2060.07
1018.018	2058.27
1018.31	2033.41
1018.602	2040.86
1018.893	2011.03
1019.185	1973.52
1019.476	1988.66
1019.767	1964.26
1020.058	1926.74
1020.35	1950.92
1020.641	1915.67
1020.932	1908.44
1021.223	1908.89
1021.514	1902.34
1021.804	1865.28
1022.095	1858.27
1022.386	1849.01
1022.677	1862.34
1022.967	1804.49
1023.258	1815.33
1023.548	1784.6
1023.839	1788.44
1024.129	1784.6
1024.419	1776.69
1024.709	1768.78
1025	1753.41
1025.29	1729.01
1025.58	1761.1
1025.87	1723.13
1026.16	1672.51
1026.449	1667.99
1026.739	1653.53
1027.029	1690.59
1027.319	1636.36
1027.608	1624.83
1027.898	1630.48
1028.187	1616.92
1028.477	1610.37
1028.766	1597.71
1029.055	1567.66
1029.344	1600.42
1029.634	1587.09
1029.923	1539.41
1030.212	1547.32
1030.501	1515.91
1030.79	1508.45
1031.078	1479.07
1031.367	1518.17
1031.656	1495.34
1031.945	1502.35
1032.233	1470.71
1032.522	1486.53
1032.81	1459.86
1033.099	1415.57
1033.387	1445.4
1033.675	1426.87
1033.963	1399.07
1034.251	1424.61
1034.54	1399.3
1034.828	1391.62
1035.116	1389.13
1035.403	1347.32
1035.691	1341
1035.979	1329.47
1036.267	1296.93
1036.554	1289.25
1036.842	1291.96
1037.129	1304.16
1037.417	1284.95
1037.704	1284.95
1037.992	1288.57
1038.279	1274.78
1038.566	1265.97
1038.853	1265.97
1039.14	1265.97
