Data from 19-2025_FLMS001491_002.txt Node
Date: Thu Apr 19 16:34:41 BST 2018
User: hsy
Spectrometer: FLMS00149
Trigger mode: 0
Integration Time (sec): 1.000000E-2
Scans to average: 10
Electric dark correction enabled: true
Nonlinearity correction enabled: false
Boxcar width: 0
XAxis mode: Wavelengths
Number of Pixels in Spectrum: 2048
>>>>>Begin Spectral Data<<<<<
341.393	-15.86
341.776	-15.86
342.16	-15.86
342.543	-64.45
342.927	-68.52
343.31	-82.3
343.693	-65.35
344.077	-55.86
344.46	-72.13
344.843	-52.02
345.226	-44.33
345.61	-25.58
345.993	1.77
346.376	-5.47
346.759	0.86
347.142	3.8
347.525	48.32
347.908	69.11
348.291	81.99
348.674	98.94
349.057	98.26
349.44	110.46
349.823	129.9
350.206	165.83
350.588	229.1
350.971	235.66
351.354	272.94
351.737	284.24
352.119	283.79
352.502	300.51
352.884	298.93
353.267	317.92
353.65	320.63
354.032	318.59
354.414	332.6
354.797	358.37
355.179	325.15
355.562	356.33
355.944	373.73
356.326	357.46
356.709	373.73
357.091	369.67
357.473	374.86
357.855	392.72
358.238	381.64
358.62	396.11
359.002	395.2
359.384	383.22
359.766	382.32
360.148	386.39
360.53	402.88
360.912	389.55
361.294	400.17
361.676	374.41
362.057	370.34
362.439	371.25
362.821	369.44
363.203	376.67
363.584	389.78
363.966	367.18
364.348	380.06
364.729	367.18
365.111	376.67
365.493	354.75
365.874	359.04
366.256	373.28
366.637	378.03
367.019	353.85
367.4	365.82
367.781	382.09
368.163	366.73
368.544	364.02
368.925	399.27
369.306	364.24
369.688	356.78
370.069	379.16
370.45	382.55
370.831	381.42
371.212	380.96
371.593	382.32
371.974	377.8
372.355	387.29
372.736	390.23
373.117	409.44
373.498	377.35
373.879	387.74
374.26	378.25
374.641	378.03
375.021	401.08
375.402	387.52
375.783	397.46
376.163	402.21
376.544	384.35
376.925	397.69
377.305	413.05
377.686	410.12
378.066	404.92
378.447	420.96
378.827	405.14
379.208	420.51
379.588	432.49
379.968	428.65
380.349	412.15
380.729	418.93
381.109	431.36
381.489	437.01
381.87	422.55
382.25	447.18
382.63	452.38
383.01	460.74
383.39	455.76
383.77	447.18
384.15	447.86
384.53	457.57
384.91	475.43
385.29	474.75
385.67	483.56
386.049	451.02
386.429	479.49
386.809	499.15
387.189	482.2
387.568	463.9
387.948	488.31
388.328	507.06
388.707	496.44
389.087	498.93
389.466	479.95
389.846	479.95
390.225	495.31
390.605	508.87
390.984	487.63
391.363	518.14
391.743	518.81
392.122	532.15
392.501	538.47
392.881	527.85
393.26	543.9
393.639	541.19
394.018	548.87
394.397	537.34
394.776	577.34
395.155	566.95
395.534	553.16
395.913	571.47
396.292	564.01
396.671	583.9
397.05	577.57
397.429	596.33
397.808	582.09
398.186	563.78
398.565	607.4
398.944	611.47
399.323	611.47
399.701	596.78
400.08	608.3
400.458	623.44
400.837	610.11
401.215	628.64
401.594	625.93
401.972	626.83
402.351	633.84
402.729	622.09
403.107	650.34
403.486	659.38
403.864	674.29
404.242	655.31
404.62	654.63
404.999	688.75
405.377	676.32
405.755	699.37
406.133	668.41
406.511	707.96
406.889	712.93
407.267	720.84
407.645	730.11
408.023	743.67
408.401	763.33
408.779	752.25
409.156	764.01
409.534	771.01
409.912	793.38
410.29	780.05
410.667	785.7
411.045	784.8
411.422	815.76
411.8	825.92
412.178	821.4
412.555	824.79
412.933	860.73
413.31	862.76
413.687	880.16
414.065	829.77
414.442	877.22
414.819	879.93
415.197	891.69
415.574	921.97
415.951	918.8
416.328	949.54
416.705	907.96
417.082	942.31
417.46	930.1
417.837	965.36
418.214	959.48
418.591	978.69
418.967	979.14
419.344	1008.74
419.721	991.57
420.098	1003.77
420.475	1019.14
420.852	1047.61
421.228	1024.11
421.605	1032.02
421.982	1048.29
422.358	1046.48
422.735	1078.35
423.111	1076.31
423.488	1075.18
423.864	1093.26
424.241	1114.5
424.617	1111.79
424.994	1121.74
425.37	1135.3
425.746	1157.44
426.123	1149.31
426.499	1152.02
426.875	1160.38
427.251	1186.14
427.627	1222.52
428.003	1229.08
428.379	1226.82
428.756	1251.9
429.132	1271.79
429.507	1300.71
429.883	1295.97
430.259	1305.91
430.635	1322.18
431.011	1322.18
431.387	1384.78
431.763	1392.24
432.138	1389.3
432.514	1419.81
432.89	1427.72
433.265	1446.25
433.641	1467.94
434.016	1495.51
434.392	1528.96
434.767	1519.01
435.143	1519.69
435.518	1528.28
435.894	1577.77
436.269	1561.5
436.644	1599.46
437.02	1628.39
437.395	1623.64
437.77	1644.43
438.145	1670.2
438.52	1675.62
438.895	1699.12
439.271	1689.86
439.646	1711.33
440.021	1750.42
440.395	1749.74
440.77	1715.39
441.145	1775.96
441.52	1797.88
441.895	1799.91
442.27	1824.99
442.645	1815.5
443.019	1835.84
443.394	1863.64
443.769	1859.57
444.143	1839.01
444.518	1899.34
444.892	1889.85
445.267	1901.83
445.641	1892.11
446.016	1926.01
446.39	1942.28
446.764	1931.21
447.139	1922.17
447.513	1971.66
447.887	2000.36
448.262	1995.16
448.636	2010.53
449.01	2020.7
449.384	2052.11
449.758	2064.76
450.132	2085.33
450.506	2091.43
450.88	2111.09
451.254	2096.4
451.628	2123.97
452.002	2168.71
452.376	2173.91
452.75	2224.53
453.123	2259.79
453.497	2228.6
453.871	2277.86
454.244	2287.36
454.618	2306.56
454.992	2358.99
455.365	2341.36
455.739	2410.29
456.112	2435.6
456.486	2457.07
456.859	2492.55
457.232	2506.56
457.606	2576.61
457.979	2580.23
458.352	2616.39
458.725	2655.26
459.099	2660
459.472	2677.18
459.845	2743.84
460.218	2771.64
460.591	2808.7
460.964	2849.37
461.337	2870.62
461.71	2938.64
462.083	2946.77
462.456	2985.19
462.829	2966.89
463.201	3073.1
463.574	3032.42
463.947	3086.2
464.32	3143.15
464.692	3125.75
465.065	3183.6
465.438	3235.58
465.81	3264.73
466.183	3282.13
466.555	3292.07
466.928	3383.37
467.3	3354.22
467.672	3436.48
468.045	3476.48
468.417	3536.59
468.789	3511.28
469.161	3527.77
469.534	3573.2
469.906	3683.7
470.278	3693.65
470.65	3699.52
471.022	3821.55
471.394	3827.88
471.766	3873.53
472.138	3959.18
472.51	3978.61
472.882	4070.59
473.253	4138.38
473.625	4165.5
473.997	4237.81
474.369	4253.86
474.74	4330.69
475.112	4381.09
475.484	4433.06
475.855	4523
476.227	4576.11
476.598	4674.41
476.97	4728.19
477.341	4838.93
477.713	4880.28
478.084	4934.74
478.455	5027.62
478.827	5118.69
479.198	5227.39
479.569	5236.43
479.94	5358.46
480.311	5389.87
480.682	5544.44
481.053	5705.57
481.424	5790.31
481.795	5798.9
482.166	5900.37
482.537	5966.58
482.908	6076.41
483.279	6166.58
483.65	6324.99
484.021	6408.6
484.391	6478.66
484.762	6559.33
485.133	6586
485.503	6694.7
485.874	6863.28
486.244	6944.41
486.615	7108.7
486.985	7159.32
487.356	7281.8
487.726	7385.07
488.097	7503.72
488.467	7587.33
488.837	7769.02
489.207	7783.71
489.578	7967.21
489.948	8062.57
490.318	8151.61
490.688	8164.26
491.058	8316.58
491.428	8472.5
491.798	8499.62
492.168	8639.73
492.538	8761.08
492.908	8858.26
493.278	8935.54
493.648	8990.46
494.017	9181.41
494.387	9220.05
494.757	9279.26
495.126	9408.07
495.496	9408.3
495.866	9561.51
496.235	9572.14
496.605	9704.11
496.974	9815.97
497.344	9908.62
497.713	9992.69
498.082	9998.11
498.452	10147.04
498.821	10185.9
499.19	10214.38
499.559	10269.97
499.928	10429.06
500.298	10394.71
500.667	10528.72
501.036	10587.02
501.405	10633.12
501.774	10623.18
502.143	10641.03
502.512	10907.02
502.88	10948.37
503.249	10932.33
503.618	11035.83
503.987	11073.79
504.356	11134.13
504.724	11180
505.093	11215.93
505.462	11278.08
505.83	11385.65
506.199	11454.57
506.567	11615.25
506.936	11560.56
507.304	11696.15
507.672	11756.03
508.041	11786.31
508.409	11928.68
508.777	12022.92
509.145	12149.92
509.514	12167.1
509.882	12228.34
510.25	12291.39
510.618	12385.62
510.986	12471.72
511.354	12492.06
511.722	12691.15
512.09	12741.54
512.458	12733.86
512.826	12786.51
513.193	12906.06
513.561	12974.31
513.929	13043.68
514.297	13243
514.664	13297.69
515.032	13349.66
515.4	13461.52
515.767	13529.77
516.135	13477.8
516.502	13573.61
516.869	13814.96
517.237	13925.69
517.604	13824
517.972	14092.02
518.339	14154.61
518.706	14219.92
519.073	14254.72
519.44	14360.26
519.808	14615.17
520.175	14519.35
520.542	14819
520.909	14795.5
521.276	14918.44
521.643	15092.44
522.009	15235.26
522.376	15262.16
522.743	15455.6
523.11	15595.48
523.477	15714.12
523.843	15867.79
524.21	16063.49
524.577	16193.43
524.943	16238.63
525.31	16406.76
525.676	16567.21
526.043	16684.72
526.409	16829.57
526.776	16993.41
527.142	17065.72
527.508	17150.24
527.874	17340.29
528.241	17498.93
528.607	17551.59
528.973	17843.1
529.339	17849.88
529.705	17954.29
530.071	18214.62
530.437	18262.3
530.803	18388.85
531.169	18483.99
531.535	18540.04
531.901	18639.92
532.267	18832.68
532.632	18966.92
532.998	19052.79
533.364	19108.38
533.73	19302.5
534.095	19442.16
534.461	19444.64
534.826	19655.94
535.192	19640.12
535.557	19834.69
535.923	19809.38
536.288	19894.35
536.653	19964.18
537.019	20083.27
537.384	20218.86
537.749	20359.2
538.114	20330.72
538.479	20390.61
538.845	20484.16
539.21	20367.33
539.575	20657.27
539.94	20612.97
540.305	20795.57
540.67	20847.09
541.034	20908.11
541.399	20977.03
541.764	21114.66
542.129	21135.9
542.494	21212.06
542.858	21340.41
543.223	21239.17
543.587	21508.54
543.952	21537.7
544.316	21619.5
544.681	21577.92
545.045	21692.49
545.41	21849.78
545.774	21770.68
546.138	21912.83
546.503	21926.61
546.867	21999.61
547.231	22241.18
547.595	22246.6
547.959	22343.78
548.324	22335.87
548.688	22370.44
549.052	22502.87
549.416	22466.49
549.779	22552.13
550.143	22634.39
550.507	22796.65
550.871	22900.82
551.235	22848.4
551.599	23113.93
551.962	23079.35
552.326	23215.39
552.689	23286.35
553.053	23154.83
553.417	23377.2
553.78	23736.06
554.143	23652.9
554.507	23855.15
554.87	23842.27
555.234	23996.39
555.597	23981.7
555.96	24172.2
556.323	24323.61
556.686	24357.28
557.05	24505.98
557.413	24480.67
557.776	24700.33
558.139	24879.76
558.502	24912.97
558.865	25029.58
559.228	25253.3
559.59	25234.1
559.953	25256.24
560.316	25691.94
560.679	25707.53
561.041	25953.63
561.404	26083.79
561.767	26214.86
562.129	26265.03
562.492	26568.07
562.854	26571.01
563.217	26689.88
563.579	26797.9
563.941	27126.48
564.304	27234.04
564.666	27537.31
565.028	27597.2
565.39	27710.64
565.753	28014.14
566.115	28016.85
566.477	28372.77
566.839	28609.6
567.201	28806.21
567.563	28843.27
567.925	29170.49
568.287	29302.01
568.648	29526.19
569.01	29674.21
569.372	30087.3
569.734	30016.57
570.095	30345.83
570.457	30730.22
570.819	30654.97
571.18	30827.17
571.542	31110.33
571.903	31327.04
572.265	31473.48
572.626	31751.89
572.987	31870.53
573.349	32134.93
573.71	32229.62
574.071	32479.33
574.432	32875.48
574.794	33079.54
575.155	33117.05
575.516	33146.66
575.877	33379.42
576.238	33361.79
576.599	33653.31
576.96	33785.96
577.32	33910.7
577.681	34149.12
578.042	34472.27
578.403	34381.2
578.763	34491.48
579.124	34579.84
579.485	34909.77
579.845	35009.66
580.206	35050.79
580.566	35229.54
580.927	35305.47
581.287	35389.54
581.648	35470.66
582.008	35659.13
582.368	35777.32
582.728	35803.54
583.089	35897.77
583.449	35849.41
583.809	35975.28
584.169	36048.95
584.529	36204.2
584.889	36475.16
585.249	36382.05
585.609	36335.73
585.969	36639.67
586.329	36329.85
586.688	36667.24
587.048	36856.39
587.408	36838.09
587.768	36901.81
588.127	37010.51
588.487	37114.24
588.846	37525.98
589.206	37235.36
589.565	37397.17
589.925	37823.37
590.284	37656.82
590.643	37686.42
591.003	37983.14
591.362	38281.66
591.721	38328.44
592.08	38418.61
592.44	38629.9
592.799	38644.37
593.158	38767.3
593.517	38821.08
593.876	39147.85
594.235	39105.14
594.593	39186.05
594.952	39445.47
595.311	39561.63
595.67	39650.44
596.029	40037.77
596.387	40130.88
596.746	40287.71
597.104	40174.49
597.463	40318.9
597.822	40693.12
598.18	40499.91
598.538	40625.33
598.897	41066.67
599.255	40797.75
599.613	41428.25
599.972	41398.87
600.33	41400.22
600.688	41552.31
601.046	41590.05
601.404	41984.84
601.762	41984.84
602.12	42221.45
602.478	42286.08
602.836	42437.49
603.194	42253.76
603.552	42597.93
603.91	42682.9
604.268	42744.82
604.625	43000.41
604.983	43182.33
605.341	43064.59
605.698	43377.8
606.056	43642.2
606.413	43596.55
606.771	43852.59
607.128	43871.35
607.485	43769.43
607.843	43899.37
608.2	44216.2
608.557	44262.97
608.914	44252.35
609.272	44425.68
609.629	44632.91
609.986	44887.36
610.343	44862.28
610.7	45106.79
611.057	45117.64
611.414	45128.26
611.771	45384.53
612.127	45479.21
612.484	45434.92
612.841	45732.54
613.198	45533.45
613.554	45681.02
613.911	45884.17
614.267	46045.3
614.624	45994.91
614.98	46084.17
615.337	46310.83
615.693	46169.82
616.05	46208.01
616.406	46688.45
616.762	46321.45
617.118	46560.32
617.475	46460.88
617.831	46742.23
618.187	46817.26
618.543	46768.22
618.899	47134.76
619.255	46933.64
619.611	46921.89
619.967	47124.14
620.323	47200.75
620.678	47222.67
621.034	47168.89
621.39	47338.6
621.746	47179.06
622.101	47699.72
622.457	47189
622.812	47542.89
623.168	47520.74
623.523	47540.4
623.879	47730.68
624.234	47497.69
624.589	47565.03
624.945	47594.41
625.3	47716.44
625.655	47864.91
626.01	47752.6
626.365	47756.89
626.72	47686.16
627.075	47694.75
627.43	47592.83
627.785	47660.4
628.14	47689.1
628.495	47740.4
628.85	47783.56
629.205	47632.15
629.559	47812.71
629.914	47693.39
630.269	47728.87
630.623	47517.8
630.978	47541.31
631.332	47610.23
631.687	47616.11
632.041	47377.69
632.396	47506.73
632.75	47513.06
633.104	47577.01
633.459	47290.69
633.813	47239.39
634.167	47325.49
634.521	47367.98
634.875	47195.1
635.229	47108.32
635.583	46941.1
635.937	46855.9
636.291	46983.36
636.645	46950.36
636.999	46805.51
637.352	46910.36
637.706	46666.98
638.06	46922.57
638.413	46632.18
638.767	46549.47
639.121	46690.93
639.474	46512.86
639.828	46345.41
640.181	46395.12
640.534	46354.9
640.888	46164.62
641.241	46080.55
641.594	46148.57
641.947	46246.65
642.301	46194.45
642.654	46208.01
643.007	46137.28
643.36	46288.23
643.713	46002.59
644.066	46088.01
644.419	45914.46
644.771	45544.3
645.124	45096.85
645.477	45064.99
645.83	44894.6
646.182	44930.53
646.535	44895.05
646.888	44908.38
647.24	44822.73
647.593	45057.08
647.945	44788.16
648.298	44665.68
648.65	44420.48
649.002	44277.21
649.355	44247.61
649.707	44114.28
650.059	44101.4
650.411	44586.13
650.763	44834.48
651.115	45534.35
651.467	45312.89
651.819	45307.24
652.171	45300.91
652.523	45126
652.875	45224.53
653.227	44964.88
653.578	45334.58
653.93	45266.11
654.282	45049.62
654.633	44921.49
654.985	45096.4
655.337	44986.57
655.688	45041.49
656.039	45105.44
656.391	44615.51
656.742	44977.98
657.094	44854.37
657.445	44917.87
657.796	44955.61
658.147	44781.61
658.498	44880.36
658.849	44970.75
659.2	44840.81
659.551	44857.99
659.902	45063.86
660.253	44939.11
660.604	45011.2
660.955	44828.84
661.306	44944.54
661.656	44853.02
662.007	44985.67
662.358	45002.16
662.708	45064.31
663.059	44924.2
663.409	44798.1
663.76	45057.3
664.11	45007.59
664.461	45010.98
664.811	45103.63
665.161	45007.14
665.511	44813.92
665.862	44941.15
666.212	44947.02
666.562	45069.28
666.912	44998.55
667.262	44939.57
667.612	44845.78
667.962	45011.88
668.312	44920.81
668.662	45139.11
669.011	44971.88
669.361	44875.61
669.711	45008.04
670.06	44958.1
670.41	44864.09
670.76	44672.68
671.109	44926.46
671.459	44865.9
671.808	44864.54
672.157	44709.74
672.507	44589.29
672.856	44668.61
673.205	44683.53
673.554	44803.98
673.904	44627.94
674.253	44917.65
674.602	44626.13
674.951	44044.22
675.3	43883.78
675.649	44651.21
675.998	44614.6
676.346	44547.03
676.695	44702.74
677.044	44379.36
677.393	44488.28
677.741	44527.83
678.09	44396.3
678.438	44336.87
678.787	44429.07
679.135	44293.48
679.484	44080.83
679.832	44030.21
680.181	44123.54
680.529	44165.8
680.877	43813.04
681.225	43844.68
681.573	44298.91
681.922	43868.18
682.27	43792.03
682.618	43723.33
682.966	43615.76
683.314	43682.65
683.661	43502.54
684.009	43472.03
684.357	43323.56
684.705	43269.55
685.053	43218.26
685.4	43133.29
685.748	43030.01
686.095	42967.42
686.443	42790.92
686.79	42630.02
687.138	42782.34
687.485	42802.67
687.832	42522.23
688.18	42572.4
688.527	42269.81
688.874	42360.43
689.221	42255.34
689.568	41963.6
689.915	41885.18
690.262	41829.14
690.609	41709.37
690.956	41728.58
691.303	41754.11
691.65	41329.94
691.997	41437.74
692.344	41102.38
692.69	41220.79
693.037	41232.32
693.383	40815.61
693.73	41037.07
694.077	40661.71
694.423	40654.26
694.769	40540.13
695.116	40499.68
695.462	40243.65
695.808	40101.73
696.155	40131.33
696.501	39790.55
696.847	39813.83
697.193	39419.71
697.539	39666.49
697.885	39246.84
698.231	39158.48
698.577	39115.99
698.923	39104.01
699.269	38750.35
699.614	38777.47
699.96	38511.04
700.306	38529.34
700.651	38343.13
700.997	38287.54
701.342	38064.72
701.688	37942.24
702.033	37907.21
702.379	37776.37
702.724	37563.04
703.069	37664.28
703.415	37287.11
703.76	37170.51
704.105	37289.6
704.45	37047.12
704.795	37021.58
705.14	36642.84
705.485	36785.21
705.83	36527.81
706.175	36745.21
706.52	36425.21
706.865	36258.89
707.209	36149.52
707.554	36038.78
707.899	36083.53
708.243	35814.16
708.588	35826.13
708.932	35625.24
709.277	35687.61
709.621	35489.87
709.966	35257.34
710.31	35433.15
710.654	35187.51
710.998	35148.19
711.342	35082.2
711.687	35009.66
712.031	35004.69
712.375	34707.52
712.719	34780.96
713.063	34627.52
713.407	34891.02
713.75	34804.69
714.094	34537.13
714.438	34455.55
714.782	34475.44
715.125	34340.75
715.469	34495.32
715.812	34137.82
716.156	34087.87
716.499	34186.18
716.843	34208.78
717.186	33995.9
717.53	34231.83
717.873	34084.94
718.216	33844.49
718.559	33754.32
718.902	33500.32
719.246	33567.66
719.589	33588
719.932	33455.35
720.275	33529.02
720.617	33522.92
720.96	33403.83
721.303	33402.7
721.646	33415.12
721.989	33286.54
722.331	33399.08
722.674	33226.43
723.016	33283.15
723.359	33076.6
723.701	33188.92
724.044	33002.93
724.386	32870.05
724.729	33081.8
725.071	33028.69
725.413	32981.24
725.755	32922.03
726.097	32776.72
726.439	32731.07
726.782	32634.81
727.124	32952.31
727.465	32672.77
727.807	32709.38
728.149	32668.93
728.491	32727.68
728.833	32661.02
729.175	32524.53
729.516	32557.97
729.858	32546.9
730.199	32704.41
730.541	32528.59
730.882	32518.2
731.224	32630.96
731.565	32500.35
731.906	32529.27
732.248	32505.77
732.589	32164.99
732.93	32371.08
733.271	32356.85
733.612	32428.26
733.953	32593.68
734.294	32354.14
734.635	32285.89
734.976	32452.44
735.317	32216.06
735.658	32215.61
735.999	32191.43
736.339	32309.62
736.68	32369.05
737.021	32457.64
737.361	32214.03
737.702	32555.94
738.042	32285.66
738.383	32375.83
738.723	32575.15
739.063	32275.49
739.404	32544.41
739.744	32408.15
740.084	32369.73
740.424	32485.43
740.764	32459.44
741.104	32667.35
741.444	32470.29
741.784	32359.33
742.124	32413.12
742.464	32513.23
742.804	32516.39
743.143	32440.46
743.483	32675.93
743.823	32576.28
744.162	32605.88
744.502	32625.09
744.841	32618.08
745.181	32904.18
745.52	32627.57
745.86	32776.95
746.199	32716.61
746.538	32750.06
746.877	33007.45
747.216	33000.45
747.556	32952.09
747.895	33104.4
748.234	33056.49
748.573	32962.48
748.911	33093.55
749.25	32984.63
749.589	33004.51
749.928	33219.42
750.267	33248.57
750.605	33113.89
750.944	33318.4
751.283	33324.05
751.621	33428.23
751.96	33307.33
752.298	33427.1
752.636	33639.75
752.975	33553.2
753.313	33470.49
753.651	33763.59
753.989	33594.1
754.327	33660.09
754.666	33539.87
755.004	33679.07
755.342	33719.52
755.679	33802.91
756.017	33647.43
756.355	33890.59
756.693	33888.78
757.031	33938.5
757.368	33790.03
757.706	33816.47
758.044	33917.71
758.381	33868.9
758.719	33863.93
759.056	34025.05
759.394	33844.72
759.731	33740.09
760.068	33776.7
760.405	33830.93
760.743	33589.58
761.08	33800.65
761.417	33698.73
761.754	33742.57
762.091	33667.32
762.428	33671.39
762.765	33426.65
763.102	33568.79
763.438	33541.67
763.775	33326.76
764.112	33505.97
764.449	33486.08
764.785	33530.6
765.122	33325.18
765.458	33291.74
765.795	33155.47
766.131	33305.3
766.467	33131.97
766.804	32988.69
767.14	32804.07
767.476	32824.18
767.812	32873.44
768.148	32921.13
768.485	32817.63
768.821	32527.69
769.157	32598.65
769.492	32407.24
769.828	32511.87
770.164	32260.35
770.5	32160.92
770.836	32126.12
771.171	32180.35
771.507	31809.74
771.842	31840.93
772.178	31831.44
772.513	31739.24
772.849	31569.75
773.184	31660.14
773.519	31573.82
773.855	31354.84
774.19	31330.66
774.525	31126.82
774.86	31231.23
775.195	30969.09
775.53	30957.79
775.865	30720.73
776.2	30611.13
776.535	30422.89
776.87	30386.05
777.205	30263.57
777.539	30158.94
777.874	30108.09
778.209	29965.5
778.543	30006.85
778.878	29836.91
779.212	29822
779.547	29613.64
779.881	29762.79
780.215	29313.09
780.55	29465.4
780.884	29158.51
781.218	29211.62
781.552	29210.94
781.886	29073.54
782.22	28797.62
782.554	28701.58
782.888	28535.7
783.222	28545.87
783.556	28319.66
783.889	28323.05
784.223	28154.92
784.557	28085.55
784.89	28222.94
785.224	27950.41
785.557	27694.37
785.891	27802.39
786.224	27732.56
786.558	27681.26
786.891	27468.61
787.224	27277.43
787.557	27248.51
787.891	27179.81
788.224	27080.83
788.557	27020.04
788.89	27067.72
789.223	26995.86
789.556	26730.1
789.888	26684
790.221	26636.09
790.554	26430
790.887	26438.58
791.219	26230.45
791.552	26221.64
791.884	26089.22
792.217	26026.17
792.549	26047.41
792.882	25860.75
793.214	25759.96
793.546	25679.73
793.879	25545.5
794.211	25441.32
794.543	25536.91
794.875	25429.12
795.207	25311.38
795.539	25295.11
795.871	25213.08
796.203	25149.58
796.535	24925.86
796.867	24961.79
797.198	24803.37
797.53	24934.44
797.862	24518.63
798.193	24634.79
798.525	24504.85
798.856	24674.56
799.188	24220.34
799.519	24177.85
799.85	24066.9
800.182	24011.3
800.513	24088.36
800.844	23943.06
801.175	23976.95
801.506	23988.48
801.837	23891.76
802.168	23759.11
802.499	23762.72
802.83	23578.09
803.161	23546.91
803.491	23531.99
803.822	23528.83
804.153	23369.29
804.483	23224.21
804.814	23118.9
805.145	23118.22
805.475	23111.21
805.805	22986.25
806.136	23010.43
806.466	22839.13
806.796	22848.85
807.126	22782.86
807.457	22679.81
807.787	22685.01
808.117	22558.01
808.447	22542.19
808.777	22609.98
809.107	22394.62
809.436	22336.55
809.766	22246.83
810.096	22405.7
810.426	22127.06
810.755	22237.79
811.085	22050.9
811.414	22096.55
811.744	21979.04
812.073	22027.85
812.403	21953.05
812.732	21862.89
813.061	21843.68
813.39	21653.85
813.719	21624.7
814.049	21634.64
814.378	21570.69
814.707	21470.81
815.036	21477.13
815.365	21445.95
815.693	21369.57
816.022	21307.42
816.351	21254.77
816.68	21092.74
817.008	21152.62
817.337	20955.56
817.665	20986.3
817.994	20970.25
818.322	20991.95
818.651	20862.01
818.979	20835.79
819.307	20913.76
819.636	20798.73
819.964	20721.22
820.292	20865.17
820.62	20809.35
820.948	20737.49
821.276	20841.67
821.604	20692.29
821.932	20828.56
822.259	20750.82
822.587	20733.88
822.915	20643.03
823.243	20790.15
823.57	20504.28
823.898	20741.33
824.225	20617.49
824.553	20610.04
824.88	20649.58
825.207	20703.82
825.535	20626.53
825.862	20807.09
826.189	20664.95
826.516	20746.53
826.843	20810.26
827.17	20823.14
827.497	20650.94
827.824	20665.85
828.151	20789.92
828.478	20708.57
828.805	20853.19
829.131	20807.32
829.458	20757.38
829.785	20618.62
830.111	20661.79
830.438	20743.82
830.764	20753.76
831.09	20775.23
831.417	20633.09
831.743	20803.03
832.069	20756.93
832.395	20696.81
832.722	20694.33
833.048	20688.45
833.374	20696.36
833.7	20664.95
834.026	20650.26
834.351	20504.28
834.677	20644.61
835.003	20593.54
835.329	20502.7
835.654	20438.97
835.98	20385.64
836.306	20604.39
836.631	20510.15
836.956	20458.18
837.282	20521.9
837.607	20406.2
837.932	20375.02
838.258	20330.27
838.583	20455.92
838.908	20246.66
839.233	20292.98
839.558	20209.6
839.883	20193.55
840.208	20075.14
840.533	20172.08
840.858	20196.49
841.182	20085.53
841.507	20102.93
841.832	19990.84
842.156	20038.07
842.481	19909.26
842.805	19799.66
843.13	19830.85
843.454	19852.54
843.778	19711.76
844.103	19644.86
844.427	19608.26
844.751	19574.13
845.075	19613.91
845.399	19581.36
845.723	19419.56
846.047	19436.73
846.371	19310.86
846.695	19250.98
847.019	19278.32
847.343	19083.75
847.666	18996.52
847.99	18901.38
848.313	18726.24
848.637	18890.31
848.96	18723.08
849.284	18701.84
849.607	18586.36
849.931	18554.5
850.254	18452.13
850.577	18366.25
850.9	18232.47
851.223	18086.04
851.546	18007.85
851.869	17988.41
852.192	18071.57
852.515	18024.12
852.838	17779.83
853.161	17837.68
853.483	17629.55
853.806	17681.3
854.129	17592.94
854.451	17599.27
854.774	17460.74
855.096	17420.97
855.419	17467.97
855.741	17418.26
856.063	17247.64
856.385	17163.8
856.708	17072.73
857.03	17133.97
857.352	17028.89
857.674	17054.42
857.996	17070.92
858.318	16901.21
858.64	16915.67
858.961	16753.42
859.283	16696.47
859.605	16649.01
859.926	16751.83
860.248	16659.18
860.57	16545.96
860.891	16560.43
861.212	16410.6
861.534	16501.22
861.855	16412.63
862.176	16380.32
862.498	16364.5
862.819	16356.59
863.14	16262.35
863.461	16270.72
863.782	16241.56
864.103	16185.97
864.424	16099.2
864.745	16116.37
865.065	15991.18
865.386	16049.48
865.707	16030.72
866.027	16004.28
866.348	15898.75
866.668	15916.83
866.989	15941.01
867.309	15723.61
867.63	15864.4
867.95	15894.45
868.27	15732.43
868.59	15834.57
868.91	15751.86
869.23	15758.19
869.55	15640
869.87	15697.62
870.19	15591.41
870.51	15645.42
870.83	15590.73
871.15	15507.35
871.469	15503.96
871.789	15468.93
872.109	15507.35
872.428	15485.65
872.748	15491.75
873.067	15429.16
873.386	15430.74
873.706	15322.49
874.025	15247.47
874.344	15184.42
874.663	15306.67
874.982	15242.95
875.301	15166.79
875.62	15140.35
875.939	15104.42
876.258	15144.87
876.577	15019.9
876.896	15022.39
877.214	14984.87
877.533	15102.39
877.852	15033.91
878.17	15067.13
878.489	15016.96
878.807	14906.91
879.125	14941.49
879.444	14942.16
879.762	14889.28
880.08	14754.82
880.398	14799.79
880.716	14759.12
881.034	14776.52
881.352	14741.26
881.67	14676.63
881.988	14685.22
882.306	14679.35
882.624	14590.31
882.941	14558.9
883.259	14476.64
883.577	14487.94
883.894	14431.89
884.212	14440.71
884.529	14428.28
884.846	14334.72
885.164	14356.19
885.481	14336.3
885.798	14360.71
886.115	14238.68
886.432	14246.59
886.75	14230.54
887.067	14160.49
887.383	14143.31
887.7	14085.91
888.017	13951.68
888.334	14115.97
888.651	14028.29
888.967	14016.76
889.284	13956.2
889.6	13839.59
889.917	13874.17
890.233	13793.27
890.55	13781.52
890.866	13763.66
891.182	13735.42
891.498	13714.85
891.815	13598.7
892.131	13600.5
892.447	13596.21
892.763	13537
893.079	13520.96
893.395	13488.19
893.71	13482.54
894.026	13431.92
894.342	13433.95
894.657	13215.88
894.973	13326.61
895.289	13207.52
895.604	13174.98
895.92	13075.32
896.235	13080.52
896.55	13050.69
896.865	13008.2
897.181	12926.4
897.496	12870.35
897.811	12878.94
898.126	12787.42
898.441	12770.02
898.756	12808.66
899.071	12659.29
899.386	12693.64
899.7	12656.12
900.015	12560.08
900.33	12490.48
900.644	12528.22
900.959	12478.27
901.273	12370.25
901.588	12329.12
901.902	12256.36
902.216	12189.02
902.531	12216.81
902.845	12175
903.159	12060.66
903.473	12139.75
903.787	12017.04
904.101	11934.56
904.415	12078.74
904.729	11855.47
905.042	11810.04
905.356	11852.75
905.67	11829.48
905.984	11724.17
906.297	11690.95
906.611	11578.18
906.924	11579.54
907.237	11584.96
907.551	11502.03
907.864	11443.72
908.177	11450.5
908.491	11426.78
908.804	11378.19
909.117	11323.5
909.43	11194.47
909.743	11153.56
910.056	11169.83
910.368	11156.5
910.681	11033.11
910.994	11019.78
911.307	10993.11
911.619	10931.42
911.932	10887.13
912.244	10860.24
912.557	10841.48
912.869	10768.94
913.181	10659.56
913.494	10609.85
913.806	10587.7
914.118	10504.77
914.43	10547.7
914.742	10504.31
915.054	10421.15
915.366	10330.76
915.678	10359.01
915.99	10306.13
916.302	10223.87
916.613	10227.94
916.925	10156.98
917.236	10200.37
917.548	10100.71
917.859	10023.2
918.171	10052.8
918.482	9948.62
918.794	10026.59
919.105	9935.52
919.416	9763.32
919.727	9862.07
920.038	9778.23
920.349	9691.23
920.66	9639.48
920.971	9692.13
921.282	9618.46
921.593	9517.22
921.903	9425.25
922.214	9507.5
922.525	9457.11
922.835	9406.49
923.146	9288.53
923.456	9301.86
923.767	9269.77
924.077	9244.91
924.387	9185.48
924.697	9139.6
925.008	9124.46
925.318	9128.98
925.628	9011.47
925.938	9124.92
926.248	8906.84
926.558	8909.55
926.867	8825.04
927.177	8839.27
927.487	8795.88
927.796	8767.41
928.106	8749.11
928.416	8642.67
928.725	8627.3
929.034	8625.04
929.344	8685.38
929.653	8616
929.962	8513.41
930.271	8469.11
930.581	8527.87
930.89	8441.54
931.199	8374.2
931.508	8350.02
931.817	8307.31
932.125	8326.52
932.434	8181.21
932.743	8125.39
933.051	8188.89
933.36	8115.68
933.669	8112.51
933.977	8025.28
934.286	8068.67
934.594	8013.53
934.902	7959.3
935.21	7909.81
935.519	7854.67
935.827	7807.89
936.135	7817.83
936.443	7797.72
936.751	7718.17
937.059	7680.43
937.367	7604.28
937.674	7633.2
937.982	7621.9
938.29	7639.76
938.597	7568.12
938.905	7479.31
939.213	7481.12
939.52	7453.09
939.827	7400.67
940.135	7380.55
940.442	7364.96
940.749	7324.51
941.056	7297.39
941.363	7256.72
941.67	7227.79
941.977	7158.41
942.284	7147.57
942.591	7181.24
942.898	7087.45
943.205	7070.05
943.511	7064.86
943.818	7004.07
944.125	6934.92
944.431	6893.79
944.738	6915.71
945.044	6850.62
945.35	6846.78
945.657	6774.69
945.963	6745.09
946.269	6750.29
946.575	6762.27
946.881	6722.72
947.187	6740.12
947.493	6637.3
947.799	6641.14
948.105	6638.2
948.41	6518.2
948.716	6554.59
949.022	6457.87
949.327	6479.79
949.633	6389.85
949.938	6402.73
950.244	6412.22
950.549	6341.71
950.854	6283.63
951.16	6314.14
951.465	6248.61
951.77	6238.66
952.075	6202.28
952.38	6157.54
952.685	6155.5
952.99	6140.59
953.294	6096.29
953.599	6107.14
953.904	6084.09
954.209	5995.51
954.513	6014.94
954.818	5989.18
955.122	5957.54
955.426	5956.19
955.731	5900.82
956.035	5863.76
956.339	5878
956.643	5783.31
956.948	5816.53
957.252	5736.53
957.556	5746.47
957.86	5676.64
958.163	5727.72
958.467	5683.2
958.771	5626.25
959.075	5653.37
959.378	5551.9
959.682	5599.58
959.985	5520.04
960.289	5458.35
960.592	5485.46
960.896	5456.54
961.199	5469.19
961.502	5454.28
961.805	5438.01
962.108	5364.34
962.411	5378.57
962.714	5349.2
963.017	5335.86
963.32	5330.44
963.623	5301.29
963.926	5269.42
964.228	5217.67
964.531	5205.47
964.833	5170.22
965.136	5166.83
965.438	5106.04
965.741	5069.43
966.043	5073.04
966.345	5037.57
966.648	5020.84
966.95	5067.4
967.252	4972.71
967.554	4976.32
967.856	4997.79
968.158	4921.86
968.46	4951.69
968.761	4856.33
969.063	4852.94
969.365	4839.38
969.666	4796.22
969.968	4782.43
970.269	4785.82
970.571	4760.96
970.872	4795.09
971.174	4729.78
971.475	4743.11
971.776	4681.19
972.077	4671.93
972.378	4619.05
972.679	4580.4
972.98	4604.36
973.281	4579.05
973.582	4564.13
973.883	4530.69
974.183	4508.54
974.484	4498.37
974.785	4477.81
975.085	4452.95
975.386	4425.15
975.686	4405.04
975.986	4413.17
976.287	4373.63
976.587	4337.02
976.887	4303.35
977.187	4384.02
977.487	4348.32
977.787	4263.35
978.087	4269
978.387	4256.57
978.687	4258.38
978.987	4216.12
979.286	4196.91
979.586	4216.12
979.885	4113.07
980.185	4116.01
980.484	4109.23
980.784	4086.18
981.083	4063.35
981.382	4092.05
981.682	4027.87
981.981	4022.9
982.28	3980.87
982.579	3996.69
982.878	3948.33
983.177	3970.25
983.475	3943.36
983.774	3946.97
984.073	3883.7
984.372	3903.81
984.67	3868.56
984.969	3877.82
985.267	3838.95
985.566	3851.61
985.864	3790.14
986.162	3798.95
986.461	3766.64
986.759	3740.42
987.057	3711.27
987.355	3728.45
987.653	3700.43
987.951	3689.35
988.249	3668.56
988.547	3646.64
988.844	3616.13
989.142	3608
989.44	3594.89
989.737	3586.53
990.035	3568.23
990.332	3519.87
990.63	3528.68
990.927	3543.59
991.224	3518.74
991.521	3471.96
991.819	3478.06
992.116	3441
992.413	3438.51
992.71	3385.86
993.006	3437.16
993.303	3441.22
993.6	3351.28
993.897	3340.66
994.193	3315.35
994.49	3328.46
994.787	3304.5
995.083	3320.1
995.379	3263.6
995.676	3208.91
995.972	3221.79
996.268	3233.54
996.565	3196.71
996.861	3171.4
997.157	3134.34
997.453	3143.6
997.749	3135.92
998.044	3082.59
998.34	3108.58
998.636	3081.46
998.932	3056.15
999.227	3019.54
999.523	3004.4
999.818	2996.94
1000.114	2970.95
1000.409	2945.64
1000.704	2948.81
1001	2988.13
1001.295	2935.93
1001.59	2913.1
1001.885	2908.58
1002.18	2872.42
1002.475	2899.09
1002.77	2829.49
1003.065	2847.79
1003.359	2810.96
1003.654	2853.89
1003.949	2793.78
1004.243	2791.97
1004.538	2762.14
1004.832	2774.35
1005.127	2712.88
1005.421	2702.03
1005.715	2662.49
1006.009	2702.03
1006.304	2673.79
1006.598	2635.59
1006.892	2638.98
1007.186	2591.75
1007.48	2591.53
1007.773	2558.76
1008.067	2580.68
1008.361	2543.62
1008.655	2549.27
1008.948	2495.71
1009.242	2499.33
1009.535	2479.21
1009.829	2450.06
1010.122	2451.42
1010.415	2444.87
1010.708	2458.65
1011.001	2440.57
1011.295	2389.5
1011.588	2400.8
1011.881	2353.34
1012.173	2374.36
1012.466	2318.99
1012.759	2349.95
1013.052	2347.24
1013.344	2300.24
1013.637	2302.5
1013.93	2275.83
1014.222	2294.81
1014.514	2248.71
1014.807	2234.48
1015.099	2245.77
1015.391	2229.96
1015.683	2217.3
1015.976	2161.26
1016.268	2191.99
1016.56	2166.23
1016.851	2140.47
1017.143	2139.56
1017.435	2126.46
1017.727	2086.46
1018.018	2079.9
1018.31	2095.72
1018.602	2064.76
1018.893	2064.08
1019.185	2038.55
1019.476	2018.44
1019.767	2012.33
1020.058	1987.25
1020.35	1965.56
1020.641	1923.97
1020.932	1942.51
1021.223	1971.21
1021.514	1913.35
1021.804	1889.85
1022.095	1892.79
1022.386	1882.85
1022.677	1862.06
1022.967	1881.94
1023.258	1855.73
1023.548	1829.06
1023.839	1844.43
1024.129	1841.04
1024.419	1813.7
1024.709	1759.91
1025	1781.15
1025.29	1745.45
1025.58	1742.96
1025.87	1785
1026.16	1724.43
1026.449	1709.52
1026.739	1710.2
1027.029	1702.74
1027.319	1686.24
1027.608	1671.1
1027.898	1674.26
1028.187	1664.32
1028.477	1605.11
1028.766	1594.27
1029.055	1623.64
1029.344	1623.87
1029.634	1599.01
1029.923	1584.55
1030.212	1555.17
1030.501	1549.52
1030.79	1532.12
1031.078	1516.3
1031.367	1516.53
1031.656	1484.66
1031.945	1502.52
1032.233	1457.32
1032.522	1434.72
1032.81	1475.63
1033.099	1474.04
1033.387	1440.82
1033.675	1452.35
1033.963	1449.19
1034.251	1441.28
1034.54	1422.97
1034.828	1421.39
1035.116	1405.57
1035.403	1359.92
1035.691	1382.29
1035.979	1373.25
1036.267	1333.03
1036.554	1373.03
1036.842	1312.24
1037.129	1331.45
1037.417	1315.63
1037.704	1321.05
1037.992	1302.52
1038.279	1311.79
1038.566	1257.78
1038.853	1257.78
1039.14	1257.78
