Data from 19-2025_FLMS001491_004.txt Node
Date: Thu Apr 19 16:34:47 BST 2018
User: hsy
Spectrometer: FLMS00149
Trigger mode: 0
Integration Time (sec): 1.000000E-2
Scans to average: 10
Electric dark correction enabled: true
Nonlinearity correction enabled: false
Boxcar width: 0
XAxis mode: Wavelengths
Number of Pixels in Spectrum: 2048
>>>>>Begin Spectral Data<<<<<
341.393	-3.5
341.776	-3.5
342.16	-3.5
342.543	-35.37
342.927	-67.91
343.31	-72.65
343.693	-75.82
344.077	-72.43
344.46	-59.32
344.843	-39.89
345.226	-59.77
345.61	-24.75
345.993	10.06
346.376	-6.67
346.759	13.45
347.142	20.68
347.525	39.21
347.908	42.82
348.291	74.91
348.674	102.94
349.057	107.23
349.44	139.32
349.823	137.28
350.206	175.02
350.588	232.42
350.971	213.44
351.354	234.91
351.737	273.33
352.119	287.11
352.502	298.64
352.884	302.48
353.267	319.2
353.65	332.99
354.032	331.86
354.414	329.6
354.797	356.71
355.179	368.01
355.562	355.36
355.944	377.05
356.326	361.91
356.709	365.53
357.091	379.99
357.473	375.24
357.855	376.15
358.238	376.37
358.62	393.1
359.002	392.65
359.384	383.38
359.766	371.63
360.148	392.42
360.53	385.87
360.912	370.05
361.294	368.92
361.676	396.71
362.057	374.57
362.439	379.09
362.821	381.35
363.203	372.53
363.584	377.28
363.966	374.57
364.348	365.08
364.729	353.1
365.111	373.44
365.493	403.72
365.874	367.11
366.256	368.01
366.637	378.18
367.019	362.14
367.4	363.49
367.781	352.65
368.163	372.08
368.544	373.89
368.925	388.8
369.306	345.41
369.688	366.88
370.069	384.06
370.45	367.33
370.831	372.98
371.212	379.54
371.593	375.7
371.974	374.11
372.355	379.09
372.736	379.31
373.117	391.97
373.498	385.64
373.879	379.31
374.26	372.31
374.641	367.79
375.021	373.44
375.402	417.5
375.783	381.35
376.163	414.57
376.544	404.85
376.925	410.27
377.305	385.87
377.686	402.59
378.066	393.77
378.447	405.53
378.827	415.92
379.208	398.75
379.588	414.34
379.968	403.27
380.349	396.03
380.729	433.32
381.109	423.83
381.489	421.8
381.87	414.11
382.25	431.97
382.63	436.71
383.01	431.29
383.39	444.17
383.77	441.46
384.15	439.2
384.53	431.06
384.91	440.1
385.29	448.24
385.67	463.83
386.049	460.44
386.429	453.89
386.809	464.28
387.189	474.68
387.568	455.02
387.948	446.65
388.328	490.72
388.707	464.51
389.087	474.9
389.466	479.65
389.846	478.97
390.225	477.84
390.605	501.12
390.984	487.56
391.363	512.87
391.743	513.77
392.122	498.63
392.501	520.78
392.881	516.94
393.26	524.17
393.639	515.13
394.018	538.4
394.397	533.21
394.776	546.09
395.155	548.12
395.534	518.07
395.913	554.22
396.292	552.19
396.671	546.99
397.05	534.56
397.429	570.95
397.808	556.93
398.186	566.65
398.565	561.91
398.944	576.82
399.323	571.17
399.701	580.89
400.08	574.34
400.458	573.21
400.837	605.75
401.215	571.62
401.594	600.78
401.972	573.66
402.351	626.54
402.729	627.22
403.107	620.21
403.486	595.8
403.864	607.1
404.242	631.28
404.62	608.23
404.999	619.98
405.377	658.63
405.755	652.75
406.133	659.3
406.511	657.04
406.889	710.83
407.267	660.66
407.645	695.01
408.023	686.87
408.401	691.62
408.779	697.95
409.156	713.09
409.534	716.7
409.912	752.41
410.29	745.63
410.667	751.28
411.045	758.96
411.422	761.9
411.8	751.05
412.178	781.11
412.555	788.34
412.933	794.22
413.31	792.86
413.687	806.87
414.065	802.35
414.442	824.27
414.819	832.63
415.197	846.19
415.574	840.54
415.951	853.65
416.328	856.36
416.705	845.29
417.082	852.07
417.46	890.71
417.837	909.47
418.214	893.2
418.591	916.93
418.967	905.85
419.344	928.9
419.721	923.7
420.098	932.97
420.475	926.87
420.852	940.65
421.228	921.22
421.605	939.07
421.982	967.09
422.358	992.4
422.735	975.45
423.111	967.55
423.488	1002.35
423.864	1006.87
424.241	1011.61
424.617	1036.92
424.994	1064.04
425.37	1022.91
425.746	1052.06
426.123	1063.36
426.499	1085.96
426.875	1123.47
427.251	1103.59
427.627	1126.64
428.003	1136.58
428.379	1145.62
428.756	1135.9
429.132	1190.59
429.507	1160.08
429.883	1204.38
430.259	1216.8
430.635	1195.56
431.011	1240.31
431.387	1257.71
431.763	1279.4
432.138	1264.71
432.514	1301.32
432.89	1310.81
433.265	1363.69
433.641	1351.26
434.016	1322.56
434.392	1380.87
434.767	1393.97
435.143	1403.24
435.518	1398.27
435.894	1424.03
436.269	1426.74
436.644	1483.69
437.02	1464.48
437.395	1448.21
437.77	1480.07
438.145	1527.76
438.52	1539.28
438.895	1544.48
439.271	1557.59
439.646	1602.78
440.021	1578.38
440.395	1611.6
440.77	1581.09
441.145	1597.81
441.52	1640.07
441.895	1588.32
442.27	1630.13
442.645	1630.58
443.019	1663.35
443.394	1668.77
443.769	1654.31
444.143	1696.79
444.518	1716.45
444.892	1711.48
445.267	1713.97
445.641	1747.41
446.016	1748.54
446.39	1770.24
446.764	1760.97
447.139	1791.25
447.513	1764.81
447.887	1791.25
448.262	1801.42
448.636	1787.64
449.01	1818.14
449.384	1824.92
449.758	1855.21
450.132	1876
450.506	1870.35
450.88	1908.09
451.254	1929.33
451.628	1948.08
452.002	1973.85
452.376	1957.8
452.75	2006.39
453.123	2010.91
453.497	2018.82
453.871	2032.15
454.244	2083.45
454.618	2122.54
454.992	2111.47
455.365	2170.45
455.739	2183.33
456.112	2175.65
456.486	2212.03
456.859	2254.07
457.232	2252.26
457.606	2275.53
457.979	2330
458.352	2375.42
458.725	2392.82
459.099	2404.34
459.472	2445.92
459.845	2448.64
460.218	2471.01
460.591	2501.97
460.964	2552.59
461.337	2540.84
461.71	2568.41
462.083	2620.38
462.456	2651.34
462.829	2696.54
463.201	2703.77
463.574	2720.95
463.947	2754.84
464.32	2779.93
464.692	2795.29
465.065	2813.6
465.438	2885.01
465.81	2885.91
466.183	2932.69
466.555	2962.75
466.928	3004.78
467.3	3013.37
467.672	3065.57
468.045	3122.29
468.417	3099.24
468.789	3141.05
469.161	3174.94
469.534	3196.87
469.906	3242.74
470.278	3272.57
470.65	3325.68
471.022	3381.72
471.394	3437.76
471.766	3462.39
472.138	3531.09
472.51	3549.4
472.882	3619
473.253	3630.07
473.625	3715.72
473.997	3766.34
474.369	3825.55
474.74	3851.99
475.112	3941.03
475.484	3964.75
475.855	4063.28
476.227	4074.36
476.598	4169.27
476.97	4200.45
477.341	4254.46
477.713	4325.2
478.084	4393.9
478.455	4458.53
478.827	4501.01
479.198	4638.64
479.569	4663.95
479.94	4756.6
480.311	4855.13
480.682	4946.65
481.053	5004.28
481.424	5106.65
481.795	5111.17
482.166	5218.73
482.537	5276.36
482.908	5417.82
483.279	5440.87
483.65	5595.22
484.021	5673.18
484.391	5696.91
484.762	5791.15
485.133	5817.81
485.503	5914.08
485.874	6109.1
486.244	6139.84
486.615	6275.65
486.985	6338.7
487.356	6435.65
487.726	6452.37
488.097	6643.1
488.467	6689.88
488.837	6821.63
489.207	6843.55
489.578	7019.59
489.948	7050.55
490.318	7180.94
490.688	7157.44
491.058	7302.07
491.428	7453.48
491.798	7474.72
492.168	7609.18
492.538	7659.57
492.908	7760.81
493.278	7888.04
493.648	7912.67
494.017	8082.61
494.387	8183.4
494.757	8211.2
495.126	8302.04
495.496	8268.37
495.866	8382.94
496.235	8456.39
496.605	8532.32
496.974	8652.31
497.344	8734.35
497.713	8738.41
498.082	8810.28
498.452	8892.08
498.821	8997.16
499.19	8916.49
499.559	9101.57
499.928	9127.33
500.298	9143.38
500.667	9318.51
501.036	9265.63
501.405	9400.77
501.774	9362.8
502.143	9499.75
502.512	9513.54
502.88	9656.81
503.249	9640.54
503.618	9710.82
503.987	9762.79
504.356	9808.67
504.724	9844.15
505.093	9881.66
505.462	9993.75
505.83	10057.93
506.199	10078.94
506.567	10219.28
506.936	10229.45
507.304	10374.76
507.672	10321.2
508.041	10420.4
508.409	10507.18
508.777	10587.63
509.145	10644.58
509.514	10644.8
509.882	10681.64
510.25	10825.37
510.618	10857.68
510.986	10925.48
511.354	10991.46
511.722	11100.39
512.09	11206.6
512.458	11185.13
512.826	11287.73
513.193	11400.27
513.561	11491.34
513.929	11487.49
514.297	11591.67
514.664	11740.14
515.032	11755.28
515.4	11775.62
515.767	11917.54
516.135	11935.62
516.502	11925
516.869	12173.35
517.237	12250.41
517.604	12240.24
517.972	12428.49
518.339	12573.57
518.706	12584.87
519.073	12590.52
519.44	12681.81
519.808	12826.22
520.175	12874.12
520.542	13013.56
520.909	13037.06
521.276	13115.7
521.643	13391.85
522.009	13430.49
522.376	13492.64
522.743	13601.56
523.11	13763.82
523.477	13851.73
523.843	13978.5
524.21	14165.84
524.577	14249.68
524.943	14359.74
525.31	14419.62
525.676	14644.7
526.043	14777.13
526.409	14855.99
526.776	15099.38
527.142	15085.82
527.508	15151.8
527.874	15276.32
528.241	15490.78
528.607	15484.68
528.973	15613.26
529.339	15743.88
529.705	15945.68
530.071	15993.82
530.437	16116.07
530.803	16194.72
531.169	16366.69
531.535	16288.05
531.901	16489.85
532.267	16623.86
532.632	16667.7
532.998	16839.9
533.364	16954.24
533.73	16943.17
534.095	17187.91
534.461	17048.7
534.826	17359.88
535.192	17387
535.557	17581.12
535.923	17598.75
536.288	17658.63
536.653	17777.72
537.019	17749.7
537.384	17943.37
537.749	17837.61
538.114	18050.49
538.479	18067.43
538.845	18137.26
539.21	18156.7
539.575	18265.4
539.94	18314.89
540.305	18483.92
540.67	18491.15
541.034	18550.13
541.399	18593.3
541.764	18730.47
542.129	18747.42
542.494	18849.56
542.858	18951.71
543.223	18923.01
543.587	19035.77
543.952	19109.67
544.316	19164.58
544.681	19125.71
545.045	19315.99
545.41	19433.05
545.774	19492.03
546.138	19432.37
546.503	19503.33
546.867	19559.15
547.231	19754.4
547.595	19760.27
547.959	19772.93
548.324	19923.88
548.688	19906.03
549.052	19980.6
549.416	19970.44
549.779	20130.21
550.143	20155.06
550.507	20331.1
550.871	20240.94
551.235	20414.94
551.599	20527.26
551.962	20595.28
552.326	20621.94
552.689	20772.67
553.053	20675.73
553.417	20829.17
553.78	21037.75
554.143	21050.41
554.507	21148.03
554.87	21203.17
555.234	21350.96
555.597	21309.84
555.96	21422.15
556.323	21537.4
556.686	21636.61
557.05	21845.87
557.413	21832.53
557.776	21955.92
558.139	22176.93
558.502	22163.82
558.865	22285.85
559.228	22450.82
559.59	22533.08
559.953	22693.98
560.316	22932.62
560.679	22914.54
561.041	23050.58
561.404	23064.37
561.767	23486.95
562.129	23328.54
562.492	23595.88
562.854	23700.51
563.217	23670.23
563.579	23943.21
563.941	24173.94
564.304	24294.16
564.666	24456.65
565.028	24659.35
565.39	24794.26
565.753	24965.78
566.115	25066.12
566.477	25305.44
566.839	25338.88
567.201	25714.47
567.563	25797.63
567.925	25987
568.287	26081.01
568.648	26278.07
569.01	26484.16
569.372	26828.33
569.734	26814.32
570.095	27089.34
570.457	27352.84
570.819	27426.28
571.18	27619.95
571.542	27704.24
571.903	27926.16
572.265	28235.3
572.626	28276.21
572.987	28499.02
573.349	28741.5
573.71	28984.21
574.071	29189.63
574.432	29244.77
574.794	29688.37
575.155	29711.42
575.516	29717.52
575.877	29892.43
576.238	29985.54
576.599	30328.13
576.96	30417.17
577.32	30464.85
577.681	30820.09
578.042	30980.32
578.403	31042.46
578.763	31071.61
579.124	31192.74
579.485	31457.36
579.845	31640.19
580.206	31607.42
580.566	31771.48
580.927	31767.87
581.287	31891.48
581.648	31828.43
582.008	32128.31
582.368	32181.41
582.728	32234.52
583.089	32316.1
583.449	32403.1
583.809	32451.69
584.169	32751.34
584.529	32700.04
584.889	33057.55
585.249	32886.03
585.609	32808.74
585.969	33136.19
586.329	33043.54
586.688	33310.88
587.048	33292.57
587.408	33321.95
587.768	33364.89
588.127	33578.89
588.487	33578.21
588.846	33955.83
589.206	33700.02
589.565	33859.34
589.925	34250.06
590.284	34237.4
590.643	34307.01
591.003	34509.49
591.362	34856.15
591.721	34829.48
592.08	34872.19
592.44	35198.51
592.799	35101.11
593.158	35313.76
593.517	35343.82
593.876	35689.8
594.235	35587.88
594.593	35834.88
594.952	36013.86
595.311	36142.21
595.67	36136.11
596.029	36427.63
596.387	36637.57
596.746	36797.79
597.104	36730.67
597.463	36816.09
597.822	37287.49
598.18	37075.52
598.538	37146.25
598.897	37619.24
599.255	37527.94
599.613	38090.64
599.972	37843.64
600.33	38119.34
600.688	38068.49
601.046	38356.39
601.404	38684.29
601.762	38724.52
602.12	38937.85
602.478	39022.36
602.836	39114.79
603.194	39100.55
603.552	39248.8
603.91	39306.2
604.268	39503.93
604.625	39579.41
604.983	39698.96
605.341	39620.09
605.698	39931.27
606.056	40195.44
606.413	40131.04
606.771	40420.52
607.128	40408.32
607.485	40460.52
607.843	40467.75
608.2	40720.4
608.557	40907.29
608.914	40852.37
609.272	41086.72
609.629	41298.91
609.986	41548.4
610.343	41406.71
610.7	41756.76
611.057	41748.39
611.414	41677.44
611.771	41936.64
612.127	42112.9
612.484	42145.9
612.841	42314.71
613.198	42169.17
613.554	42073.58
613.911	42471.76
614.267	42617.75
614.624	42558.09
614.98	42804.64
615.337	42912.21
615.693	42930.51
616.05	42961.7
616.406	43196.72
616.762	43083.95
617.118	43199.88
617.475	43231.52
617.831	43393.55
618.187	43450.95
618.543	43366.88
618.899	43625.18
619.255	43719.42
619.611	43642.13
619.967	43928.9
620.323	44003.93
620.678	43849.36
621.034	43883.7
621.39	43960.31
621.746	43910.37
622.101	44422
622.457	43919.64
622.812	44084.38
623.168	44203.24
623.523	44146.97
623.879	44355.1
624.234	44265.62
624.589	44364.6
624.945	44415.44
625.3	44424.93
625.655	44411.83
626.01	44461.77
626.365	44638.49
626.72	44465.84
627.075	44250.93
627.43	44366.63
627.785	44361.66
628.14	44465.38
628.495	44365.05
628.85	44448.44
629.205	44459.51
629.559	44654.98
629.914	44347.65
630.269	44300.64
630.623	44211.15
630.978	44053.42
631.332	44394.2
631.687	44527.98
632.041	44334.99
632.396	44312.17
632.75	44193.75
633.104	44274.66
633.459	44031.5
633.813	43990.37
634.167	44079.41
634.521	44120.08
634.875	43984.04
635.229	43899.07
635.583	43710.15
635.937	43793.76
636.291	43744.95
636.645	43737.49
636.999	43624.05
637.352	43670.83
637.706	43434.68
638.06	43611.17
638.413	43354.23
638.767	43283.27
639.121	43342.48
639.474	43189.26
639.828	43125.08
640.181	43070.17
640.534	43197.62
640.888	42994.24
641.241	42904.97
641.594	42968.25
641.947	43045.08
642.301	42867.91
642.654	42917.18
643.007	42819.55
643.36	42851.19
643.713	42763.06
644.066	42799.21
644.419	42569.39
644.771	42134.15
645.124	41842.85
645.477	41776.87
645.83	41716.98
646.182	41618
646.535	41582.97
646.888	41685.8
647.24	41588.85
647.593	41770.99
647.945	41682.63
648.298	41506.82
648.65	41316.99
649.002	40980.28
649.355	41030.9
649.707	40733.51
650.059	40790.23
650.411	41494.39
650.763	41587.49
651.115	42298.89
651.467	42194.94
651.819	41980.25
652.171	41949.74
652.523	41802.4
652.875	41929.18
653.227	41812.35
653.578	41994.72
653.93	41838.11
654.282	41736.19
654.633	41681.05
654.985	41749.52
655.337	41655.74
655.688	41776.87
656.039	41663.2
656.391	41423.66
656.742	41533.26
657.094	41503.88
657.445	41689.64
657.796	41604.89
658.147	41493.71
658.498	41625.23
658.849	41720.37
659.2	41582.07
659.551	41516.54
659.902	41905
660.253	41498.68
660.604	41655.29
660.955	41519.7
661.306	41821.39
661.656	41558.79
662.007	41511.34
662.358	41516.99
662.708	41566.25
663.059	41505.69
663.409	41520.6
663.76	41660.71
664.11	41663.65
664.461	41728.51
664.811	41648.74
665.161	41671.79
665.511	41618.45
665.862	41641.96
666.212	41648.74
666.562	41658.68
666.912	41718.34
667.262	41573.26
667.612	41607.61
667.962	41705.68
668.312	41638.57
668.662	41924.89
669.011	41718.56
669.361	41569.19
669.711	41773.03
670.06	41734.16
670.41	41574.16
670.76	41576.87
671.109	41771.9
671.459	41644.44
671.808	41510.43
672.157	41619.13
672.507	41454.84
672.856	41470.89
673.205	41531.68
673.554	41606.48
673.904	41395.86
674.253	41667.94
674.602	41253.94
674.951	40992.71
675.3	40684.92
675.649	41375.52
675.998	41284.9
676.346	41383.21
676.695	41460.27
677.044	41311.12
677.393	41320.38
677.741	41382.98
678.09	41270.67
678.438	40977.79
678.787	41207.17
679.135	40993.39
679.484	40829.55
679.832	41070.9
680.181	40816.21
680.529	40816.21
680.877	40771.02
681.225	40714.97
681.573	40980.96
681.922	40641.76
682.27	40471.14
682.618	40532.61
682.966	40230.69
683.314	40503.68
683.661	40263.46
684.009	40351.82
684.357	40141.43
684.705	40180.53
685.053	40115.44
685.4	39865.51
685.748	39795.22
686.095	39944.6
686.443	39630.03
686.79	39580.99
687.138	39806.3
687.485	39657.38
687.832	39433.43
688.18	39422.35
688.527	39246.54
688.874	39154.56
689.221	39146.2
689.568	38959.77
689.915	38736.72
690.262	38703.5
690.609	38838.87
690.956	38597.74
691.303	38597.97
691.65	38461.7
691.997	38318.2
692.344	38049.28
692.69	38125.89
693.037	38056.51
693.383	37704.88
693.73	37823.07
694.077	37594.38
694.423	37538.79
694.769	37303.31
695.116	37286.82
695.462	37303.99
695.808	37083.88
696.155	37065.58
696.501	36751.92
696.847	36712.59
697.193	36627.4
697.539	36608.87
697.885	36359.83
698.231	36394.64
698.577	36226.51
698.923	36113.06
699.269	35934.54
699.614	35876.23
699.96	35573.64
700.306	35612.51
700.651	35469.24
700.997	35429.92
701.342	35238.28
701.688	35212.29
702.033	34958.29
702.379	34925.97
702.724	34804.17
703.069	34838.97
703.415	34451.64
703.76	34455.25
704.105	34360.79
704.45	34277.63
704.795	34104.98
705.14	34011.87
705.485	33972.1
705.83	33636.97
706.175	33842.61
706.52	33709.28
706.865	33605.33
707.209	33332.34
707.554	33315.85
707.899	33339.8
708.243	33227.26
708.588	33147.94
708.932	32831.11
709.277	33025.23
709.621	32796.09
709.966	32524.23
710.31	32669.76
710.654	32382.76
710.998	32457.56
711.342	32504.34
711.687	32327.17
712.031	32267.97
712.375	32092.6
712.719	32013.96
713.063	32059.61
713.407	32115.88
713.75	31978.93
714.094	31843.34
714.438	31751.37
714.782	31752.72
715.125	31597.02
715.469	31756.57
715.812	31479.96
716.156	31563.58
716.499	31439.29
716.843	31452.17
717.186	31408.55
717.53	31435.9
717.873	31417.14
718.216	31418.04
718.559	31178.05
718.902	31069.8
719.246	30978.96
719.589	31027.55
719.932	30948.23
720.275	30952.29
720.617	30954.55
720.96	30956.59
721.303	30931.28
721.646	30839.53
721.989	30750.04
722.331	30863.03
722.674	30717.72
723.016	30735.12
723.359	30620.78
723.701	30692.41
724.044	30639.53
724.386	30422.82
724.729	30591.63
725.071	30524.06
725.413	30545.75
725.755	30459.65
726.097	30335.59
726.439	30306.66
726.782	30228.47
727.124	30479.54
727.465	30344.85
727.807	30151.41
728.149	30310.73
728.491	30130.85
728.833	30190.96
729.175	30156.61
729.516	30174.01
729.858	30059.21
730.199	30247
730.541	30154.57
730.882	30082.26
731.224	30131.98
731.565	30033.22
731.906	30122.03
732.248	30175.82
732.589	29873.23
732.93	29955.26
733.271	30037.52
733.612	29959.78
733.953	30163.61
734.294	29929.27
734.635	29968.14
734.976	30193.67
735.317	29975.82
735.658	29899.44
735.999	29859.67
736.339	29907.12
736.68	29912.77
737.021	29992.54
737.361	29856.96
737.702	30138.3
738.042	29984.64
738.383	30046.1
738.723	30125.87
739.063	29949.61
739.404	29985.54
739.744	30021.7
740.084	30033
740.424	29990.96
740.764	29922.26
741.104	30217.17
741.444	30075.03
741.784	29956.39
742.124	30101.92
742.464	30070.73
742.804	30098.53
743.143	30110.73
743.483	30221.01
743.823	30174.91
744.162	30145.76
744.502	30249.49
744.841	30206.55
745.181	30391.86
745.52	30249.26
745.86	30295.81
746.199	30366.77
746.538	30402.03
746.877	30642.25
747.216	30525.41
747.556	30477.96
747.895	30559.08
748.234	30605.64
748.573	30638.4
748.911	30654.45
749.25	30831.39
749.589	30637.27
749.928	30730.6
750.267	30806.53
750.605	30755.01
750.944	30769.02
751.283	30825.74
751.621	31020.31
751.96	30960.88
752.298	30993.87
752.636	31036.13
752.975	30989.13
753.313	31052.4
753.651	31320.87
753.989	31199.52
754.327	31311.38
754.666	31093.76
755.004	31319.29
755.342	31328.33
755.679	31392.28
756.017	31319.29
756.355	31411.94
756.693	31517.93
757.031	31522
757.368	31385.95
757.706	31578.72
758.044	31504.82
758.381	31567.42
758.719	31412.62
759.056	31583.24
759.394	31436.57
759.731	31384.82
760.068	31472.96
760.405	31487.19
760.743	31402.23
761.08	31573.75
761.417	31358.38
761.754	31362.68
762.091	31440.19
762.428	31410.13
762.765	31192.06
763.102	31264.38
763.438	31240.65
763.775	31193.64
764.112	31161.55
764.449	31217.37
764.785	31121.1
765.122	30972.86
765.458	30959.52
765.795	30846.31
766.131	30952.52
766.467	30829.58
766.804	30622.13
767.14	30522.7
767.476	30651.28
767.812	30655.8
768.148	30654.67
768.485	30400.44
768.821	30256.27
769.157	30221.69
769.492	30267.34
769.828	30219.88
770.164	30132.65
770.5	29967.46
770.836	29963.84
771.171	29857.86
771.507	29814.47
771.842	29495.38
772.178	29646.34
772.513	29658.54
772.849	29530.64
773.184	29431.43
773.519	29373.13
773.855	29164.09
774.19	29225.79
774.525	29094.26
774.86	28986.47
775.195	29004.1
775.53	28747.61
775.865	28716.87
776.2	28598.91
776.535	28337.67
776.87	28356.88
777.205	28343.77
777.539	28221.52
777.874	28135.42
778.209	28007.06
778.543	27967.97
778.878	27759.38
779.212	27898.59
779.547	27732.94
779.881	27574.76
780.215	27342.9
780.55	27507.64
780.884	27224.26
781.218	27101.1
781.552	27219.51
781.886	27033.75
782.22	26931.16
782.554	26800.76
782.888	26592.63
783.222	26650.26
783.556	26410.72
783.889	26327.78
784.223	26150.84
784.557	26184.74
784.89	26213.44
785.224	26019.54
785.557	25873.56
785.891	25778.64
786.224	25850.96
786.558	25881.24
786.891	25521.02
787.224	25562.83
787.557	25408.26
787.891	25430.86
788.224	25234.7
788.557	25218.66
788.89	25188.15
789.223	24998.33
789.556	24825.45
789.888	24913.36
790.221	24674.04
790.554	24659.35
790.887	24577.32
791.219	24492.8
791.552	24408.74
791.884	24307.5
792.217	24176.88
792.549	24183.88
792.882	24002.65
793.214	23979.82
793.546	23957.68
793.879	23798.13
794.211	23675.65
794.543	23801.07
794.875	23655.54
795.207	23626.61
795.539	23493.96
795.871	23494.64
796.203	23392.72
796.535	23287.86
796.867	23210.12
797.198	23094.42
797.53	23027.76
797.862	22874.09
798.193	23057.59
798.525	22850.81
798.856	22864.6
799.188	22645.17
799.519	22637.94
799.85	22550.03
800.182	22481.78
800.513	22530.82
800.844	22187.55
801.175	22421.67
801.506	22342.8
801.837	22307.32
802.168	22126.08
802.499	22154.56
802.83	21898.75
803.161	21881.35
803.491	21873.44
803.822	21933.32
804.153	21746.89
804.483	21649.94
804.814	21600.9
805.145	21582.37
805.475	21494.69
805.805	21420.11
806.136	21508.93
806.466	21258.76
806.796	21338.53
807.126	21109.84
807.457	21051.76
807.787	21146.45
808.117	21082.27
808.447	21025.32
808.777	20960.69
809.107	20776.29
809.436	20792.56
809.766	20682.51
810.096	20815.16
810.426	20651.32
810.755	20666.91
811.085	20646.35
811.414	20606.58
811.744	20445.23
812.073	20441.16
812.403	20362.74
812.732	20298.34
813.061	20428.73
813.39	20188.51
813.719	20181.96
814.049	20334.04
814.378	20128.17
814.707	20094.27
815.036	20046.82
815.365	19891.79
815.693	19730.22
816.022	19828.07
816.351	19736.32
816.68	19776.09
817.008	19719.82
817.337	19612.48
817.665	19477.11
817.994	19554.85
818.322	19673.27
818.651	19456.55
818.979	19416.55
819.307	19479.6
819.636	19365.03
819.964	19347.63
820.292	19351.02
820.62	19293.17
820.948	19355.08
821.276	19400.28
821.604	19349.66
821.932	19418.59
822.259	19289.55
822.587	19310.11
822.915	19265.14
823.243	19406.38
823.57	19173.62
823.898	19430.56
824.225	19244.35
824.553	19263.11
824.88	19244.8
825.207	19308.76
825.535	19221.3
825.862	19264.24
826.189	19227.86
826.516	19388.98
826.843	19393.5
827.17	19414.74
827.497	19333.39
827.824	19452.48
828.151	19412.48
828.478	19325.48
828.805	19499.04
829.131	19260.62
829.458	19392.82
829.785	19188.31
830.111	19309.44
830.438	19392.15
830.764	19234.64
831.09	19312.37
831.417	19263.79
831.743	19290.68
832.069	19254.07
832.395	19267.4
832.722	19261.08
833.048	19141.98
833.374	19253.62
833.7	19220.62
834.026	19298.81
834.351	19082.55
834.677	19292.94
835.003	19208.65
835.329	19199.38
835.654	19167.97
835.98	19061.08
836.306	19081.87
836.631	18919.62
836.956	19059.05
837.282	19087.75
837.607	19080.29
837.932	18985.83
838.258	18884.59
838.583	18924.14
838.908	18820.64
839.233	18882.1
839.558	18807.08
839.883	18795.55
840.208	18691.37
840.533	18753.97
840.858	18648.21
841.182	18786.29
841.507	18659.96
841.832	18577.48
842.156	18541.55
842.481	18539.29
842.805	18441.21
843.13	18479.63
843.454	18445.5
843.778	18350.36
844.103	18307.43
844.427	18222.68
844.751	18352.62
845.075	18289.58
845.399	18264.04
845.723	18129.81
846.047	18150.14
846.371	17984.27
846.695	17961.9
847.019	17906.53
847.343	17829.93
847.666	17802.58
847.99	17605.3
848.313	17539.76
848.637	17534.79
848.96	17524.17
849.284	17439.65
849.607	17352.65
849.931	17257.51
850.254	17194.46
850.577	17064.98
850.9	16905.66
851.223	16958.54
851.546	16901.59
851.869	16881.25
852.192	16833.12
852.515	16673.57
852.838	16621.82
853.161	16569.62
853.483	16426.57
853.806	16473.35
854.129	16402.62
854.451	16355.39
854.774	16283.07
855.096	16226.58
855.419	16189.74
855.741	16188.61
856.063	16092.35
856.385	16045.34
856.708	15935.29
857.03	15920.37
857.352	15848.28
857.674	15905.23
857.996	15841.05
858.318	15700.27
858.64	15746.59
858.961	15662.3
859.283	15491.68
859.605	15505.69
859.926	15495.52
860.248	15504.11
860.57	15484.9
860.891	15465.47
861.212	15401.74
861.534	15295.08
861.855	15283.1
862.176	15247.17
862.498	15261.63
862.819	15212.59
863.14	15217.57
863.461	15173.95
863.782	15145.93
864.103	15089.89
864.424	15105.48
864.745	15092.6
865.065	14982.32
865.386	14912.26
865.707	15001.98
866.027	14914.07
866.348	14851.7
866.668	14867.29
866.989	14908.42
867.309	14839.95
867.63	14710.46
867.95	14870.68
868.27	14733.74
868.59	14760.18
868.91	14733.74
869.23	14720.4
869.55	14596.57
869.87	14628.65
870.19	14584.14
870.51	14544.59
870.83	14636.56
871.15	14465.27
871.469	14485.16
871.789	14503.46
872.109	14503.01
872.428	14437.7
872.748	14488.77
873.067	14367.42
873.386	14462.33
873.706	14429.79
874.025	14362.67
874.344	14206.52
874.663	14324.03
874.982	14286.29
875.301	14282
875.62	14223.69
875.939	14094.88
876.258	14185.5
876.577	14001.78
876.896	14173.75
877.214	14066.18
877.533	14083.58
877.852	14091.49
878.17	13994.1
878.489	14035.9
878.807	13959.52
879.125	14013.3
879.444	13914.55
879.762	13841.56
880.08	13877.94
880.398	13828.9
880.716	13856.92
881.034	13828
881.352	13804.27
881.67	13710.71
881.988	13712.07
882.306	13695.35
882.624	13726.98
882.941	13672.07
883.259	13588.46
883.577	13599.53
883.894	13503.94
884.212	13544.84
884.529	13528.12
884.846	13480.66
885.164	13389.59
885.481	13349.37
885.798	13427.33
886.115	13314.57
886.432	13363.38
886.75	13327.45
887.067	13327.22
887.383	13117.96
887.7	13164.29
888.017	13132.88
888.334	13117.51
888.651	13002.26
888.967	13010.84
889.284	12977.62
889.6	13008.36
889.917	12921.36
890.233	12953.44
890.55	12856.05
890.866	12854.24
891.182	12782.15
891.498	12778.31
891.815	12707.12
892.131	12629.39
892.447	12693.11
892.763	12587.58
893.079	12603.85
893.395	12573.57
893.71	12511.2
894.026	12520.24
894.342	12417.19
894.657	12401.37
894.973	12330.41
895.289	12334.48
895.604	12308.94
895.92	12240.02
896.235	12155.73
896.55	12159.34
896.865	12149.17
897.181	12032.79
897.496	12054.26
897.811	11971.78
898.126	11919.57
898.441	11911.44
898.756	11923.87
899.071	11781.72
899.386	11822.63
899.7	11711.9
900.015	11654.95
900.33	11585.8
900.644	11567.49
900.959	11586.02
901.273	11522.3
901.588	11458.12
901.902	11450.43
902.216	11431
902.531	11372.47
902.845	11308.06
903.159	11241.85
903.473	11192.36
903.787	11198.24
904.101	11134.51
904.415	11205.24
904.729	11099.48
905.042	11040.73
905.356	10956.44
905.67	10980.39
905.984	10943.78
906.297	10870.34
906.611	10803.67
906.924	10777.68
907.237	10764.35
907.551	10744.69
907.864	10633.51
908.177	10646.16
908.491	10628.31
908.804	10505.83
909.117	10494.98
909.43	10385.38
909.743	10339.5
910.056	10357.35
910.368	10351.48
910.681	10298.37
910.994	10213.18
911.307	10180.64
911.619	10036.91
911.932	10137.7
912.244	10022.45
912.557	10075.33
912.869	9993.97
913.181	9951.04
913.494	9896.12
913.806	9843.92
914.118	9881.44
914.43	9794.21
914.742	9852.74
915.054	9742.68
915.366	9701.1
915.678	9702.46
915.99	9616.58
916.302	9508.11
916.613	9461.33
916.925	9528.45
917.236	9480.77
917.548	9433.31
917.859	9438.73
918.171	9371.84
918.482	9354.44
918.794	9205.07
919.105	9246.65
919.416	9188.35
919.727	9139.53
920.038	9117.39
920.349	9058.41
920.66	9036.94
920.971	9034.23
921.282	9013.66
921.593	8878.07
921.903	8895.92
922.214	8825.87
922.525	8843.27
922.835	8796.49
923.146	8702.48
923.456	8714.91
923.767	8623.84
924.077	8648.02
924.387	8556.5
924.697	8512.43
925.008	8579.55
925.318	8494.8
925.628	8493.67
925.938	8419.1
926.248	8362.83
926.558	8330.06
926.867	8271.31
927.177	8261.14
927.487	8238.77
927.796	8231.53
928.106	8179.11
928.416	8113.35
928.725	8125.32
929.034	8078.09
929.344	8098.66
929.653	8045.33
929.962	7976.17
930.271	7942.28
930.581	7904.31
930.89	7898.66
931.199	7844.88
931.508	7809.63
931.817	7778.89
932.125	7768.95
932.434	7717.42
932.743	7588.84
933.051	7685.11
933.36	7575.28
933.669	7539.12
933.977	7528.73
934.286	7500.71
934.594	7495.74
934.902	7432.23
935.21	7406.92
935.519	7389.07
935.827	7339.13
936.135	7283.54
936.443	7328.51
936.751	7237.89
937.059	7205.12
937.367	7203.77
937.674	7207.61
937.982	7168.74
938.29	7087.38
938.597	7055.52
938.905	7028.4
939.213	6933.94
939.52	6954.05
939.827	6947.73
940.135	6908.86
940.442	6896.88
940.749	6864.34
941.056	6881.51
941.363	6759.94
941.67	6774.17
941.977	6801.74
942.284	6697.56
942.591	6677.68
942.898	6649.2
943.205	6625.25
943.511	6594.97
943.818	6578.02
944.125	6542.09
944.431	6479.26
944.738	6517.91
945.044	6458.7
945.35	6458.7
945.657	6369.21
945.963	6432.49
946.269	6375.09
946.575	6287.86
946.881	6266.16
947.187	6277.91
947.493	6270.68
947.799	6236.33
948.105	6200.85
948.41	6159.05
948.716	6145.04
949.022	6124.02
949.327	6095.32
949.633	6019.39
949.938	5970.35
950.244	6044.47
950.549	5938.04
950.854	5951.82
951.16	5929.67
951.465	5873.18
951.77	5846.29
952.075	5827.76
952.38	5868.66
952.685	5819.85
952.99	5745.27
953.294	5724.93
953.599	5728.55
953.904	5669.79
954.209	5650.81
954.513	5667.99
954.818	5666.4
955.122	5644.48
955.426	5618.72
955.731	5601.55
956.035	5556.35
956.339	5514.32
956.643	5436.13
956.948	5446.75
957.252	5397.71
957.556	5418.5
957.86	5357.49
958.163	5425.06
958.467	5359.97
958.771	5324.27
959.075	5284.72
959.378	5279.52
959.682	5225.74
959.985	5216.02
960.289	5206.53
960.592	5186.19
960.896	5173.08
961.199	5120.66
961.502	5145.74
961.805	5056.48
962.108	5092.18
962.411	4974.45
962.714	4963.37
963.017	4990.04
963.32	4989.13
963.623	4960.89
963.926	4965.18
964.228	4935.8
964.531	4898.52
964.833	4934.22
965.136	4835.69
965.438	4848.8
965.741	4795.92
966.043	4790.27
966.345	4763.6
966.648	4741.46
966.95	4724.06
967.252	4691.97
967.554	4698.97
967.856	4699.88
968.158	4660.33
968.46	4656.49
968.761	4638.41
969.063	4604.96
969.365	4543.5
969.666	4545.76
969.968	4523.84
970.269	4510.28
970.571	4496.94
970.872	4457.17
971.174	4425.08
971.475	4405.42
971.776	4432.99
972.077	4409.71
972.378	4375.82
972.679	4343.5
972.98	4320.45
973.281	4300.11
973.582	4294.24
973.883	4258.98
974.183	4265.99
974.484	4242.26
974.785	4208.59
975.085	4181.92
975.386	4194.58
975.686	4131.53
975.986	4178.31
976.287	4124.07
976.587	4087.24
976.887	4093.56
977.187	4089.27
977.487	4076.84
977.787	4037.97
978.087	4002.27
978.387	4011.76
978.687	3997.97
978.987	3959.78
979.286	3929.28
979.586	3952.55
979.885	3909.61
980.185	3876.4
980.484	3858.32
980.784	3856.73
981.083	3843.4
981.382	3835.04
981.682	3796.4
981.981	3792.1
982.28	3755.04
982.579	3720.02
982.878	3759.34
983.177	3709.62
983.475	3684.54
983.774	3678.89
984.073	3680.69
984.372	3630.98
984.67	3611.32
984.969	3674.37
985.267	3617.64
985.566	3604.76
985.864	3585.56
986.162	3537.2
986.461	3543.3
986.759	3546.46
987.057	3501.94
987.355	3463.75
987.653	3442.51
987.951	3469.85
988.249	3434.6
988.547	3430.08
988.844	3400.02
989.142	3452
989.44	3378.1
989.737	3384.88
990.035	3327.03
990.332	3345.79
990.63	3344.43
990.927	3325.22
991.224	3297.65
991.521	3277.54
991.819	3279.57
992.116	3262.85
992.413	3209.97
992.71	3217.43
993.006	3214.27
993.303	3200.48
993.6	3198.9
993.897	3192.12
994.193	3160.03
994.49	3140.6
994.787	3113.25
995.083	3066.7
995.379	3082.52
995.676	3049.07
995.972	3002.75
996.268	3026.47
996.565	3024.21
996.861	2973.14
997.157	2991.67
997.453	2941.73
997.749	2975.85
998.044	2935.4
998.34	2960.26
998.636	2926.36
998.932	2881.39
999.227	2852.92
999.523	2864.22
999.818	2866.25
1000.114	2844.11
1000.409	2802.07
1000.704	2823.54
1001	2794.84
1001.295	2767.5
1001.59	2756.65
1001.885	2743.09
1002.18	2775.41
1002.475	2724.56
1002.77	2679.14
1003.065	2647.05
1003.359	2687.5
1003.654	2683.21
1003.949	2620.61
1004.243	2619.93
1004.538	2584
1004.832	2611.8
1005.127	2598.91
1005.421	2555.53
1005.715	2541.06
1006.009	2542.87
1006.304	2531.57
1006.598	2488.18
1006.892	2516.21
1007.186	2471.01
1007.48	2481.18
1007.773	2453.38
1008.067	2418.35
1008.361	2391.46
1008.655	2389.2
1008.948	2407.51
1009.242	2373.38
1009.535	2355.98
1009.829	2345.14
1010.122	2326.61
1010.415	2335.87
1010.708	2286.15
1011.001	2287.96
1011.295	2280.28
1011.588	2269.88
1011.881	2261.07
1012.173	2275.76
1012.466	2223.56
1012.759	2220.85
1013.052	2194.18
1013.344	2167.97
1013.637	2185.14
1013.93	2184.91
1014.222	2124.12
1014.514	2149.66
1014.807	2127.97
1015.099	2130
1015.391	2083.45
1015.683	2085.26
1015.976	2084.58
1016.268	2039.61
1016.56	2054.3
1016.851	2014.98
1017.143	2042.09
1017.435	1977.01
1017.727	2000.29
1018.018	2014.75
1018.31	2004.13
1018.602	1998.03
1018.893	1945.37
1019.185	1956.45
1019.476	1931.36
1019.767	1911.25
1020.058	1932.04
1020.35	1895.66
1020.641	1868.31
1020.932	1864.02
1021.223	1852.04
1021.514	1843
1021.804	1811.59
1022.095	1822.44
1022.386	1823.34
1022.677	1796.45
1022.967	1768.2
1023.258	1761.2
1023.548	1756.9
1023.839	1746.28
1024.129	1731.59
1024.419	1763.68
1024.709	1728.2
1025	1692.95
1025.29	1700.86
1025.58	1644.36
1025.87	1660.18
1026.16	1629.45
1026.449	1636.45
1026.739	1602.1
1027.029	1625.61
1027.319	1624.03
1027.608	1583.8
1027.898	1596.23
1028.187	1574.99
1028.477	1564.82
1028.766	1526.4
1029.055	1542.22
1029.344	1514.88
1029.634	1540.41
1029.923	1534.54
1030.212	1510.58
1030.501	1485.72
1030.79	1498.15
1031.078	1480.53
1031.367	1435.56
1031.656	1457.02
1031.945	1458.61
1032.233	1428.78
1032.522	1411.83
1032.81	1422.9
1033.099	1412.51
1033.387	1390.36
1033.675	1389.45
1033.963	1381.32
1034.251	1377.93
1034.54	1362.79
1034.828	1358.5
1035.116	1379.51
1035.403	1327.54
1035.691	1319.85
1035.979	1329.57
1036.267	1310.14
1036.554	1288.21
1036.842	1275.79
1037.129	1288.21
1037.417	1263.36
1037.704	1261.77
1037.992	1254.09
1038.279	1253.41
1038.566	1233.75
1038.853	1233.75
1039.14	1233.75
