Data from 19-2025_FLMS001491_007.txt Node
Date: Thu Apr 19 16:34:54 BST 2018
User: hsy
Spectrometer: FLMS00149
Trigger mode: 0
Integration Time (sec): 1.000000E-2
Scans to average: 10
Electric dark correction enabled: true
Nonlinearity correction enabled: false
Boxcar width: 0
XAxis mode: Wavelengths
Number of Pixels in Spectrum: 2048
>>>>>Begin Spectral Data<<<<<
341.393	-11.4
341.776	-11.4
342.16	-11.4
342.543	-70.38
342.927	-67.89
343.31	-58.63
343.693	-96.82
344.077	-74.45
344.46	-40.1
344.843	-27.89
345.226	-38.52
345.61	-24.51
345.993	-6.2
346.376	-5.52
346.759	-5.75
347.142	8.26
347.525	37.19
347.908	56.17
348.291	88.71
348.674	97.75
349.057	90.29
349.44	122.16
349.823	114.7
350.206	181.14
350.588	231.31
350.971	250.97
351.354	273.11
351.737	269.95
352.119	269.5
352.502	285.77
352.884	297.29
353.267	309.72
353.65	310.63
354.032	324.64
354.414	324.86
354.797	349.27
355.179	346.78
355.562	351.98
355.944	351.3
356.326	353.34
356.709	375.03
357.091	365.99
357.473	378.42
357.855	385.43
358.238	379.78
358.62	375.94
359.002	380.23
359.384	363.51
359.766	349.95
360.148	366.67
360.53	372.32
360.912	377.74
361.294	356.73
361.676	375.94
362.057	367.8
362.439	358.99
362.821	370.74
363.203	355.37
363.584	384.98
363.966	366.45
364.348	370.29
364.729	371.64
365.111	385.88
365.493	354.47
365.874	369.38
366.256	351.53
366.637	351.3
367.019	369.38
367.4	363.96
367.781	345.2
368.163	371.64
368.544	381.36
368.925	375.71
369.306	379.33
369.688	366.9
370.069	378.2
370.45	382.72
370.831	375.48
371.212	363.51
371.593	370.29
371.974	358.99
372.355	380.68
372.736	379.1
373.117	392.43
373.498	370.06
373.879	368.25
374.26	394.92
374.641	371.42
375.021	367.8
375.402	389.95
375.783	380.68
376.163	385.2
376.544	413.45
376.925	394.69
377.305	405.99
377.686	398.08
378.066	384.98
378.447	409.16
378.827	424.97
379.208	407.12
379.588	427.23
379.968	415.94
380.349	427.69
380.729	413.9
381.109	401.92
381.489	406.22
381.87	422.26
382.25	421.13
382.63	424.52
383.01	438.76
383.39	440.12
383.77	422.04
384.15	451.64
384.53	442.6
384.91	448.7
385.29	457.29
385.67	445.54
386.049	434.24
386.429	430.85
386.809	448.7
387.189	462.04
387.568	481.7
387.948	462.71
388.328	465.88
388.707	482.83
389.087	477.4
389.466	482.15
389.846	473.34
390.225	476.05
390.605	472.43
390.984	491.41
391.363	506.33
391.743	475.82
392.122	501.81
392.501	496.84
392.881	498.19
393.26	504.29
393.639	510.85
394.018	499.55
394.397	526.44
394.776	535.71
395.155	497.97
395.534	526.67
395.913	538.42
396.292	523.73
396.671	538.87
397.05	558.3
397.429	544.75
397.808	549.04
398.186	548.59
398.565	567.57
398.944	561.02
399.323	578.42
399.701	570.73
400.08	571.86
400.458	576.16
400.837	574.35
401.215	579.09
401.594	600.34
401.972	587.91
402.351	582.48
402.729	596.04
403.107	611.86
403.486	610.28
403.864	611.64
404.242	619.09
404.62	620.45
404.999	617.29
405.377	627.23
405.755	613.9
406.133	661.35
406.511	649.6
406.889	657.28
407.267	674.91
407.645	682.82
408.023	677.4
408.401	711.29
408.779	677.4
409.156	715.81
409.534	707.68
409.912	727.34
410.29	724.85
410.667	726.89
411.045	758.98
411.422	739.32
411.8	751.29
412.178	770.28
412.555	758.75
412.933	762.14
413.31	794.68
413.687	807.56
414.065	789.71
414.442	807.34
414.819	821.35
415.197	841.01
415.574	842.82
415.951	834.91
416.328	833.1
416.705	834.91
417.082	875.36
417.46	854.12
417.837	874.45
418.214	864.74
418.591	876.26
418.967	877.39
419.344	893.44
419.721	898.41
420.098	883.95
420.475	922.81
420.852	908.8
421.228	925.07
421.605	935.92
421.982	945.86
422.358	958.52
422.735	978.86
423.111	975.47
423.488	987.67
423.864	988.12
424.241	975.69
424.617	1029.25
424.994	1001.23
425.37	1027.9
425.746	1024.28
426.123	1039.65
426.499	1043.26
426.875	1064.28
427.251	1073.09
427.627	1076.71
428.003	1119.87
428.379	1096.14
428.756	1148.8
429.132	1151.06
429.507	1165.52
429.883	1157.38
430.259	1185.41
430.635	1184.95
431.011	1164.62
431.387	1211.85
431.763	1244.84
432.138	1245.29
432.514	1265.18
432.89	1274.44
433.265	1311.96
433.641	1302.69
434.016	1328.68
434.392	1333.2
434.767	1370.71
435.143	1379.07
435.518	1363.48
435.894	1400.09
436.269	1393.76
436.644	1439.86
437.02	1457.26
437.395	1430.37
437.77	1448.22
438.145	1498.62
438.52	1494.1
438.895	1525.28
439.271	1488.22
439.646	1533.19
440.021	1531.39
440.395	1539.97
440.77	1513.99
441.145	1571.61
441.52	1589.24
441.895	1557.83
442.27	1556.92
442.645	1573.19
443.019	1600.54
443.394	1625.4
443.769	1626.98
444.143	1640.54
444.518	1647.99
444.892	1632.85
445.267	1664.26
445.641	1683.92
446.016	1689.57
446.39	1689.57
446.764	1686.64
447.139	1700.42
447.513	1720.53
447.887	1716.69
448.262	1744.26
448.636	1772.74
449.01	1784.49
449.384	1816.8
449.758	1812.73
450.132	1824.03
450.506	1818.84
450.88	1844.15
451.254	1864.48
451.628	1868.55
452.002	1895.44
452.376	1910.59
452.75	1958.27
453.123	1927.53
453.497	1949.45
453.871	2010.02
454.244	2038.94
454.618	2026.06
454.992	2066.74
455.365	2087.98
455.739	2087.76
456.112	2141.09
456.486	2153.06
456.859	2198.49
457.232	2213.18
457.606	2254.08
457.979	2236.45
458.352	2279.84
458.725	2318.26
459.099	2347.64
459.472	2355.77
459.845	2393.96
460.218	2399.16
460.591	2469.44
460.964	2457.01
461.337	2460.4
461.71	2533.17
462.083	2578.14
462.456	2565.48
462.829	2617.01
463.201	2624.24
463.574	2597.57
463.947	2675.76
464.32	2690.68
464.692	2731.13
465.065	2746.5
465.438	2761.18
465.81	2800.96
466.183	2818.81
466.555	2867.85
466.928	2862.2
467.3	2889.32
467.672	2941.29
468.045	2998.47
468.417	3012.25
468.789	3040.05
469.161	3087.5
469.534	3132.7
469.906	3154.17
470.278	3148.74
470.65	3230.78
471.022	3277.33
471.394	3322.75
471.766	3348.51
472.138	3415.86
472.51	3441.62
472.882	3502.41
473.253	3515.51
473.625	3607.49
473.997	3642.97
474.369	3666.7
474.74	3707.37
475.112	3751.89
475.484	3824.89
475.855	3898.78
476.227	3921.38
476.598	3986.69
476.97	4028.5
477.341	4124.09
477.713	4155.05
478.084	4187.59
478.455	4328.15
478.827	4354.59
479.198	4441.59
479.569	4566.11
479.94	4602.04
480.311	4659.44
480.682	4744.18
481.053	4846.55
481.424	4906.21
481.795	4989.6
482.166	5079.99
482.537	5112.31
482.908	5252.19
483.279	5256.71
483.65	5408.12
484.021	5458.06
484.391	5543.26
484.762	5639.98
485.133	5707.77
485.503	5727.43
485.874	5873.42
486.244	5944.15
486.615	6102.11
486.985	6070.93
487.356	6242.45
487.726	6299.17
488.097	6432.95
488.467	6457.13
488.837	6634.3
489.207	6660.97
489.578	6775.32
489.948	6879.72
490.318	6976.67
490.688	6990.9
491.058	7124.23
491.428	7247.62
491.798	7235.64
492.168	7384.34
492.538	7466.82
492.908	7568.97
493.278	7630.21
493.648	7739.13
494.017	7774.84
494.387	7841.5
494.757	7916.08
495.126	8021.39
495.496	8059.35
495.866	8218.44
496.235	8172.34
496.605	8336.86
496.974	8412.11
497.344	8452.33
497.713	8471.09
498.082	8558.77
498.452	8686
498.821	8676.74
499.19	8734.13
499.559	8841.93
499.928	8920.57
500.298	8925.09
500.667	9074.92
501.036	9027.69
501.405	9138.19
501.774	9090.96
502.143	9231.97
502.512	9302.93
502.88	9314.68
503.249	9416.38
503.618	9478.07
503.987	9509.26
504.356	9571.17
504.724	9672.42
505.093	9673.55
505.462	9660.44
505.83	9748.8
506.199	9815.46
506.567	9977.94
506.936	9949.02
507.304	10082.8
507.672	10121.22
508.041	10086.64
508.409	10232.63
508.777	10357.37
509.145	10393.3
509.514	10430.59
509.882	10514.2
510.25	10515.78
510.618	10605.5
510.986	10640.98
511.354	10733.63
511.722	10916
512.09	10927.75
512.458	10893.4
512.826	11000.74
513.193	11074.19
513.561	11098.59
513.929	11231.24
514.297	11307.17
514.664	11369.77
515.032	11396.66
515.4	11484.12
515.767	11643.89
516.135	11676.66
516.502	11704.23
516.869	11869.19
517.237	11966.37
517.604	11883.88
517.972	12071
518.339	12159.13
518.706	12146.47
519.073	12291.78
519.44	12376.98
519.808	12452
520.175	12519.57
520.542	12610.87
520.909	12857.64
521.276	12863.29
521.643	13084.75
522.009	13040.91
522.376	13175.37
522.743	13294.01
523.11	13425.08
523.477	13558.19
523.843	13605.19
524.21	13790.95
524.577	13929.48
524.943	14066.2
525.31	14100.77
525.676	14294.89
526.043	14357.72
526.409	14483.36
526.776	14649.91
527.142	14682.68
527.508	14818.95
527.874	14964.03
528.241	15021.88
528.607	15098.49
528.973	15413.96
529.339	15390.91
529.705	15561.75
530.071	15625.48
530.437	15760.62
530.803	15919.93
531.169	15996.77
531.535	16030.21
531.901	16153.83
532.267	16232.47
532.632	16340.04
532.998	16437.89
533.364	16537.55
533.73	16579.58
534.095	16823.41
534.461	16854.83
534.826	17008.04
535.192	17048.49
535.557	17210.07
535.923	17179.56
536.288	17290.52
536.653	17284.64
537.019	17406.68
537.384	17584.75
537.749	17570.51
538.114	17664.07
538.479	17659.1
538.845	17769.15
539.21	17771.86
539.575	17887.11
539.94	17979.77
540.305	18084.17
540.67	18043.95
541.034	18340.44
541.399	18258.86
541.764	18317.61
542.129	18418.85
542.494	18503.82
542.858	18579.75
543.223	18517.83
543.587	18715.34
543.952	18726.87
544.316	18799.63
544.681	18813.87
545.045	18934.32
545.41	18941.78
545.774	19023.36
546.138	19033.3
546.503	19216.35
546.867	19151.71
547.231	19310.35
547.595	19356.45
547.959	19365.72
548.324	19425.83
548.688	19547.41
549.052	19602.55
549.416	19621.31
549.779	19723
550.143	19866.27
550.507	19981.75
550.871	20037.34
551.235	19907.17
551.599	20132.71
551.962	20215.64
552.326	20120.28
552.689	20410.66
553.053	20261.06
553.417	20466.93
553.78	20639.13
554.143	20705.35
554.507	20856.08
554.87	20915.96
555.234	21025.34
555.597	20900.59
555.96	21089.29
556.323	21290.41
556.686	21280.92
557.05	21451.09
557.413	21534.48
557.776	21647.92
558.139	21793.9
558.502	21879.78
558.865	21918.19
559.228	22093.11
559.59	22221.69
559.953	22216.94
560.316	22603.37
560.679	22578.74
561.041	22706.42
561.404	23008.56
561.767	23153.87
562.129	23041.1
562.492	23258.5
562.854	23352.28
563.217	23465.05
563.579	23641.09
563.941	23709.79
564.304	24025.71
564.666	24078.59
565.028	24242.2
565.39	24485.58
565.753	24580.5
566.115	24759.7
566.477	24967.38
566.839	25009.86
567.201	25400.36
567.563	25462.51
567.925	25714.03
568.287	25798.09
568.648	25899.79
569.01	26075.15
569.372	26397.17
569.734	26438.75
570.095	26716.26
570.457	26970.49
570.819	27065.86
571.18	27078.06
571.542	27521.66
571.903	27480.76
572.265	27640.98
572.626	27933.18
572.987	27964.36
573.349	28253.4
573.71	28386.27
574.071	28588.98
574.432	28850.22
574.794	29053.15
575.155	29112.13
575.516	29214.27
575.877	29302.63
576.238	29489.3
576.599	29677.09
576.96	29762.73
577.32	29957.76
577.681	30054.03
578.042	30356.39
578.403	30328.37
578.763	30263.74
579.124	30557.52
579.485	30767.23
579.845	30775.59
580.206	30840.45
580.566	30899.65
580.927	30998.86
581.287	31239.76
581.648	31257.61
582.008	31404.73
582.368	31606.08
582.728	31629.13
583.089	31709.12
583.449	31832.96
583.809	31901.89
584.169	32050.81
584.529	31949.8
584.889	32289.22
585.249	32104.14
585.609	32039.74
585.969	32487.86
586.329	32339.39
586.688	32571.7
587.048	32679.72
587.408	32593.39
587.768	32703.9
588.127	32809.43
588.487	32855.99
588.846	33211.23
589.206	32999.49
589.565	33221.17
589.925	33549.75
590.284	33596.53
590.643	33575.52
591.003	33874.94
591.362	34168.04
591.721	34017.31
592.08	34192
592.44	34585.88
592.799	34524.64
593.158	34603.29
593.517	34537.75
593.876	34891.41
594.235	34916.72
594.593	35086.44
594.952	35284.62
595.311	35206.21
595.67	35485.3
596.029	35832.63
596.387	35920.31
596.746	36226.07
597.104	36158.72
597.463	36269.68
597.822	36513.74
598.18	36597.81
598.538	36661.99
598.897	36972.26
599.255	36668.54
599.613	37482.98
599.972	37170.22
600.33	37379.94
600.688	37545.81
601.046	37615.18
601.404	37932.24
601.762	37883.88
602.12	38317.76
602.478	38300.36
602.836	38553.01
603.194	38353.47
603.552	38584.42
603.91	38710.07
604.268	38834.13
604.625	38907.8
604.983	38928.37
605.341	39008.59
605.698	39582.36
606.056	39653.77
606.413	39415.36
606.771	39745.52
607.128	39805.63
607.485	39844.96
607.843	39972.64
608.2	40179.18
608.557	40388.9
608.914	40372.85
609.272	40516.35
609.629	40803.8
609.986	40907.07
610.343	40882.22
610.7	41282.21
611.057	41196.11
611.414	41176.9
611.771	41393.84
612.127	41537.11
612.484	41686.71
612.841	41895.75
613.198	41648.52
613.554	41731.01
613.911	42001.96
614.267	42099.59
614.624	42084.67
614.98	42293.48
615.337	42455.51
615.693	42459.12
616.05	42493.47
616.406	42737.53
616.762	42666.58
617.118	42712.9
617.475	42817.31
617.831	42945.66
618.187	43133.91
618.543	43113.12
618.899	43396.95
619.255	43201.03
619.611	43256.62
619.967	43576.38
620.323	43635.36
620.678	43481.92
621.034	43523.05
621.39	43558.98
621.746	43557.63
622.101	44035.81
622.457	43636.95
622.812	43861.35
623.168	43846.21
623.523	44003.94
623.879	44142.7
624.234	43763.27
624.589	44118.06
624.945	44075.35
625.3	44059.53
625.655	44044.17
626.01	44135.92
626.365	44287.32
626.72	44038.29
627.075	43990.38
627.43	44035.58
627.785	44099.98
628.14	44114.9
628.495	44172.52
628.85	44179.08
629.205	44062.47
629.559	44250.72
629.914	44005.75
630.269	44174.33
630.623	43935.47
630.978	43842.59
631.332	44050.72
631.687	44045.07
632.041	43918.07
632.396	43955.58
632.75	43916.03
633.104	43906.77
633.459	43623.39
633.813	43681.92
634.167	43723.05
634.521	43654.35
634.875	43721.24
635.229	43551.3
635.583	43415.93
635.937	43429.04
636.291	43407.12
636.645	43342.49
636.999	43099.78
637.352	43242.61
637.706	43101.37
638.06	43228.37
638.413	43062.5
638.767	42991.31
639.121	43020.01
639.474	42948.6
639.828	42882.84
640.181	42765.1
640.534	42843.75
640.888	42772.11
641.241	42595.84
641.594	42518.56
641.947	42796.29
642.301	42526.92
642.654	42576.41
643.007	42397.43
643.36	42447.37
643.713	42385.91
644.066	42651.89
644.419	42227.27
644.771	41904.56
645.124	41646.26
645.477	41441.75
645.83	41465.25
646.182	41394.74
646.535	41380.28
646.888	41378.7
647.24	41316.33
647.593	41593.84
647.945	41329.44
648.298	41074.53
648.65	40943.46
649.002	40799.51
649.355	40724.03
649.707	40262.57
650.059	40559.96
650.411	41022.1
650.763	41299.38
651.115	41874.96
651.467	41739.14
651.819	41804
652.171	41577.11
652.523	41473.61
652.875	41614.17
653.227	41466.83
653.578	41843.32
653.93	41470.68
654.282	41428.42
654.633	41293.5
654.985	41444.91
655.337	41443.11
655.688	41420.73
656.039	41426.16
656.391	41108.88
656.742	41183.23
657.094	41346.84
657.445	41479.71
657.796	41472.71
658.147	41354.07
658.498	41288.76
658.849	41439.94
659.2	41398.81
659.551	41325.14
659.902	41384.12
660.253	41431.81
660.604	41419.83
660.955	41229.55
661.306	41464.12
661.656	41279.95
662.007	41334.41
662.358	41517.23
662.708	41417.12
663.059	41476.1
663.409	41234.3
663.76	41468.87
664.11	41458.02
664.461	41555.19
664.811	41547.96
665.161	41597.68
665.511	41501.41
665.862	41606.94
666.212	41483.33
666.562	41604.46
666.912	41531.46
667.262	41372.6
667.612	41503.22
667.962	41330.79
668.312	41441.3
668.662	41479.04
669.011	41576.44
669.361	41371.69
669.711	41397.23
670.06	41233.39
670.41	41329.66
670.76	41223.9
671.109	41370.56
671.459	41257.8
671.808	41167.18
672.157	41346.16
672.507	40998.6
672.856	41205.15
673.205	41218.7
673.554	41208.99
673.904	40990.46
674.253	41419.38
674.602	41076.79
674.951	40453.07
675.3	40331.5
675.649	41107.97
675.998	41058.71
676.346	41151.14
676.695	41117.24
677.044	40811.48
677.393	40875.21
677.741	41089.44
678.09	40703.01
678.438	40633.18
678.787	40905.27
679.135	40795.21
679.484	40506.63
679.832	40769
680.181	40611.94
680.529	40677.25
680.877	40487.88
681.225	40411.72
681.573	40702.56
681.922	40426.41
682.27	40155.46
682.618	40300.31
682.966	40121.33
683.314	40221.22
683.661	40211.73
684.009	39912.3
684.357	39882.92
684.705	39834.33
685.053	39661.01
685.4	39587.79
685.748	39426.21
686.095	39476.15
686.443	39226.67
686.79	39412.2
687.138	39481.8
687.485	39258.3
687.832	39148.93
688.18	39172.43
688.527	38897.86
688.874	38907.35
689.221	38816.96
689.568	38542.62
689.915	38626.68
690.262	38578.77
690.609	38524.09
690.956	38265.79
691.303	38211.33
691.65	37959.81
691.997	37936.76
692.344	37704.67
692.69	37772.47
693.037	37872.8
693.383	37421.29
693.73	37442.08
694.077	37309.65
694.423	37179.94
694.769	37079.38
695.116	36981.98
695.462	36846.16
695.808	36656.34
696.155	36701.08
696.501	36424.03
696.847	36503.57
697.193	36177.93
697.539	36174.77
697.885	35960.09
698.231	35954.21
698.577	35801.22
698.923	35754.44
699.269	35441.91
699.614	35349.03
699.96	35274
700.306	35204.63
700.651	34998.53
700.997	34997.85
701.342	34813.9
701.688	34870.85
702.033	34526
702.379	34613.91
702.724	34399.45
703.069	34509.5
703.415	34078.1
703.76	34119.91
704.105	34037.42
704.45	34059.57
704.795	33994.71
705.14	33698.22
705.485	33679.24
705.83	33470.21
706.175	33703.2
706.52	33421.85
706.865	33327.16
707.209	33199.25
707.554	33178.24
707.899	33242.42
708.243	32935.76
708.588	32918.36
708.932	32794.29
709.277	32706.61
709.621	32626.39
709.966	32513.62
710.31	32450.57
710.654	32119.96
710.998	32300.75
711.342	32255.55
711.687	32202.22
712.031	31963.81
712.375	31860.31
712.719	31825.28
713.063	31729.46
713.407	31800.87
713.75	31652.85
714.094	31601.1
714.438	31546.87
714.782	31379.42
715.125	31272.3
715.469	31456.48
715.812	31286.76
716.156	31118.63
716.499	31199.31
716.843	31265.52
717.186	31044.06
717.53	31225.75
717.873	31145.97
718.216	31050.16
718.559	31014.23
718.902	30728.81
719.246	30849.26
719.589	30651.07
719.932	30523.62
720.275	30582.6
720.617	30654.24
720.96	30583.28
721.303	30627.57
721.646	30590.74
721.989	30325.43
722.331	30470.06
722.674	30273.68
723.016	30395.94
723.359	30264.87
723.701	30373.34
724.044	30285.66
724.386	30085.89
724.729	30282.95
725.071	30228.48
725.413	30284.53
725.755	30368.14
726.097	30108.04
726.439	29981.49
726.782	30105.55
727.124	30142.61
727.465	30001.37
727.807	29981.94
728.149	30055.61
728.491	29882.51
728.833	29872.79
729.175	29913.46
729.516	29793.69
729.858	29795.95
730.199	29974.48
730.541	29917.76
730.882	29714.37
731.224	29931.54
731.565	29956.18
731.906	29949.4
732.248	29888.38
732.589	29690.19
732.93	29670.76
733.271	29742.17
733.612	29762.51
733.953	29875.05
734.294	29746.46
734.635	29755.73
734.976	29870.3
735.317	29718.67
735.658	29734.49
735.999	29712.11
736.339	29714.15
736.68	29807.7
737.021	29809.06
737.361	29800.25
737.702	29959.79
738.042	29733.58
738.383	29768.84
738.723	29853.58
739.063	29762.28
739.404	29913.24
739.744	29729.97
740.084	29727.71
740.424	29930.64
740.764	29911.21
741.104	30006.8
741.444	29770.87
741.784	29683.87
742.124	29865.33
742.464	29844.31
742.804	29857.42
743.143	29910.08
743.483	30018.55
743.823	29879.34
744.162	29971.99
744.502	30004.31
744.841	29945.1
745.181	30217.64
745.52	30079.11
745.86	30166.57
746.199	30232.78
746.538	30279.1
746.877	30377.63
747.216	30411.08
747.556	30314.36
747.895	30343.28
748.234	30420.8
748.573	30442.72
748.911	30528.59
749.25	30599.32
749.589	30503.51
749.928	30574.24
750.267	30794.12
750.605	30597.51
750.944	30730.17
751.283	30641.13
751.621	30925.64
751.96	30816.94
752.298	30784.85
752.636	31014.9
752.975	30963.38
753.313	31127.22
753.651	31237.72
753.989	31067.33
754.327	31136.71
754.666	30985.98
755.004	31234.33
755.342	31218.52
755.679	31380.09
756.017	31135.81
756.355	31275.46
756.693	31310.72
757.031	31463.71
757.368	31300.77
757.706	31371.28
758.044	31408.79
758.381	31401.56
758.719	31540.54
759.056	31561.56
759.394	31458.51
759.731	31265.52
760.068	31333.09
760.405	31448.57
760.743	31225.52
761.08	31378.96
761.417	31312.52
761.754	31321.11
762.091	31328.79
762.428	31199.76
762.765	31112.76
763.102	31288.57
763.438	31166.09
763.775	31034.57
764.112	31087.67
764.449	31117.05
764.785	31042.7
765.122	30964.96
765.458	30937.17
765.795	30860.11
766.131	30917.73
766.467	30833.89
766.804	30766.55
767.14	30650.62
767.476	30523.17
767.812	30479.55
768.148	30538.53
768.485	30550.28
768.821	30218.32
769.157	30240.24
769.492	30279.78
769.828	30239.78
770.164	30047.47
770.5	29881.6
770.836	30156.17
771.171	29967.93
771.507	29855.61
771.842	29721.38
772.178	29703.53
772.513	29621.5
772.849	29516.41
773.184	29567.03
773.519	29435.29
773.855	29172.69
774.19	29234.84
774.525	29062.19
774.86	29061.51
775.195	28984
775.53	28865.58
775.865	28645.48
776.2	28601.63
776.535	28438.02
776.87	28488.42
777.205	28245.26
777.539	28216.33
777.874	28342.21
778.209	28037.13
778.543	28074.64
778.878	27775.67
779.212	27801.2
779.547	27602.34
779.881	27702.22
780.215	27452.96
780.55	27530.93
780.884	27205.51
781.218	27286.19
781.552	27284.61
781.886	27073.31
782.22	26928.46
782.554	26839.87
782.888	26562.82
783.222	26685.53
783.556	26478.3
783.889	26431.75
784.223	26305.88
784.557	26301.36
784.89	26189.72
785.224	26074.47
785.557	25929.84
785.891	25853.46
786.224	25745.44
786.558	25832.89
786.891	25705.89
787.224	25377.99
787.557	25448.5
787.891	25401.72
788.224	25239.92
788.557	25227.26
788.89	25094.83
789.223	25131.22
789.556	24925.12
789.888	24893.71
790.221	24774.62
790.554	24608.75
790.887	24750.44
791.219	24528.07
791.552	24561.06
791.884	24371.46
792.217	24319.94
792.549	24248.3
792.882	23986.62
793.214	23859.16
793.546	23952.72
793.879	23883.34
794.211	23712.5
794.543	23799.05
794.875	23609.9
795.207	23547.3
795.539	23515.89
795.871	23640.64
796.203	23482.22
796.535	23240.65
796.867	23330.59
797.198	23152.29
797.53	23114.77
797.862	22997.26
798.193	23061.44
798.525	22791.84
798.856	22972.63
799.188	22587.56
799.519	22615.13
799.85	22481.57
800.182	22518.86
800.513	22608.35
800.844	22168.81
801.175	22388.69
801.506	22358.41
801.837	22237.96
802.168	22075.7
802.499	22212.88
802.83	21984.18
803.161	22044.52
803.491	21915.26
803.822	22048.13
804.153	21747.58
804.483	21710.97
804.814	21535.83
805.145	21717.52
805.475	21551.42
805.805	21514.14
806.136	21563.85
806.466	21368.6
806.796	21282.05
807.126	21163.86
807.457	21187.59
807.787	21196.18
808.117	21064.21
808.447	21080.48
808.777	21086.35
809.107	20851.33
809.436	20811.33
809.766	20809.3
810.096	20799.58
810.426	20664.67
810.755	20809.52
811.085	20669.41
811.414	20566.59
811.744	20530.89
812.073	20434.39
812.403	20433.94
812.732	20299.48
813.061	20462.64
813.39	20204.12
813.719	20197.56
814.049	20215.64
814.378	20313.94
814.707	20100.39
815.036	20090.22
815.365	19969.32
815.693	19946.95
816.022	19915.76
816.351	19924.35
816.68	19709.89
817.008	19801.41
817.337	19575.21
817.665	19657.01
817.994	19578.37
818.322	19536.11
818.651	19505.38
818.979	19490.24
819.307	19492.72
819.636	19448.66
819.964	19287.08
820.292	19441.42
820.62	19338.83
820.948	19428.77
821.276	19540.86
821.604	19356.68
821.932	19373.85
822.259	19345.16
822.587	19294.08
822.915	19285.5
823.243	19340.41
823.57	19314.42
823.898	19318.49
824.225	19269.45
824.553	19305.83
824.88	19397.36
825.207	19410.24
825.535	19260.64
825.862	19391.26
826.189	19309.22
826.516	19390.13
826.843	19493.85
827.17	19443.68
827.497	19415.21
827.824	19350.35
828.151	19364.14
828.478	19236.91
828.805	19474.42
829.131	19365.49
829.458	19362.1
829.785	19300.41
830.111	19249.34
830.438	19417.92
830.764	19262.22
831.09	19366.62
831.417	19185.84
831.743	19379.73
832.069	19326.17
832.395	19257.02
832.722	19237.81
833.048	19219.96
833.374	19253.86
833.7	19206.85
834.026	19196.68
834.351	19079.4
834.677	19210.92
835.003	19108.33
835.329	19240.53
835.654	19137.25
835.98	19049.57
836.306	19203.46
836.631	19051.6
836.956	19204.37
837.282	19132.96
837.607	19009.34
837.932	18959.18
838.258	19054.09
838.583	18975.45
838.908	18916.47
839.233	18901.33
839.558	18860.65
839.883	18915.56
840.208	18676.92
840.533	18739.3
840.858	18757.6
841.182	18817.26
841.507	18745.17
841.832	18607.77
842.156	18589.02
842.481	18568.23
842.805	18607.77
843.13	18517.38
843.454	18493.88
843.778	18337.27
844.103	18416.37
844.427	18304.5
844.751	18294.79
845.075	18329.59
845.399	18261.34
845.723	18196.48
846.047	18256.37
846.371	18033.33
846.695	18029.71
847.019	17925.76
847.343	17796.27
847.666	17717.63
847.99	17751.52
848.313	17598.31
848.637	17583.62
848.96	17493
849.284	17533
849.607	17361.48
849.931	17263.18
850.254	17228.6
850.577	17117.87
850.9	17148.15
851.223	17043.75
851.546	16979.34
851.869	16835.16
852.192	16991.54
852.515	16711.1
852.838	16635.62
853.161	16724.43
853.483	16612.57
853.806	16615.96
854.129	16542.97
854.451	16469.3
854.774	16313.82
855.096	16324.22
855.419	16248.06
855.741	16223.43
856.063	16148.18
856.385	16115.41
856.708	16053.94
857.03	16009.65
857.352	16036.32
857.674	15900.5
857.996	15858.24
858.318	15789.77
858.64	15746.15
858.961	15841.07
859.283	15726.72
859.605	15628.19
859.926	15672.48
860.248	15606.27
860.57	15507.74
860.891	15534.63
861.212	15474.97
861.534	15491.92
861.855	15300.06
862.176	15373.06
862.498	15337.12
862.819	15350.91
863.14	15260.74
863.461	15308.65
863.782	15289.44
864.103	15164.47
864.424	15170.58
864.745	15142.78
865.065	15099.62
865.386	14969.68
865.707	15048.77
866.027	15064.36
866.348	15019.85
866.668	14934.2
866.989	14935.1
867.309	14777.14
867.63	14811.94
867.95	14824.37
868.27	14730.14
868.59	14809
868.91	14774.2
869.23	14679.52
869.55	14658.72
869.87	14681.77
870.19	14566.07
870.51	14598.84
870.83	14529.69
871.15	14504.83
871.469	14486.98
871.789	14485.17
872.109	14504.15
872.428	14452.18
872.748	14476.81
873.067	14404.04
873.386	14456.02
873.706	14422.35
874.025	14357.04
874.344	14290.15
874.663	14314.78
874.982	14238.17
875.301	14340.32
875.62	14131.28
875.939	14153.2
876.258	14184.84
876.577	14158.4
876.896	14073.88
877.214	14168.12
877.533	14118.63
877.852	14149.36
878.17	14035.92
878.489	14009.7
878.807	14092.41
879.125	13984.84
879.444	14070.04
879.762	14004.28
880.08	14006.99
880.398	13842.93
880.716	13967.67
881.034	13790.27
881.352	13907.33
881.67	13826.88
881.988	13779.88
882.306	13721.12
882.624	13731.07
882.941	13689.94
883.259	13641.12
883.577	13628.92
883.894	13619.66
884.212	13600
884.529	13553.44
884.846	13522.71
885.164	13428.47
885.481	13445.42
885.798	13491.07
886.115	13336.95
886.432	13439.32
886.75	13335.6
887.067	13327.91
887.383	13271.64
887.7	13313.45
888.017	13161.81
888.334	13179.89
888.651	13103.06
888.967	13115.04
889.284	13004.3
889.6	12972.67
889.917	13004.76
890.233	12964.98
890.55	12893.57
890.866	12884.31
891.182	12888.15
891.498	12846.12
891.815	12709.4
892.131	12757.31
892.447	12612.45
892.763	12718.21
893.079	12680.02
893.395	12578.78
893.71	12548.27
894.026	12509.4
894.342	12516.63
894.657	12383.76
894.973	12356.41
895.289	12412.68
895.604	12384.43
895.92	12275.51
896.235	12232.12
896.55	12208.17
896.865	12188.51
897.181	12165.46
897.496	12114.84
897.811	12062.18
898.126	11991.45
898.441	11951.23
898.756	11977.44
899.071	11933.37
899.386	11890.66
899.7	11721.85
900.015	11746.48
900.33	11627.84
900.644	11641.18
900.959	11707.84
901.273	11607.96
901.588	11488.86
901.902	11496.32
902.216	11493.84
902.531	11384.69
902.845	11409.77
903.159	11277.12
903.473	11298.59
903.787	11257.23
904.101	11140.63
904.415	11183.11
904.729	11099.04
905.042	11022.44
905.356	10996.22
905.67	11064.24
905.984	10968.43
906.297	11035.54
906.611	10909.22
906.924	10821.99
907.237	10825.61
907.551	10751.48
907.864	10669.23
908.177	10705.61
908.491	10679.39
908.804	10681.65
909.117	10572.96
909.43	10529.57
909.743	10521.88
910.056	10512.39
910.368	10477.59
910.681	10353.75
910.994	10324.15
911.307	10334.32
911.619	10235.56
911.932	10288.67
912.244	10188.79
912.557	10117.6
912.869	10043.25
913.181	10127.54
913.494	10031.73
913.806	9924.16
914.118	9923.03
914.43	9934.1
914.742	9867.66
915.054	9782.92
915.366	9772.53
915.678	9766.2
915.99	9697.95
916.302	9674.45
916.613	9655.01
916.925	9653.43
917.236	9523.72
917.548	9476.71
917.859	9516.71
918.171	9459.09
918.482	9347.23
918.794	9459.77
919.105	9360.56
919.416	9285.08
919.727	9245.76
920.038	9261.35
920.349	9137.29
920.66	9108.59
920.971	9074.24
921.282	9027.01
921.593	9027.46
921.903	8956.5
922.214	8930.97
922.525	8830.63
922.835	8811.42
923.146	8861.14
923.456	8816.84
923.767	8732.1
924.077	8693.23
924.387	8696.85
924.697	8639
925.008	8610.3
925.318	8501.6
925.628	8537.98
925.938	8573.24
926.248	8474.48
926.558	8432.45
926.867	8455.95
927.177	8397.42
927.487	8338.89
927.796	8253.24
928.106	8293.02
928.416	8225
928.725	8195.62
929.034	8160.36
929.344	8149.52
929.653	8134.83
929.962	8043.76
930.271	8076.75
930.581	7961.5
930.89	7941.16
931.199	7919.01
931.508	7843.31
931.817	7856.64
932.125	7800.37
932.434	7787.49
932.743	7665.69
933.051	7650.32
933.36	7705.24
933.669	7571.91
933.977	7624.79
934.286	7522.87
934.594	7586.82
934.902	7474.51
935.21	7429.76
935.519	7395.19
935.827	7374.4
936.135	7364.23
936.443	7313.83
936.751	7295.08
937.059	7272.93
937.367	7210.78
937.674	7247.62
937.982	7192.93
938.29	7174.63
938.597	7140.5
938.905	7060.73
939.213	6994.75
939.52	7013.73
939.827	6979.15
940.135	6938.02
940.442	6938.25
940.749	6876.78
941.056	6885.37
941.363	6807.86
941.67	6828.87
941.977	6753.62
942.284	6764.92
942.591	6678.82
942.898	6679.5
943.205	6645.15
943.511	6613.74
943.818	6637.47
944.125	6601.31
944.431	6494.65
944.738	6496.45
945.044	6487.41
945.35	6482.89
945.657	6491.71
945.963	6426.85
946.269	6388.21
946.575	6407.19
946.881	6317.7
947.187	6321.99
947.493	6268.44
947.799	6217.82
948.105	6171.72
948.41	6175.11
948.716	6139.17
949.022	6152.51
949.327	6140.76
949.633	6053.08
949.938	6064.83
950.244	6019.18
950.549	5972.63
950.854	6029.57
951.16	5904.15
951.465	5926.98
951.77	5920.2
952.075	5903.02
952.38	5878.84
952.685	5820.31
952.99	5773.99
953.294	5810.82
953.599	5737.83
953.904	5694.44
954.209	5597.04
954.513	5653.99
954.818	5683.14
955.122	5624.84
955.426	5616.48
955.731	5573.77
956.035	5520.21
956.339	5541.22
956.643	5520.66
956.948	5437.05
957.252	5460.1
957.556	5406.76
957.86	5378.97
958.163	5399.99
958.467	5357.95
958.771	5345.07
959.075	5333.32
959.378	5297.39
959.682	5335.13
959.985	5233.89
960.289	5213.55
960.592	5182.14
960.896	5176.71
961.199	5193.66
961.502	5156.38
961.805	5130.84
962.108	5035.25
962.411	5138.3
962.714	4999.77
963.017	5033.22
963.32	5044.06
963.623	4987.34
963.926	4964.97
964.228	4917.29
964.531	4935.14
964.833	4928.13
965.136	4884.74
965.438	4862.15
965.741	4804.97
966.043	4850.85
966.345	4726.56
966.648	4765.43
966.95	4746.67
967.252	4731.75
967.554	4695.6
967.856	4690.4
968.158	4675.94
968.46	4657.63
968.761	4610.63
969.063	4588.71
969.365	4571.53
969.666	4569.05
969.968	4536.96
970.269	4524.3
970.571	4484.3
970.872	4506.68
971.174	4462.83
971.475	4434.36
971.776	4417.41
972.077	4399.56
972.378	4381.48
972.679	4359.11
972.98	4374.48
973.281	4341.71
973.582	4293.8
973.883	4312.33
974.183	4231.43
974.484	4295.16
974.785	4187.14
975.085	4219.9
975.386	4243.63
975.686	4182.84
975.986	4142.84
976.287	4142.17
976.587	4157.76
976.887	4105.33
977.187	4117.53
977.487	4079.79
977.787	4081.15
978.087	4030.3
978.387	4003.19
978.687	4027.82
978.987	3993.92
979.286	3957.76
979.586	4001.38
979.885	3932.91
980.185	3927.26
980.484	3900.14
980.784	3862.85
981.083	3868.73
981.382	3843.87
981.682	3812.91
981.981	3811.33
982.28	3814.72
982.579	3773.59
982.878	3753.25
983.177	3718.45
983.475	3735.85
983.774	3695.4
984.073	3674.15
984.372	3688.17
984.67	3682.06
984.969	3635.74
985.267	3621.5
985.566	3581.05
985.864	3628.96
986.162	3572.46
986.461	3552.8
986.759	3515.97
987.057	3577.21
987.355	3506.7
987.653	3459.47
987.951	3451.34
988.249	3470.77
988.547	3492.24
988.844	3426.03
989.142	3385.12
989.44	3404.78
989.737	3395.07
990.035	3359.13
990.332	3340.83
990.63	3304.67
990.927	3294.5
991.224	3280.49
991.521	3301.06
991.819	3280.04
992.116	3283.66
992.413	3230.55
992.71	3218.12
993.006	3218.12
993.303	3186.26
993.6	3173.83
993.897	3193.04
994.193	3163.21
994.49	3172.47
994.787	3120.95
995.083	3078.01
995.379	3094.06
995.676	3082.08
995.972	3050.44
996.268	3005.7
996.565	3029.65
996.861	2982.65
997.157	2961.18
997.453	2982.42
997.749	3002.53
998.044	2961.63
998.34	2961.18
998.636	2917.34
998.932	2897
999.227	2896.1
999.523	2877.57
999.818	2845.93
1000.114	2846.83
1000.409	2811.8
1000.704	2816.55
1001	2808.41
1001.295	2753.5
1001.59	2819.94
1001.885	2785.14
1002.18	2764.57
1002.475	2746.04
1002.77	2685.25
1003.065	2690.9
1003.359	2694.52
1003.654	2635.09
1003.949	2693.84
1004.243	2632.6
1004.538	2595.99
1004.832	2635.76
1005.127	2589.44
1005.421	2574.3
1005.715	2552.15
1006.009	2589.21
1006.304	2509.21
1006.598	2498.37
1006.892	2484.58
1007.186	2508.76
1007.48	2498.82
1007.773	2451.81
1008.067	2475.99
1008.361	2428.99
1008.655	2403.23
1008.948	2423.11
1009.242	2403.45
1009.535	2381.76
1009.829	2394.41
1010.122	2334.3
1010.415	2371.59
1010.708	2346.51
1011.001	2321.87
1011.295	2306.06
1011.588	2311.03
1011.881	2268.32
1012.173	2267.41
1012.466	2237.36
1012.759	2238.49
1013.052	2194.19
1013.344	2217.47
1013.637	2180.18
1013.93	2199.62
1014.222	2142.9
1014.514	2155.1
1014.807	2162.33
1015.099	2124.82
1015.391	2127.3
1015.683	2081.43
1015.976	2092.73
1016.268	2094.08
1016.56	2087.98
1016.851	2054.76
1017.143	2063.12
1017.435	2031.71
1017.727	2015.67
1018.018	1953.07
1018.31	1989.23
1018.602	1988.78
1018.893	1961.43
1019.185	1971.37
1019.476	1950.13
1019.767	1911.72
1020.058	1894.99
1020.35	1921.66
1020.641	1878.27
1020.932	1839.63
1021.223	1847.76
1021.514	1849.34
1021.804	1820.64
1022.095	1817.71
1022.386	1814.54
1022.677	1803.47
1022.967	1779.06
1023.258	1774.77
1023.548	1754.66
1023.839	1746.07
1024.129	1694.55
1024.419	1744.26
1024.709	1713.75
1025	1704.49
1025.29	1691.83
1025.58	1676.47
1025.87	1666.52
1026.16	1635.56
1026.449	1655.9
1026.739	1640.08
1027.029	1630.14
1027.319	1627.65
1027.608	1616.81
1027.898	1587.2
1028.187	1578.16
1028.477	1570.71
1028.766	1537.49
1029.055	1527.54
1029.344	1527.32
1029.634	1530.71
1029.923	1527.09
1030.212	1489.13
1030.501	1511.95
1030.79	1503.14
1031.078	1481.22
1031.367	1471.95
1031.656	1474.66
1031.945	1416.14
1032.233	1429.02
1032.522	1425.17
1032.81	1423.82
1033.099	1426.53
1033.387	1411.84
1033.675	1382.24
1033.963	1368.23
1034.251	1351.28
1034.54	1367.77
1034.828	1358.51
1035.116	1333.2
1035.403	1333.65
1035.691	1313.76
1035.979	1321.45
1036.267	1296.59
1036.554	1290.94
1036.842	1289.58
1037.129	1283.48
1037.417	1253.88
1037.704	1248.46
1037.992	1227.89
1038.279	1236.48
1038.566	1248.68
1038.853	1248.68
1039.14	1248.68
