Data from 19-2025_FLMS001491_006.txt Node
Date: Thu Apr 19 16:34:52 BST 2018
User: hsy
Spectrometer: FLMS00149
Trigger mode: 0
Integration Time (sec): 1.000000E-2
Scans to average: 10
Electric dark correction enabled: true
Nonlinearity correction enabled: false
Boxcar width: 0
XAxis mode: Wavelengths
Number of Pixels in Spectrum: 2048
>>>>>Begin Spectral Data<<<<<
341.393	-5.56
341.776	-5.56
342.16	-5.56
342.543	-40.37
342.927	-44.66
343.31	-51.21
343.693	-76.07
344.077	-78.78
344.46	-66.81
344.843	-57.31
345.226	-29.52
345.61	-27.49
345.993	-8.05
346.376	-4.21
346.759	-6.24
347.142	30.59
347.525	43.93
347.908	46.41
348.291	68.33
348.674	106.3
349.057	110.14
349.44	127.09
349.823	133.87
350.206	175.22
350.588	219.06
350.971	245.95
351.354	242.56
351.737	282.79
352.119	284.82
352.502	293.18
352.884	299.96
353.267	331.15
353.65	337.25
354.032	345.84
354.414	334.99
354.797	345.39
355.179	354.88
355.562	368.66
355.944	352.39
356.326	366.4
356.709	368.21
357.091	371.6
357.473	369.34
357.855	368.44
358.238	389.68
358.62	372.05
359.002	376.35
359.384	356.69
359.766	378.38
360.148	368.44
360.53	405.5
360.912	383.8
361.294	384.71
361.676	387.19
362.057	371.37
362.439	365.5
362.821	384.48
363.203	359.85
363.584	377.02
363.966	385.84
364.348	381.77
364.729	384.48
365.111	364.82
365.493	367.76
365.874	365.5
366.256	356.46
366.637	405.05
367.019	395.55
367.4	374.09
367.781	363.92
368.163	360.3
368.544	383.58
368.925	378.83
369.306	373.86
369.688	372.5
370.069	380.41
370.45	390.81
370.831	397.59
371.212	382.45
371.593	373.63
371.974	372.28
372.355	353.97
372.736	392.16
373.117	371.83
373.498	369.11
373.879	386.52
374.26	382.9
374.641	363.69
375.021	383.13
375.402	403.01
375.783	373.86
376.163	430.36
376.544	411.37
376.925	410.02
377.305	401.88
377.686	430.36
378.066	412.96
378.447	429.23
378.827	441.43
379.208	421.09
379.588	399.4
379.968	412.73
380.349	419.96
380.729	437.59
381.109	413.63
381.489	441.66
381.87	424.71
382.25	431.03
382.63	425.61
383.01	444.37
383.39	432.84
383.77	464.48
384.15	432.84
384.53	460.86
384.91	456.34
385.29	438.04
385.67	452.5
386.049	451.15
386.429	475.78
386.809	453.63
387.189	469.45
387.568	484.59
387.948	491.82
388.328	490.24
388.707	474.42
389.087	492.05
389.466	491.37
389.846	489.11
390.225	498.38
390.605	506.51
390.984	510.13
391.363	511.03
391.743	518.94
392.122	491.82
392.501	505.16
392.881	523.01
393.26	529.79
393.639	541.77
394.018	522.78
394.397	537.7
394.776	538.6
395.155	544.48
395.534	531.82
395.913	536.34
396.292	569.79
396.671	556
397.05	579.73
397.429	558.04
397.808	570.24
398.186	563.91
398.565	571.37
398.944	570.24
399.323	582.44
399.701	592.61
400.08	594.65
400.458	589.67
400.837	607.98
401.215	609.33
401.594	608.43
401.972	631.48
402.351	617.7
402.729	618.6
403.107	611.59
403.486	637.36
403.864	641.42
404.242	648.2
404.62	626.96
404.999	669.22
405.377	659.95
405.755	660.86
406.133	704.47
406.511	673.06
406.889	671.03
407.267	697.92
407.645	697.92
408.023	719.61
408.401	719.16
408.779	732.27
409.156	736.34
409.534	737.47
409.912	751.93
410.29	727.75
410.667	759.16
411.045	770.91
411.422	771.59
411.8	785.37
412.178	789.44
412.555	796.9
412.933	800.97
413.31	808.43
413.687	836.22
414.065	834.87
414.442	826.28
414.819	830.8
415.197	836.45
415.574	852.72
415.951	883.68
416.328	901.08
416.705	883.68
417.082	900.85
417.46	885.49
417.837	922.32
418.214	931.36
418.591	916.22
418.967	933.85
419.344	937.91
419.721	941.98
420.098	966.39
420.475	953.28
420.852	953.28
421.228	981.08
421.605	978.14
421.982	1009.32
422.358	1010.68
422.735	1028.53
423.111	1016.56
423.488	1021.3
423.864	1030.79
424.241	1035.99
424.617	1063.56
424.994	1080.06
425.37	1060.85
425.746	1080.96
426.123	1128.42
426.499	1104.91
426.875	1095.65
427.251	1129.77
427.627	1167.74
428.003	1167.96
428.379	1181.52
428.756	1188.75
429.132	1197.79
429.507	1181.3
429.883	1212.26
430.259	1242.99
430.635	1260.39
431.011	1254.52
431.387	1295.42
431.763	1299.26
432.138	1302.65
432.514	1330.67
432.89	1335.87
433.265	1367.73
433.641	1392.59
434.016	1369.77
434.392	1423.32
434.767	1424
435.143	1421.74
435.518	1458.58
435.894	1462.19
436.269	1500.16
436.644	1522.53
437.02	1537.9
437.395	1546.26
437.77	1566.82
438.145	1559.37
438.52	1591.46
438.895	1595.52
439.271	1616.09
439.646	1629.87
440.021	1628.52
440.395	1622.87
440.77	1613.6
441.145	1639.82
441.52	1672.36
441.895	1679.14
442.27	1725.24
442.645	1716.65
443.019	1711
443.394	1713.94
443.769	1743.32
444.143	1750.77
444.518	1757.1
444.892	1754.84
445.267	1762.07
445.641	1780.38
446.016	1763.2
446.39	1823.09
446.764	1844.1
447.139	1807.27
447.513	1861.96
447.887	1839.13
448.262	1835.06
448.636	1867.15
449.01	1887.94
449.384	1876.65
449.758	1919.36
450.132	1916.42
450.506	1967.04
450.88	1974.72
451.254	1953.25
451.628	1996.87
452.002	2023.53
452.376	2040.26
452.75	2069.86
453.123	2092.91
453.497	2089.52
453.871	2093.82
454.244	2159.35
454.618	2160.03
454.992	2197.99
455.365	2199.12
455.739	2260.82
456.112	2278.89
456.486	2294.04
456.859	2296.75
457.232	2348.95
457.606	2330.87
457.979	2412
458.352	2428.04
458.725	2470.08
459.099	2445.9
459.472	2521.83
459.845	2546.46
460.218	2576.74
460.591	2605.89
460.964	2614.93
461.337	2653.8
461.71	2682.05
462.083	2767.47
462.456	2723.18
462.829	2753.46
463.201	2797.98
463.574	2784.64
463.947	2859.22
464.32	2913
464.692	2910.74
465.065	2913.23
465.438	2966.33
465.81	2979.67
466.183	3031.42
466.555	3081.59
466.928	3080.23
467.3	3083.39
467.672	3175.82
468.045	3177.85
468.417	3195.71
468.789	3225.31
469.161	3250.39
469.534	3318.19
469.906	3418.53
470.278	3387.34
470.65	3450.62
471.022	3529.48
471.394	3574.91
471.766	3566.09
472.138	3662.36
472.51	3682.47
472.882	3736.48
473.253	3757.05
473.625	3820.55
473.997	3897.16
474.369	3914.33
474.74	3957.49
475.112	4032.3
475.484	4069.58
475.855	4180.54
476.227	4217.83
476.598	4301.67
476.97	4325.62
477.341	4453.53
477.713	4471.38
478.084	4492.85
478.455	4634.09
478.827	4668.44
479.198	4823.23
479.569	4829.79
479.94	4948.88
480.311	4977.58
480.682	5126.28
481.053	5153.85
481.424	5245.82
481.795	5294.18
482.166	5425.25
482.537	5474.74
482.908	5538.02
483.279	5638.35
483.65	5747.5
484.021	5874.96
484.391	5917.44
484.762	6076.99
485.133	6085.8
485.503	6176.87
485.874	6310.2
486.244	6416.64
486.615	6452.57
486.985	6538.67
487.356	6634.94
487.726	6731.66
488.097	6894.14
488.467	6919.9
488.837	7104.98
489.207	7170.74
489.578	7202.83
489.948	7285.09
490.318	7447.8
490.688	7483.5
491.058	7630.84
491.428	7773.21
491.798	7759.2
492.168	8005.07
492.538	8044.39
492.908	8143.6
493.278	8181.34
493.648	8255.23
494.017	8374.55
494.387	8450.03
494.757	8466.75
495.126	8605.73
495.496	8638.05
495.866	8717.37
496.235	8791.94
496.605	8876.91
496.974	8958.04
497.344	9037.59
497.713	9175.89
498.082	9164.82
498.452	9270.35
498.821	9334.08
499.19	9343.12
499.559	9497.24
499.928	9494.98
500.298	9590.79
500.667	9668.53
501.036	9577.01
501.405	9753.5
501.774	9739.72
502.143	9849.32
502.512	9883.44
502.88	10059.93
503.249	9988.75
503.618	10151.23
503.987	10118.91
504.356	10162.98
504.724	10246.82
505.093	10304.67
505.462	10380.6
505.83	10422.64
506.199	10518
506.567	10572.91
506.936	10632.12
507.304	10724.55
507.672	10811.1
508.041	10835.05
508.409	10988.27
508.777	11012.22
509.145	11090.19
509.514	11094.93
509.882	11194.59
510.25	11231.65
510.618	11328.83
510.986	11434.59
511.354	11485.66
511.722	11583.73
512.09	11636.61
512.458	11700.79
512.826	11821.02
513.193	11837.51
513.561	11841.81
513.929	11992.09
514.297	12114.12
514.664	12210.16
515.032	12257.16
515.4	12373.54
515.767	12398.85
516.135	12531.28
516.502	12436.14
516.869	12736.02
517.237	12735.8
517.604	12748.68
517.972	13041.32
518.339	13029.35
518.706	13057.59
519.073	13150.02
519.44	13245.39
519.808	13350.69
520.175	13454.19
520.542	13656.67
520.909	13695.54
521.276	13853.96
521.643	13952.26
522.009	14065.48
522.376	14237.45
522.743	14225.25
523.11	14439.25
523.477	14537.56
523.843	14680.15
524.21	14825.23
524.577	14921.5
524.943	14946.58
525.31	15142.06
525.676	15344.09
526.043	15455.72
526.409	15536.17
526.776	15741.82
527.142	15745.89
527.508	15924.19
527.874	16133.22
528.241	16127.12
528.607	16279.88
528.973	16443.95
529.339	16403.5
529.705	16668.12
530.071	16839.64
530.437	16888.45
530.803	17001.67
531.169	17172.06
531.535	17262
531.901	17326.41
532.267	17324.83
532.632	17512.17
532.998	17621.99
533.364	17760.07
533.73	17835.55
534.095	18019.72
534.461	18125.71
534.826	18133.39
535.192	18237.8
535.557	18281.86
535.923	18518.92
536.288	18559.37
536.653	18581.74
537.019	18659.26
537.384	18693.15
537.749	18935.18
538.114	18848.18
538.479	18872.36
538.845	19042.3
539.21	19074.61
539.575	19181.73
539.94	19233.25
540.305	19366.81
540.67	19409.07
541.034	19474.37
541.399	19607.7
541.764	19660.36
542.129	19681.38
542.494	19789.39
542.858	19828.72
543.223	19875.04
543.587	19981.25
543.952	20068.71
544.316	20105.09
544.681	20047.69
545.045	20259.21
545.41	20319.1
545.774	20310.51
546.138	20288.36
546.503	20563.39
546.867	20512.09
547.231	20687.45
547.595	20719.31
547.959	20899.2
548.324	20847.22
548.688	20871.4
549.052	20981
549.416	21067.1
549.779	21147.55
550.143	21225.74
550.507	21350.03
550.871	21385.51
551.235	21432.06
551.599	21644.49
551.962	21703.47
552.326	21810.58
552.689	21949.79
553.053	21822.56
553.417	21956.8
553.78	22227.52
554.143	22225.26
554.507	22223.91
554.87	22298.71
555.234	22611.92
555.597	22450.12
555.96	22634.74
556.323	22717.45
556.686	22735.98
557.05	23107.73
557.413	23028.86
557.776	23029.54
558.139	23347.95
558.502	23378.91
558.865	23478.11
559.228	23776.41
559.59	23839.23
559.953	23835.16
560.316	24253.23
560.679	24087.36
561.041	24300.69
561.404	24588.59
561.767	24682.6
562.129	24700
562.492	25025.87
562.854	25010.27
563.217	25057.28
563.579	25279.19
563.941	25483.93
564.304	25655.23
564.666	25864.04
565.028	26029.91
565.39	26120.53
565.753	26332.73
566.115	26562.32
566.477	26815.88
566.839	26870.56
567.201	27220.16
567.563	27323.89
567.925	27354.85
568.287	27613.82
568.648	27774.27
569.01	28077.09
569.372	28386.68
569.734	28463.97
570.095	28709.61
570.457	28811.3
570.819	28941.7
571.18	29016.95
571.542	29321.12
571.903	29611.06
572.265	29656.71
572.626	29894.44
572.987	30075.23
573.349	30278.38
573.71	30462.56
574.071	30717.47
574.432	30945.94
574.794	31195.2
575.155	31275.87
575.516	31364.23
575.877	31620.72
576.238	31599.71
576.599	32019.81
576.96	32055.74
577.32	32219.35
577.681	32280.82
578.042	32417.99
578.403	32580.25
578.763	32754.03
579.124	32836.74
579.485	33069.95
579.845	33198.76
580.206	33244.63
580.566	33263.62
580.927	33396.27
581.287	33507.68
581.648	33572.99
582.008	33664.28
582.368	33861.34
582.728	33931.85
583.089	34015.24
583.449	34077.61
583.809	34116.48
584.169	34257.49
584.529	34081.67
584.889	34528.22
585.249	34381.1
585.609	34434.21
585.969	34670.13
586.329	34641.21
586.688	34917.13
587.048	34839.62
587.408	34989.22
587.768	34983.12
588.127	35097.24
588.487	35232.38
588.846	35473.05
589.206	35388.08
589.565	35480.96
589.925	35824.68
590.284	35830.78
590.643	35956.2
591.003	36047.27
591.362	36425.12
591.721	36298.11
592.08	36516.19
592.44	36729.06
592.799	36623.75
593.158	36789.4
593.517	36961.82
593.876	37125.44
594.235	37022.16
594.593	37268.94
594.952	37400.23
595.311	37536.72
595.67	37741.01
596.029	37918.18
596.387	38150.49
596.746	38232.3
597.104	38125.41
597.463	38324.5
597.822	38579.86
598.18	38601.78
598.538	38778.5
598.897	39079.51
599.255	38913.41
599.613	39513.4
599.972	39457.8
600.33	39658.03
600.688	39575.77
601.046	39757.01
601.404	40129.2
601.762	40060.05
602.12	40405.8
602.478	40400.15
602.836	40457.78
603.194	40309.76
603.552	40767.15
603.91	40619.13
604.268	41036.75
604.625	41003.75
604.983	41152.68
605.341	40984.77
605.698	41422.72
606.056	41661.81
606.413	41478.09
606.771	41800.79
607.128	41893.9
607.485	41759.44
607.843	41865.2
608.2	42080.56
608.557	42317.16
608.914	42324.85
609.272	42582.24
609.629	42682.13
609.986	42884.61
610.343	42899.52
610.7	43216.12
611.057	43083.92
611.414	43146.97
611.771	43421.32
612.127	43616.79
612.484	43621.76
612.841	43845.03
613.198	43756.67
613.554	43603.46
613.911	44087.74
614.267	44139.26
614.624	44151.47
614.98	44122.09
615.337	44382.87
615.693	44453.83
616.05	44308.07
616.406	44701.28
616.762	44633.04
617.118	44677.78
617.475	44758.91
617.831	44949.19
618.187	44996.87
618.543	45031.44
618.899	45277.54
619.255	45208.61
619.611	45145.11
619.967	45514.37
620.323	45516.85
620.678	45422.85
621.034	45481.15
621.39	45463.97
621.746	45419.91
622.101	45797.98
622.457	45488.83
622.812	45737.64
623.168	45760.69
623.523	45639.56
623.879	45829.16
624.234	45705.78
624.589	45854.92
624.945	45778.77
625.3	45807.02
625.655	45847.69
626.01	45933.79
626.365	45995.71
626.72	45869.84
627.075	45813.34
627.43	45806.56
627.785	45969.5
628.14	45944.64
628.495	45974.7
628.85	45924.53
629.205	45884.08
629.559	46012.66
629.914	45787.36
630.269	45917.07
630.623	45634.14
630.978	45592.33
631.332	45782.61
631.687	45913.68
632.041	45573.8
632.396	45792.1
632.75	45682.27
633.104	45759.79
633.459	45572.67
633.813	45448.38
634.167	45421.04
634.521	45420.81
634.875	45382.17
635.229	45312.57
635.583	45154.38
635.937	45105.11
636.291	45145.56
636.645	45148.95
636.999	44853.14
637.352	45055.17
637.706	44910.77
638.06	45067.37
638.413	45038.22
638.767	44718.23
639.121	44766.14
639.474	44455.19
639.828	44666.93
640.181	44459.48
640.534	44651.57
640.888	44344
641.241	44202.54
641.594	44388.75
641.947	44557.33
642.301	44276.89
642.654	44246.38
643.007	44148.53
643.36	44314.17
643.713	44144.01
644.066	44292.48
644.419	44052.26
644.771	43617.24
645.124	43222.45
645.477	43220.19
645.83	43144.71
646.182	43110.14
646.535	42952.18
646.888	43173.41
647.24	43094.54
647.593	43284.14
647.945	43074.43
648.298	42934.78
648.65	42760.32
649.002	42518.06
649.355	42412.75
649.707	42155.36
650.059	42194.91
650.411	42882.57
650.763	43078.95
651.115	43657.47
651.467	43507.87
651.819	43552.61
652.171	43417.47
652.523	43316.23
652.875	43445.95
653.227	43176.35
653.578	43468.55
653.93	43275.56
654.282	43076.47
654.633	43078.5
654.985	43171.6
655.337	43059.07
655.688	43132.51
656.039	43279.17
656.391	42827.89
656.742	42946.75
657.094	42945.85
657.445	43027.88
657.796	43170.02
658.147	42866.53
658.498	43074.43
658.849	43198.5
659.2	42866.98
659.551	42821.11
659.902	43063.81
660.253	42934.55
660.604	43074.21
660.955	42890.03
661.306	43011.84
661.656	42871.73
662.007	42938.16
662.358	42993.3
662.708	43117.14
663.059	43021.55
663.409	42673.99
663.76	43033.08
664.11	43014.77
664.461	43080.08
664.811	43086.18
665.161	43051.38
665.511	42930.93
665.862	42969.58
666.212	42990.14
666.562	42978.84
666.912	43029.46
667.262	42976.81
667.612	43032.63
667.962	42986.3
668.312	42801.22
668.662	43177.93
669.011	43031.72
669.361	43017.26
669.711	42829.02
670.06	42842.8
670.41	42820.2
670.76	42814.1
671.109	43012.97
671.459	42883.48
671.808	42787.66
672.157	42901.33
672.507	42600.77
672.856	42725.74
673.205	42838.73
673.554	42748.79
673.904	42744.5
674.253	43079.18
674.602	42688.45
674.951	42193.55
675.3	41993.56
675.649	42664.95
675.998	42744.05
676.346	42716.02
676.695	42650.49
677.044	42559.87
677.393	42572.52
677.741	42777.27
678.09	42466.31
678.438	42483.94
678.787	42583.15
679.135	42551.28
679.484	42132.54
679.832	42494.79
680.181	42334.11
680.529	42375.02
680.877	42161.91
681.225	42116.27
681.573	42230.16
681.922	41976.83
682.27	42047.11
682.618	41890.51
682.966	41821.81
683.314	41892.32
683.661	41771.64
684.009	41526
684.357	41454.81
684.705	41348.83
685.053	41304.08
685.4	41152.22
685.748	41114.03
686.095	41218.89
686.443	40966.01
686.79	40813.47
687.138	41011.21
687.485	40979.57
687.832	40788.84
688.18	40622.07
688.527	40513.6
688.874	40500.26
689.221	40418.68
689.568	40301.17
689.915	40106.6
690.262	40096.88
690.609	40027.96
690.956	39848.3
691.303	39740.51
691.65	39516.56
691.997	39571.02
692.344	39314.08
692.69	39197.7
693.037	39181.65
693.383	38869.35
693.73	38943.47
694.077	38735.79
694.423	38661.67
694.769	38590.03
695.116	38476.81
695.462	38401.56
695.808	38197.05
696.155	38293.77
696.501	37905.75
696.847	37929.93
697.193	37582.37
697.539	37832.76
697.885	37493.79
698.231	37397.75
698.577	37315.49
698.923	37511.19
699.269	37059.68
699.614	36875.27
699.96	36670.08
700.306	36687.71
700.651	36663.75
700.997	36475.96
701.342	36398.45
701.688	36267.83
702.033	36333.82
702.379	36152.35
702.724	35759.6
703.069	36016.54
703.415	35532.48
703.76	35555.76
704.105	35591.47
704.45	35344.24
704.795	35238.93
705.14	35212.49
705.485	35070.35
705.83	34831.49
706.175	34918.71
706.52	34934.99
706.865	34612.96
707.209	34547.88
707.554	34507.65
707.899	34518.5
708.243	34168.68
708.588	34142.24
708.932	34081.45
709.277	34319.18
709.621	34016.59
709.966	33687.11
710.31	33875.13
710.654	33562.59
710.998	33749.03
711.342	33634.45
711.687	33536.6
712.031	33485.53
712.375	33231.75
712.719	33260.45
713.063	33127.35
713.407	33208.93
713.75	33041.93
714.094	33142.49
714.438	33001.02
714.782	32967.58
715.125	32802.16
715.469	32824.08
715.812	32653.69
716.156	32540.92
716.499	32594.03
716.843	32693.01
717.186	32434.03
717.53	32533.24
717.873	32593.35
718.216	32331.66
718.559	32355.39
718.902	32100.26
719.246	32214.15
719.589	32043.54
719.932	31945.46
720.275	32048.06
720.617	31946.59
720.96	31966.93
721.303	31990.88
721.646	32046.47
721.989	31641.29
722.331	31776.2
722.674	31723.54
723.016	31749.98
723.359	31567.39
723.701	31672.02
724.044	31579.82
724.386	31420.73
724.729	31583.21
725.071	31522.19
725.413	31460.73
725.755	31414.63
726.097	31340.5
726.439	31356.55
726.782	31145.93
727.124	31464.12
727.465	31199.94
727.807	31173.28
728.149	31245.59
728.491	31104.58
728.833	31221.64
729.175	31201.07
729.516	31168.76
729.858	31141.86
730.199	31222.54
730.541	31095.09
730.882	30910.91
731.224	31142.77
731.565	31010.57
731.906	30856.45
732.248	31110.45
732.589	31074.75
732.93	30867.75
733.271	30901.42
733.612	31013.05
733.953	31082.88
734.294	30974.41
734.635	30910.23
734.976	31118.14
735.317	30966.28
735.658	30920.63
735.999	30935.77
736.339	30907.29
736.68	30986.16
737.021	30924.02
737.361	30849.67
737.702	31054.86
738.042	30961.98
738.383	31046.95
738.723	31069.78
739.063	30871.14
739.404	31039.95
739.744	31034.07
740.084	30963.79
740.424	31056.9
740.764	31057.57
741.104	31180.96
741.444	30944.36
741.784	31014.18
742.124	31312.93
742.464	31145.03
742.804	31020.74
743.143	31088.53
743.483	31287.17
743.823	31100.06
744.162	31347.06
744.502	31267.51
744.841	31217.57
745.181	31382.31
745.52	31306.38
745.86	31403.33
746.199	31404
746.538	31459.6
746.877	31517.67
747.216	31590.67
747.556	31487.62
747.895	31601.74
748.234	31597.9
748.573	31612.13
748.911	31537.79
749.25	31601.97
749.589	31566.26
749.928	31619.59
750.267	31743.66
750.605	31818.68
750.944	31806.93
751.283	31821.85
751.621	31867.27
751.96	31806.03
752.298	32015.06
752.636	31951.79
752.975	31859.59
753.313	31972.58
753.651	32113.59
753.989	31978
754.327	32062.07
754.666	31938.68
755.004	32252.34
755.342	32256.86
755.679	32201.72
756.017	32263.42
756.355	32305
756.693	32143.87
757.031	32481.26
757.368	32137.09
757.706	32298.22
758.044	32310.42
758.381	32366.01
758.719	32318.78
759.056	32445.56
759.394	32301.61
759.731	32055.51
760.068	32220.71
760.405	32196.53
760.743	32099.13
761.08	32320.59
761.417	32075.63
761.754	32262.29
762.091	32266.81
762.428	32080.15
762.765	31955.85
763.102	32071.11
763.438	32012.12
763.775	31814.62
764.112	31956.31
764.449	32008.28
764.785	31919.47
765.122	31743.2
765.458	31774.16
765.795	31693.94
766.131	31718.35
766.467	31607.84
766.804	31410.56
767.14	31442.65
767.476	31396.1
767.812	31342.76
768.148	31492.82
768.485	31373.27
768.821	31107.29
769.157	31070.91
769.492	31161.3
769.828	31048.76
770.164	30832.72
770.5	30800.63
770.836	30825.26
771.171	30602.9
771.507	30561.09
771.842	30410.81
772.178	30397.03
772.513	30272.06
772.849	30205.84
773.184	30235.22
773.519	30054.44
773.855	30023.25
774.19	29865.06
774.525	29863.25
774.86	29809.7
775.195	29682.92
775.53	29519.31
775.865	29497.84
776.2	29231.41
776.535	28992.09
776.87	29051.98
777.205	28869.61
777.539	28868.93
777.874	29005.42
778.209	28568.6
778.543	28571.31
778.878	28439.11
779.212	28419.22
779.547	28257.65
779.881	28236.4
780.215	28018.11
780.55	28074.37
780.884	27793.48
781.218	27753.03
781.552	27820.82
781.886	27690.2
782.22	27466.71
782.554	27502.64
782.888	27195.3
783.222	27207.96
783.556	27053.38
783.889	26816.33
784.223	26758.93
784.557	26797.8
784.89	26878.7
785.224	26573.85
785.557	26568.43
785.891	26466.96
786.224	26571.59
786.558	26364.82
786.891	26195.55
787.224	26043.92
787.557	26015.45
787.891	25973.41
788.224	25837.15
788.557	25779.97
788.89	25717.37
789.223	25722.12
789.556	25490.26
789.888	25554.67
790.221	25388.8
790.554	25234.9
790.887	25293.43
791.219	25100.22
791.552	25018.86
791.884	24993.55
792.217	24837.4
792.549	24791.52
792.882	24660
793.214	24624.52
793.546	24599.21
793.879	24426.34
794.211	24227.02
794.543	24475.15
794.875	24187.47
795.207	24249.62
795.539	24039.9
795.871	24086.23
796.203	23918.33
796.535	23850.98
796.867	23825.45
797.198	23699.8
797.53	23545.45
797.862	23499.58
798.193	23521.73
798.525	23323.54
798.856	23428.17
799.188	23161.28
799.519	23170.77
799.85	23030.89
800.182	23065.24
800.513	23071.57
800.844	22642.88
801.175	22919.26
801.506	22909.99
801.837	22780.73
802.168	22564.69
802.499	22719.04
802.83	22409.44
803.161	22430.23
803.491	22347.07
803.822	22492.15
804.153	22204.25
804.483	22246.05
804.814	22004.93
805.145	22105.72
805.475	22082.67
805.805	21961.99
806.136	22010.81
806.466	21841.54
806.796	21820.98
807.126	21725.16
807.457	21691.04
807.787	21636.8
808.117	21604.26
808.447	21415.11
808.777	21551.83
809.107	21337.83
809.436	21285.17
809.766	21329.92
810.096	21338.51
810.426	21153.65
810.755	21215.8
811.085	21035.01
811.414	21082.02
811.744	20958.86
812.073	20966.77
812.403	20831.63
812.732	20673.67
813.061	20919.31
813.39	20664.85
813.719	20649.71
814.049	20728.58
814.378	20737.62
814.707	20494.46
815.036	20619.88
815.365	20391.19
815.693	20377.63
816.022	20307.35
816.351	20272.77
816.68	20149.84
817.008	20254.92
817.337	20030.07
817.665	20122.49
817.994	20117.3
818.322	20161.14
818.651	19906.68
818.979	19832.11
819.307	19989.62
819.636	19925.44
819.964	19805.67
820.292	19924.53
820.62	19722.05
820.948	19959.33
821.276	19892.9
821.604	19766.34
821.932	19930.18
822.259	19800.02
822.587	19727.25
822.915	19765.67
823.243	19724.09
823.57	19695.39
823.898	19844.08
824.225	19841.82
824.553	19713.46
824.88	19694.71
825.207	19751.66
825.535	19681.38
825.862	19785.1
826.189	19718.44
826.516	19845.21
826.843	19806.8
827.17	19865.55
827.497	19803.41
827.824	19787.14
828.151	19912.78
828.478	19854.48
828.805	19834.14
829.131	19728.61
829.458	19839.79
829.785	19707.82
830.111	19749.17
830.438	19851.31
830.764	19710.53
831.09	19781.94
831.417	19694.26
831.743	19842.27
832.069	19838.43
832.395	19830.3
832.722	19755.05
833.048	19632.11
833.374	19832.56
833.7	19598.89
834.026	19728.83
834.351	19669.85
834.677	19695.16
835.003	19700.13
835.329	19627.37
835.654	19659.68
835.98	19498.78
836.306	19535.16
836.631	19495.84
836.956	19570.42
837.282	19589.85
837.607	19468.73
837.932	19480.7
838.258	19486.8
838.583	19438.9
838.908	19310.54
839.233	19351.89
839.558	19233.93
839.883	19306.7
840.208	19072.35
840.533	19197.32
840.858	19226.92
841.182	19180.6
841.507	19046.36
841.832	19050.88
842.156	19145.57
842.481	19047.72
842.805	18926.37
843.13	18930.43
843.454	18844.79
843.778	18813.83
844.103	18816.99
844.427	18729.54
844.751	18888.18
845.075	18819.25
845.399	18738.12
845.723	18555.53
846.047	18488.86
846.371	18422.88
846.695	18400.73
847.019	18299.04
847.343	18218.59
847.666	18129.33
847.99	18060.4
848.313	17939.73
848.637	17963.91
848.96	18021.53
849.284	17820.41
849.607	17682.78
849.931	17693.4
850.254	17698.6
850.577	17530.02
850.9	17402.11
851.223	17354.2
851.546	17230.37
851.869	17297.94
852.192	17310.82
852.515	17125.51
852.838	17083.03
853.161	17043.7
853.483	16899.75
853.806	16844.16
854.129	16764.84
854.451	16869.25
854.774	16655.69
855.096	16657.27
855.419	16589.03
855.741	16541.12
856.063	16357.62
856.385	16424.06
856.708	16376.15
857.03	16433.55
857.352	16177.96
857.674	16272.2
857.996	16140
858.318	16083.28
858.64	16074.69
858.961	16104.29
859.283	16038.99
859.605	15960.34
859.926	16056.39
860.248	15952.66
860.57	15796.05
860.891	15796.96
861.212	15749.73
861.534	15761.7
861.855	15634.48
862.176	15665.21
862.498	15720.8
862.819	15633.8
863.14	15556.74
863.461	15456.4
863.782	15474.48
864.103	15441.94
864.424	15423.63
864.745	15454.59
865.065	15380.25
865.386	15332.34
865.707	15331.21
866.027	15381.38
866.348	15286.01
866.668	15341.15
866.989	15272
867.309	15140.03
867.63	15137.54
867.95	15096.64
868.27	15068.16
868.59	15079.91
868.91	15016.87
869.23	15013.48
869.55	14908.39
869.87	15018.67
870.19	14994.49
870.51	14932.12
870.83	14896.64
871.15	14906.36
871.469	14742.07
871.789	14880.6
872.109	14790.88
872.428	14651
872.748	14753.6
873.067	14803.99
873.386	14766.93
873.706	14731.9
874.025	14601.28
874.344	14598.12
874.663	14669.3
874.982	14643.32
875.301	14604.45
875.62	14461.85
875.939	14506.14
876.258	14526.26
876.577	14440.16
876.896	14478.8
877.214	14340.05
877.533	14416.2
877.852	14446.26
878.17	14352.25
878.489	14295.98
878.807	14290.56
879.125	14218.24
879.444	14245.81
879.762	14202.2
880.08	14262.31
880.398	14210.56
880.716	14157.45
881.034	14076.78
881.352	14110.22
881.67	14163.55
881.988	14060.28
882.306	14072.48
882.624	14001.98
882.941	13946.16
883.259	13900.28
883.577	13963.11
883.894	13842.66
884.212	13834.75
884.529	13766.5
884.846	13858.25
885.164	13706.39
885.481	13760.63
885.798	13774.41
886.115	13674.53
886.432	13641.31
886.75	13630.23
887.067	13559.28
887.383	13531.48
887.7	13584.36
888.017	13449
888.334	13515.66
888.651	13361.32
888.967	13428.21
889.284	13391.6
889.6	13336.46
889.917	13242.9
890.233	13338.94
890.55	13225.95
890.866	13215.56
891.182	13127.88
891.498	13034.32
891.815	13033.64
892.131	13025.28
892.447	12959.74
892.763	12979.86
893.079	12957.26
893.395	12831.39
893.71	12843.14
894.026	12836.81
894.342	12830.48
894.657	12642.69
894.973	12677.27
895.289	12686.3
895.604	12578.51
895.92	12562.47
896.235	12530.6
896.55	12470.27
896.865	12394.34
897.181	12397.27
897.496	12362.02
897.811	12307.33
898.126	12326.09
898.441	12176.94
898.756	12249.48
899.071	12239.31
899.386	12197.73
899.7	12079.77
900.015	12036.6
900.33	11870.51
900.644	11918.19
900.959	11849.04
901.273	11828.93
901.588	11810.17
901.902	11766.56
902.216	11738.08
902.531	11677.97
902.845	11660.34
903.159	11528.6
903.473	11508.71
903.787	11418.54
904.101	11371.99
904.415	11503.29
904.729	11402.95
905.042	11339.67
905.356	11361.37
905.67	11217.87
905.984	11293.35
906.297	11179.45
906.611	11077.53
906.924	11070.75
907.237	11126.12
907.551	11010.64
907.864	10948.5
908.177	10977.88
908.491	10936.29
908.804	10903.53
909.117	10802.51
909.43	10710.09
909.743	10726.13
910.056	10718.22
910.368	10546.02
910.681	10589.18
910.994	10602.52
911.307	10487.94
911.619	10372.02
911.932	10346.71
912.244	10337.89
912.557	10451.11
912.869	10192.13
913.181	10187.16
913.494	10264.9
913.806	10104.45
914.118	10152.59
914.43	10073.04
914.742	10054.28
915.054	9911.69
915.366	9873.05
915.678	9877.11
915.99	9824.01
916.302	9798.02
916.613	9760.05
916.925	9772.26
917.236	9719.15
917.548	9669.44
917.859	9721.41
918.171	9626.27
918.482	9536.78
918.794	9500.4
919.105	9486.84
919.416	9378.37
919.727	9410.91
920.038	9323.91
920.349	9234.19
920.66	9195.32
920.971	9291.82
921.282	9226.28
921.593	9095.89
921.903	9099.96
922.214	9086.17
922.525	8974.31
922.835	9015.44
923.146	8899.74
923.456	8908.78
923.767	8927.99
924.077	8865.16
924.387	8769.8
924.697	8745.84
925.008	8794.2
925.318	8688.9
925.628	8667.43
925.938	8630.59
926.248	8546.07
926.558	8572.51
926.867	8495.91
927.177	8480.77
927.487	8426.53
927.796	8366.42
928.106	8484.16
928.416	8393.08
928.725	8319.19
929.034	8272.86
929.344	8301.34
929.653	8281.9
929.962	8212.52
930.271	8193.77
930.581	8096.82
930.89	8029.48
931.199	8042.59
931.508	7961.46
931.817	8008.46
932.125	7948.35
932.434	7906.09
932.743	7842.59
933.051	7824.96
933.36	7736.38
933.669	7765.3
933.977	7692.31
934.286	7734.12
934.594	7638.98
934.902	7589.26
935.21	7568.7
935.519	7592.88
935.827	7487.12
936.135	7486.89
936.443	7420.68
936.751	7417.97
937.059	7427.23
937.367	7342.04
937.674	7266.79
937.982	7260.68
938.29	7265.66
938.597	7298.65
938.905	7150.41
939.213	7161.25
939.52	7097.3
939.827	7142.95
940.135	7139.11
940.442	7063.4
940.749	7047.36
941.056	7034.02
941.363	6933.46
941.67	6991.99
941.977	6908.83
942.284	6916.06
942.591	6862.73
942.898	6901.6
943.205	6852.79
943.511	6692.79
943.818	6711.32
944.125	6673.81
944.431	6621.15
944.738	6658.21
945.044	6582.51
945.35	6534.83
945.657	6495.73
945.963	6560.82
946.269	6473.81
946.575	6465.68
946.881	6422.06
947.187	6436.07
947.493	6340.93
947.799	6327.83
948.105	6289.41
948.41	6249.19
948.716	6293.25
949.022	6243.76
949.327	6206.93
949.633	6153.14
949.938	6122.86
950.244	6170.32
950.549	6082.18
950.854	6036.08
951.16	6032.24
951.465	5995.18
951.77	6021.17
952.075	6009.87
952.38	5935.07
952.685	5901.85
952.99	5943.43
953.294	5902.53
953.599	5868.86
953.904	5776.88
954.209	5724.68
954.513	5830.67
954.818	5736.21
955.122	5677.68
955.426	5700.5
955.731	5660.5
956.035	5662.99
956.339	5663.21
956.643	5648.52
956.948	5542.99
957.252	5581.41
957.556	5554.74
957.86	5495.76
958.163	5535.98
958.467	5513.16
958.771	5437
959.075	5424.12
959.378	5349.55
959.682	5374.86
959.985	5327.4
960.289	5302.54
960.592	5298.7
960.896	5267.97
961.199	5255.31
961.502	5213.96
961.805	5237.01
962.108	5202.66
962.411	5161.76
962.714	5135.99
963.017	5143.23
963.32	5107.52
963.623	5093.51
963.926	5078.37
964.228	5005.38
964.531	5032.49
964.833	5006.28
965.136	4984.81
965.438	4939.62
965.741	4889.67
966.043	4925.6
966.345	4874.31
966.648	4853.74
966.95	4836.57
967.252	4806.96
967.554	4814.2
967.856	4755.89
968.158	4741.43
968.46	4743.69
968.761	4752.28
969.063	4703.92
969.365	4673.18
969.666	4654.2
969.968	4635.44
970.269	4614.65
970.571	4601.77
970.872	4606.52
971.174	4518.38
971.475	4512.73
971.776	4505.5
972.077	4489.23
972.378	4451.95
972.679	4427.99
972.98	4435.45
973.281	4398.39
973.582	4371.04
973.883	4362.46
974.183	4325.62
974.484	4315.23
974.785	4307.77
975.085	4310.48
975.386	4328.56
975.686	4283.36
975.986	4247.2
976.287	4238.62
976.587	4191.84
976.887	4189.13
977.187	4178.96
977.487	4164.95
977.787	4121.56
978.087	4130.6
978.387	4060.77
978.687	4108.68
978.987	4030.04
979.286	4083.82
979.586	4052.41
979.885	3994.33
980.185	3968.34
980.484	3960.43
980.784	3967.89
981.083	3931.05
981.382	3927.21
981.682	3897.16
981.981	3873.2
982.28	3864.39
982.579	3863.94
982.878	3822.81
983.177	3800.89
983.475	3793.21
983.774	3781.68
984.073	3747.56
984.372	3709.14
984.67	3727.9
984.969	3668.46
985.267	3705.07
985.566	3668.01
985.864	3654.23
986.162	3621.01
986.461	3607.67
986.759	3598.86
987.057	3568.58
987.355	3594.79
987.653	3535.59
987.951	3529.26
988.249	3525.19
988.547	3499.2
988.844	3458.07
989.142	3484.06
989.44	3443.84
989.737	3428.47
990.035	3410.84
990.332	3399.77
990.63	3384.85
990.927	3392.54
991.224	3353.22
991.521	3365.42
991.819	3383.5
992.116	3287
992.413	3327.23
992.71	3283.61
993.006	3286.55
993.303	3240.45
993.6	3236.61
993.897	3210.17
994.193	3236.61
994.49	3210.85
994.787	3202.71
995.083	3156.39
995.379	3122.94
995.676	3138.53
995.972	3129.72
996.268	3118.42
996.565	3107.35
996.861	3062.38
997.157	3061.47
997.453	3040.68
997.749	3031.42
998.044	3036.84
998.34	2972.21
998.636	2965.66
998.932	2970.18
999.227	2919.78
999.523	2930.18
999.818	2927.47
1000.114	2950.52
1000.409	2874.13
1000.704	2894.25
1001	2847.47
1001.295	2863.96
1001.59	2826.45
1001.885	2776.28
1002.18	2824.42
1002.475	2793.68
1002.77	2790.97
1003.065	2749.84
1003.359	2742.16
1003.654	2728.15
1003.949	2668.26
1004.243	2695.83
1004.538	2683.63
1004.832	2651.54
1005.127	2629.39
1005.421	2622.16
1005.715	2559.11
1006.009	2634.37
1006.304	2598.21
1006.598	2560.92
1006.892	2550.07
1007.186	2555.27
1007.48	2503.97
1007.773	2511.88
1008.067	2467.82
1008.361	2465.78
1008.655	2451.77
1008.948	2451.77
1009.242	2457.65
1009.535	2441.15
1009.829	2431.66
1010.122	2391.43
1010.415	2414.71
1010.708	2355.05
1011.001	2338.33
1011.295	2306.01
1011.588	2309.63
1011.881	2306.01
1012.173	2264.21
1012.466	2289.74
1012.759	2278.44
1013.052	2273.92
1013.344	2232.57
1013.637	2238.67
1013.93	2201.61
1014.222	2201.83
1014.514	2211.33
1014.807	2189.18
1015.099	2176.3
1015.391	2129.07
1015.683	2129.29
1015.976	2112.8
1016.268	2135.85
1016.56	2092.46
1016.851	2090.65
1017.143	2073.48
1017.435	2050.43
1017.727	2034.61
1018.018	2027.38
1018.31	2025.12
1018.602	2026.02
1018.893	1976.08
1019.185	1986.47
1019.476	1952.8
1019.767	1951.45
1020.058	1956.64
1020.35	1916.42
1020.641	1919.13
1020.932	1918
1021.223	1905.8
1021.514	1897.21
1021.804	1850.88
1022.095	1831.68
1022.386	1854.27
1022.677	1822.86
1022.967	1828.51
1023.258	1793.94
1023.548	1788.96
1023.839	1755.97
1024.129	1762.75
1024.419	1744.22
1024.709	1719.81
1025	1724.33
1025.29	1706.93
1025.58	1705.12
1025.87	1681.85
1026.16	1669.87
1026.449	1664.22
1026.739	1657.22
1027.029	1625.58
1027.319	1616.99
1027.608	1640.95
1027.898	1612.02
1028.187	1591.68
1028.477	1578.8
1028.766	1578.35
1029.055	1577.9
1029.344	1563.89
1029.634	1559.14
1029.923	1566.6
1030.212	1537.9
1030.501	1501.51
1030.79	1499.25
1031.078	1482.53
1031.367	1487.05
1031.656	1513.94
1031.945	1466.03
1032.233	1447.73
1032.522	1443.66
1032.81	1434.85
1033.099	1447.96
1033.387	1458.58
1033.675	1430.78
1033.963	1384
1034.251	1368.18
1034.54	1409.31
1034.828	1368.41
1035.116	1359.37
1035.403	1340.84
1035.691	1337
1035.979	1350.78
1036.267	1311.24
1036.554	1319.15
1036.842	1324.57
1037.129	1318.92
1037.417	1276.66
1037.704	1280.05
1037.992	1269.43
1038.279	1262.65
1038.566	1284.57
1038.853	1284.57
1039.14	1284.57
