Data from 19-2025_FLMS001491_008.txt Node
Date: Thu Apr 19 16:34:56 BST 2018
User: hsy
Spectrometer: FLMS00149
Trigger mode: 0
Integration Time (sec): 1.000000E-2
Scans to average: 10
Electric dark correction enabled: true
Nonlinearity correction enabled: false
Boxcar width: 0
XAxis mode: Wavelengths
Number of Pixels in Spectrum: 2048
>>>>>Begin Spectral Data<<<<<
341.393	-11.29
341.776	-11.29
342.16	-11.29
342.543	-38.85
342.927	-63.71
343.31	-64.62
343.693	-84.5
344.077	-71.17
344.46	-63.04
344.843	-43.6
345.226	-33.66
345.61	-26.65
345.993	3.4
346.376	10.86
346.759	-0.21
347.142	23.29
347.525	41.59
347.908	61.03
348.291	59.9
348.674	91.09
349.057	96.28
349.44	122.5
349.823	136.73
350.206	153.91
350.588	197.98
350.971	256.05
351.354	272.55
351.737	243.17
352.119	273.23
352.502	278.42
352.884	322.72
353.267	314.58
353.65	327.46
354.032	326.33
354.414	360.46
354.797	327.69
355.179	339.89
355.562	353.23
355.944	376.73
356.326	366.56
356.709	387.57
357.091	365.65
357.473	383.05
357.855	387.35
358.238	385.31
358.62	376.5
359.002	381.25
359.384	396.16
359.766	381.47
360.148	382.15
360.53	374.92
360.912	386.22
361.294	377.63
361.676	376.05
362.057	391.87
362.439	348.71
362.821	379.67
363.203	355.71
363.584	370.85
363.966	364.98
364.348	380.12
364.729	372.66
365.111	359.55
365.493	365.2
365.874	365.2
366.256	348.48
366.637	363.85
367.019	385.54
367.4	354.81
367.781	377.18
368.163	368.59
368.544	364.98
368.925	383.51
369.306	360.68
369.688	383.51
370.069	370.17
370.45	371.98
370.831	358.65
371.212	385.31
371.593	388.48
371.974	375.37
372.355	362.94
372.736	405.65
373.117	384.41
373.498	357.29
373.879	393.45
374.26	390.96
374.641	365.65
375.021	395.26
375.402	397.52
375.783	382.6
376.163	402.26
376.544	416.73
376.925	386.44
377.305	399.78
377.686	389.16
378.066	425.99
378.447	413.56
378.827	404.75
379.208	419.21
379.588	417.63
379.968	414.01
380.349	396.16
380.729	428.48
381.109	438.65
381.489	449.49
381.87	415.37
382.25	414.69
382.63	421.7
383.01	431.64
383.39	431.87
383.77	451.08
384.15	450.17
384.53	449.72
384.91	442.94
385.29	447.01
385.67	463.73
386.049	445.88
386.429	439.32
386.809	454.24
387.189	460.12
387.568	458.08
387.948	482.04
388.328	461.02
388.707	499.21
389.087	461.7
389.466	488.59
389.846	501.47
390.225	483.39
390.605	487.91
390.984	516.16
391.363	515.48
391.743	523.62
392.122	512.77
392.501	529.94
392.881	513.9
393.26	542.15
393.639	524.07
394.018	524.97
394.397	530.62
394.776	535.82
395.155	557.06
395.534	550.51
395.913	549.15
396.292	549.6
396.671	554.35
397.05	548.47
397.429	559.32
397.808	559.32
398.186	553.9
398.565	574.69
398.944	565.87
399.323	580.34
399.701	586.44
400.08	590.96
400.458	588.02
400.837	608.13
401.215	611.98
401.594	614.91
401.972	611.3
402.351	639.55
402.729	640
403.107	642.94
403.486	628.47
403.864	632.99
404.242	625.08
404.62	641.81
404.999	667.12
405.377	658.08
405.755	673.89
406.133	702.59
406.511	669.15
406.889	698.98
407.267	690.62
407.645	712.76
408.023	702.14
408.401	709.15
408.779	720.67
409.156	722.03
409.534	723.16
409.912	735.36
410.29	737.85
410.667	762.25
411.045	792.31
411.422	768.58
411.8	794.12
412.178	800.45
412.555	810.39
412.933	823.95
413.31	829.37
413.687	860.33
414.065	849.94
414.442	837.96
414.819	868.69
415.197	870.05
415.574	847
415.951	884.51
416.328	871.18
416.705	894.68
417.082	903.95
417.46	910.05
417.837	908.69
418.214	931.06
418.591	926.32
418.967	933.32
419.344	925.41
419.721	942.59
420.098	954.11
420.475	962.93
420.852	988.91
421.228	1009.48
421.605	970.61
421.982	988.01
422.358	1054.9
422.735	989.59
423.111	1023.72
423.488	1031.85
423.864	1062.81
424.241	1057.84
424.617	1057.61
424.994	1063.04
425.37	1088.57
425.746	1065.07
426.123	1096.71
426.499	1114.34
426.875	1121.57
427.251	1143.49
427.627	1151.17
428.003	1153.66
428.379	1194.78
428.756	1171.73
429.132	1222.58
429.507	1203.15
429.883	1215.12
430.259	1240.43
430.635	1285.4
431.011	1252.64
431.387	1297.38
431.763	1311.84
432.138	1328.57
432.514	1340.54
432.89	1352.07
433.265	1383.48
433.641	1387.77
434.016	1422.35
434.392	1460.77
434.767	1457.38
435.143	1439.75
435.518	1497.38
435.894	1480.2
436.269	1489.01
436.644	1505.51
437.02	1539.41
437.395	1558.39
437.77	1568.79
438.145	1567.2
438.52	1575.57
438.895	1603.36
439.271	1611.5
439.646	1640.42
440.021	1625.73
440.395	1679.74
440.77	1627.09
441.145	1664.83
441.52	1723.36
441.895	1682.68
442.27	1727.43
442.645	1706.41
443.019	1707.31
443.394	1729.69
443.769	1766.07
444.143	1773.53
444.518	1804.94
444.892	1751.61
445.267	1776.46
445.641	1794.77
446.016	1796.8
446.39	1830.02
446.764	1841.55
447.139	1848.55
447.513	1847.88
447.887	1836.8
448.262	1883.81
448.636	1870.47
449.01	1916.35
449.384	1945.73
449.758	1919.96
450.132	1962.67
450.506	1982.79
450.88	1985.5
451.254	1982.79
451.628	2030.47
452.002	2040.41
452.376	2039.73
452.75	2046.51
453.123	2088.32
453.497	2144.14
453.871	2170.8
454.244	2209.9
454.618	2177.13
454.992	2232.27
455.365	2252.61
455.739	2280.18
456.112	2298.26
456.486	2354.98
456.859	2351.36
457.232	2390.69
457.606	2371.25
457.979	2441.53
458.352	2473.17
458.725	2493.73
459.099	2508.2
459.472	2521.08
459.845	2572.6
460.218	2618.7
460.591	2650.11
460.964	2643.11
461.337	2689.89
461.71	2721.52
462.083	2762.65
462.456	2746.83
462.829	2781.64
463.201	2834.52
463.574	2832.03
463.947	2873.84
464.32	2889.66
464.692	2935.98
465.065	2972.14
465.438	2995.19
465.81	3040.61
466.183	3073.38
466.555	3126.26
466.928	3127.39
467.3	3142.53
467.672	3202.87
468.045	3246.03
468.417	3246.48
468.789	3274.05
469.161	3328.06
469.534	3346.82
469.906	3435.63
470.278	3454.39
470.65	3463.65
471.022	3557.66
471.394	3619.13
471.766	3631.11
472.138	3702.29
472.51	3735.74
472.882	3789.52
473.253	3825.9
473.625	3856.18
473.997	3955.62
474.369	4001.94
474.74	4015.95
475.112	4064.31
475.484	4122.62
475.855	4190.64
476.227	4248.04
476.598	4352.22
476.97	4358.32
477.341	4439.67
477.713	4565.54
478.084	4568.93
478.455	4736.16
478.827	4645.77
479.198	4852.09
479.569	4916.95
479.94	5007.34
480.311	5061.35
480.682	5175.7
481.053	5288.91
481.424	5340.44
481.795	5429.48
482.166	5501.34
482.537	5529.36
482.908	5697.49
483.279	5764.38
483.65	5838.73
484.021	5981.78
484.391	5999.4
484.762	6078.72
485.133	6124.37
485.503	6294.76
485.874	6375.67
486.244	6466.51
486.615	6563.23
486.985	6622.21
487.356	6723.91
487.726	6783.79
488.097	6976.78
488.467	7007.06
488.837	7156.44
489.207	7234.4
489.578	7337.67
489.948	7367.5
490.318	7542.19
490.688	7522.75
491.058	7737.44
491.428	7841.39
491.798	7863.76
492.168	8028.05
492.538	8069.18
492.908	8183.08
493.278	8343.75
493.648	8353.69
494.017	8362.51
494.387	8555.5
494.757	8576.29
495.126	8713.46
495.496	8763.63
495.866	8861.48
496.235	8943.06
496.605	9033.45
496.974	9043.39
497.344	9165.2
497.713	9265.31
498.082	9218.98
498.452	9382.14
498.821	9460.56
499.19	9416.26
499.559	9439.54
499.928	9574.9
500.298	9629.37
500.667	9798.4
501.036	9723.15
501.405	9874.1
501.774	9835.24
502.143	10011.28
502.512	9974.44
502.88	10159.3
503.249	10166.07
503.618	10212.63
503.987	10219.18
504.356	10314.55
504.724	10437.03
505.093	10419.63
505.462	10474.77
505.83	10545.95
506.199	10668.21
506.567	10762.89
506.936	10843.8
507.304	10960.63
507.672	10928.31
508.041	11019.61
508.409	11090.34
508.777	11189.55
509.145	11252.83
509.514	11267.06
509.882	11326.72
510.25	11411.24
510.618	11437.68
510.986	11566.49
511.354	11655.3
511.722	11794.28
512.09	11845.58
512.458	11818.01
512.826	11956.31
513.193	11999.7
513.561	12020.04
513.929	12175.74
514.297	12246.25
514.664	12415.05
515.032	12421.16
515.4	12483.98
515.767	12608.27
516.135	12652.56
516.502	12583.41
516.869	12826.12
517.237	12938.21
517.604	12887.58
517.972	13111.53
518.339	13146.79
518.706	13271.08
519.073	13288.25
519.44	13478.76
519.808	13588.13
520.175	13575.25
520.542	13813.66
520.909	13930.5
521.276	13937.05
521.643	14109.7
522.009	14227.44
522.376	14294.78
522.743	14367.77
523.11	14614.55
523.477	14770.93
523.843	14834.88
524.21	15075.1
524.577	15122.55
524.943	15300.63
525.31	15356.22
525.676	15516.67
526.043	15614.97
526.409	15680.05
526.776	15902.87
527.142	16072.13
527.508	16118.01
527.874	16327.72
528.241	16401.62
528.607	16469.41
528.973	16698.33
529.339	16696.52
529.705	16932.68
530.071	17045.22
530.437	17213.12
530.803	17199.34
531.169	17412.89
531.535	17446.79
531.901	17523.17
532.267	17705.09
532.632	17815.36
532.998	17874.35
533.364	18066.21
533.73	17992.99
534.095	18282.02
534.461	18330.38
534.826	18404.5
535.192	18502.58
535.557	18690.82
535.923	18670.03
536.288	18808.79
536.653	18915.22
537.019	18949.8
537.384	19127.19
537.749	19162.22
538.114	19203.13
538.479	19231.82
538.845	19297.81
539.21	19296.68
539.575	19495.32
539.94	19547.97
540.305	19746.39
540.67	19670.46
541.034	19749.78
541.399	19852.37
541.764	19896.21
542.129	20013.27
542.494	19981.86
542.858	20204.23
543.223	20066.61
543.587	20270.67
543.952	20311.34
544.316	20419.36
544.681	20418.91
545.045	20659.58
545.41	20674.72
545.774	20688.74
546.138	20727.15
546.503	20794.04
546.867	20794.27
547.231	21017.54
547.595	21052.79
547.959	21062.06
548.324	21089.4
548.688	21250.08
549.052	21236.07
549.416	21354.48
549.779	21442.16
550.143	21523.74
550.507	21608.03
550.871	21649.16
551.235	21763.74
551.599	21981.13
551.962	21867.69
552.326	22018.87
552.689	22154.23
553.053	22074.46
553.417	22236.49
553.78	22337.28
554.143	22443.72
554.507	22529.37
554.87	22572.53
555.234	22865.4
555.597	22752.41
555.96	22916.02
556.323	23060.88
556.686	23008.22
557.05	23224.04
557.413	23442.11
557.776	23452.73
558.139	23633.74
558.502	23711.26
558.865	23810.69
559.228	24023.56
559.59	24097.01
559.953	24085.71
560.316	24355.08
560.679	24386.94
561.041	24621.29
561.404	24774.5
561.767	25050.88
562.129	24923.88
562.492	25268.73
562.854	25369.74
563.217	25432.79
563.579	25626.46
563.941	25758.21
564.304	25974.02
564.666	26209.72
565.028	26266.89
565.39	26371.75
565.753	26670.95
566.115	26675.47
566.477	26918.18
566.839	27053.54
567.201	27426.64
567.563	27428.9
567.925	27723.58
568.287	27840.19
568.648	27983.01
569.01	28173.51
569.372	28415.76
569.734	28535.54
570.095	28772.14
570.457	29018.91
570.819	29114.73
571.18	29241.96
571.542	29509.75
571.903	29663.87
572.265	29840.13
572.626	30069.28
572.987	30200.8
573.349	30423.85
573.71	30622.94
574.071	30947.22
574.432	31000.1
574.794	31260.21
575.155	31395.57
575.516	31427.21
575.877	31703.14
576.238	31770.25
576.599	31911.27
576.96	32033.97
577.32	32213.4
577.681	32350.8
578.042	32617.01
578.403	32695.65
578.763	32804.58
579.124	32865.14
579.485	33110.78
579.845	33254.51
580.206	33148.52
580.566	33356.65
580.927	33290.66
581.287	33692.69
581.648	33513.03
582.008	33801.16
582.368	33783.31
582.728	33990.76
583.089	34033.24
583.449	33979.91
583.809	34120.47
584.169	34219
584.529	34279.56
584.889	34550.29
585.249	34405.89
585.609	34386.91
585.969	34565.66
586.329	34677.29
586.688	34812.88
587.048	34717.07
587.408	35081.13
587.768	35089.71
588.127	35092.2
588.487	35161.35
588.846	35562.24
589.206	35344.4
589.565	35539.64
589.925	35900.54
590.284	35811.5
590.643	35825.29
591.003	35931.72
591.362	36251.94
591.721	36227.99
592.08	36434.54
592.44	36653.29
592.799	36744.58
593.158	36622.78
593.517	36802.21
593.876	37040.17
594.235	37135.31
594.593	37312.93
594.952	37301.41
595.311	37448.97
595.67	37625.24
596.029	37870.43
596.387	37924.44
596.746	38169.41
597.104	38106.81
597.463	38251.89
597.822	38651.2
598.18	38467.7
598.538	38729.17
598.897	38981.36
599.255	38922.38
599.613	39416.15
599.972	39328.7
600.33	39347
600.688	39455.47
601.046	39636.03
601.404	40067.66
601.762	39858.63
602.12	40108.56
602.478	40261.78
602.836	40423.58
603.194	40280.76
603.552	40536.58
603.91	40520.3
604.268	40899.96
604.625	40817.25
604.983	41179.27
605.341	40980.63
605.698	41387.17
606.056	41615.64
606.413	41447.74
606.771	41734.06
607.128	41720.73
607.485	41650.67
607.843	41795.53
608.2	42194.61
608.557	42293.37
608.914	42226.93
609.272	42502.4
609.629	42762.51
609.986	42770.41
610.343	42776.29
610.7	43066.68
611.057	43068.94
611.414	43205.43
611.771	43397.97
612.127	43324.3
612.484	43491.53
612.841	43656.04
613.198	43668.47
613.554	43733.33
613.911	43978.52
614.267	43947.33
614.624	44015.58
614.98	44157.5
615.337	44407.21
615.693	44252.18
616.05	44337.38
616.406	44680.2
616.762	44559.29
617.118	44771.94
617.475	44661.66
617.831	44830.93
618.187	44850.13
618.543	44962.67
618.899	45292.38
619.255	45163.57
619.611	45105.04
619.967	45274.53
620.323	45466.62
620.678	45142.1
621.034	45176.23
621.39	45135.32
621.746	45281.08
622.101	45756.33
622.457	45442.89
622.812	45610.34
623.168	45639.94
623.523	45613.28
623.879	45814.63
624.234	45648.31
624.589	45730.34
624.945	45875.42
625.3	45891.91
625.655	45924.46
626.01	45995.41
626.365	45910.45
626.72	45837.68
627.075	45831.13
627.43	45900.95
627.785	45992.93
628.14	45860.5
628.495	45996.32
628.85	45914.29
629.205	45801.52
629.559	45970.33
629.914	45822.09
630.269	45892.59
630.623	45595.2
630.978	45557.69
631.332	45838.13
631.687	45734.18
632.041	45561.3
632.396	45673.16
632.75	45606.95
633.104	45654.63
633.459	45466.84
633.813	45408.99
634.167	45461.64
634.521	45420.06
634.875	45462.32
635.229	45251.93
635.583	45197.92
635.937	45176.91
636.291	45094.65
636.645	45259.62
636.999	44944.37
637.352	44914.99
637.706	44822.11
638.06	44882.9
638.413	44858.72
638.767	44581.67
639.121	44683.13
639.474	44675
639.828	44730.36
640.181	44516.58
640.534	44638.39
640.888	44443.14
641.241	44197.72
641.594	44280.66
641.947	44485.85
642.301	44204.95
642.654	44381.9
643.007	44215.57
643.36	44341.45
643.713	44054.9
644.066	44283.37
644.419	43893.55
644.771	43477.74
645.124	43345.77
645.477	43199.56
645.83	43061.25
646.182	43085.43
646.535	43041.82
646.888	43145.32
647.24	42995.49
647.593	43239.33
647.945	43131.54
648.298	42838.89
648.65	42559.8
649.002	42378.56
649.355	42326.58
649.707	42069.42
650.059	42184.44
650.411	42690.64
650.763	43155.26
651.115	43613.1
651.467	43423.51
651.819	43437.74
652.171	43400.23
652.523	43148.03
652.875	43292.89
653.227	43184.42
653.578	43508.47
653.93	43190.52
654.282	43183.29
654.633	42973.57
654.985	43141.7
655.337	43233
655.688	43144.19
656.039	43347.12
656.391	42954.36
656.742	43112.78
657.094	43216.96
657.445	43052.67
657.796	43207.47
658.147	43108.03
658.498	43076.4
658.849	43068.49
659.2	43044.31
659.551	42975.83
659.902	43223.06
660.253	42974.25
660.604	43167.69
660.955	42873.01
661.306	43257.18
661.656	42898.77
662.007	43042.95
662.358	43237.3
662.708	43043.63
663.059	43081.14
663.409	42856.29
663.76	43112.1
664.11	43018.54
664.461	43164.53
664.811	43170.63
665.161	42920.92
665.511	43023.97
665.862	43079.33
666.212	43145.09
666.562	43095.38
666.912	43166.56
667.262	43061.93
667.612	43086.11
667.962	43087.47
668.312	42959.34
668.662	43170.86
669.011	43092.89
669.361	43096.96
669.711	43193.23
670.06	42958.66
670.41	42888.83
670.76	42891.09
671.109	43089.73
671.459	43034.36
671.808	43044.31
672.157	43085.66
672.507	42901.03
672.856	42729.51
673.205	42774.26
673.554	42805.89
673.904	42669.85
674.253	43024.19
674.602	42804.99
674.951	42209.75
675.3	42043.2
675.649	42740.36
675.998	42748.49
676.346	42715.73
676.695	42743.52
677.044	42460.82
677.393	42598.67
677.741	42686.12
678.09	42599.57
678.438	42618.55
678.787	42612.45
679.135	42543.3
679.484	42284.33
679.832	42397.77
680.181	42219.69
680.529	42343.76
680.877	42061.51
681.225	42147.15
681.573	42428.96
681.922	42175.4
682.27	42053.82
682.618	41994.16
682.966	41866.94
683.314	41892.47
683.661	41906.93
684.009	41663.78
684.357	41589.2
684.705	41343.56
685.053	41456.33
685.4	41402.99
685.748	41266.05
686.095	41221.76
686.443	41029.67
686.79	41005.94
687.138	41101.31
687.485	40904.93
687.832	40744.93
688.18	40764.14
688.527	40632.39
688.874	40545.84
689.221	40483.47
689.568	40320.99
689.915	40218.17
690.262	40290.71
690.609	40153.99
690.956	39860.89
691.303	39958.51
691.65	39742.25
691.997	39827.44
692.344	39464.74
692.69	39374.12
693.037	39458.19
693.383	39224.75
693.73	39146.78
694.077	38921.7
694.423	38832.44
694.769	38740.69
695.116	38743.63
695.462	38596.97
695.808	38429.96
696.155	38449.4
696.501	38121.5
696.847	38232.46
697.193	37813.48
697.539	37968.51
697.885	37657.33
698.231	37597.22
698.577	37418.24
698.923	37473.61
699.269	37165.82
699.614	36970.57
699.96	36846.95
700.306	37004.69
700.651	36693.51
700.997	36641.99
701.342	36402.9
701.688	36544.36
702.033	36210.36
702.379	36299.17
702.724	36066.64
703.069	35972.63
703.415	35803.82
703.76	35755.68
704.105	35825.74
704.45	35615.57
704.795	35357.5
705.14	35284.06
705.485	35339.65
705.83	35007.46
706.175	35235.25
706.52	34914.35
706.865	34945.08
707.209	34771.08
707.554	34692.44
707.899	34735.82
708.243	34489.28
708.588	34440.24
708.932	34349.85
709.277	34350.98
709.621	34142.17
709.966	33930.42
710.31	33905.79
710.654	33739.47
710.998	33572.69
711.342	33669.86
711.687	33566.82
712.031	33420.15
712.375	33318.23
712.719	33272.36
713.063	33355.97
713.407	33348.29
713.75	33194.4
714.094	33138.35
714.438	33061.07
714.782	33053.38
715.125	32855.42
715.469	33076.88
715.812	32741.3
716.156	32645.71
716.499	32637.57
716.843	32712.6
717.186	32541.53
717.53	32664.69
717.873	32792.15
718.216	32516.9
718.559	32319.62
718.902	32141.32
719.246	32357.81
719.589	32160.07
719.932	32075.78
720.275	32090.02
720.617	32139.06
720.96	31986.52
721.303	32121.66
721.646	32134.31
721.989	31983.35
722.331	32023.8
722.674	31842.57
723.016	31786.07
723.359	31548.11
723.701	31776.58
724.044	31617.94
724.386	31592.86
724.729	31727.99
725.071	31685.73
725.413	31735.9
725.755	31554.89
726.097	31606.41
726.439	31395.57
726.782	31427.21
727.124	31529.81
727.465	31307.89
727.807	31150.38
728.149	31239.42
728.491	31180.21
728.833	31321.45
729.175	31234.9
729.516	31273.99
729.858	31170.72
730.199	31378.62
730.541	31169.36
730.882	31102.47
731.224	31143.83
731.565	31091.4
731.906	31179.08
732.248	31225.41
732.589	31120.78
732.93	30875.13
733.271	30996.49
733.612	31082.13
733.953	31132.98
734.294	30984.51
734.635	30998.52
734.976	31126.65
735.317	31041.46
735.658	31141.79
735.999	30877.39
736.339	30895.02
736.68	31053.43
737.021	31172.08
737.361	31017.05
737.702	31227.89
738.042	31073.55
738.383	31126.65
738.723	31212.3
739.063	30903.16
739.404	31075.36
739.744	31120.1
740.084	31180.44
740.424	31168.01
740.764	31067.22
741.104	31130.04
741.444	31154
741.784	30994
742.124	31152.87
742.464	31112.64
742.804	31053.89
743.143	31148.8
743.483	31192.87
743.823	31142.92
744.162	31242.13
744.502	31254.11
744.841	31209.81
745.181	31408.68
745.52	31334.56
745.86	31423.82
746.199	31457.72
746.538	31444.84
746.877	31686.41
747.216	31565.06
747.556	31543.59
747.895	31639.63
748.234	31589.01
748.573	31612.29
748.911	31510.37
749.25	31773.42
749.589	31640.31
749.928	31889.8
750.267	31940.42
750.605	31811.38
750.944	31943.13
751.283	31812.74
751.621	32027.19
751.96	31994.65
752.298	32134.99
752.636	32158.72
752.975	32051.83
753.313	32101.32
753.651	32471.02
753.989	32183.35
754.327	32270.13
754.666	32249.56
755.004	32278.94
755.342	32424.92
755.679	32440.97
756.017	32182.44
756.355	32497.92
756.693	32487.97
757.031	32598.25
757.368	32372.5
757.706	32611.59
758.044	32339.95
758.381	32602.77
758.719	32486.39
759.056	32565.49
759.394	32542.66
759.731	32318.49
760.068	32524.13
760.405	32514.41
760.743	32286.62
761.08	32453.62
761.417	32338.82
761.754	32406.85
762.091	32343.8
762.428	32242.78
762.765	32290.69
763.102	32397.81
763.438	32309.67
763.775	32124.37
764.112	32155.78
764.449	32141.77
764.785	32164.14
765.122	32104.48
765.458	31960.3
765.795	31884.37
766.131	31944.71
766.467	31890.48
766.804	31807.31
767.14	31669.24
767.476	31606.87
767.812	31554.44
768.148	31719.86
768.485	31477.38
768.821	31270.15
769.157	31293.43
769.492	31234.67
769.828	31313.09
770.164	30899.77
770.5	30832.2
770.836	31024.96
771.171	30859.54
771.507	30749.49
771.842	30460.23
772.178	30690.05
772.513	30547.01
772.849	30495.48
773.184	30380.91
773.519	30187.24
773.855	30223.85
774.19	30131.65
774.525	30031.31
774.86	29805.78
775.195	29940.92
775.53	29734.15
775.865	29758.33
776.2	29479.24
776.535	29326.7
776.87	29281.73
777.205	29209.87
777.539	29200.38
777.874	29063.2
778.209	28939.37
778.543	28954.96
778.878	28727.62
779.212	28713.38
779.547	28596.55
779.881	28528.3
780.215	28176.67
780.55	28399.04
780.884	28158.14
781.218	28178.93
781.552	28239.27
781.886	27954.31
782.22	27759.06
782.554	27739.17
782.888	27470.48
783.222	27560.65
783.556	27309.13
783.889	27323.59
784.223	27164.05
784.557	27107.32
784.89	27061.45
785.224	26878.4
785.557	26739.2
785.891	26757.5
786.224	26584.63
786.558	26682.02
786.891	26530.16
787.224	26358.42
787.557	26171.53
787.891	26241.36
788.224	25981.03
788.557	26028.03
788.89	26008.37
789.223	25942.61
789.556	25723.86
789.888	25742.16
790.221	25589.4
790.554	25521.83
790.887	25409.52
791.219	25291.33
791.552	25229.63
791.884	25175.4
792.217	25068.96
792.549	25006.59
792.882	24901.96
793.214	24727.95
793.546	24645.47
793.879	24697.67
794.211	24495.42
794.543	24751.45
794.875	24505.13
795.207	24407.73
795.539	24393.72
795.871	24322.99
796.203	24210
796.535	23920.97
796.867	23992.38
797.198	23817.47
797.53	23808.65
797.862	23629.45
798.193	23681.43
798.525	23503.58
798.856	23630.58
799.188	23420.64
799.519	23227.2
799.85	23226.07
800.182	23195.11
800.513	23268.1
800.844	22981.33
801.175	23085.73
801.506	22998.28
801.837	22910.6
802.168	22833.99
802.499	22796.93
802.83	22691.85
803.161	22523.04
803.491	22548.57
803.822	22622.92
804.153	22387.67
804.483	22241.69
804.814	22230.39
805.145	22227.9
805.475	22236.04
805.805	22160.56
806.136	22157.17
806.466	21967.12
806.796	22037.4
807.126	21813
807.457	21777.75
807.787	21713.79
808.117	21829.04
808.447	21603.74
808.777	21748.37
809.107	21510.86
809.436	21459.56
809.766	21516.74
810.096	21497.08
810.426	21235.39
810.755	21401.94
811.085	21256.86
811.414	21230.64
811.744	20977.77
812.073	21112.23
812.403	20984.77
812.732	20892.57
813.061	20994.26
813.39	20763.31
813.719	20785.68
814.049	20934.6
814.378	20816.19
814.707	20752.24
815.036	20626.14
815.365	20573.94
815.693	20453.94
816.022	20499.36
816.351	20384.79
816.68	20414.17
817.008	20440.15
817.337	20261.63
817.665	20183.21
817.994	20120.39
818.322	20277
818.651	20192.93
818.979	20074.97
819.307	20094.63
819.636	19992.48
819.964	19929.43
820.292	20044.46
820.62	19962.2
820.948	20032.03
821.276	20035.42
821.604	19923.78
821.932	20035.87
822.259	19978.7
822.587	19940.96
822.915	19889.43
823.243	19921.75
823.57	19858.02
823.898	20041.75
824.225	19909.32
824.553	19787.97
824.88	19873.16
825.207	20015.31
825.535	19813.05
825.862	19910.45
826.189	19777.12
826.516	19934.86
826.843	19992.26
827.17	19925.14
827.497	20009.21
827.824	19936.89
828.151	19950
828.478	19881.3
828.805	19989.32
829.131	19909.1
829.458	19949.77
829.785	19762.88
830.111	19875.88
830.438	19923.78
830.764	19867.97
831.09	19887.63
831.417	19829.1
831.743	19990.67
832.069	19820.74
832.395	19817.8
832.722	19953.84
833.048	19863.45
833.374	19910.68
833.7	19740.96
834.026	19892.15
834.351	19787.52
834.677	19822.77
835.003	19851.7
835.329	19765.14
835.654	19720.4
835.98	19564.47
836.306	19806.5
836.631	19569.22
836.956	19757.91
837.282	19712.94
837.607	19544.36
837.932	19604.47
838.258	19507.52
838.583	19500.97
838.908	19362.22
839.233	19455.55
839.558	19355.21
839.883	19316.57
840.208	19239.28
840.533	19289.45
840.858	19256.23
841.182	19406.51
841.507	19221.66
841.832	19145.95
842.156	19124.48
842.481	19118.61
842.805	19034.09
843.13	19100.98
843.454	19062.11
843.778	18954.54
844.103	18961.1
844.427	18855.79
844.751	18972.4
845.075	18847.88
845.399	18778.73
845.723	18724.27
846.047	18593.65
846.371	18555.68
846.695	18563.14
847.019	18489.25
847.343	18389.14
847.666	18288.35
847.99	18155.92
848.313	18151.18
848.637	18116.83
848.96	18081.57
849.284	18031.4
849.607	17840.67
849.931	17882.03
850.254	17787.8
850.577	17652.66
850.9	17537.41
851.223	17543.96
851.546	17406.11
851.869	17360.46
852.192	17500.57
852.515	17235.27
852.838	17122.95
853.161	17130.41
853.483	17035.95
853.806	17033.69
854.129	17010.87
854.451	16948.72
854.774	16882.96
855.096	16783.3
855.419	16808.16
855.741	16659.46
856.063	16583.08
856.385	16596.41
856.708	16546.25
857.03	16464.21
857.352	16531.78
857.674	16502.86
857.996	16356.19
858.318	16201.17
858.64	16240.94
858.961	16239.14
859.283	16105.13
859.605	16073.04
859.926	16157.78
860.248	15986.26
860.57	16040.5
860.891	15925.02
861.212	15895.64
861.534	15932.02
861.855	15810.22
862.176	15747.4
862.498	15788.75
862.819	15839.6
863.14	15714.18
863.461	15700.39
863.782	15711.69
864.103	15683.9
864.424	15508.08
864.745	15644.12
865.065	15457.91
865.386	15399.38
865.707	15537.68
866.027	15523
866.348	15423.34
866.668	15406.61
866.989	15403.22
867.309	15238.26
867.63	15250.91
867.95	15320.97
868.27	15200.52
868.59	15316
868.91	15228.31
869.23	15210.69
869.55	15095.89
869.87	15193.96
870.19	15033.29
870.51	15065.83
870.83	15074.19
871.15	15042.56
871.469	14847.53
871.789	15059.96
872.109	14985.16
872.428	14847.99
872.748	15022.9
873.067	14832.84
873.386	14895.22
873.706	14784.03
874.025	14798.04
874.344	14749
874.663	14785.16
874.982	14670.14
875.301	14697.48
875.62	14583.81
875.939	14527.32
876.258	14627.88
876.577	14516.02
876.896	14554.43
877.214	14568.67
877.533	14532.06
877.852	14538.61
878.17	14584.49
878.489	14561.21
878.807	14492.29
879.125	14500.2
879.444	14445.96
879.762	14452.29
880.08	14389.92
880.398	14332.29
880.716	14308.34
881.034	14271.05
881.352	14316.02
881.67	14236.48
881.988	14234.89
882.306	14168
882.624	14157.83
882.941	13992.64
883.259	13950.16
883.577	14018.85
883.894	14014.79
884.212	13973.66
884.529	13947.67
884.846	13912.64
885.164	13838.07
885.481	13904.73
885.798	13788.13
886.115	13740.22
886.432	13763.49
886.75	13663.84
887.067	13684.85
887.383	13632.2
887.7	13714.91
888.017	13538.42
888.334	13591.75
888.651	13526.21
888.967	13536.61
889.284	13414.8
889.6	13343.17
889.917	13293.45
890.233	13299.33
890.55	13276.5
890.866	13315.14
891.182	13316.05
891.498	13262.04
891.815	13190.4
892.131	13205.32
892.447	13115.38
892.763	13058.2
893.079	12961.93
893.395	12907.7
893.71	12850.98
894.026	12875.61
894.342	12850.75
894.657	12761.03
894.973	12741.15
895.289	12773.92
895.604	12739.11
895.92	12648.95
896.235	12629.74
896.55	12555.84
896.865	12533.7
897.181	12490.99
897.496	12505.45
897.811	12410.76
898.126	12332.12
898.441	12318.11
898.756	12380.48
899.071	12254.38
899.386	12255.96
899.7	12208.51
900.015	12059.36
900.33	12002.86
900.644	12073.37
900.959	11961.06
901.273	11908.18
901.588	11931.68
901.902	11809.87
902.216	11776.65
902.531	11813.49
902.845	11748.18
903.159	11668.18
903.473	11581.18
903.787	11520.84
904.101	11573.72
904.415	11492.59
904.729	11532.59
905.042	11479.49
905.356	11444.23
905.67	11360.39
905.984	11402.88
906.297	11329.89
906.611	11212.83
906.924	11185.26
907.237	11180.96
907.551	11111.81
907.864	11033.4
908.177	11043.34
908.491	11012.61
908.804	10918.15
909.117	10895.32
909.43	10780.75
909.743	10770.8
910.056	10816.68
910.368	10653.97
910.681	10689.68
910.994	10696.46
911.307	10607.87
911.619	10457.37
911.932	10501.43
912.244	10528.78
912.557	10488.55
912.869	10369.01
913.181	10272.96
913.494	10344.15
913.806	10217.15
914.118	10165.62
914.43	10176.92
914.742	10204.72
915.054	10109.13
915.366	10097.38
915.678	9955.23
915.99	9973.99
916.302	9929.47
916.613	9864.39
916.925	9855.35
917.236	9815.8
917.548	9772.86
917.859	9742.36
918.171	9677.27
918.482	9610.83
918.794	9559.08
919.105	9552.98
919.416	9523.15
919.727	9435.47
920.038	9463.95
920.349	9341.69
920.66	9356.38
920.971	9306.89
921.282	9315.25
921.593	9258.53
921.903	9154.8
922.214	9100.57
922.525	9068.93
922.835	9124.97
923.146	9004.52
923.456	8967.24
923.767	8931.76
924.077	8975.6
924.387	8924.98
924.697	8833.45
925.008	8811.08
925.318	8755.49
925.628	8759.56
925.938	8768.82
926.248	8623.29
926.558	8618.54
926.867	8637.3
927.177	8552.56
927.487	8492.67
927.796	8458.1
928.106	8426.91
928.416	8361.38
928.725	8399.34
929.034	8361.15
929.344	8353.24
929.653	8245.9
929.962	8312.56
930.271	8250.87
930.581	8166.58
930.89	8149.18
931.199	8065.79
931.508	8069.86
931.817	8085.9
932.125	8003.65
932.434	7967.71
932.743	7966.81
933.051	7904.44
933.36	7925.91
933.669	7873.93
933.977	7785.57
934.286	7807.72
934.594	7731.34
934.902	7758.68
935.21	7634.62
935.519	7618.57
935.827	7631.9
936.135	7523.66
936.443	7526.6
936.751	7457.9
937.059	7431.68
937.367	7462.42
937.674	7413.15
937.982	7369.76
938.29	7384.9
938.597	7317.56
938.905	7222.42
939.213	7218.58
939.52	7200.28
939.827	7252.7
940.135	7193.05
940.442	7081.41
940.749	7066.72
941.056	7079.6
941.363	7035.31
941.67	7024.46
941.977	6955.99
942.284	6891.58
942.591	6931.81
942.898	6851.81
943.205	6893.39
943.511	6861.98
943.818	6847.29
944.125	6748.99
944.431	6767.97
944.738	6669.44
945.044	6662.89
945.35	6642.1
945.657	6636.45
945.963	6636
946.269	6555.32
946.575	6534.76
946.881	6478.49
947.187	6507.19
947.493	6483.46
947.799	6410.47
948.105	6410.02
948.41	6351.03
948.716	6358.72
949.022	6321.43
949.327	6254.54
949.633	6237.14
949.938	6248.66
950.244	6207.31
950.549	6161.89
950.854	6106.52
951.16	6123.92
951.465	6064.04
951.77	6071.72
952.075	6039.63
952.38	6018.61
952.685	6064.94
952.99	5911.95
953.294	5998.27
953.599	5939.29
953.904	5863.36
954.209	5861.55
954.513	5858.39
954.818	5845.96
955.122	5851.39
955.426	5759.86
955.731	5745.17
956.035	5692.07
956.339	5666.08
956.643	5649.36
956.948	5602.58
957.252	5594.44
957.556	5568.68
957.86	5538.85
958.163	5548.34
958.467	5511.51
958.771	5505.86
959.075	5490.94
959.378	5439.65
959.682	5423.15
959.985	5363.26
960.289	5305.41
960.592	5324.62
960.896	5264.06
961.199	5293.21
961.502	5309.25
961.805	5245.53
962.108	5232.64
962.411	5229.03
962.714	5131.18
963.017	5166.88
963.32	5168.01
963.623	5094.34
963.926	5175.92
964.228	5091.41
964.531	5116.04
964.833	5062.25
965.136	4968.47
965.438	5036.94
965.741	4965.08
966.043	4917.62
966.345	4909.49
966.648	4881.24
966.95	4890.96
967.252	4824.07
967.554	4823.39
967.856	4827.68
968.158	4795.14
968.46	4754.92
968.761	4752.21
969.063	4751.98
969.365	4711.08
969.666	4653
969.968	4613
970.269	4640.8
970.571	4627.92
970.872	4572.1
971.174	4570.06
971.475	4558.09
971.776	4566.9
972.077	4521.7
972.378	4472.44
972.679	4437.41
972.98	4438.09
973.281	4446
973.582	4446.68
973.883	4383.85
974.183	4418.2
974.484	4368.49
974.785	4344.98
975.085	4347.47
975.386	4297.08
975.686	4295.49
975.986	4308.38
976.287	4226.8
976.587	4224.99
976.887	4214.14
977.187	4217.76
977.487	4254.37
977.787	4151.32
978.087	4170.75
978.387	4124.65
978.687	4106.35
978.987	4124.2
979.286	4044.65
979.586	4042.62
979.885	4036.07
980.185	3967.82
980.484	3970.31
980.784	3984.54
981.083	3998.33
981.382	3961.72
981.682	3939.35
981.981	3923.3
982.28	3897.76
982.579	3886.01
982.878	3870.65
983.177	3805.34
983.475	3834.49
983.774	3793.13
984.073	3827.03
984.372	3749.75
984.67	3751.55
984.969	3747.94
985.267	3723.31
985.566	3685.57
985.864	3737.99
986.162	3640.82
986.461	3609.18
986.759	3635.4
987.057	3559.47
987.355	3576.19
987.653	3622.07
987.951	3551.33
988.249	3545.01
988.547	3522.41
988.844	3496.87
989.142	3513.37
989.44	3492.35
989.737	3491.45
990.035	3479.92
990.332	3464.78
990.63	3433.82
990.927	3411
991.224	3399.47
991.521	3320.38
991.819	3348.17
992.116	3315.86
992.413	3298.68
992.71	3301.17
993.006	3274.73
993.303	3272.92
993.6	3276.99
993.897	3232.7
994.193	3277.22
994.49	3236.31
994.787	3166.26
995.083	3202.19
995.379	3160.61
995.676	3148.18
995.972	3142.98
996.268	3131.46
996.565	3125.13
996.861	3094.85
997.157	3099.14
997.453	3081.97
997.749	3045.36
998.044	3040.61
998.34	3018.01
998.636	3006.26
998.932	2993.61
999.227	2972.37
999.523	2984.12
999.818	2948.41
1000.114	2943.21
1000.409	2880.16
1000.704	2888.53
1001	2869.32
1001.295	2798.36
1001.59	2830.9
1001.885	2851.46
1002.18	2792.48
1002.475	2798.81
1002.77	2746.16
1003.065	2775.31
1003.359	2712.26
1003.654	2738.47
1003.949	2699.6
1004.243	2718.59
1004.538	2708.19
1004.832	2700.51
1005.127	2695.99
1005.421	2632.94
1005.715	2618.48
1006.009	2613.05
1006.304	2623.9
1006.598	2586.16
1006.892	2528.99
1007.186	2521.53
1007.48	2565.37
1007.773	2523.11
1008.067	2494.41
1008.361	2496.22
1008.655	2486.5
1008.948	2440.4
1009.242	2454.41
1009.535	2430.01
1009.829	2404.47
1010.122	2403.79
1010.415	2424.36
1010.708	2378.93
1011.001	2377.58
1011.295	2364.92
1011.588	2357.24
1011.881	2358.37
1012.173	2317.24
1012.466	2334.87
1012.759	2287.64
1013.052	2281.54
1013.344	2280.86
1013.637	2268.43
1013.93	2216.23
1014.222	2203.57
1014.514	2215.32
1014.807	2183.23
1015.099	2148.88
1015.391	2136.46
1015.683	2119.28
1015.976	2109.11
1016.268	2134.65
1016.56	2119.51
1016.851	2098.04
1017.143	2071.82
1017.435	2046.74
1017.727	2054.65
1018.018	2042.67
1018.31	2048.32
1018.602	2001.77
1018.893	2013.52
1019.185	1984.59
1019.476	1987.08
1019.767	1955.67
1020.058	1939.85
1020.35	1932.17
1020.641	1938.27
1020.932	1948.89
1021.223	1896.69
1021.514	1879.96
1021.804	1842.68
1022.095	1867.54
1022.386	1856.91
1022.677	1833.41
1022.967	1824.6
1023.258	1787.99
1023.548	1756.58
1023.839	1794.54
1024.129	1792.28
1024.419	1730.59
1024.709	1731.95
1025	1711.83
1025.29	1724.71
1025.58	1685.62
1025.87	1703.47
1026.16	1713.64
1026.449	1666.64
1026.739	1667.77
1027.029	1669.57
1027.319	1632.74
1027.608	1620.31
1027.898	1625.06
1028.187	1577.15
1028.477	1608.56
1028.766	1572.63
1029.055	1558.84
1029.344	1580.76
1029.634	1545.28
1029.923	1557.26
1030.212	1536.7
1030.501	1500.54
1030.79	1514.55
1031.078	1516.36
1031.367	1484.95
1031.656	1512.06
1031.945	1496.47
1032.233	1452.63
1032.522	1459.41
1032.81	1443.37
1033.099	1449.69
1033.387	1422.8
1033.675	1420.77
1033.963	1404.95
1034.251	1426.87
1034.54	1390.94
1034.828	1404.95
1035.116	1352.52
1035.403	1349.58
1035.691	1363.59
1035.979	1347.32
1036.267	1346.42
1036.554	1345.52
1036.842	1309.13
1037.129	1292.64
1037.417	1271.62
1037.704	1279.98
1037.992	1267.33
1038.279	1288.79
1038.566	1246.08
1038.853	1246.08
1039.14	1246.08
