Data from 19-2025_FLMS001491_009.txt Node
Date: Thu Apr 19 16:34:58 BST 2018
User: hsy
Spectrometer: FLMS00149
Trigger mode: 0
Integration Time (sec): 1.000000E-2
Scans to average: 10
Electric dark correction enabled: true
Nonlinearity correction enabled: false
Boxcar width: 0
XAxis mode: Wavelengths
Number of Pixels in Spectrum: 2048
>>>>>Begin Spectral Data<<<<<
341.393	0.35
341.776	0.35
342.16	0.35
342.543	-48.69
342.927	-39.65
343.31	-65.41
343.693	-79.87
344.077	-51.62
344.46	-63.37
344.843	-47.33
345.226	-46.65
345.61	-37.39
345.993	3.97
346.376	-14.34
346.759	2.61
347.142	27.25
347.525	34.48
347.908	50.07
348.291	79.9
348.674	114.7
349.057	93.01
349.44	124.42
349.823	142.04
350.206	179.33
350.588	217.52
350.971	255.49
351.354	256.62
351.737	249.61
352.119	271.08
352.502	302.04
352.884	302.49
353.267	329.84
353.65	338.42
354.032	358.54
354.414	363.06
354.797	363.51
355.179	368.93
355.562	358.08
355.944	356.95
356.326	378.65
356.709	373
357.091	367.58
357.473	363.28
357.855	362.6
358.238	400.12
358.62	394.47
359.002	385.88
359.384	373.68
359.766	376.84
360.148	377.74
360.53	391.98
360.912	379.78
361.294	377.29
361.676	381.81
362.057	391.08
362.439	374.13
362.821	403.73
363.203	374.81
363.584	380.91
363.966	402.15
364.348	374.81
364.729	380.23
365.111	365.54
365.493	387.01
365.874	375.03
366.256	357.41
366.637	363.28
367.019	366.9
367.4	355.37
367.781	363.51
368.163	366.45
368.544	344.3
368.925	366.22
369.306	384.75
369.688	378.2
370.069	367.12
370.45	391.76
370.831	377.29
371.212	400.57
371.593	385.88
371.974	369.16
372.355	391.53
372.736	399.89
373.117	390.17
373.498	388.14
373.879	384.52
374.26	382.49
374.641	370.96
375.021	379.78
375.402	388.59
375.783	396.05
376.163	404.18
376.544	409.83
376.925	420
377.305	422.94
377.686	410.96
378.066	409.83
378.447	422.94
378.827	415.48
379.208	414.81
379.588	417.97
379.968	420.68
380.349	427.01
380.729	417.97
381.109	445.09
381.489	447.57
381.87	427.69
382.25	449.15
382.63	427.01
383.01	428.36
383.39	450.74
383.77	435.37
384.15	452.09
384.53	460
384.91	456.84
385.29	462.71
385.67	484.18
386.049	473.79
386.429	455.26
386.809	486.67
387.189	471.3
387.568	488.93
387.948	483.05
388.328	501.81
388.707	470.85
389.087	480.34
389.466	488.48
389.846	466.56
390.225	488.7
390.605	483.05
390.984	523.96
391.363	523.05
391.743	522.6
392.122	537.06
392.501	521.7
392.881	523.96
393.26	518.08
393.639	530.73
394.018	530.28
394.397	552.88
394.776	530.73
395.155	552.43
395.534	565.99
395.913	589.04
396.292	566.21
396.671	574.12
397.05	563.95
397.429	563.05
397.808	591.75
398.186	578.19
398.565	591.75
398.944	563.5
399.323	560.34
399.701	578.42
400.08	589.49
400.458	612.31
400.837	637.17
401.215	606.89
401.594	613.22
401.972	621.35
402.351	601.47
402.729	642.6
403.107	644.86
403.486	648.02
403.864	651.18
404.242	640.34
404.62	663.61
404.999	663.39
405.377	650.05
405.755	675.14
406.133	685.08
406.511	673.56
406.889	649.15
407.267	706.1
407.645	715.59
408.023	718.3
408.401	733.22
408.779	744.74
409.156	752.42
409.534	734.57
409.912	751.07
410.29	775.02
410.667	779.09
411.045	765.53
411.422	805.76
411.8	788.58
412.178	802.59
412.555	796.26
412.933	814.57
413.31	854.12
413.687	861.12
414.065	848.47
414.442	861.35
414.819	897.05
415.197	877.84
415.574	887.79
415.951	888.47
416.328	888.92
416.705	895.24
417.082	921.23
417.46	938.41
417.837	937.28
418.214	923.27
418.591	947.67
418.967	938.86
419.344	960.78
419.721	975.24
420.098	1005.98
420.475	982.02
420.852	986.54
421.228	968.24
421.605	986.99
421.982	1002.13
422.358	1025.86
422.735	1021.8
423.111	1034.68
423.488	1059.76
423.864	1034.68
424.241	1042.13
424.617	1068.12
424.994	1061.79
425.37	1075.35
425.746	1097.05
426.123	1106.31
426.499	1111.96
426.875	1144.96
427.251	1151.28
427.627	1181.34
428.003	1182.24
428.379	1187.89
428.756	1188.57
429.132	1201.68
429.507	1241.22
429.883	1235.57
430.259	1236.25
430.635	1245.29
431.011	1289.36
431.387	1324.16
431.763	1326.42
432.138	1329.81
432.514	1357.38
432.89	1321.22
433.265	1392.86
433.641	1408
434.016	1376.59
434.392	1423.82
434.767	1470.6
435.143	1432.63
435.518	1476.7
435.894	1480.77
436.269	1486.19
436.644	1512.18
437.02	1550.59
437.395	1532.52
437.77	1559.63
438.145	1542.01
438.52	1590.14
438.895	1607.99
439.271	1609.35
439.646	1637.15
440.021	1653.87
440.395	1652.51
440.77	1619.97
441.145	1646.64
441.52	1688.22
441.895	1705.17
442.27	1727.09
442.645	1690.93
443.019	1741.55
443.394	1738.16
443.769	1742.23
444.143	1715.34
444.518	1770.93
444.892	1728.44
445.267	1779.97
445.641	1767.31
446.016	1796.92
446.39	1860.64
446.764	1836.91
447.139	1835.79
447.513	1861.1
447.887	1828.1
448.262	1887.99
448.636	1903.81
449.01	1916.69
449.384	1925.73
449.758	1968.66
450.132	1992.39
450.506	2004.82
450.88	1990.81
451.254	2001.43
451.628	1990.13
452.002	2034.88
452.376	2050.92
452.75	2070.13
453.123	2052.5
453.497	2111.03
453.871	2108.32
454.244	2184.93
454.618	2213.4
454.992	2221.31
455.365	2207.3
455.739	2248.88
456.112	2299.28
456.486	2287.52
456.859	2329.11
457.232	2369.1
457.606	2381.08
457.979	2400.97
458.352	2445.71
458.725	2491.59
459.099	2497.46
459.472	2541.3
459.845	2562.77
460.218	2560.96
460.591	2621.98
460.964	2637.12
461.337	2667.4
461.71	2702.2
462.083	2723.67
462.456	2748.3
462.829	2736.33
463.201	2781.3
463.574	2849.32
463.947	2853.39
464.32	2914.4
464.692	2918.02
465.065	2930.22
465.438	3013.83
465.81	3047.96
466.183	3028.07
466.555	3134.51
466.928	3111.46
467.3	3087.96
467.672	3179.7
468.045	3230.32
468.417	3264.67
468.789	3288.63
469.161	3291.79
469.534	3338.34
469.906	3401.62
470.278	3452.69
470.65	3484.56
471.022	3528.62
471.394	3611.33
471.766	3593.7
472.138	3627.38
472.51	3708.05
472.882	3771.1
473.253	3844.77
473.625	3842.96
473.997	3886.58
474.369	3918.67
474.74	4018.78
475.112	4060.13
475.484	4146.91
475.855	4166.12
476.227	4220.36
476.598	4307.13
476.97	4328.83
477.341	4427.36
477.713	4516.39
478.084	4583.74
478.455	4674.13
478.827	4714.58
479.198	4822.83
479.569	4811.98
479.94	4996.15
480.311	5042.25
480.682	5105.76
481.053	5227.11
481.424	5311.85
481.795	5388.46
482.166	5441.79
482.537	5490.15
482.908	5606.53
483.279	5659.41
483.65	5776.47
484.021	5852.85
484.391	5962
484.762	5997.71
485.133	6061.21
485.503	6165.16
485.874	6313.86
486.244	6369.9
486.615	6487.41
486.985	6576.68
487.356	6726.5
487.726	6771.7
488.097	6887.4
488.467	6969.89
488.837	7098.47
489.207	7187.96
489.578	7298.47
489.948	7398.35
490.318	7474.05
490.688	7487.84
491.058	7678.12
491.428	7797.44
491.798	7780.26
492.168	7957.21
492.538	8065.9
492.908	8154.04
493.278	8180.93
493.648	8286.46
494.017	8420.24
494.387	8490.53
494.757	8532.56
495.126	8691.88
495.496	8659.11
495.866	8775.26
496.235	8822.95
496.605	8988.82
496.974	9007.57
497.344	9034.69
497.713	9130.51
498.082	9186.33
498.452	9240.34
498.821	9397.17
499.19	9396.72
499.559	9448.92
499.928	9529.14
500.298	9579.99
500.667	9667.44
501.036	9638.07
501.405	9725.3
501.774	9791.73
502.143	9882.13
502.512	9938.62
502.88	9984.05
503.249	10032.63
503.618	10104.95
503.987	10215.23
504.356	10188.56
504.724	10284.15
505.093	10333.19
505.462	10409.34
505.83	10460.42
506.199	10501.55
506.567	10651.82
506.936	10670.81
507.304	10759.62
507.672	10765.95
508.041	10885.49
508.409	10960.29
508.777	11034.87
509.145	11071.25
509.514	11148.31
509.882	11199.61
510.25	11246.16
510.618	11317.57
510.986	11347.63
511.354	11450
511.722	11608.64
512.09	11705.13
512.458	11704.9
512.826	11855.63
513.193	11812.02
513.561	11918.91
513.929	12017.21
514.297	12109.64
514.664	12213.14
515.032	12204.55
515.4	12375.62
515.767	12474.83
516.135	12467.82
516.502	12488.61
516.869	12705.1
517.237	12754.82
517.604	12731.77
517.972	12965.66
518.339	12983.06
518.706	13099.44
519.073	13121.14
519.44	13221.7
519.808	13461.24
520.175	13447.23
520.542	13672.76
520.909	13691.97
521.276	13773.78
521.643	14020.55
522.009	14021.91
522.376	14133.99
522.743	14170.38
523.11	14438.62
523.477	14494.21
523.843	14582.12
524.21	14857.59
524.577	14977.13
524.943	15000.41
525.31	15149.79
525.676	15290.8
526.043	15429.78
526.409	15531.24
526.776	15671.58
527.142	15743.22
527.508	15895.08
527.874	16014.62
528.241	16151.57
528.607	16249.42
528.973	16373.48
529.339	16439.92
529.705	16682.17
530.071	16826.13
530.437	16860.47
530.803	17075.84
531.169	17217.98
531.535	17252.78
531.901	17378.88
532.267	17377.98
532.632	17588.82
532.998	17706.78
533.364	17807.57
533.73	17832.2
534.095	17993.1
534.461	18197.39
534.826	17997.85
535.192	18267.22
535.557	18358.74
535.923	18405.29
536.288	18589.47
536.653	18756.47
537.019	18652.07
537.384	18712.18
537.749	18837.6
538.114	18895.45
538.479	18987.65
538.845	19045.28
539.21	19082.79
539.575	19145.61
539.94	19218.6
540.305	19419.5
540.67	19444.14
541.034	19481.2
541.399	19520.97
541.764	19621.76
542.129	19663.34
542.494	19823.33
542.858	19946.27
543.223	19803
543.587	20134.06
543.952	20072.37
544.316	20110.11
544.681	20151.24
545.045	20238.47
545.41	20388.29
545.774	20292.02
546.138	20405.01
546.503	20549.19
546.867	20584.44
547.231	20707.38
547.595	20735.4
547.959	20877.32
548.324	20834.61
548.688	20968.62
549.052	21051.1
549.416	21048.16
549.779	21023.98
550.143	21196.63
550.507	21366.12
550.871	21391.43
551.235	21355.27
551.599	21549.84
551.962	21607.47
552.326	21699.9
552.689	21826.22
553.053	21666.45
553.417	21893.34
553.78	22152.76
554.143	22185.31
554.507	22284.96
554.87	22336.49
555.234	22518.63
555.597	22459.42
555.96	22645.63
556.323	22785.52
556.686	22745.97
557.05	23011.5
557.413	23030.93
557.776	23196.81
558.139	23282.9
558.502	23437.7
558.865	23407.65
559.228	23675.66
559.59	23814.19
559.953	23792.27
560.316	24062.32
560.679	24159.94
561.041	24339.37
561.404	24453.95
561.767	24726.26
562.129	24725.58
562.492	25001.05
562.854	25030.43
563.217	25046.25
563.579	25287.37
563.941	25383.64
564.304	25547.03
564.666	25957.18
565.028	26000.8
565.39	26164.18
565.753	26345.65
566.115	26518.75
566.477	26663.15
566.839	26989.25
567.201	27092.07
567.563	27153.09
567.925	27582.9
568.287	27684.82
568.648	27787.65
569.01	28042.33
569.372	28392.15
569.734	28401.87
570.095	28597.79
570.457	28974.28
570.819	29105.58
571.18	28953.49
571.542	29383.76
571.903	29524.32
572.265	29800.7
572.626	30056.96
572.987	30165.66
573.349	30331.98
573.71	30538.53
574.071	30781.46
574.432	30937.84
574.794	31338.74
575.155	31427.55
575.516	31399.75
575.877	31589.8
576.238	31747.54
576.599	32001.32
576.96	32134.42
577.32	32182.56
577.681	32288.77
578.042	32639.95
578.403	32627.74
578.763	32790.45
579.124	32907.96
579.485	33263.66
579.845	33267.05
580.206	33329.42
580.566	33573.93
580.927	33539.36
581.287	33724.89
581.648	33681.05
582.008	33954.04
582.368	34018.67
582.728	34084.2
583.089	34152
583.449	34239.9
583.809	34304.76
584.169	34526.9
584.529	34500.69
584.889	34800.34
585.249	34569.61
585.609	34714.47
585.969	34801.92
586.329	34880.79
586.688	35031.3
587.048	35067.45
587.408	35260.44
587.768	35223.16
588.127	35403.94
588.487	35481.23
588.846	35807.1
589.206	35693.88
589.565	35830.82
589.925	36150.14
590.284	36073.53
590.643	36165.28
591.003	36394.88
591.362	36598.49
591.721	36643.01
592.08	36645.04
592.44	37024.01
592.799	37108.3
593.158	37180.62
593.517	37178.13
593.876	37380.84
594.235	37497.45
594.593	37635.52
594.952	37869.87
595.311	38005.68
595.67	38113.48
596.029	38446.57
596.387	38502.62
596.746	38809.28
597.104	38694.7
597.463	38682.95
597.822	39102.15
598.18	39163.62
598.538	39233.67
598.897	39493.78
599.255	39437.28
599.613	39999.75
599.972	39851.73
600.33	40186.64
600.688	40151.84
601.046	40209.92
601.404	40725.61
601.762	40591.83
602.12	40934.42
602.478	40872.5
602.836	41139.61
603.194	41053.06
603.552	41295.76
603.91	41333.5
604.268	41607.62
604.625	41640.16
604.983	41943.21
605.341	41924.22
605.698	42111.79
606.056	42357.43
606.413	42150.43
606.771	42428.39
607.128	42587.03
607.485	42477.88
607.843	42627.93
608.2	42843.07
608.557	43110.86
608.914	43138.88
609.272	43271.76
609.629	43502.71
609.986	43585.2
610.343	43583.84
610.7	43858.18
611.057	43903.15
611.414	43875.13
611.771	44111.74
612.127	44236.03
612.484	44251.84
612.841	44498.62
613.198	44350.15
613.554	44374.55
613.911	44723.47
614.267	44764.6
614.624	44821.1
614.98	44867.87
615.337	45233.29
615.693	45104.03
616.05	45144.7
616.406	45451.14
616.762	45306.51
617.118	45430.35
617.475	45366.84
617.831	45458.82
618.187	45588.98
618.543	45634.18
618.899	45924.8
619.255	45799.15
619.611	45821.97
619.967	45998.47
620.323	46195.07
620.678	45891.12
621.034	45882.31
621.39	46011.57
621.746	46077.56
622.101	46442.97
622.457	46184.9
622.812	46247.5
623.168	46352.58
623.523	46483.2
623.879	46566.13
624.234	46419.47
624.589	46545.57
624.945	46559.13
625.3	46562.97
625.655	46679.8
626.01	46689.29
626.365	46705.34
626.72	46790.99
627.075	46604.78
627.43	46691.33
627.785	46659.92
628.14	46616.98
628.495	46649.97
628.85	46715.96
629.205	46697.43
629.559	46751.89
629.914	46547.15
630.269	46638.45
630.623	46518.9
630.978	46430.77
631.332	46599.81
631.687	46601.16
632.041	46474.61
632.396	46438.45
632.75	46355.97
633.104	46449.53
633.459	46242.75
633.813	46315.97
634.167	46225.13
634.521	46181.29
634.875	46242.3
635.229	46152.36
635.583	46091.8
635.937	45949.88
636.291	45985.36
636.645	45910.11
636.999	45858.58
637.352	45838.02
637.706	45545.6
638.06	45828.98
638.413	45715.08
638.767	45601.19
639.121	45720.51
639.474	45513.73
639.828	45474.41
640.181	45477.58
640.534	45520.74
640.888	45303.34
641.241	45119.62
641.594	45216.11
641.947	45344.02
642.301	45082.56
642.654	45217.7
643.007	45083.01
643.36	45178.83
643.713	44995.78
644.066	45223.34
644.419	44886.86
644.771	44523.48
645.124	44180.43
645.477	44196.48
645.83	43948.35
646.182	43978.86
646.535	43924.17
646.888	43890.72
647.24	43963.26
647.593	44085.3
647.945	43742.71
648.298	43627.45
648.65	43471.98
649.002	43246.22
649.355	43158.09
649.707	42936.17
650.059	42933.01
650.411	43711.07
650.763	43924.4
651.115	44349.02
651.467	44292.97
651.819	44318.06
652.171	44269.92
652.523	44055.24
652.875	44078.97
653.227	43976.37
653.578	44195.58
653.93	44081
654.282	43820.9
654.633	43819.09
654.985	43954.23
655.337	43929.37
655.688	43997.61
656.039	44052.53
656.391	43616.83
656.742	43821.8
657.094	43794.68
657.445	43802.37
657.796	43954
658.147	43821.35
658.498	43943.38
658.849	43957.16
659.2	43803.27
659.551	43775.93
659.902	44017.73
660.253	43742.93
660.604	43970.27
660.955	43807.79
661.306	43944.28
661.656	43815.02
662.007	43837.84
662.358	43947.67
662.708	43816.83
663.059	43798.52
663.409	43624.06
663.76	44072.19
664.11	44040.55
664.461	43926.88
664.811	43961.46
665.161	43894.57
665.511	43850.73
665.862	43875.36
666.212	43971.17
666.562	44072.41
666.912	44007.78
667.262	43801.01
667.612	43847.34
667.962	43923.49
668.312	43756.49
668.662	43975.47
669.011	43921.23
669.361	43819.99
669.711	43843.04
670.06	43745.87
670.41	43739.77
670.76	43836.49
671.109	43993.32
671.459	43710.84
671.808	43772.08
672.157	43822.48
672.507	43377.29
672.856	43499.32
673.205	43580.45
673.554	43759.88
673.904	43506.78
674.253	43968.24
674.602	43565.31
674.951	43102.72
675.3	42877.42
675.649	43542.49
675.998	43513.56
676.346	43493.22
676.695	43532.32
677.044	43252.32
677.393	43352.43
677.741	43421.13
678.09	43280.35
678.438	43254.58
678.787	43279.44
679.135	43221.82
679.484	42913.8
679.832	43114.25
680.181	42948.83
680.529	42997.41
680.877	42826.57
681.225	42993.35
681.573	43164.64
681.922	42817.31
682.27	42801.26
682.618	42756.29
682.966	42638.55
683.314	42700.47
683.661	42631.55
684.009	42381.39
684.357	42394.04
684.705	42280.37
685.053	42304.55
685.4	42150.21
685.748	41985.24
686.095	42126.03
686.443	41730.56
686.79	41745.02
687.138	41808.07
687.485	41747.28
687.832	41580.28
688.18	41542.76
688.527	41402.43
688.874	41323.79
689.221	41465.03
689.568	41074.3
689.915	40928.99
690.262	41022.78
690.609	41006.51
690.956	40787.08
691.303	40725.61
691.65	40608.1
691.997	40530.36
692.344	40205.85
692.69	40083.82
693.037	40305.51
693.383	39903.94
693.73	39999.3
694.077	39740.55
694.423	39617.16
694.769	39601.35
695.116	39418.98
695.462	39293.56
695.808	39143.28
696.155	39192.54
696.501	38813.12
696.847	39080.46
697.193	38651.09
697.539	38727.24
697.885	38277.54
698.231	38126.36
698.577	38152.57
698.923	38135.17
699.269	37849.98
699.614	37685.24
699.96	37596.2
700.306	37413.61
700.651	37317.11
700.997	37207.06
701.342	37060.17
701.688	37026.27
702.033	36830.35
702.379	36875.54
702.724	36496.34
703.069	36791.25
703.415	36361.66
703.76	36282.34
704.105	36397.14
704.45	36147.2
704.795	35967.77
705.14	35871.5
705.485	35918.73
705.83	35563.71
706.175	35725.29
706.52	35436.26
706.865	35372.76
707.209	35273.55
707.554	35326.66
707.899	35320.33
708.243	35024.29
708.588	35014.57
708.932	34791.3
709.277	34853.9
709.621	34655.04
709.966	34504.98
710.31	34585.43
710.654	34383.4
710.998	34337.53
711.342	34349.05
711.687	34124.2
712.031	34077.88
712.375	33902.74
712.719	33818.22
713.063	33789.52
713.407	33850.76
713.75	33789.97
714.094	33643.54
714.438	33605.12
714.782	33503.88
715.125	33405.35
715.469	33673.14
715.812	33307.27
716.156	33283.77
716.499	33338.46
716.843	33406.93
717.186	33057.79
717.53	33486.25
717.873	33201.29
718.216	33133.49
718.559	32958.36
718.902	32842.88
719.246	32773.95
719.589	32845.82
719.932	32683.56
720.275	32761.98
720.617	32740.74
720.96	32578.93
721.303	32631.13
721.646	32686.95
721.989	32399.28
722.331	32477.69
722.674	32419.84
723.016	32465.71
723.359	32271.14
723.701	32398.15
724.044	32368.54
724.386	32025.95
724.729	32331.71
725.071	32314.08
725.413	32149.11
725.755	32182.33
726.097	32047.42
726.439	31972.85
726.782	31984.37
727.124	32105.27
727.465	32086.52
727.807	31915.67
728.149	31890.81
728.491	31734.43
728.833	31944.6
729.175	31849.46
729.516	31786.41
729.858	31787.31
730.199	31808.33
730.541	31866.63
730.882	31676.81
731.224	31764.04
731.565	31680.88
731.906	31646.75
732.248	31803.36
732.589	31499.86
732.93	31629.58
733.271	31714.1
733.612	31706.19
733.953	31714.77
734.294	31635.23
734.635	31658.73
734.976	31706.86
735.317	31461.22
735.658	31566.75
735.999	31566.98
736.339	31588.22
736.68	31690.14
737.021	31615.34
737.361	31444.05
737.702	31813.75
738.042	31627.77
738.383	31629.13
738.723	31753.19
739.063	31676.81
739.404	31586.64
739.744	31689.01
740.084	31652.63
740.424	31718.84
740.764	31543.7
741.104	31776.47
741.444	31539.18
741.784	31574.89
742.124	31721.1
742.464	31655.34
742.804	31869.35
743.143	31572.18
743.483	31740.76
743.823	31706.19
744.162	31778.05
744.502	31840.42
744.841	31798.39
745.181	32034.99
745.52	31909.8
745.86	32075.22
746.199	31970.13
746.538	32008.78
746.877	32140.52
747.216	32081.77
747.556	32142.11
747.895	32164.25
748.234	32214.42
748.573	32163.58
748.911	32196.79
749.25	32340.75
749.589	32184.14
749.928	32313.18
750.267	32299.84
750.605	32345.04
750.944	32544.58
751.283	32417.58
751.621	32547.07
751.96	32256
752.298	32534.64
752.636	32564.69
752.975	32547.07
753.313	32572.83
753.651	32853.5
753.989	32715.88
754.327	32722.43
754.666	32631.36
755.004	32832.48
755.342	32880.17
755.679	32824.12
756.017	32681.3
756.355	32889.88
756.693	32754.07
757.031	33040.16
757.368	32900.05
757.706	32985.47
758.044	32984.34
758.381	33039.94
758.719	33039.71
759.056	33077.45
759.394	32891.01
759.731	32768.31
760.068	32878.58
760.405	32850.56
760.743	32754.97
761.08	32897.12
761.417	32777.12
761.754	32898.47
762.091	32774.41
762.428	32740.74
762.765	32769.21
763.102	32801.98
763.438	32715.2
763.775	32651.47
764.112	32639.49
764.449	32682.88
764.785	32657.8
765.122	32390.91
765.458	32271.37
765.795	32328.77
766.131	32244.48
766.467	32375.1
766.804	31970.36
767.14	32059.85
767.476	32089
767.812	32006.97
768.148	32022.34
768.485	31961.09
768.821	31705.06
769.157	31781.89
769.492	31704.15
769.828	31607.88
770.164	31346.87
770.5	31286.76
770.836	31467.77
771.171	31319.53
771.507	31160.44
771.842	31056.94
772.178	31054.9
772.513	30981.23
772.849	30850.39
773.184	30802.26
773.519	30718.19
773.855	30598.19
774.19	30441.13
774.525	30500.57
774.86	30274.36
775.195	30312.78
775.53	30170.41
775.865	30067.36
776.2	29946.23
776.535	29776.29
776.87	29706.01
777.205	29570.65
777.539	29635.51
777.874	29546.47
778.209	29331.56
778.543	29402.29
778.878	29180.38
779.212	29118.68
779.547	28870.78
779.881	28944
780.215	28744.91
780.55	28753.04
780.884	28649.09
781.218	28493.62
781.552	28685.25
781.886	28362.77
782.22	28180.63
782.554	28116.22
782.888	27904.93
783.222	27748.32
783.556	27814.31
783.889	27585.16
784.223	27466.98
784.557	27483.02
784.89	27532.96
785.224	27118.28
785.557	27120.09
785.891	27056.82
786.224	27067.66
786.558	26948.35
786.891	26762.59
787.224	26722.81
787.557	26588.13
787.891	26637.62
788.224	26436.49
788.557	26558.3
788.89	26358.53
789.223	26306.78
789.556	26100.68
789.888	26134.36
790.221	25995.15
790.554	25770.3
790.887	25892.1
791.219	25652.79
791.552	25622.05
791.884	25501.15
792.217	25378.89
792.549	25343.19
792.882	25137.32
793.214	25102.29
793.546	25121.95
793.879	25063.65
794.211	24845.35
794.543	24900.49
794.875	24764.9
795.207	24820.72
795.539	24591.12
795.871	24625.24
796.203	24534.62
796.535	24315.65
796.867	24391.8
797.198	24253.27
797.53	24154.07
797.862	24000.63
798.193	24058.03
798.525	23959.27
798.856	23908.43
799.188	23777.36
799.519	23575.78
799.85	23484.93
800.182	23546.85
800.513	23607.87
800.844	23189.12
801.175	23423.01
801.506	23337.82
801.837	23191.61
802.168	23120.65
802.499	23206.3
802.83	22956.81
803.161	22952.07
803.491	22972.86
803.822	22964.5
804.153	22671.62
804.483	22686.99
804.814	22476.37
805.145	22484.51
805.475	22449.03
805.805	22362.25
806.136	22477.95
806.466	22287.22
806.796	22315.47
807.126	22010.62
807.457	22096.04
807.787	22135.36
808.117	22015.82
808.447	21920.68
808.777	21990.96
809.107	21803.85
809.436	21728.14
809.766	21606.11
810.096	21705.77
810.426	21626
810.755	21588.71
811.085	21506.68
811.414	21480.24
811.744	21308.95
812.073	21395.95
812.403	21262.17
812.732	21105.11
813.061	21330.64
813.39	21060.36
813.719	21105.79
814.049	21164.32
814.378	21049.74
814.707	20943.98
815.036	21021.5
815.365	20975.39
815.693	20751.9
816.022	20749.86
816.351	20671.45
816.68	20660.6
817.008	20656.76
817.337	20504.67
817.665	20468.97
817.994	20463.77
818.322	20500.38
818.651	20361.17
818.979	20301.74
819.307	20344.68
819.636	20339.93
819.964	20220.84
820.292	20229.65
820.62	20173.61
820.948	20247.73
821.276	20359.59
821.604	20153.72
821.932	20322.08
822.259	20189.65
822.587	20308.29
822.915	20046.83
823.243	20136.77
823.57	20051.13
823.898	20190.56
824.225	20140.84
824.553	20102.42
824.88	20111.01
825.207	20261.97
825.535	19997.79
825.862	20094.97
826.189	20157.79
826.516	20302.42
826.843	20139.48
827.17	20235.75
827.497	20190.33
827.824	20133.61
828.151	20256.77
828.478	20177.68
828.805	20347.39
829.131	20309.2
829.458	20175.64
829.785	20004.8
830.111	20010.22
830.438	20191.46
830.764	20153.95
831.09	20232.14
831.417	20154.4
831.743	20172.25
832.069	20033.72
832.395	20079.37
832.722	20156.43
833.048	20033.95
833.374	20203.44
833.7	20051.35
834.026	20065.59
834.351	20007.74
834.677	20080.28
835.003	20064.91
835.329	20131.58
835.654	19998.47
835.98	19837.12
836.306	19897.23
836.631	19821.98
836.956	19984.01
837.282	20020.84
837.607	19794.63
837.932	19775.65
838.258	19753.05
838.583	19702.89
838.908	19744.24
839.233	19800.96
839.558	19672.15
839.883	19644.58
840.208	19540.86
840.533	19585.15
840.858	19510.12
841.182	19520.29
841.507	19546.51
841.832	19504.92
842.156	19339.73
842.481	19395.55
842.805	19354.87
843.13	19288.89
843.454	19283.69
843.778	19172.5
844.103	19178.61
844.427	19087.99
844.751	19191.03
845.075	19059.29
845.399	19167.53
845.723	19000.53
846.047	18949.69
846.371	18835.11
846.695	18674.21
847.019	18770.26
847.343	18583.59
847.666	18547.89
847.99	18444.84
848.313	18344.05
848.637	18343.15
848.96	18264.51
849.284	18236.03
849.607	18157.62
849.931	18133.21
850.254	17986.55
850.577	17862.26
850.9	17700.9
851.223	17740.45
851.546	17700.68
851.869	17533.9
852.192	17708.36
852.515	17393.34
852.838	17426.11
853.161	17416.62
853.483	17224.53
853.806	17326.45
854.129	17114.03
854.451	17050.53
854.774	17034.26
855.096	16938.66
855.419	16912.9
855.741	16922.39
856.063	16803.08
856.385	16709.97
856.708	16730.08
857.03	16720.14
857.352	16637.2
857.674	16642.4
857.996	16633.36
858.318	16447.6
858.64	16487.83
858.961	16382.07
859.283	16371.9
859.605	16300.49
859.926	16277.21
860.248	16231.11
860.57	16165.58
860.891	16191.34
861.212	16072.47
861.534	16033.83
861.855	15955.41
862.176	16022.53
862.498	16000.16
862.819	15992.93
863.14	15853.95
863.461	15843.1
863.782	15851.46
864.103	15757.45
864.424	15716.55
864.745	15736.89
865.065	15726.04
865.386	15573.95
865.707	15646.5
866.027	15637.91
866.348	15557.23
866.668	15490.34
866.989	15528.98
867.309	15394.98
867.63	15548.64
867.95	15566.05
868.27	15399.27
868.59	15477.23
868.91	15381.19
869.23	15366.5
869.55	15192.5
869.87	15304.81
870.19	15231.59
870.51	15234.98
870.83	15213.06
871.15	15084.48
871.469	15110.46
871.789	15215.55
872.109	15177.58
872.428	15059.62
872.748	15073.4
873.067	15043.57
873.386	15034.08
873.706	14938.04
874.025	14858.72
874.344	14905.27
874.663	14914.31
874.982	14846.52
875.301	14877.02
875.62	14776.91
875.939	14739.4
876.258	14769
876.577	14669.8
876.896	14657.14
877.214	14722.9
877.533	14698.72
877.852	14717.71
878.17	14694.88
878.489	14719.74
878.807	14617.6
879.125	14620.08
879.444	14507.77
879.762	14427.77
880.08	14573.3
880.398	14375.34
880.716	14420.09
881.034	14438.84
881.352	14360.2
881.67	14265.51
881.988	14331.73
882.306	14292.63
882.624	14292.86
882.941	14180.77
883.259	14221.9
883.577	14213.76
883.894	14139.19
884.212	14073.2
884.529	14054.22
884.846	14013.54
885.164	14051.96
885.481	13913.89
885.798	13959.53
886.115	13899.42
886.432	13938.07
886.75	13874.34
887.067	13869.14
887.383	13737.39
887.7	13748.69
888.017	13601.13
888.334	13602.93
888.651	13649.71
888.967	13650.62
889.284	13523.39
889.6	13466.44
889.917	13426.44
890.233	13505.31
890.55	13383.5
890.866	13435.48
891.182	13381.24
891.498	13366.78
891.815	13292.21
892.131	13170.63
892.447	13258.99
892.763	13127.92
893.079	13135.15
893.395	13072.33
893.71	13033.46
894.026	12955.94
894.342	12931.99
894.657	12818.1
894.973	12763.86
895.289	12875.72
895.604	12800.92
895.92	12745.55
896.235	12762.5
896.55	12616.29
896.865	12632.79
897.181	12565.45
897.496	12564.32
897.811	12500.36
898.126	12458.56
898.441	12469.18
898.756	12421.72
899.071	12353.47
899.386	12340.59
899.7	12251.1
900.015	12142.18
900.33	12075.97
900.644	12122.07
900.959	12086.14
901.273	12038.68
901.588	11951.45
901.902	11923.2
902.216	11912.13
902.531	11884.79
902.845	11847.05
903.159	11760.72
903.473	11708.29
903.787	11694.73
904.101	11640.27
904.415	11611.35
904.729	11620.84
905.042	11499.94
905.356	11574.96
905.67	11528.19
905.984	11448.87
906.297	11417.68
906.611	11289.77
906.924	11291.13
907.237	11232.37
907.551	11253.16
907.864	11110.12
908.177	11160.51
908.491	11140.17
908.804	10995.54
909.117	10943.34
909.43	10905.15
909.743	10906.51
910.056	10918.48
910.368	10795.78
910.681	10765.72
910.994	10789
911.307	10665.16
911.619	10593.75
911.932	10644.82
912.244	10542.67
912.557	10458.38
912.869	10492.28
913.181	10378.84
913.494	10368.67
913.806	10278.5
914.118	10256.81
914.43	10287.54
914.742	10252.06
915.054	10202.57
915.366	10243.25
915.678	10050.48
915.99	10022.01
916.302	10004.61
916.613	9934.56
916.925	9988.34
917.236	9924.16
917.548	9835.8
917.859	9833.09
918.171	9779.08
918.482	9746.31
918.794	9723.04
919.105	9667.44
919.416	9607.11
919.727	9528.92
920.038	9631.51
920.349	9577.73
920.66	9466.77
920.971	9436.94
921.282	9449.37
921.593	9358.07
921.903	9260.67
922.214	9279.21
922.525	9172.99
922.835	9142.94
923.146	9167.12
923.456	9104.07
923.767	9019.1
924.077	9074.92
924.387	8984.75
924.697	8966.22
925.008	8915.37
925.318	8895.03
925.628	8846.45
925.938	8820.46
926.248	8768.94
926.558	8744.3
926.867	8730.75
927.177	8641.03
927.487	8623.63
927.796	8554.03
928.106	8531.2
928.416	8438.78
928.725	8506.34
929.034	8475.84
929.344	8454.59
929.653	8437.87
929.962	8341.38
930.271	8354.71
930.581	8252.79
930.89	8305.67
931.199	8164.21
931.508	8109.97
931.817	8102.74
932.125	8146.35
932.434	8133.92
932.743	7997.43
933.051	7990.65
933.36	7902.07
933.669	7883.76
933.977	7825.23
934.286	7840.15
934.594	7828.85
934.902	7789.98
935.21	7755.63
935.519	7670.43
935.827	7659.13
936.135	7615.07
936.443	7570.55
936.751	7544.79
937.059	7602.41
937.367	7472.92
937.674	7519.25
937.982	7444.45
938.29	7440.61
938.597	7409.88
938.905	7288.07
939.213	7312.7
939.52	7292.82
939.827	7347.28
940.135	7220.5
940.442	7189.99
940.749	7123.78
941.056	7180.73
941.363	7065.7
941.67	7071.35
941.977	6961.07
942.284	6978.02
942.591	6973.96
942.898	6908.19
943.205	6907.29
943.511	6914.07
943.818	6907.29
944.125	6810.57
944.431	6799.95
944.738	6791.81
945.044	6757.01
945.35	6715.2
945.657	6674.08
945.963	6641.99
946.269	6662.78
946.575	6644.25
946.881	6598.15
947.187	6605.6
947.493	6503.46
947.799	6530.8
948.105	6470.24
948.41	6464.36
948.716	6411.48
949.022	6444.48
949.327	6340.3
949.633	6250.58
949.938	6301.88
950.244	6308.66
950.549	6222.56
950.854	6187.76
951.16	6215.1
951.465	6213.75
951.77	6132.85
952.075	6110.7
952.38	6107.54
952.685	6096.24
952.99	5987.99
953.294	6010.14
953.599	5926.98
953.904	5915.45
954.209	5907.77
954.513	5920.2
954.818	5857.6
955.122	5889.69
955.426	5880.42
955.731	5759.3
956.035	5750.03
956.339	5781.9
956.643	5746.42
956.948	5687.44
957.252	5654.44
957.556	5661.9
957.86	5596.14
958.163	5599.98
958.467	5623.48
958.771	5574.9
959.075	5527.44
959.378	5507.55
959.682	5485.18
959.985	5476.14
960.289	5427.78
960.592	5424.17
960.896	5392.53
961.199	5369.7
961.502	5324.05
961.805	5390.49
962.108	5291.51
962.411	5257.39
962.714	5208.35
963.017	5236.83
963.32	5257.84
963.623	5236.6
963.926	5164.96
964.228	5169.03
964.531	5095.36
964.833	5098.3
965.136	5051.52
965.438	5053.78
965.741	5055.36
966.043	5009.26
966.345	4964.97
966.648	4973.1
966.95	4950.51
967.252	4937.17
967.554	4929.49
967.856	4920.22
968.158	4867.34
968.46	4832.54
968.761	4829.6
969.063	4794.58
969.365	4741.47
969.666	4744.18
969.968	4705.31
970.269	4724.97
970.571	4715.71
970.872	4680.68
971.174	4657.18
971.475	4685.2
971.776	4598.2
972.077	4583.28
972.378	4519.1
972.679	4556.84
972.98	4567.69
973.281	4509.16
973.582	4487.47
973.883	4483.17
974.183	4436.62
974.484	4403.4
974.785	4400.46
975.085	4385.1
975.386	4446.56
975.686	4346
975.986	4345.32
976.287	4311.65
976.587	4255.38
976.887	4257.19
977.187	4234.82
977.487	4255.83
977.787	4202.28
978.087	4219.68
978.387	4199.34
978.687	4151.88
978.987	4161.37
979.286	4106.69
979.586	4094.48
979.885	4094.26
980.185	4056.52
980.484	4047.7
980.784	4020.81
981.083	4059.46
981.382	3991.66
981.682	4008.84
981.981	3977.88
982.28	3941.72
982.579	3930.19
982.878	3963.41
983.177	3954.37
983.475	3878.67
983.774	3841.61
984.073	3792.34
984.372	3840.48
984.67	3793.02
984.969	3801.38
985.267	3779.91
985.566	3728.16
985.864	3699.69
986.162	3712.8
986.461	3723.87
986.759	3700.59
987.057	3642.52
987.355	3622.18
987.653	3654.72
987.951	3655.85
988.249	3596.87
988.547	3603.2
988.844	3529.98
989.142	3578.11
989.44	3525.68
989.737	3559.58
990.035	3535.63
990.332	3471.67
990.63	3451.34
990.927	3480.26
991.224	3454.95
991.521	3423.09
991.819	3367.95
992.116	3382.19
992.413	3360.26
992.71	3339.25
993.006	3338.34
993.303	3286.14
993.6	3288.63
993.897	3306.93
994.193	3316.2
994.49	3240.72
994.787	3238.23
995.083	3231
995.379	3237.56
995.676	3132.7
995.972	3204.56
996.268	3199.59
996.565	3165.92
996.861	3130.89
997.157	3116.43
997.453	3092.93
997.749	3092.7
998.044	3046.83
998.34	3044.11
998.636	3021.74
998.932	2999.14
999.227	2999.37
999.523	3021.29
999.818	2973.83
1000.114	2939.48
1000.409	2939.26
1000.704	2950.56
1001	2877.57
1001.295	2876.21
1001.59	2875.53
1001.885	2883.44
1002.18	2842.54
1002.475	2833.05
1002.77	2793.95
1003.065	2784.23
1003.359	2779.04
1003.654	2743.33
1003.949	2753.05
1004.243	2744.46
1004.538	2717.12
1004.832	2706.27
1005.127	2704.46
1005.421	2653.62
1005.715	2644.8
1006.009	2661.53
1006.304	2665.59
1006.598	2615.65
1006.892	2615.65
1007.186	2593.51
1007.48	2575.65
1007.773	2571.81
1008.067	2534.98
1008.361	2513.28
1008.655	2526.61
1008.948	2477.12
1009.242	2492.04
1009.535	2482.1
1009.829	2424.02
1010.122	2421.53
1010.415	2443.23
1010.708	2411.36
1011.001	2400.29
1011.295	2397.8
1011.588	2365.26
1011.881	2351.7
1012.173	2340.18
1012.466	2308.99
1012.759	2298.82
1013.052	2336.34
1013.344	2337.24
1013.637	2259.95
1013.93	2244.59
1014.222	2249.79
1014.514	2269.45
1014.807	2223.57
1015.099	2205.94
1015.391	2197.81
1015.683	2181.09
1015.976	2164.59
1016.268	2147.42
1016.56	2129.11
1016.851	2127.3
1017.143	2105.61
1017.435	2094.76
1017.727	2074.2
1018.018	2053.18
1018.31	2039.85
1018.602	2059.73
1018.893	2044.37
1019.185	2011.15
1019.476	1991.94
1019.767	1968.44
1020.058	1979.06
1020.35	1958.72
1020.641	1935.44
1020.932	1926.63
1021.223	1933.18
1021.514	1922.11
1021.804	1886.63
1022.095	1880.98
1022.386	1862.23
1022.677	1819.74
1022.967	1789.23
1023.258	1826.07
1023.548	1828.78
1023.839	1825.39
1024.129	1781.78
1024.419	1762.57
1024.709	1782.23
1025	1738.16
1025.29	1770.02
1025.58	1734.32
1025.87	1726.86
1026.16	1701.55
1026.449	1686.64
1026.739	1683.25
1027.029	1695.22
1027.319	1664.49
1027.608	1684.6
1027.898	1674.21
1028.187	1643.02
1028.477	1609.58
1028.766	1630.37
1029.055	1614.32
1029.344	1611.16
1029.634	1573.19
1029.923	1587.2
1030.212	1550.59
1030.501	1556.02
1030.79	1558.5
1031.078	1544.95
1031.367	1490.71
1031.656	1501.56
1031.945	1488.68
1032.233	1466.53
1032.522	1478.51
1032.81	1469.02
1033.099	1446.42
1033.387	1439.41
1033.675	1436.25
1033.963	1417.72
1034.251	1426.98
1034.54	1411.16
1034.828	1391.05
1035.116	1400.09
1035.403	1346.53
1035.691	1381.79
1035.979	1364.16
1036.267	1344.5
1036.554	1351.73
1036.842	1361.67
1037.129	1318.96
1037.417	1300.88
1037.704	1302.69
1037.992	1288.91
1038.279	1287.32
1038.566	1268.34
1038.853	1268.34
1039.14	1268.34
