Data from 19-2025_FLMS001491_003.txt Node
Date: Thu Apr 19 16:34:45 BST 2018
User: hsy
Spectrometer: FLMS00149
Trigger mode: 0
Integration Time (sec): 1.000000E-2
Scans to average: 10
Electric dark correction enabled: true
Nonlinearity correction enabled: false
Boxcar width: 0
XAxis mode: Wavelengths
Number of Pixels in Spectrum: 2048
>>>>>Begin Spectral Data<<<<<
341.393	-24.89
341.776	-24.89
342.16	-24.89
342.543	-75.28
342.927	-85.45
343.31	-85.45
343.693	-77.77
344.077	-70.08
344.46	-54.49
344.843	-59.91
345.226	-51.1
345.61	-36.19
345.993	-13.36
346.376	4.27
346.759	11.04
347.142	31.84
347.525	47.2
347.908	53.08
348.291	79.97
348.674	102.12
349.057	118.84
349.44	127.2
349.823	130.82
350.206	166.75
350.588	197.25
350.971	223.47
351.354	255.56
351.737	268.44
352.119	274.99
352.502	282.45
352.884	313.86
353.267	322.45
353.65	310.47
354.032	340.08
354.414	338.49
354.797	346.4
355.179	345.95
355.562	331.71
355.944	370.13
356.326	363.35
356.709	355.89
357.091	375.78
357.473	375.33
357.855	387.53
358.238	365.84
358.62	353.41
359.002	380.07
359.384	373.75
359.766	364.03
360.148	376.69
360.53	373.3
360.912	369
361.294	386.63
361.676	369.23
362.057	366.52
362.439	363.8
362.821	371.26
363.203	382.11
363.584	347.99
363.966	353.86
364.348	370.36
364.729	383.46
365.111	368.1
365.493	347.31
365.874	359.06
366.256	348.44
366.637	352.05
367.019	369.45
367.4	364.48
367.781	353.63
368.163	386.63
368.544	368.1
368.925	352.05
369.306	351.6
369.688	355.22
370.069	352.5
370.45	364.03
370.831	369.91
371.212	374.88
371.593	360.41
371.974	348.44
372.355	379.4
372.736	406.29
373.117	378.49
373.498	381.66
373.879	373.3
374.26	362.45
374.641	378.49
375.021	385.72
375.402	392.28
375.783	376.23
376.163	390.24
376.544	418.94
376.925	398.61
377.305	394.31
377.686	390.7
378.066	408.32
378.447	405.84
378.827	416.91
379.208	405.16
379.588	394.31
379.968	400.87
380.349	435.89
380.729	432.05
381.109	414.2
381.489	408.32
381.87	422.56
382.25	422.56
382.63	431.82
383.01	428.89
383.39	438.6
383.77	433.86
384.15	433.86
384.53	439.28
384.91	455.1
385.29	434.99
385.67	441.54
386.049	430.47
386.429	448.55
386.809	449
387.189	483.57
387.568	460.52
387.948	480.64
388.328	477.02
388.707	460.98
389.087	476.57
389.466	470.24
389.846	472.73
390.225	489.9
390.605	492.84
390.984	507.53
391.363	487.64
391.743	494.2
392.122	510.47
392.501	507.98
392.881	500.98
393.26	513.86
393.639	536.23
394.018	509.79
394.397	547.98
394.776	542.78
395.155	539.39
395.534	528.55
395.913	533.07
396.292	545.49
396.671	569.67
397.05	567.64
397.429	561.76
397.808	559.96
398.186	559.96
398.565	561.54
398.944	570.8
399.323	574.87
399.701	560.86
400.08	564.48
400.458	586.85
400.837	616
401.215	625.94
401.594	592.72
401.972	603.12
402.351	609.45
402.729	620.75
403.107	615.32
403.486	621.65
403.864	630.92
404.242	624.36
404.62	626.17
404.999	640.41
405.377	670.46
405.755	650.8
406.133	654.19
406.511	687.86
406.889	672.27
407.267	678.37
407.645	704.59
408.023	688.99
408.401	693.74
408.779	725.15
409.156	717.69
409.534	709.56
409.912	743.91
410.29	739.61
410.667	758.14
411.045	778.26
411.422	771.02
411.8	762.89
412.178	801.08
412.555	800.85
412.933	805.37
413.31	808.54
413.687	820.74
414.065	803.34
414.442	823.23
414.819	856.22
415.197	848.09
415.574	862.1
415.951	899.84
416.328	871.36
416.705	874.07
417.082	890.57
417.46	894.19
417.837	900.74
418.214	895.09
418.591	910
418.967	947.07
419.344	935.54
419.721	922.66
420.098	934.86
420.475	941.19
420.852	922.43
421.228	943.68
421.605	957.91
421.982	966.73
422.358	978.25
422.735	963.79
423.111	1026.16
423.488	999.72
423.864	1005.14
424.241	1047.85
424.617	1027.06
424.994	1030.68
425.37	1063.67
425.746	1049.21
426.123	1081.07
426.499	1090.11
426.875	1099.15
427.251	1102.99
427.627	1151.35
428.003	1150.68
428.379	1145.7
428.756	1155.87
429.132	1157.68
429.507	1191.13
429.883	1176.44
430.259	1213.95
430.635	1206.49
431.011	1214.4
431.387	1300.95
431.763	1299.15
432.138	1315.42
432.514	1320.16
432.89	1341.18
433.265	1375.08
433.641	1362.65
434.016	1355.87
434.392	1382.76
434.767	1408.52
435.143	1400.84
435.518	1447.84
435.894	1475.87
436.269	1477.9
436.644	1473.61
437.02	1503.66
437.395	1486.71
437.77	1526.03
438.145	1504.79
438.52	1537.33
438.895	1602.64
439.271	1581.85
439.646	1590.66
440.021	1603.09
440.395	1613.26
440.77	1609.19
441.145	1621.62
441.52	1641.96
441.895	1665.46
442.27	1698.23
442.645	1675.86
443.019	1690.55
443.394	1701.85
443.769	1689.87
444.143	1709.76
444.518	1726.71
444.892	1730.1
445.267	1738.91
445.641	1747.04
446.016	1784.78
446.39	1793.14
446.764	1785.69
447.139	1789.08
447.513	1803.54
447.887	1816.87
448.262	1821.39
448.636	1839.25
449.01	1863.88
449.384	1871.56
449.758	1880.37
450.132	1913.37
450.506	1928.28
450.88	1927.15
451.254	1934.16
451.628	1955.63
452.002	1995.4
452.376	1984.33
452.75	2018.9
453.123	2019.35
453.497	2066.58
453.871	2057.32
454.244	2148.16
454.618	2139.58
454.992	2185.9
455.365	2175.96
455.739	2249.86
456.112	2251.66
456.486	2250.99
456.859	2269.29
457.232	2278.78
457.606	2308.61
457.979	2361.49
458.352	2392
458.725	2418.21
459.099	2434.94
459.472	2470.42
459.845	2489.17
460.218	2520.13
460.591	2540.02
460.964	2580.69
461.337	2625.89
461.71	2661.6
462.083	2665.66
462.456	2718.09
462.829	2690.3
463.201	2749.96
463.574	2777.53
463.947	2794.93
464.32	2854.81
464.692	2885.32
465.065	2874.47
465.438	2930.97
465.81	2966.9
466.183	2920.57
466.555	3061.36
466.928	3044.19
467.3	3060.46
467.672	3095.26
468.045	3183.16
468.417	3142.26
468.789	3198.08
469.161	3228.14
469.534	3249.6
469.906	3324.18
470.278	3358.98
470.65	3390.62
471.022	3407.11
471.394	3491.18
471.766	3518.75
472.138	3571.18
472.51	3609.37
472.882	3669.25
473.253	3769.82
473.625	3747.44
473.997	3838.29
474.369	3838.51
474.74	3900.66
475.112	3970.49
475.484	4002.8
475.855	4058.62
476.227	4119.86
476.598	4257.03
476.97	4243.7
477.341	4365.28
477.713	4376.58
478.084	4429.69
478.455	4537.48
478.827	4560.3
479.198	4662.67
479.569	4704.25
479.94	4896.34
480.311	4948.99
480.682	5067.18
481.053	5100.4
481.424	5179.72
481.795	5210
482.166	5377.91
482.537	5409.1
482.908	5455.65
483.279	5524.12
483.65	5647.05
484.021	5744.68
484.391	5841.4
484.762	5898.35
485.133	5911
485.503	6025.12
485.874	6154.61
486.244	6225.57
486.615	6359.58
486.985	6423.98
487.356	6492.68
487.726	6591.89
488.097	6737.65
488.467	6777.42
488.837	6862.62
489.207	7033.23
489.578	7061.71
489.948	7207.92
490.318	7272.55
490.688	7380.34
491.058	7463.5
491.428	7548.93
491.798	7662.82
492.168	7807.9
492.538	7820.78
492.908	7891.74
493.278	7991.63
493.648	8025.75
494.017	8203.6
494.387	8235.24
494.757	8308.45
495.126	8366.31
495.496	8475.23
495.866	8521.78
496.235	8624.83
496.605	8732.85
496.974	8774.43
497.344	8851.26
497.713	8910.47
498.082	8977.36
498.452	8985.27
498.821	9013.07
499.19	9103.69
499.559	9257.36
499.928	9305.04
500.298	9357.01
500.667	9406.96
501.036	9455.32
501.405	9504.13
501.774	9475.65
502.143	9630
502.512	9636.33
502.88	9762.65
503.249	9759.26
503.618	9888.98
503.987	9912.93
504.356	9886.72
504.724	10039.93
505.093	10080.61
505.462	10088.75
505.83	10184.56
506.199	10197.67
506.567	10351.56
506.936	10350.43
507.304	10420.26
507.672	10485.57
508.041	10610.31
508.409	10596.98
508.777	10772.12
509.145	10828.84
509.514	10798.56
509.882	10952.9
510.25	11060.7
510.618	11112.22
510.986	11031.09
511.354	11199.23
511.722	11295.49
512.09	11406
512.458	11344.31
512.826	11448.26
513.193	11531.87
513.561	11575.26
513.929	11743.39
514.297	11821.13
514.664	11871.07
515.032	11894.35
515.4	11991.75
515.767	12047.79
516.135	12174.57
516.502	12144.74
516.869	12292.08
517.237	12421.11
517.604	12311.51
517.972	12615.69
518.339	12608
518.706	12717.83
519.073	12805.51
519.44	12891.61
519.808	13078.27
520.175	13092.73
520.542	13187.87
520.909	13396.23
521.276	13458.37
521.643	13577.92
522.009	13601.87
522.376	13763.23
522.743	13800.96
523.11	14047.51
523.477	14169.77
523.843	14200.73
524.21	14462.87
524.577	14531.34
524.943	14616.76
525.31	14710.32
525.676	14901.73
526.043	14979.92
526.409	15134.26
526.776	15324.77
527.142	15437.31
527.508	15424.42
527.874	15614.7
528.241	15770.18
528.607	15712.78
528.973	16057.18
529.339	16036.61
529.705	16243.16
530.071	16384.63
530.437	16417.85
530.803	16534.9
531.169	16699.65
531.535	16709.81
531.901	16773.54
532.267	17006.98
532.632	17202.23
532.998	17272.96
533.364	17362
533.73	17402.68
534.095	17511.6
534.461	17612.62
534.826	17683.12
535.192	17754.53
535.557	17995.88
535.923	17962.21
536.288	18140.29
536.653	18187.06
537.019	18199.72
537.384	18350.45
537.749	18273.16
538.114	18382.99
538.479	18373.5
538.845	18524
539.21	18539.6
539.575	18679.25
539.94	18782.3
540.305	18885.8
540.67	18891.45
541.034	19016.42
541.399	19001.73
541.764	19189.3
542.129	19093.26
542.494	19261.61
542.858	19357.88
543.223	19363.3
543.587	19519.91
543.952	19542.28
544.316	19684.65
544.681	19581.38
545.045	19771.88
545.41	19798.77
545.774	19798.55
546.138	19841.03
546.503	20080.35
546.867	20000.8
547.231	20096.84
547.595	20054.36
547.959	20276.27
548.324	20285.54
548.688	20448.93
549.052	20494.8
549.416	20387.46
549.779	20545.87
550.143	20665.64
550.507	20832.87
550.871	20897.5
551.235	20897.28
551.599	21107.89
551.962	21149.7
552.326	21160.55
552.689	21179.08
553.053	21209.36
553.417	21375.91
553.78	21610.48
554.143	21594.43
554.507	21797.36
554.87	21792.62
555.234	21976.34
555.597	21956.68
555.96	22050.24
556.323	22134.31
556.686	22219.95
557.05	22465.14
557.413	22464.69
557.776	22616.55
558.139	22710.79
558.502	22825.36
558.865	22841.41
559.228	23041.4
559.59	23219.93
559.953	23128.4
560.316	23481.61
560.679	23538.11
561.041	23733.58
561.404	23993.69
561.767	24114.82
562.129	24104.2
562.492	24462.83
562.854	24353.23
563.217	24555.26
563.579	24649.49
563.941	24950.73
564.304	25024.62
564.666	25390.26
565.028	25336.71
565.39	25572.18
565.753	25752.74
566.115	25877.48
566.477	26236.57
566.839	26330.35
567.201	26648.54
567.563	26612.15
567.925	26833.16
568.287	27013.05
568.648	27172.59
569.01	27438.8
569.372	27738.9
569.734	27688.28
570.095	27991.55
570.457	28282.17
570.819	28363.29
571.18	28479.22
571.542	28848.03
571.903	28876.95
572.265	29189.49
572.626	29514.68
572.987	29449.14
573.349	29904.5
573.71	29972.07
574.071	30146.75
574.432	30384.71
574.794	30694.31
575.155	30881.87
575.516	30837.58
575.877	31013.17
576.238	31198.02
576.599	31399.82
576.96	31499.26
577.32	31681.4
577.681	31887.04
578.042	32138.34
578.403	32132.01
578.763	32276.41
579.124	32364.32
579.485	32717.3
579.845	32795.72
580.206	32826
580.566	32786.91
580.927	32979.44
581.287	33118.65
581.648	33158.42
582.008	33423.05
582.368	33413.1
582.728	33506.89
583.089	33494.46
583.449	33743.72
583.809	33781
584.169	33938.74
584.529	33975.12
584.889	34266.87
585.249	34062.58
585.609	33904.62
585.969	34309.58
586.329	34348.45
586.688	34456.69
587.048	34444.26
587.408	34502.57
587.768	34683.81
588.127	34747.76
588.487	34784.14
588.846	35095.32
589.206	35056.45
589.565	35094.64
589.925	35423.9
590.284	35361.53
590.643	35424.58
591.003	35547.96
591.362	35916.54
591.721	35987.05
592.08	36090.77
592.44	36436.08
592.799	36241.28
593.158	36388.17
593.517	36409.86
593.876	36762.62
594.235	36703.87
594.593	36787.93
594.952	37043.07
595.311	37110.86
595.67	37383.17
596.029	37571.64
596.387	37803.27
596.746	37963.95
597.104	37901.8
597.463	37836.72
597.822	38258.4
598.18	38200.55
598.538	38374.1
598.897	38744.94
599.255	38628.11
599.613	39180.64
599.972	39013.18
600.33	39183.8
600.688	39236.23
601.046	39433.51
601.404	39693.39
601.762	39737.01
602.12	40014.96
602.478	40214.28
602.836	40203.89
603.194	40034.4
603.552	40173.38
603.91	40388.74
604.268	40559.81
604.625	40642.52
604.983	40950.08
605.341	40826.92
605.698	41085.22
606.056	41434.36
606.413	41246.8
606.771	41701.7
607.128	41668.93
607.485	41603.62
607.843	41674.58
608.2	41970.17
608.557	42211.74
608.914	42016.95
609.272	42391.4
609.629	42567.89
609.986	42607.44
610.343	42676.14
610.7	43014.89
611.057	42932.18
611.414	43003.81
611.771	43053.3
612.127	43227.99
612.484	43376.01
612.841	43577.13
613.198	43413.52
613.554	43372.62
613.911	43701.2
614.267	43838.82
614.624	43712.72
614.98	44007.4
615.337	44101.19
615.693	44145.25
616.05	44108.42
616.406	44306.38
616.762	44239.94
617.118	44375.75
617.475	44305.7
617.831	44602.41
618.187	44649.65
618.543	44730.55
618.899	44933.71
619.255	44897.32
619.611	44892.35
619.967	45172.34
620.323	45302.51
620.678	45101.61
621.034	45036.3
621.39	45077.88
621.746	45246.01
622.101	45618.21
622.457	45326.92
622.812	45514.93
623.168	45424.99
623.523	45532.79
623.879	45649.17
624.234	45404.88
624.589	45598.09
624.945	45553.8
625.3	45686.23
625.655	45623.18
626.01	45692.33
626.365	45774.14
626.72	45594.71
627.075	45606
627.43	45619.56
627.785	45643.07
628.14	45631.54
628.495	45709.05
628.85	45840.57
629.205	45722.61
629.559	45820.46
629.914	45451.66
630.269	45712.67
630.623	45381.83
630.978	45408.72
631.332	45682.16
631.687	45581.15
632.041	45424.54
632.396	45493.24
632.75	45375.05
633.104	45625.66
633.459	45406.46
633.813	45339.57
634.167	45316.52
634.521	45265.67
634.875	45380.02
635.229	45292.79
635.583	44982.29
635.937	45110.42
636.291	45007.15
636.645	45063.19
636.999	44773.26
637.352	44828.85
637.706	44613.26
638.06	44712.92
638.413	44687.38
638.767	44621.17
639.121	44718.57
639.474	44412.82
639.828	44444.9
640.181	44321.52
640.534	44544.34
640.888	44331.46
641.241	44120.85
641.594	44198.36
641.947	44286.72
642.301	44100.73
642.654	44109.77
643.007	43980.51
643.36	44168.75
643.713	44023
644.066	44144.8
644.419	43860.51
644.771	43471.82
645.124	43136.24
645.477	43104.6
645.83	43077.48
646.182	42948.45
646.535	42743.03
646.888	42891.73
647.24	42790.94
647.593	42977.37
647.945	42896.24
648.298	42782.58
648.65	42451.74
649.002	42153.44
649.355	42270.27
649.707	42074.8
650.059	42026.66
650.411	42535.8
650.763	42911.61
651.115	43411.03
651.467	43342.11
651.819	43309.79
652.171	43219.17
652.523	43084.71
652.875	43142.57
653.227	42969.92
653.578	43332.84
653.93	43141.21
654.282	42953.87
654.633	43039.74
654.985	43047.2
655.337	43041.33
655.688	43056.92
656.039	43083.81
656.391	42656.03
656.742	42783.25
657.094	42834.78
657.445	42810.6
657.796	42939.18
658.147	42896.7
658.498	42901.22
658.849	42949.8
659.2	42950.71
659.551	42627.1
659.902	42988.45
660.253	42859.18
660.604	42990.93
660.955	42799.07
661.306	42962.01
661.656	42740.09
662.007	42829.81
662.358	42892.63
662.708	42930.82
663.059	42855.12
663.409	42713.88
663.76	42835.46
664.11	42907.09
664.461	42985.73
664.811	43066.41
665.161	43001.33
665.511	42947.54
665.862	42947.09
666.212	42979.86
666.562	42945.96
666.912	42932.85
667.262	42766.08
667.612	42842.46
667.962	42857.83
668.312	42941.22
668.662	43045.62
669.011	43047.65
669.361	42937.15
669.711	43023.93
670.06	42869.13
670.41	42796.13
670.76	42822.8
671.109	43008.78
671.459	42958.39
671.808	42829.13
672.157	42859.64
672.507	42675.46
672.856	42790.03
673.205	42762.46
673.554	42920.88
673.904	42573.54
674.253	42911.61
674.602	42613.31
674.951	42190.95
675.3	41962.26
675.649	42650.6
675.998	42555.01
676.346	42621.9
676.695	42587.33
677.044	42496.93
677.393	42491.06
677.741	42590.49
678.09	42499.19
678.438	42499.19
678.787	42446.31
679.135	42407.9
679.484	42070.28
679.832	42311.63
680.181	42161.12
680.529	42158.64
680.877	42018.3
681.225	41823.5
681.573	42176.04
681.922	41891.75
682.27	41782.6
682.618	41718.42
682.966	41614.47
683.314	41839.55
683.661	41514.59
684.009	41498.32
684.357	41238.21
684.705	41241.15
685.053	41245.67
685.4	41029.85
685.748	40997.31
686.095	40943.53
686.443	40793.48
686.79	40752.8
687.138	40892
687.485	40809.75
687.832	40468.51
688.18	40493.14
688.527	40379.93
688.874	40448.63
689.221	40214.73
689.568	40118.69
689.915	39905.14
690.262	40024.46
690.609	39901.97
690.956	39791.92
691.303	39754.86
691.65	39629.66
691.997	39548.54
692.344	39203.46
692.69	39200.75
693.037	39297.47
693.383	38899.97
693.73	38931.6
694.077	38719.86
694.423	38705.39
694.769	38568.45
695.116	38504.72
695.462	38441.45
695.808	38268.12
696.155	38226.76
696.501	37910.84
696.847	37984.51
697.193	37603.5
697.539	37740.22
697.885	37446.22
698.231	37408.03
698.577	37335.26
698.923	37257.52
699.269	37018.89
699.614	36867.93
699.96	36767.82
700.306	36829.74
700.651	36558.33
700.997	36359.02
701.342	36326.02
701.688	36201.05
702.033	36060.27
702.379	36129.87
702.724	35916.32
703.069	35902.76
703.415	35573.95
703.76	35481.52
704.105	35345.03
704.45	35374.63
704.795	35135.32
705.14	35026.62
705.485	35067.07
705.83	34898.26
706.175	35040.41
706.52	34698.04
706.865	34736.69
707.209	34482.23
707.554	34425.51
707.899	34578.27
708.243	34202.01
708.588	34356.36
708.932	33974.45
709.277	34067.55
709.621	33724.28
709.966	33619.43
710.31	33699.42
710.654	33489.94
710.998	33654.23
711.342	33540.33
711.687	33435.48
712.031	33211.3
712.375	33074.36
712.719	33143.73
713.063	32986.9
713.407	33150.51
713.75	32966.56
714.094	32922.27
714.438	32766.79
714.782	32823.52
715.125	32631.88
715.469	32882.5
715.812	32543.75
716.156	32568.15
716.499	32508.5
716.843	32567.03
717.186	32407.93
717.53	32638.89
717.873	32551.21
718.216	32356.86
718.559	32317.31
718.902	32066.93
719.246	32180.14
719.589	32129.3
719.932	31853.6
720.275	32040.03
720.617	32068.06
720.96	31826.25
721.303	31909.64
721.646	32023.08
721.989	31694.05
722.331	31866.48
722.674	31700.61
723.016	31741.96
723.359	31561.18
723.701	31614.96
724.044	31571.8
724.386	31396.43
724.729	31612.47
725.071	31449.31
725.413	31413.84
725.755	31407.51
726.097	31336.32
726.439	31386.94
726.782	31223.11
727.124	31462.2
727.465	31310.33
727.807	31176.1
728.149	31231.92
728.491	31220.62
728.833	31193.05
729.175	31087.29
729.516	31106.72
729.858	31115.76
730.199	31099.49
730.541	31050.45
730.882	30956.67
731.224	30918.71
731.565	30925.94
731.906	30939.5
732.248	31024.47
732.589	30890.91
732.93	30825.6
733.271	30834.19
733.612	31011.13
733.953	30946.28
734.294	30932.49
734.635	30727.53
734.976	31014.07
735.317	30936.11
735.658	30811.59
735.999	30723.46
736.339	30726.62
736.68	30791.03
737.021	30697.47
737.361	30762.55
737.702	31070.34
738.042	30899.72
738.383	30866.96
738.723	31012.94
739.063	30910.12
739.404	31105.59
739.744	30985.82
740.084	30965.26
740.424	31089.78
740.764	31031.47
741.104	31108.76
741.444	30970.91
741.784	30944.02
742.124	31178.59
742.464	31183.78
742.804	31024.24
743.143	31027.86
743.483	31139.94
743.823	31134.29
744.162	31029.89
744.502	31163.67
744.841	31118.93
745.181	31342.42
745.52	31283.44
745.86	31407.06
746.199	31313.5
746.538	31454.51
746.877	31530.44
747.216	31574.73
747.556	31568.41
747.895	31576.99
748.234	31594.62
748.573	31612.47
748.911	31636.65
749.25	31640.04
749.589	31557.79
749.928	31947.15
750.267	31923.88
750.605	31886.82
750.944	31887.49
751.283	31853.37
751.621	31957.32
751.96	31899.47
752.298	32074.61
752.636	32065.34
752.975	32024.89
753.313	32103.31
753.651	32274.38
753.989	32211.33
754.327	32161.84
754.666	32044.33
755.004	32301.04
755.342	32353.47
755.679	32350.31
756.017	32257.43
756.355	32390.98
756.693	32535.39
757.031	32558.66
757.368	32374.71
757.706	32576.74
758.044	32462.85
758.381	32528.83
758.719	32525.22
759.056	32467.37
759.394	32487.93
759.731	32370.87
760.068	32329.97
760.405	32499.68
760.743	32277.32
761.08	32524.99
761.417	32344.66
761.754	32362.74
762.091	32234.15
762.428	32119.13
762.765	32098.11
763.102	32391.89
763.438	32243.42
763.775	31898.34
764.112	32114.61
764.449	32106.02
764.785	32046.13
765.122	31854.28
765.458	31778.12
765.795	31839.59
766.131	31816.54
766.467	31773.15
766.804	31651.34
767.14	31408.19
767.476	31493.38
767.812	31504.23
768.148	31475.3
768.485	31410.9
768.821	31092.49
769.157	31261.52
769.492	31114.41
769.828	31149.44
770.164	30795.77
770.5	30668.54
770.836	30821.76
771.171	30757.13
771.507	30629.45
771.842	30477.36
772.178	30424.48
772.513	30544.71
772.849	30242.57
773.184	30406.4
773.519	30109.24
773.855	29937.72
774.19	30012.52
774.525	29890.03
774.86	29807.1
775.195	29747.66
775.53	29587.22
775.865	29405.53
776.2	29288.24
776.535	29185.65
776.87	29086.21
777.205	28972.32
777.539	28843.73
777.874	28987.91
778.209	28705.21
778.543	28666.56
778.878	28490.75
779.212	28665.88
779.547	28247.36
779.881	28341.15
780.215	28073.58
780.55	28168.27
780.884	28001.72
781.218	27895.96
781.552	28048.27
781.886	27779.58
782.22	27557.67
782.554	27539.13
782.888	27338.01
783.222	27343.21
783.556	27133.04
783.889	27050.79
784.223	26933.27
784.557	26915.87
784.89	26930.56
785.224	26816.22
785.557	26666.84
785.891	26572.83
786.224	26575.54
786.558	26442.21
786.891	26262.56
787.224	26082
787.557	26051.04
787.891	25976.24
788.224	25890.82
788.557	25876.35
788.89	25764.94
789.223	25621.67
789.556	25599.07
789.888	25517.72
790.221	25510.26
790.554	25382.58
790.887	25292.19
791.219	25173.77
791.552	25099.88
791.884	25075.7
792.217	24906.89
792.549	24928.13
792.882	24638.42
793.214	24591.19
793.546	24711.86
793.879	24468.48
794.211	24322.72
794.543	24422.83
794.875	24319.56
795.207	24298.77
795.539	24226.23
795.871	24230.97
796.203	23979.23
796.535	23882.96
796.867	23875.73
797.198	23776.07
797.53	23678.67
797.862	23536.98
798.193	23698.33
798.525	23477.09
798.856	23428.28
799.188	23317.78
799.519	23191
799.85	23043.89
800.182	22993.49
800.513	23031.91
800.844	22829.43
801.175	22956.66
801.506	22972.48
801.837	22739.03
802.168	22737.68
802.499	22760.96
802.83	22644.35
803.161	22497.46
803.491	22450.91
803.822	22554.63
804.153	22405.26
804.483	22231.03
804.814	22135.89
805.145	22225.6
805.475	22111.03
805.805	22096.57
806.136	22076
806.466	21915.33
806.796	21900.41
807.126	21639.4
807.457	21755.56
807.787	21711.94
808.117	21550.37
808.447	21478.5
808.777	21568.9
809.107	21346.76
809.436	21337.94
809.766	21293.42
810.096	21331.16
810.426	21111.06
810.755	21212.97
811.085	21056.37
811.414	21034.45
811.744	20947.44
812.073	21071.28
812.403	20897.28
812.732	20813.21
813.061	20839.2
813.39	20677.85
813.719	20685.98
814.049	20775.47
814.378	20739.31
814.707	20693.89
815.036	20582.93
815.365	20444.18
815.693	20351.98
816.022	20481.92
816.351	20280.79
816.68	20253
817.008	20222.49
817.337	20027.24
817.665	20113.34
817.994	20105.66
818.322	20164.41
818.651	20038.09
818.979	19907.47
819.307	19962.84
819.636	19864.08
819.964	19853.46
820.292	19875.38
820.62	19785.89
820.948	19842.84
821.276	19953.8
821.604	19786.12
821.932	19926.91
822.259	19891.88
822.587	19863.4
822.915	19704.99
823.243	19825.21
823.57	19789.96
823.898	19834.48
824.225	19741.83
824.553	19747.25
824.88	19731.43
825.207	19868.6
825.535	19683.75
825.862	19879
826.189	19729.4
826.516	19980.01
826.843	19861.6
827.17	19873.57
827.497	19892.1
827.824	19835.38
828.151	19918.77
828.478	19784.99
828.805	19931.43
829.131	19792.45
829.458	19834.48
829.785	19690.75
830.111	19755.84
830.438	19858.66
830.764	19857.3
831.09	19820.69
831.417	19672.45
831.743	19893.01
832.069	19765.33
832.395	19745.67
832.722	19761.94
833.048	19697.76
833.374	19837.64
833.7	19757.42
834.026	19825.21
834.351	19729.17
834.677	19731.2
835.003	19657.31
835.329	19716.97
835.654	19680.36
835.98	19497.54
836.306	19553.13
836.631	19575.28
836.956	19645.33
837.282	19606.24
837.607	19490.31
837.932	19457.31
838.258	19391.78
838.583	19420.03
838.908	19342.74
839.233	19415.73
839.558	19250.99
839.883	19143.88
840.208	19100.26
840.533	19167.6
840.858	19142.07
841.182	19142.52
841.507	19158.79
841.832	18973.48
842.156	19071.79
842.481	19067.49
842.805	19012.13
843.13	18886.48
843.454	18876.99
843.778	18847.61
844.103	18862.75
844.427	18771.23
844.751	18834.73
845.075	18658.46
845.399	18685.36
845.723	18552.03
846.047	18560.16
846.371	18375.99
846.695	18514.74
847.019	18372.37
847.343	18211.92
847.666	18253.28
847.99	18106.16
848.313	17914.75
848.637	18003.79
848.96	18019.38
849.284	17909.33
849.607	17778.49
849.931	17767.87
850.254	17615.33
850.577	17511.6
850.9	17397.03
851.223	17431.6
851.546	17312.06
851.869	17249.01
852.192	17275.45
852.515	17119.07
852.838	17062.8
853.161	17042.01
853.483	16855.8
853.806	17028.9
854.129	16911.39
854.451	16856.48
854.774	16631.62
855.096	16557.73
855.419	16562.02
855.741	16564.06
856.063	16461.46
856.385	16414.46
856.708	16343.72
857.03	16325.19
857.352	16373.1
857.674	16190.05
857.996	16253.78
858.318	16159.32
858.64	16216.72
858.961	16162.03
859.283	16044.07
859.605	15958.87
859.926	15986.44
860.248	15871.42
860.57	15808.6
860.891	15882.04
861.212	15843.62
861.534	15806.34
861.855	15746.45
862.176	15751.65
862.498	15689.28
862.819	15684.76
863.14	15614.48
863.461	15606.12
863.782	15569.51
864.103	15552.33
864.424	15456.51
864.745	15426.46
865.065	15454.93
865.386	15294.48
865.707	15326.57
866.027	15302.62
866.348	15273.69
866.668	15140.14
866.989	15247.71
867.309	15171.55
867.63	15067.37
867.95	15089.29
868.27	15030.31
868.59	15101.04
868.91	15087.03
869.23	15060.59
869.55	14950.54
869.87	15102.17
870.19	14893.37
870.51	14974.04
870.83	14915.74
871.15	14850.88
871.469	14867.38
871.789	14901.05
872.109	14794.84
872.428	14747.83
872.748	14794.61
873.067	14728.17
873.386	14706.03
873.706	14686.37
874.025	14632.13
874.344	14616.08
874.663	14641.85
874.982	14585.12
875.301	14589.64
875.62	14534.96
875.939	14487.73
876.258	14475.07
876.577	14428.97
876.896	14540.38
877.214	14442.98
877.533	14397.33
877.852	14476.2
878.17	14426.26
878.489	14439.37
878.807	14290.9
879.125	14240.05
879.444	14304.91
879.762	14288.64
880.08	14365.92
880.398	14181.07
880.716	14194.17
881.034	14205.47
881.352	14224.23
881.67	14174.74
881.988	14116.66
882.306	14053.16
882.624	14068.98
882.941	14008.42
883.259	13909.44
883.577	13953.73
883.894	13866.95
884.212	13850.46
884.529	13830.12
884.846	13723.45
885.164	13661.53
885.481	13637.13
885.798	13742.44
886.115	13561.2
886.432	13606.62
886.75	13546.73
887.067	13519.39
887.383	13549.45
887.7	13540.86
888.017	13457.25
888.334	13452.05
888.651	13353.29
888.967	13346.29
889.284	13413.63
889.6	13296.35
889.917	13365.72
890.233	13238.04
890.55	13195.11
890.866	13161.21
891.182	13146.97
891.498	13126.18
891.815	13086.41
892.131	12955.56
892.447	13039.63
892.763	12968.22
893.079	12961.44
893.395	12920.54
893.71	12852.97
894.026	12812.52
894.342	12764.16
894.657	12709.24
894.973	12638.96
895.289	12751.05
895.604	12631.96
895.92	12549.02
896.235	12533.88
896.55	12563.26
896.865	12448.01
897.181	12422.92
897.496	12436.71
897.811	12246.2
898.126	12357.39
898.441	12286.88
898.756	12244.85
899.071	12192.42
899.386	12201.46
899.7	12130.95
900.015	12096.83
900.33	11912.2
900.644	11921.47
900.959	11989.49
901.273	11868.13
901.588	11831.98
901.902	11780.45
902.216	11717.18
902.531	11696.39
902.845	11654.35
903.159	11548.37
903.473	11534.13
903.787	11446.68
904.101	11429.95
904.415	11469.5
904.729	11415.49
905.042	11373.23
905.356	11366.68
905.67	11257.08
905.984	11288.71
906.297	11220.92
906.611	11179.79
906.924	11138.89
907.237	11068.16
907.551	11090.08
907.864	11027.25
908.177	10958.55
908.491	10888.72
908.804	10912.45
909.117	10821.83
909.43	10794.26
909.743	10678.56
910.056	10727.6
910.368	10695.74
910.681	10667.94
910.994	10535.29
911.307	10604.44
911.619	10451.67
911.932	10450.09
912.244	10376.42
912.557	10309.98
912.869	10247.39
913.181	10327.61
913.494	10287.61
913.806	10132.36
914.118	10124.9
914.43	10093.04
914.742	10128.97
915.054	10038.35
915.366	9958.81
915.678	10038.58
915.99	9951.12
916.302	9874.97
916.613	9774.86
916.925	9838.13
917.236	9773.27
917.548	9679.49
917.859	9727.85
918.171	9633.16
918.482	9538.48
918.794	9566.05
919.105	9528.08
919.416	9446.28
919.727	9468.42
920.038	9422.1
920.349	9293.06
920.66	9408.76
920.971	9346.39
921.282	9258.71
921.593	9168.32
921.903	9190.01
922.214	9158.15
922.525	9069.11
922.835	9048.32
923.146	9028.21
923.456	8954.99
923.767	8914.54
924.077	8899.62
924.387	8910.02
924.697	8858.5
925.008	8788.89
925.318	8852.17
925.628	8682.23
925.938	8644.04
926.248	8641.55
926.558	8614.89
926.867	8541.89
927.177	8565.17
927.487	8484.72
927.796	8429.81
928.106	8438.17
928.416	8389.81
928.725	8370.37
929.034	8296.93
929.344	8318.62
929.653	8239.53
929.962	8210.15
930.271	8233.65
930.581	8096.93
930.89	8078.18
931.199	8052.42
931.508	8028.69
931.817	7995.69
932.125	7966.32
932.434	7908.01
932.743	7822.82
933.051	7871.86
933.36	7814
933.669	7775.13
933.977	7765.19
934.286	7663.95
934.594	7727.23
934.902	7654.46
935.21	7568.13
935.519	7610.39
935.827	7540.79
936.135	7546.67
936.443	7455.37
936.751	7379.21
937.059	7406.33
937.367	7415.14
937.674	7396.39
937.982	7315.03
938.29	7311.87
938.597	7253.34
938.905	7178.31
939.213	7166.79
939.52	7146.68
939.827	7160.91
940.135	7153.23
940.442	7077.53
940.749	7053.35
941.056	7035.27
941.363	6995.04
941.67	6989.17
941.977	6901.49
942.284	6865.55
942.591	6853.35
942.898	6861.03
943.205	6819.68
943.511	6781.49
943.818	6813.58
944.125	6761.38
944.431	6756.4
944.738	6738.33
945.044	6645.9
945.35	6565.9
945.657	6518.44
945.963	6526.81
946.269	6551.66
946.575	6486.81
946.881	6422.4
947.187	6422.85
947.493	6403.42
947.799	6388.96
948.105	6375.17
948.41	6345.12
948.716	6352.35
949.022	6283.87
949.327	6243.2
949.633	6220.15
949.938	6212.46
950.244	6189.19
950.549	6154.84
950.854	6080.72
951.16	6083.65
951.465	6090.89
951.77	6028.97
952.075	5936.76
952.38	6012.7
952.685	5928.18
952.99	5849.99
953.294	5901.74
953.599	5856.54
953.904	5843.89
954.209	5792.59
954.513	5866.03
954.818	5819.25
955.122	5809.54
955.426	5745.81
955.731	5703.78
956.035	5626.26
956.339	5673.27
956.643	5661.29
956.948	5589.66
957.252	5548.53
957.556	5576.55
957.86	5503.78
958.163	5536.32
958.467	5487.96
958.771	5484.12
959.075	5489.09
959.378	5361.19
959.682	5381.07
959.985	5337.01
960.289	5370.9
960.592	5281.87
960.896	5304.47
961.199	5258.59
961.502	5266.5
961.805	5218.59
962.108	5184.47
962.411	5186.5
962.714	5116.9
963.017	5117.35
963.32	5121.64
963.623	5088.2
963.926	5049.78
964.228	5056.34
964.531	5018.14
964.833	5062.44
965.136	4986.06
965.438	4922.55
965.741	4926.62
966.043	4926.17
966.345	4858.15
966.648	4888.66
966.95	4859.73
967.252	4813.18
967.554	4825.16
967.856	4813.18
968.158	4770.02
968.46	4764.59
968.761	4756.91
969.063	4662.45
969.365	4672.39
969.666	4670.36
969.968	4626.97
970.269	4613.41
970.571	4578.16
970.872	4611.15
971.174	4586.97
971.475	4555.78
971.776	4509.91
972.077	4443.47
972.378	4513.98
972.679	4489.57
972.98	4417.71
973.281	4421.1
973.582	4407.09
973.883	4392.85
974.183	4386.98
974.484	4345.17
974.785	4299.29
975.085	4293.19
975.386	4316.47
975.686	4254.78
975.986	4249.8
976.287	4265.4
976.587	4227.88
976.887	4191.27
977.187	4194.66
977.487	4208.22
977.787	4119.41
978.087	4111.28
978.387	4086.19
978.687	4099.98
978.987	4064.27
979.286	4067.21
979.586	4025.18
979.885	4060.66
980.185	3997.38
980.484	3965.97
980.784	3980.21
981.083	3930.26
981.382	3948.34
981.682	3888.91
981.981	3906.54
982.28	3850.04
982.579	3846.65
982.878	3845.29
983.177	3831.96
983.475	3824.28
983.774	3749.25
984.073	3769.59
984.372	3723.72
984.67	3783.15
984.969	3734.11
985.267	3674
985.566	3707.44
985.864	3624.28
986.162	3597.39
986.461	3620.67
986.759	3617.28
987.057	3575.47
987.355	3569.6
987.653	3553.1
987.951	3587.67
988.249	3547.9
988.547	3537.28
988.844	3507.45
989.142	3513.33
989.44	3452.76
989.737	3460.22
990.035	3437.4
990.332	3413.89
990.63	3384.74
990.927	3334.35
991.224	3325.53
991.521	3349.26
991.819	3339.54
992.116	3280.11
992.413	3296.61
992.71	3318.98
993.006	3332.77
993.303	3262.03
993.6	3201.47
993.897	3228.81
994.193	3220.68
994.49	3207.12
994.787	3202.15
995.083	3191.3
995.379	3136.39
995.676	3141.36
995.972	3119.44
996.268	3133.67
996.565	3055.71
996.861	3065.2
997.157	3052.55
997.453	3077.4
997.749	3022.04
998.044	3026.56
998.34	2996.73
998.636	2960.57
998.932	2973.23
999.227	2922.15
999.523	2918.09
999.818	2905.43
1000.114	2855.04
1000.409	2878.09
1000.704	2847.58
1001	2845.77
1001.295	2841.48
1001.59	2860.01
1001.885	2850.74
1002.18	2817.3
1002.475	2763.29
1002.77	2783.63
1003.065	2740.92
1003.359	2772.78
1003.654	2747.24
1003.949	2715.38
1004.243	2668.15
1004.538	2642.84
1004.832	2653.24
1005.127	2641.26
1005.421	2611.43
1005.715	2608.72
1006.009	2613.69
1006.304	2587.93
1006.598	2578.66
1006.892	2594.03
1007.186	2524.2
1007.48	2537.08
1007.773	2521.49
1008.067	2462.05
1008.361	2455.05
1008.655	2484.65
1008.948	2452.79
1009.242	2442.62
1009.535	2422.96
1009.829	2420.7
1010.122	2415.05
1010.415	2373.02
1010.708	2362.62
1011.001	2357.88
1011.295	2327.37
1011.588	2346.35
1011.881	2286.24
1012.173	2313.36
1012.466	2284.66
1012.759	2275.62
1013.052	2270.42
1013.344	2236.98
1013.637	2243.53
1013.93	2200.14
1014.222	2213.47
1014.514	2185
1014.807	2192.23
1015.099	2168.28
1015.391	2164.66
1015.683	2156.07
1015.976	2128.05
1016.268	2123.76
1016.56	2098.45
1016.851	2084.21
1017.143	2084.66
1017.435	2098.67
1017.727	2057.32
1018.018	2036.08
1018.31	2042.18
1018.602	2005.34
1018.893	1981.16
1019.185	1996.08
1019.476	1952.91
1019.767	1958.11
1020.058	1960.6
1020.35	1907.49
1020.641	1898.68
1020.932	1904.78
1021.223	1883.99
1021.514	1876.53
1021.804	1834.05
1022.095	1844.89
1022.386	1829.98
1022.677	1820.26
1022.967	1822.07
1023.258	1782.52
1023.548	1804.9
1023.839	1776.42
1024.129	1760.6
1024.419	1772.35
1024.709	1760.38
1025	1726.03
1025.29	1722.19
1025.58	1713.82
1025.87	1669.08
1026.16	1684.45
1026.449	1626.37
1026.739	1651.23
1027.029	1670.66
1027.319	1627.27
1027.608	1634.73
1027.898	1601.74
1028.187	1621.85
1028.477	1595.64
1028.766	1572.36
1029.055	1573.49
1029.344	1560.38
1029.634	1551.57
1029.923	1553.83
1030.212	1530.78
1030.501	1514.28
1030.79	1528.97
1031.078	1497.11
1031.367	1478.12
1031.656	1468.41
1031.945	1448.52
1032.233	1412.36
1032.522	1446.94
1032.81	1447.39
1033.099	1411.69
1033.387	1420.73
1033.675	1381.63
1033.963	1428.86
1034.251	1395.42
1034.54	1375.75
1034.828	1400.84
1035.116	1372.14
1035.403	1349.99
1035.691	1357.68
1035.979	1319.26
1036.267	1329.88
1036.554	1306.83
1036.842	1295.08
1037.129	1300.73
1037.417	1281.97
1037.704	1266.83
1037.992	1249.2
1038.279	1235.87
1038.566	1237.68
1038.853	1237.68
1039.14	1237.68
