Data from 19-3921_FLMS001491_007.txt Node
Date: Thu Apr 19 16:42:08 BST 2018
User: hsy
Spectrometer: FLMS00149
Trigger mode: 0
Integration Time (sec): 1.000000E-2
Scans to average: 10
Electric dark correction enabled: true
Nonlinearity correction enabled: false
Boxcar width: 0
XAxis mode: Wavelengths
Number of Pixels in Spectrum: 2048
>>>>>Begin Spectral Data<<<<<
341.393	-19.72
341.776	-19.72
342.16	-19.72
342.543	-59.26
342.927	-73.73
343.31	-52.26
343.693	-59.26
344.077	-73.95
344.46	-60.39
344.843	-66.72
345.226	-45.48
345.61	-38.7
345.993	-17.46
346.376	-9.1
346.759	14.41
347.142	28.19
347.525	48.76
347.908	38.36
348.291	80.85
348.674	102.99
349.057	109.77
349.44	134.18
349.823	133.73
350.206	172.37
350.588	229.32
350.971	232.25
351.354	231.58
351.737	259.6
352.119	284.46
352.502	282.87
352.884	286.26
353.267	291.91
353.65	333.27
354.032	324.23
354.414	327.39
354.797	335.3
355.179	337.56
355.562	352.7
355.944	351.8
356.326	345.02
356.709	381.4
357.091	351.35
357.473	364
357.855	374.85
358.238	374.4
358.62	346.6
359.002	369.65
359.384	369.43
359.766	371.69
360.148	376.2
360.53	371.01
360.912	342.53
361.294	368.97
361.676	364.23
362.057	360.61
362.439	364.91
362.821	379.14
363.203	349.76
363.584	347.05
363.966	355.41
364.348	368.3
364.729	352.02
365.111	349.31
365.493	364
365.874	356.77
366.256	361.97
366.637	366.71
367.019	361.52
367.4	355.64
367.781	352.25
368.163	338.92
368.544	357.9
368.925	338.92
369.306	380.5
369.688	376.2
370.069	351.8
370.45	349.09
370.831	354.51
371.212	363.55
371.593	343.66
371.974	341.18
372.355	358.8
372.736	368.52
373.117	398.8
373.498	349.76
373.879	353.38
374.26	359.26
374.641	368.52
375.021	354.06
375.402	349.76
375.783	383.89
376.163	390.67
376.544	369.88
376.925	391.12
377.305	399.48
377.686	399.26
378.066	394.96
378.447	397.67
378.827	390.89
379.208	414.17
379.588	401.97
379.968	396.09
380.349	402.19
380.729	406.71
381.109	422.31
381.489	393.61
381.87	395.64
382.25	427.5
382.63	432.93
383.01	417.11
383.39	430.21
383.77	425.47
384.15	434.51
384.53	426.37
384.91	419.37
385.29	444.9
385.67	447.39
386.049	472.02
386.429	446.94
386.809	438.58
387.189	426.6
387.568	462.76
387.948	445.13
388.328	463.21
388.707	455.98
389.087	488.52
389.466	473.38
389.846	475.64
390.225	458.24
390.605	494.85
390.984	497.33
391.363	479.48
391.743	504.11
392.122	473.15
392.501	503.43
392.881	506.14
393.26	503.43
393.639	506.82
394.018	523.77
394.397	530.1
394.776	497.11
395.155	526.03
395.534	528.74
395.913	534.84
396.292	521.96
396.671	545.24
397.05	551.57
397.429	551.12
397.808	566.71
398.186	545.92
398.565	557.44
398.944	563.54
399.323	566.93
399.701	584.56
400.08	551.79
400.458	572.58
400.837	582.75
401.215	584.33
401.594	595.41
401.972	584.33
402.351	575.52
402.729	599.48
403.107	588.85
403.486	613.94
403.864	642.86
404.242	643.09
404.62	621.62
404.999	640.83
405.377	609.42
405.755	651.23
406.133	634.96
406.511	649.87
406.889	657.33
407.267	668.17
407.645	649.87
408.023	670.89
408.401	681.73
408.779	691.9
409.156	701.62
409.534	698
409.912	695.52
410.29	715.86
410.667	735.74
411.045	757.66
411.422	757.66
411.8	749.53
412.178	782.07
412.555	760.83
412.933	819.58
413.31	798.57
413.687	811.67
414.065	827.04
414.442	826.36
414.819	836.53
415.197	841.96
415.574	852.8
415.951	862.52
416.328	855.29
416.705	845.35
417.082	855.74
417.46	883.31
417.837	900.94
418.214	880.15
418.591	891.22
418.967	890.77
419.344	939.58
419.721	892.58
420.098	929.64
420.475	934.38
420.852	947.94
421.228	937.55
421.605	991.1
421.982	973.48
422.358	983.42
422.735	975.74
423.111	996.3
423.488	1000.37
423.864	999.24
424.241	1033.14
424.617	1037.2
424.994	1043.08
425.37	1051.44
425.746	1054.15
426.123	1053.7
426.499	1074.04
426.875	1098.22
427.251	1105
427.627	1135.28
428.003	1135.51
428.379	1130.99
428.756	1173.7
429.132	1188.16
429.507	1175.96
429.883	1209.86
430.259	1196.75
430.635	1223.87
431.011	1225.9
431.387	1242.4
431.763	1276.75
432.138	1281.94
432.514	1294.82
432.89	1294.37
433.265	1336.63
433.641	1333.24
434.016	1363.52
434.392	1396.06
434.767	1389.06
435.143	1394.26
435.518	1418.66
435.894	1443.97
436.269	1448.94
436.644	1482.84
437.02	1519.68
437.395	1486.91
437.77	1510.86
438.145	1544.54
438.52	1567.13
438.895	1559
439.271	1557.87
439.646	1572.11
440.021	1606
440.395	1641.26
440.77	1591.99
441.145	1656.17
441.52	1645.32
441.895	1626.34
442.27	1677.87
442.645	1663.63
443.019	1688.49
443.394	1694.59
443.769	1690.97
444.143	1698.88
444.518	1710.41
444.892	1741.59
445.267	1756.73
445.641	1761.03
446.016	1781.82
446.39	1766.9
446.764	1792.89
447.139	1791.08
447.513	1807.35
447.887	1843.74
448.262	1842.83
448.636	1869.72
449.01	1881.7
449.384	1890.74
449.758	1862.72
450.132	1914.24
450.506	1897.52
450.88	1905.43
451.254	1927.58
451.628	1985.2
452.002	1997.18
452.376	1980.68
452.75	2010.06
453.123	2020.91
453.497	2068.82
453.871	2092.32
454.244	2116.27
454.618	2135.03
454.992	2159.89
455.365	2142.71
455.739	2236.27
456.112	2234.91
456.486	2265.65
456.859	2284.4
457.232	2279.88
457.606	2313.78
457.979	2343.84
458.352	2397.85
458.725	2435.36
459.099	2434.68
459.472	2464.96
459.845	2500.89
460.218	2506.32
460.591	2542.25
460.964	2548.8
461.337	2577.95
461.71	2645.98
462.083	2662.25
462.456	2681.68
462.829	2703.15
463.201	2752.41
463.574	2741.11
463.947	2748.57
464.32	2810.94
464.692	2862.92
465.065	2870.83
465.438	2906.08
465.81	2944.95
466.183	2969.81
466.555	3029.24
466.928	3008
467.3	2986.76
467.672	3077.83
468.045	3130.03
468.417	3140.65
468.789	3149.47
469.161	3217.26
469.534	3233.76
469.906	3269.91
470.278	3315.34
470.65	3367.99
471.022	3396.92
471.394	3437.59
471.766	3504.48
472.138	3531.6
472.51	3611.15
472.882	3648.21
473.253	3675.78
473.625	3695.21
473.997	3789.67
474.369	3818.37
474.74	3835.77
475.112	3880.97
475.484	3986.73
475.855	4047.29
476.227	4052.04
476.598	4153.96
476.97	4185.6
477.341	4291.13
477.713	4326.84
478.084	4391.24
478.455	4533.84
478.827	4517.56
479.198	4642.76
479.569	4674.17
479.94	4803.66
480.311	4822.19
480.682	4941.51
481.053	5019.25
481.424	5115.97
481.795	5165.23
482.166	5207.72
482.537	5275.29
482.908	5409.29
483.279	5409.74
483.65	5557.31
484.021	5698.55
484.391	5727.25
484.762	5761.83
485.133	5833.69
485.503	5935.38
485.874	6026
486.244	6087.69
486.615	6161.82
486.985	6322.72
487.356	6387.12
487.726	6444.97
488.097	6555.03
488.467	6582.6
488.837	6668.24
489.207	6773.78
489.578	6907.11
489.948	6961.34
490.318	7052.19
490.688	7096.71
491.058	7254.22
491.428	7305.29
491.798	7372.18
492.168	7477.94
492.538	7543.25
492.908	7648.56
493.278	7710.25
493.648	7799.96
494.017	7910.7
494.387	7963.35
494.757	7999.51
495.126	8067.98
495.496	8127.64
495.866	8229.78
496.235	8292.83
496.605	8343.23
496.974	8428.87
497.344	8519.72
497.713	8574.41
498.082	8633.39
498.452	8677.46
498.821	8702.09
499.19	8737.11
499.559	8856.89
499.928	8936.21
500.298	9005.58
500.667	9008.07
501.036	8956.09
501.405	9131.23
501.774	9186.37
502.143	9303.43
502.512	9261.39
502.88	9366.02
503.249	9321.51
503.618	9458.68
503.987	9495.74
504.356	9617.77
504.724	9621.16
505.093	9637.66
505.462	9702.06
505.83	9724.89
506.199	9825.67
506.567	9926.24
506.936	9905.22
507.304	9987.48
507.672	10081.71
508.041	10145.89
508.409	10223.18
508.777	10266.79
509.145	10358.32
509.514	10366.45
509.882	10378.88
510.25	10494.58
510.618	10670.17
510.986	10615.26
511.354	10730.73
511.722	10790.62
512.09	10949.49
512.458	10840.79
512.826	11059.54
513.193	11060.22
513.561	11065.42
513.929	11156.71
514.297	11254.11
514.664	11359.42
515.032	11417.27
515.4	11516.7
515.767	11525.29
516.135	11713.08
516.502	11602.35
516.869	11860.42
517.237	11920.76
517.604	11843.93
517.972	12015.67
518.339	12142.45
518.706	12223.12
519.073	12280.07
519.44	12295.21
519.808	12529.33
520.175	12520.29
520.542	12705.15
520.909	12829.21
521.276	12866.27
521.643	13059.71
522.009	13093.16
522.376	13245.92
522.743	13257
523.11	13484.33
523.477	13612.47
523.843	13654.5
524.21	13792.12
524.577	13995.06
524.943	13943.08
525.31	14038.44
525.676	14278.89
526.043	14375.61
526.409	14432.11
526.776	14683.63
527.142	14661.03
527.508	14769.95
527.874	15025.54
528.241	15097.4
528.607	15188.47
528.973	15350.5
529.339	15289.94
529.705	15640.66
530.071	15649.93
530.437	15716.82
530.803	15875.23
531.169	15928.56
531.535	15994.33
531.901	16085.85
532.267	16219.86
532.632	16334.88
532.998	16392.73
533.364	16488.78
533.73	16609.9
534.095	16706.62
534.461	16726.51
534.826	16754.76
535.192	16870.91
535.557	17094.18
535.923	17136.67
536.288	17194.97
536.653	17255.76
537.019	17243.56
537.384	17340.73
537.749	17431.8
538.114	17569.2
538.479	17524.91
538.845	17609.2
539.21	17683.09
539.575	17754.73
539.94	17766.93
540.305	17971.9
540.67	17922.64
541.034	18010.54
541.399	17929.19
541.764	18034.27
542.129	18199.24
542.494	18269.07
542.858	18334.83
543.223	18263.87
543.587	18546.35
543.952	18380.7
544.316	18608.95
544.681	18468.61
545.045	18718.55
545.41	18690.53
545.774	18706.34
546.138	18820.24
546.503	18909.73
546.867	18780.01
547.231	19104.3
547.595	19029.95
547.959	19096.62
548.324	19239.89
548.688	19273.56
549.052	19290.06
549.416	19274.46
549.779	19323.05
550.143	19356.72
550.507	19556.72
550.871	19645.75
551.235	19503.84
551.599	19781.57
551.962	19850.72
552.326	19842.59
552.689	20041.22
553.053	19945.63
553.417	20099.75
553.78	20269.47
554.143	20383.36
554.507	20301.56
554.87	20477.37
555.234	20601.44
555.597	20573.19
555.96	20665.61
556.323	20726.86
556.686	20858.83
557.05	21078.49
557.413	20978.83
557.776	21076.9
558.139	21266.73
558.502	21368.42
558.865	21393.96
559.228	21570.9
559.59	21654.06
559.953	21678.47
560.316	21926.15
560.679	22015.64
561.041	22004.56
561.404	22348.96
561.767	22473.7
562.129	22357.77
562.492	22633.92
562.854	22746.69
563.217	22828.27
563.579	23019.23
563.941	23155.94
564.304	23385.09
564.666	23544.41
565.028	23578.53
565.39	23825.76
565.753	24006.09
566.115	24097.84
566.477	24393.65
566.839	24444.95
567.201	24792.29
567.563	24748.9
567.925	25013.98
568.287	25230.69
568.648	25313.85
569.01	25626.39
569.372	25835.65
569.734	25947.74
570.095	26205.81
570.457	26339.59
570.819	26582.07
571.18	26642.18
571.542	26917.2
571.903	27078.1
572.265	27231.54
572.626	27583.63
572.987	27634.25
573.349	27898.64
573.71	28138.86
574.071	28427.44
574.432	28638.29
574.794	28733.43
575.155	28830.37
575.516	28970.71
575.877	29127.54
576.238	29270.81
576.599	29485.95
576.96	29582.67
577.32	29776.79
577.681	29926.39
578.042	30054.52
578.403	30306.72
578.763	30203.44
579.124	30463.78
579.485	30782.64
579.845	30760.72
580.206	30684.11
580.566	30927.94
580.927	31006.59
581.287	31171.78
581.648	31056.75
582.008	31358.89
582.368	31445.44
582.728	31384.43
583.089	31381.72
583.449	31600.02
583.809	31441.15
584.169	31654.25
584.529	31533.35
584.889	31951.87
585.249	31732.89
585.609	31706.23
585.969	31906.22
586.329	31816.51
586.688	31940.57
587.048	31932.66
587.408	31954.13
587.768	31837.07
588.127	31885.21
588.487	31873.91
588.846	32225.31
589.206	31943.28
589.565	31958.2
589.925	32103.05
590.284	32008.59
590.643	32081.59
591.003	31967.92
591.362	32270.51
591.721	32150.51
592.08	32107.35
592.44	32104.41
592.799	32082.04
593.158	32038.65
593.517	32020.8
593.876	32027.35
594.235	32068.48
594.593	32075.48
594.952	32240.9
595.311	32013.11
595.67	32132.66
596.029	32275.93
596.387	32197.97
596.746	32311.64
597.104	32138.76
597.463	32132.43
597.822	32422.59
598.18	32193.9
598.538	32366.78
598.897	32404.74
599.255	32210.62
599.613	32514.34
599.972	32278.42
600.33	32404.06
600.688	32211.98
601.046	32317.06
601.404	32465.3
601.762	32325.65
602.12	32515.92
602.478	32477.51
602.836	32565.41
603.194	32445.64
603.552	32563.61
603.91	32385.08
604.268	32592.76
604.625	32520.9
604.983	32576.26
605.341	32480.22
605.698	32507.11
606.056	32715.24
606.413	32580.33
606.771	32818.06
607.128	32664.62
607.485	32623.72
607.843	32742.59
608.2	32745.52
608.557	32833.66
608.914	32707.33
609.272	32950.94
609.629	32956.82
609.986	33131.5
610.343	33123.37
610.7	33238.39
611.057	33094.21
611.414	33184.16
611.771	33191.61
612.127	33286.3
612.484	33351.38
612.841	33449.23
613.198	33317.26
613.554	33217.15
613.911	33492.4
614.267	33410.14
614.624	33547.31
614.98	33528.33
615.337	33642.22
615.693	33665.27
616.05	33539.63
616.406	33820.52
616.762	33583.47
617.118	33664.6
617.475	33788.89
617.831	33843.57
618.187	33885.15
618.543	33950.92
618.899	34018.48
619.255	33939.39
619.611	33916.34
619.967	34106.84
620.323	34149.78
620.678	33822.56
621.034	33902.78
621.39	33897.13
621.746	33907.3
622.101	34337.12
622.457	34012.61
622.812	34191.13
623.168	34222.77
623.523	34082.89
623.879	34260.51
624.234	34055.09
624.589	34133.96
624.945	34221.42
625.3	34331.47
625.655	34128.31
626.01	34213.06
626.365	34189.33
626.72	34304.8
627.075	34161.98
627.43	34212.83
627.785	34121.08
628.14	34146.39
628.495	34137.8
628.85	34159.05
629.205	34127.63
629.559	34257.12
629.914	34051.7
630.269	33952.95
630.623	33856
630.978	33898.49
631.332	33946.62
631.687	33903.68
632.041	33807.19
632.396	33867.3
632.75	33775.33
633.104	33707.98
633.459	33643.8
633.813	33692.16
634.167	33637.03
634.521	33637.93
634.875	33639.96
635.229	33399.52
635.583	33286.75
635.937	33318.39
636.291	33310.03
636.645	33267.54
636.999	33125.85
637.352	33181.67
637.706	33091.95
638.06	33198.17
638.413	33134.44
638.767	32909.13
639.121	33206.98
639.474	32911.17
639.828	32918.17
640.181	32920.21
640.534	32829.59
640.888	32836.59
641.241	32585.3
641.594	32660.1
641.947	32741.91
642.301	32652.42
642.654	32671.17
643.007	32448.81
643.36	32597.28
643.713	32562.7
644.066	32602.25
644.419	32417.62
644.771	32030.97
645.124	31777.87
645.477	31851.76
645.83	31754.36
646.182	31746.45
646.535	31586.46
646.888	31798.43
647.24	31531.54
647.593	31880.01
647.945	31633.46
648.298	31490.64
648.65	31380.36
649.002	31106.24
649.355	30783.09
649.707	30743.54
650.059	30766.14
650.411	31294.04
650.763	31547.59
651.115	32088.37
651.467	31919.78
651.819	31971.53
652.171	31805.66
652.523	31829.16
652.875	31763.85
653.227	31674.36
653.578	31847.92
653.93	31915.49
654.282	31719.56
654.633	31675.95
654.985	31753.23
655.337	31661.94
655.688	31732.67
656.039	31698.55
656.391	31433.24
656.742	31541.71
657.094	31482.51
657.445	31551.43
657.796	31567.93
658.147	31488.38
658.498	31566.8
658.849	31630.75
659.2	31470.75
659.551	31564.09
659.902	31718.43
660.253	31622.61
660.604	31737.41
660.955	31526.35
661.306	31852.21
661.656	31590.53
662.007	31645.44
662.358	31681.82
662.708	31626.46
663.059	31540.36
663.409	31474.37
663.76	31724.08
664.11	31573.12
664.461	31669.62
664.811	31636.4
665.161	31547.14
665.511	31424.88
665.862	31478.66
666.212	31714.59
666.562	31547.36
666.912	31660.35
667.262	31442.51
667.612	31522.5
667.962	31549.17
668.312	31622.61
668.662	31735.83
669.011	31670.3
669.361	31624.65
669.711	31593.24
670.06	31411.32
670.41	31400.25
670.76	31478.44
671.109	31632.78
671.459	31550.07
671.808	31468.49
672.157	31644.54
672.507	31227.37
672.856	31285.9
673.205	31426.46
673.554	31343.07
673.904	31266.01
674.253	31561.37
674.602	31313.24
674.951	30983.76
675.3	30849.53
675.649	31405.45
675.998	31212.68
676.346	31199.8
676.695	31223.3
677.044	30893.59
677.393	31172.91
677.741	31232.34
678.09	31007.04
678.438	30949.86
678.787	31161.84
679.135	31144.89
679.484	30920.49
679.832	31044.32
680.181	30921.39
680.529	30758.23
680.877	30882.3
681.225	30826.93
681.573	30976.98
681.922	30681.17
682.27	30736.99
682.618	30711
682.966	30429.2
683.314	30507.39
683.661	30566.37
684.009	30364.57
684.357	30266.94
684.705	30265.59
685.053	30264.01
685.4	30074.41
685.748	30005.26
686.095	29944.92
686.443	29778.82
686.79	29734.98
687.138	29787.41
687.485	29781.08
687.832	29785.83
688.18	29714.19
688.527	29376.8
688.874	29503.57
689.221	29472.39
689.568	29270.36
689.915	29119.4
690.262	29262.9
690.609	29080.31
690.956	29042.57
691.303	29013.19
691.65	28948.11
691.997	28862.24
692.344	28668.57
692.69	28594.45
693.037	28553.99
693.383	28325.75
693.73	28390.38
694.077	28285.98
694.423	28211.41
694.769	28089.6
695.116	28121.92
695.462	28003.27
695.808	27771.19
696.155	27882.6
696.501	27634.92
696.847	27612.1
697.193	27457.3
697.539	27431.76
697.885	27225.89
698.231	27095.73
698.577	27084.2
698.923	26940.7
699.269	26878.78
699.614	26730.31
699.96	26615.29
700.306	26631.11
700.651	26612.8
700.997	26469.3
701.342	26383.88
701.688	26296.88
702.033	26095.3
702.379	26088.75
702.724	25908.64
703.069	26169.65
703.415	25759.72
703.76	25773.28
704.105	25777.12
704.45	25616.22
704.795	25603.11
705.14	25431.14
705.485	25420.74
705.83	25220.75
706.175	25331.03
706.52	25227.53
706.865	25180.07
707.209	24965.84
707.554	25029.57
707.899	24948.67
708.243	24776.92
708.588	24865.5
708.932	24689.24
709.277	24745.73
709.621	24529.92
709.966	24345.29
710.31	24440.66
710.654	24268.23
710.998	24386.42
711.342	24316.59
711.687	24268.23
712.031	24201.34
712.375	24151.62
712.719	24166.54
713.063	24059.42
713.407	24123.38
713.75	24050.84
714.094	23998.86
714.438	23828.24
714.782	23922.7
715.125	23783.95
715.469	23946.66
715.812	23703.5
716.156	23554.8
716.499	23671.86
716.843	23699.43
717.186	23567.23
717.53	23659.66
717.873	23504.18
718.216	23569.27
718.559	23516.84
718.902	23304.19
719.246	23411.53
719.589	23240.01
719.932	23167.02
720.275	23253.8
720.617	23287.69
720.96	23225.55
721.303	23326.11
721.646	23301.7
721.989	23190.07
722.331	23210.63
722.674	23074.59
723.016	23120.01
723.359	23023.29
723.701	23025.55
724.044	22998.89
724.386	22896.74
724.729	23128.37
725.071	23035.95
725.413	22976.29
725.755	22964.31
726.097	22850.19
726.439	22766.8
726.782	22800.93
727.124	22895.16
727.465	22851.32
727.807	22788.27
728.149	22776.75
728.491	22763.64
728.833	22830.3
729.175	22776.07
729.516	22734.26
729.858	22720.7
730.199	22876.63
730.541	22837.54
730.882	22755.96
731.224	22719.8
731.565	22613.36
731.906	22680.25
732.248	22719.8
732.589	22673.02
732.93	22664.88
733.271	22674.38
733.612	22723.19
733.953	22734.71
734.294	22631.21
734.635	22633.47
734.976	22790.08
735.317	22676.18
735.658	22685.22
735.999	22648.16
736.339	22733.58
736.68	22770.87
737.021	22750.76
737.361	22707.14
737.702	22934.03
738.042	22876.63
738.383	22807.71
738.723	22816.29
739.063	22800.93
739.404	22920.92
739.744	22942.39
740.084	23009.28
740.424	22940.13
740.764	23000.92
741.104	23032.78
741.444	22905.56
741.784	22997.3
742.124	23223.74
742.464	23082.27
742.804	23103.52
743.143	23003.63
743.483	23265.09
743.823	23162.5
744.162	23241.37
744.502	23345.09
744.841	23245.89
745.181	23432.32
745.52	23487.24
745.86	23515.71
746.199	23644.07
746.538	23602.94
746.877	23769.71
747.216	23769.49
747.556	23647.91
747.895	23782.37
748.234	23865.53
748.573	23849.49
748.911	23915.25
749.25	24016.26
749.589	23940.56
749.928	24221.45
750.267	24278.85
750.605	24208.35
750.944	24290.38
751.283	24287.67
751.621	24476.81
751.96	24371.05
752.298	24601.33
752.636	24670.48
752.975	24696.7
753.313	24785.05
753.651	24940.3
753.989	24860.53
754.327	25183.69
754.666	24889.23
755.004	25127.87
755.342	25187.3
755.679	25250.8
756.017	25266.4
756.355	25505.94
756.693	25385.04
757.031	25590.23
757.368	25550.46
757.706	25675.88
758.044	25635.88
758.381	25891.24
758.719	25823.9
759.056	25971.01
759.394	25845.14
759.731	25740.96
760.068	25868.19
760.405	26029.54
760.743	25962.65
761.08	25999.94
761.417	25953.16
761.754	26086.72
762.091	26214.62
762.428	26009.2
762.765	26001.75
763.102	26155.41
763.438	26198.12
763.775	26186.15
764.112	26101.63
764.449	26069.31
764.785	26232.47
765.122	26013.72
765.458	26044.68
765.795	26087.62
766.131	26160.16
766.467	26164.68
766.804	25980.05
767.14	25934.63
767.476	26067.96
767.812	25971.46
768.148	25999.71
768.485	25954.06
768.821	25858.02
769.157	25768.31
769.492	25666.84
769.828	25785.71
770.164	25641.98
770.5	25509.1
770.836	25622.55
771.171	25584.58
771.507	25467.97
771.842	25357.69
772.178	25432.5
772.513	25337.58
772.849	25240.86
773.184	25358.82
773.519	25105.95
773.855	25036.12
774.19	25129
774.525	25016.46
774.86	24901.66
775.195	24872.28
775.53	24737.6
775.865	24705.06
776.2	24486.31
776.535	24466.42
776.87	24444.95
777.205	24331.73
777.539	24304.84
777.874	24250.83
778.209	24126.99
778.543	24215.58
778.878	24015.36
779.212	23965.64
779.547	23794.12
779.881	23920.22
780.215	23741.24
780.55	23883.38
780.884	23580.79
781.218	23527.23
781.552	23640.45
781.886	23419.67
782.22	23158.66
782.554	23225.77
782.888	22974.48
783.222	23026
783.556	22899.91
783.889	22776.52
784.223	22693.58
784.557	22781.04
784.89	22760.47
785.224	22694.04
785.557	22476.87
785.891	22365.01
786.224	22294.27
786.558	22335.85
786.891	22221.73
787.224	22146.71
787.557	22106.03
787.891	21913.49
788.224	21828.3
788.557	21802.31
788.89	21772.03
789.223	21697.9
789.556	21611.58
789.888	21624.69
790.221	21639.37
790.554	21378.36
790.887	21445.48
791.219	21299.5
791.552	21201.19
791.884	21083.46
792.217	21195.77
792.549	21041.88
792.882	20870.13
793.214	20833.97
793.546	20908.77
793.879	20747.19
794.211	20504.49
794.543	20817.48
794.875	20591.94
795.207	20565.5
795.539	20413.42
795.871	20624.71
796.203	20387.43
796.535	20251.61
796.867	20203.93
797.198	20041.68
797.53	20059.08
797.862	19960.77
798.193	20034.67
798.525	19906.09
798.856	19861.79
799.188	19629.03
799.519	19664.51
799.85	19578.19
800.182	19579.77
800.513	19644.17
800.844	19430.39
801.175	19573.44
801.506	19476.27
801.837	19373.67
802.168	19351.3
802.499	19333.45
802.83	19214.13
803.161	19081.48
803.491	19100.68
803.822	19102.94
804.153	18985.43
804.483	18894.59
804.814	18812.33
805.145	18795.61
805.475	18787.25
805.805	18732.56
806.136	18638.78
806.466	18592.9
806.796	18664.31
807.126	18491.21
807.457	18426.35
807.787	18469.29
808.117	18373.92
808.447	18382.96
808.777	18403.08
809.107	18266.13
809.436	18229.52
809.766	18181.39
810.096	18158.34
810.426	18025.46
810.755	18062.97
811.085	18091.45
811.414	18034.72
811.744	17873.15
812.073	17854.16
812.403	17907.5
812.732	17790.66
813.061	17762.64
813.39	17623.21
813.719	17654.85
814.049	17820.72
814.378	17647.84
814.707	17513.16
815.036	17589.09
815.365	17395.19
815.693	17361.97
816.022	17397.45
816.351	17350.45
816.68	17261.41
817.008	17303.9
817.337	17083.79
817.665	17055.77
817.994	17011.25
818.322	17097.57
818.651	17085.14
818.979	16949.33
819.307	16967.41
819.636	16936.45
819.964	16942.77
820.292	16964.02
820.62	16959.72
820.948	16938.26
821.276	16948.2
821.604	16821.65
821.932	17006.5
822.259	16843.34
822.587	16938.03
822.915	16881.76
823.243	16891.48
823.57	16867.97
823.898	16924.7
824.225	16900.97
824.553	16825.94
824.88	16830.91
825.207	16893.06
825.535	16797.69
825.862	16857.58
826.189	16773.97
826.516	17006.28
826.843	16903.23
827.17	16954.98
827.497	16954.98
827.824	16905.71
828.151	16927.18
828.478	16874.3
828.805	16943.68
829.131	16930.8
829.458	16929.89
829.785	16771.48
830.111	16752.72
830.438	17017.8
830.764	16829.56
831.09	16907.3
831.417	16836.79
831.743	16957.01
832.069	16947.75
832.395	16764.7
832.722	16843.34
833.048	16755.44
833.374	16853.74
833.7	16743.91
834.026	16773.97
834.351	16723.57
834.677	16906.17
835.003	16800.41
835.329	16731.71
835.654	16738.94
835.98	16584.14
836.306	16717.92
836.631	16650.13
836.956	16682.22
837.282	16631.6
837.607	16607.42
837.932	16566.74
838.258	16535.78
838.583	16569
838.908	16557.02
839.233	16571.71
839.558	16451.49
839.883	16416.24
840.208	16340.76
840.533	16529
840.858	16407.42
841.182	16376.24
841.507	16347.76
841.832	16284.04
842.156	16261.21
842.481	16259.63
842.805	16219.86
843.13	16197.03
843.454	16122.01
843.778	16059.18
844.103	16122.68
844.427	16039.52
844.751	16016.7
845.075	16035.23
845.399	15957.72
845.723	15915.68
846.047	15925.4
846.371	15792.52
846.695	15685.63
847.019	15656.03
847.343	15654
847.666	15558.4
847.99	15455.81
848.313	15459.88
848.637	15407.22
848.96	15349.82
849.284	15317.96
849.607	15244.97
849.931	15136.04
850.254	15082.71
850.577	14955.93
850.9	14894.92
851.223	14972.21
851.546	14889.04
851.869	14726.56
852.192	14881.36
852.515	14645.21
852.838	14577.64
853.161	14617.19
853.483	14462.39
853.806	14457.64
854.129	14421.94
854.451	14450.19
854.774	14259.46
855.096	14219.46
855.419	14277.08
855.741	14157.76
856.063	14108.95
856.385	14115.5
856.708	14039.57
857.03	14021.5
857.352	14042.51
857.674	14055.62
857.996	13927.26
858.318	13791.67
858.64	13855.62
858.961	13812.46
859.283	13740.83
859.605	13760.94
859.926	13727.49
860.248	13657.89
860.57	13623.54
860.891	13584.67
861.212	13552.81
861.534	13542.86
861.855	13471.68
862.176	13523.43
862.498	13452.02
862.819	13533.37
863.14	13326.15
863.461	13378.12
863.782	13336.09
864.103	13374.96
864.424	13285.02
864.745	13265.58
865.065	13148.07
865.386	13157.34
865.707	13247.5
866.027	13180.84
866.348	13144.91
866.668	13127.28
866.989	13005.93
867.309	12956.44
867.63	12973.39
867.95	13080.5
868.27	12957.79
868.59	12944.24
868.91	12933.16
869.23	12990.11
869.55	12925.48
869.87	12912.6
870.19	12835.76
870.51	12806.39
870.83	12784.69
871.15	12731.13
871.469	12802.54
871.789	12776.78
872.109	12740.63
872.428	12708.76
872.748	12792.6
873.067	12773.39
873.386	12702.89
873.706	12638.48
874.025	12661.08
874.344	12549.9
874.663	12508.54
874.982	12602.32
875.301	12541.76
875.62	12443.01
875.939	12421.54
876.258	12559.16
876.577	12443.01
876.896	12451.14
877.214	12392.39
877.533	12422.67
877.852	12350.58
878.17	12423.12
878.489	12344.93
878.807	12256.8
879.125	12305.38
879.444	12234.2
879.762	12243.92
880.08	12313.74
880.398	12172.5
880.716	12290.92
881.034	12224.71
881.352	12094.09
881.67	12102.68
881.988	12103.81
882.306	12046.41
882.624	11982.23
882.941	11980.87
883.259	11970.7
883.577	11928.44
883.894	11930.03
884.212	11860.2
884.529	11932.96
884.846	11897.48
885.164	11862.46
885.481	11777.49
885.798	11770.03
886.115	11727.54
886.432	11720.09
886.75	11728.45
887.067	11645.74
887.383	11631.28
887.7	11673.53
888.017	11564.61
888.334	11598.73
888.651	11530.49
888.967	11530.49
889.284	11499.3
889.6	11500.66
889.917	11399.64
890.233	11418.85
890.55	11386.08
890.866	11378.63
891.182	11375.46
891.498	11325.97
891.815	11258.18
892.131	11258.63
892.447	11101.8
892.763	11091.4
893.079	11137.28
893.395	11027.22
893.71	11010.05
894.026	11042.59
894.342	10991.29
894.657	10885.08
894.973	10915.81
895.289	10896.15
895.604	10800.56
895.92	10789.72
896.235	10779.1
896.55	10790.39
896.865	10690.28
897.181	10635.37
897.496	10649.61
897.811	10560.12
898.126	10546.33
898.441	10571.19
898.756	10488.71
899.071	10469.27
899.386	10412.1
899.7	10417.07
900.015	10203.52
900.33	10242.61
900.644	10177.53
900.959	10258.2
901.273	10245.1
901.588	10170.98
901.902	10142.5
902.216	10074.25
902.531	10070.41
902.845	10017.99
903.159	9935.28
903.473	9860.48
903.787	9854.37
904.101	9844.88
904.415	9846.46
904.729	9782.96
905.042	9767.6
905.356	9780.93
905.67	9674.04
905.984	9774.15
906.297	9660.93
906.611	9565.34
906.924	9605.79
907.237	9561.95
907.551	9506.36
907.864	9487.38
908.177	9446.47
908.491	9399.02
908.804	9380.26
909.117	9270.43
909.43	9241.73
909.743	9220.94
910.056	9227.27
910.368	9213.71
910.681	9142.08
910.994	9134.84
911.307	9098.69
911.619	8987.96
911.932	8953.61
912.244	8902.08
912.557	8878.13
912.869	8832.71
913.181	8816.89
913.494	8855.3
913.806	8772.14
914.118	8704.12
914.43	8657.34
914.742	8682.88
915.054	8653.73
915.366	8584.58
915.678	8614.63
915.99	8569.66
916.302	8390.91
916.613	8393.85
916.925	8439.04
917.236	8469.1
917.548	8344.58
917.859	8426.39
918.171	8321.08
918.482	8263
918.794	8230.91
919.105	8249.9
919.416	8115.66
919.727	8188.2
920.038	8110.01
920.349	8033.63
920.66	7990.92
920.971	7999.28
921.282	7932.16
921.593	7976.68
921.903	7865.95
922.214	7902.79
922.525	7881.09
922.835	7820.53
923.146	7760.64
923.456	7767.42
923.767	7720.64
924.077	7656.01
924.387	7661.89
924.697	7646.52
925.008	7632.74
925.318	7602.91
925.628	7577.6
925.938	7504.38
926.248	7441.78
926.558	7449.24
926.867	7430.26
927.177	7359.75
927.487	7317.27
927.796	7325.17
928.106	7226.87
928.416	7186.2
928.725	7172.86
929.034	7171.05
929.344	7180.32
929.653	7129.25
929.962	7074.11
930.271	7085.41
930.581	6971.29
930.89	6971.06
931.199	6969.25
931.508	6955.01
931.817	6934.45
932.125	6846.77
932.434	6869.82
932.743	6815.81
933.051	6783.04
933.36	6811.29
933.669	6727.22
933.977	6688.13
934.286	6708.24
934.594	6663.27
934.902	6614.23
935.21	6572.65
935.519	6541.92
935.827	6553.9
936.135	6418.53
936.443	6481.13
936.751	6417.4
937.059	6423.96
937.367	6353.67
937.674	6415.37
937.982	6367.46
938.29	6287.01
938.597	6255.82
938.905	6227.8
939.213	6214.47
939.52	6180.57
939.827	6179.44
940.135	6141.7
940.442	6172.21
940.749	6060.58
941.056	6127.01
941.363	6021.03
941.67	6010.18
941.977	5959.79
942.284	5943.74
942.591	5957.3
942.898	5921.82
943.205	5931.09
943.511	5892.44
943.818	5876.17
944.125	5778.1
944.431	5809.06
944.738	5762.73
945.044	5711.88
945.35	5712.56
945.657	5727.48
945.963	5688.83
946.269	5677.08
946.575	5633.02
946.881	5565.67
947.187	5537.43
947.493	5567.48
947.799	5563.19
948.105	5508.95
948.41	5449.29
948.716	5471.66
949.022	5422.85
949.327	5457.65
949.633	5379.92
949.938	5381.72
950.244	5369.75
950.549	5297.21
950.854	5299.69
951.16	5299.24
951.465	5245.68
951.77	5240.94
952.075	5234.16
952.38	5210.88
952.685	5153.03
952.99	5151.9
953.294	5133.59
953.599	5073.71
953.904	5128.62
954.209	5061.73
954.513	5022.18
954.818	5034.16
955.122	5002.75
955.426	5006.82
955.731	4994.61
956.035	4965.24
956.339	4941.96
956.643	4871
956.948	4827.84
957.252	4817.22
957.556	4824.68
957.86	4810.44
958.163	4767.95
958.467	4716.88
958.771	4770.67
959.075	4703.32
959.378	4680.05
959.682	4618.81
959.985	4638.24
960.289	4646.6
960.592	4629.43
960.896	4580.84
961.199	4556.43
961.502	4530.22
961.805	4584.23
962.108	4554.63
962.411	4471.24
962.714	4471.46
963.017	4451.35
963.32	4428.75
963.623	4420.84
963.926	4453.39
964.228	4378.59
964.531	4393.5
964.833	4371.58
965.136	4325.71
965.438	4319.6
965.741	4287.51
966.043	4286.38
966.345	4237.8
966.648	4227.85
966.95	4189.89
967.252	4217.69
967.554	4220.62
967.856	4182.88
968.158	4150.34
968.46	4163
968.761	4107.18
969.063	4130.46
969.365	4105.15
969.666	4052.27
969.968	4044.36
970.269	4043.9
970.571	4001.65
970.872	4009.1
971.174	3934.76
971.475	3942.21
971.776	3970.69
972.077	3918.48
972.378	3909.67
972.679	3907.86
972.98	3906.51
973.281	3907.86
973.582	3867.41
973.883	3876
974.183	3821.99
974.484	3827.64
974.785	3796.23
975.085	3754.42
975.386	3794.65
975.686	3745.16
975.986	3726.63
976.287	3735.89
976.587	3693.86
976.887	3705.61
977.187	3694.54
977.487	3655.21
977.787	3649.57
978.087	3612.5
978.387	3614.09
978.687	3594.2
978.987	3575.67
979.286	3536.35
979.586	3553.75
979.885	3530.47
980.185	3487.76
980.484	3465.16
980.784	3473.07
981.083	3426.07
981.382	3450.25
981.682	3424.03
981.981	3393.53
982.28	3387.2
982.579	3379.29
982.878	3371.38
983.177	3368.44
983.475	3336.8
983.774	3311.04
984.073	3300.65
984.372	3300.42
984.67	3302.46
984.969	3291.38
985.267	3269.01
985.566	3278.5
985.864	3215
986.162	3192.18
986.461	3191.5
986.759	3183.14
987.057	3125.51
987.355	3178.39
987.653	3106.3
987.951	3120.99
988.249	3127.54
988.547	3064.04
988.844	3065.17
989.142	3077.15
989.44	3039.64
989.737	3036.7
990.035	2984.05
990.332	2985.63
990.63	2977.72
990.927	3029.02
991.224	2926.65
991.521	2951.28
991.819	2918.28
992.116	2927.55
992.413	2901.34
992.71	2889.59
993.006	2860.43
993.303	2886.2
993.6	2855.91
993.897	2835.8
994.193	2835.35
994.49	2831.73
994.787	2775.46
995.083	2801.68
995.379	2778.63
995.676	2775.92
995.972	2786.08
996.268	2685.75
996.565	2714.67
996.861	2690.95
997.157	2696.82
997.453	2661.12
997.749	2635.81
998.044	2646.2
998.34	2641
998.636	2634.68
998.932	2618.63
999.227	2587.9
999.523	2575.24
999.818	2577.95
1000.114	2548.58
1000.409	2550.84
1000.704	2536.37
1001	2525.53
1001.295	2506.54
1001.59	2488.01
1001.885	2453.21
1002.18	2410.5
1002.475	2450.95
1002.77	2419.77
1003.065	2420.67
1003.359	2416.15
1003.654	2379.09
1003.949	2397.62
1004.243	2410.95
1004.538	2344.06
1004.832	2335.25
1005.127	2324.85
1005.421	2325.98
1005.715	2311.3
1006.009	2274.69
1006.304	2290.73
1006.598	2271.75
1006.892	2242.37
1007.186	2225.65
1007.48	2241.01
1007.773	2204.41
1008.067	2199.43
1008.361	2172.32
1008.655	2146.78
1008.948	2148.36
1009.242	2159.66
1009.535	2137.29
1009.829	2126.22
1010.122	2146.1
1010.415	2105.88
1010.708	2100.68
1011.001	2076.73
1011.295	2105.42
1011.588	2073.11
1011.881	2043.05
1012.173	2005.99
1012.466	2011.87
1012.759	2016.39
1013.052	2017.97
1013.344	1967.35
1013.637	1976.61
1013.93	1981.59
1014.222	1975.71
1014.514	1943.17
1014.807	1929.16
1015.099	1934.81
1015.391	1894.81
1015.683	1906.11
1015.976	1895.71
1016.268	1853.68
1016.56	1871.76
1016.851	1861.59
1017.143	1819.1
1017.435	1835.83
1017.727	1798.09
1018.018	1787.69
1018.31	1787.02
1018.602	1816.17
1018.893	1748.6
1019.185	1746.56
1019.476	1765.32
1019.767	1739.56
1020.058	1721.25
1020.35	1699.33
1020.641	1679.9
1020.932	1698.66
1021.223	1688.71
1021.514	1672.22
1021.804	1667.92
1022.095	1625.89
1022.386	1630.18
1022.677	1609.17
1022.967	1626.79
1023.258	1605.78
1023.548	1570.98
1023.839	1596.29
1024.129	1605.78
1024.419	1570.52
1024.709	1552.67
1025	1536.85
1025.29	1536.63
1025.58	1527.59
1025.87	1504.54
1026.16	1540.02
1026.449	1505.67
1026.739	1482.62
1027.029	1474.93
1027.319	1443.75
1027.608	1473.8
1027.898	1439.23
1028.187	1438.78
1028.477	1426.12
1028.766	1407.59
1029.055	1415.27
1029.344	1391.32
1029.634	1366.01
1029.923	1373.01
1030.212	1360.36
1030.501	1363.75
1030.79	1336.18
1031.078	1320.59
1031.367	1341.38
1031.656	1331.21
1031.945	1317.42
1032.233	1289.4
1032.522	1304.77
1032.81	1289.4
1033.099	1296.18
1033.387	1272.45
1033.675	1296.86
1033.963	1242.85
1034.251	1236.3
1034.54	1240.36
1034.828	1228.84
1035.116	1237.2
1035.403	1235.39
1035.691	1192.45
1035.979	1210.53
1036.267	1202.17
1036.554	1181.38
1036.842	1203.75
1037.129	1163.75
1037.417	1154.94
1037.704	1171.89
1037.992	1116.07
1038.279	1137.31
1038.566	1136.41
1038.853	1136.41
1039.14	1136.41
