Data from 19-3935_FLMS001491_001.txt Node
Date: Thu Apr 19 16:38:52 BST 2018
User: hsy
Spectrometer: FLMS00149
Trigger mode: 0
Integration Time (sec): 1.000000E-2
Scans to average: 10
Electric dark correction enabled: true
Nonlinearity correction enabled: false
Boxcar width: 0
XAxis mode: Wavelengths
Number of Pixels in Spectrum: 2048
>>>>>Begin Spectral Data<<<<<
341.393	-10.95
341.776	-10.95
342.16	-10.95
342.543	-53.2
342.927	-71.96
343.31	-54.79
343.693	-67.67
344.077	-66.31
344.46	-50.04
344.843	-72.41
345.226	-38.06
345.61	-34.45
345.993	-14.11
346.376	2.84
346.759	0.13
347.142	3.29
347.525	35.61
347.908	59.33
348.291	76.96
348.674	105.89
349.057	113.8
349.44	115.38
349.823	149.5
350.206	187.47
350.588	225.88
350.971	249.16
351.354	241.7
351.737	267.46
352.119	269.27
352.502	278.54
352.884	321.02
353.267	311.53
353.65	321.47
354.032	340.91
354.414	342.49
354.797	329.61
355.179	325.99
355.562	340.01
355.944	364.86
356.326	364.19
356.709	356.5
357.091	358.54
357.473	362.6
357.855	382.26
358.238	387.01
358.62	386.33
359.002	384.3
359.384	382.04
359.766	376.84
360.148	375.94
360.53	383.39
360.912	373
361.294	374.81
361.676	387.01
362.057	371.42
362.439	383.17
362.821	359.89
363.203	377.74
363.584	367.8
363.966	358.08
364.348	346.11
364.729	354.47
365.111	384.3
365.493	375.94
365.874	381.13
366.256	340.68
366.637	380.46
367.019	360.34
367.4	367.12
367.781	362.83
368.163	356.05
368.544	362.6
368.925	367.8
369.306	359.89
369.688	373.45
370.069	379.55
370.45	358.08
370.831	364.86
371.212	362.38
371.593	352.43
371.974	381.81
372.355	349.72
372.736	379.55
373.117	365.32
373.498	375.94
373.879	369.16
374.26	373.22
374.641	362.15
375.021	359.21
375.402	392.66
375.783	373.45
376.163	411.19
376.544	405.54
376.925	387.24
377.305	403.51
377.686	408.25
378.066	403.51
378.447	398.08
378.827	428.36
379.208	402.15
379.588	422.94
379.968	418.65
380.349	392.89
380.729	406.22
381.109	410.29
381.489	415.94
381.87	428.82
382.25	429.27
382.63	420
383.01	428.59
383.39	442.83
383.77	443.28
384.15	415.26
384.53	444.18
384.91	416.84
385.29	436.27
385.67	448.7
386.049	441.47
386.429	451.87
386.809	448.7
387.189	457.52
387.568	469.04
387.948	450.51
388.328	473.79
388.707	468.36
389.087	460.45
389.466	471.98
389.846	483.96
390.225	482.6
390.605	489.83
390.984	470.4
391.363	517.18
391.743	484.86
392.122	497.29
392.501	505.88
392.881	504.75
393.26	522.6
393.639	494.58
394.018	533.22
394.397	511.75
394.776	518.98
395.155	525.99
395.534	537.06
395.913	544.97
396.292	535.48
396.671	549.49
397.05	536.61
397.429	551.3
397.808	550.85
398.186	554.24
398.565	540
398.944	539.32
399.323	561.69
399.701	580.9
400.08	588.36
400.458	567.34
400.837	591.52
401.215	592.88
401.594	586.1
401.972	601.92
402.351	612.77
402.729	619.55
403.107	609.6
403.486	605.99
403.864	634.01
404.242	625.2
404.62	619.09
404.999	645.53
405.377	656.38
405.755	681.01
406.133	667.45
406.511	665.65
406.889	683.72
407.267	693.89
407.645	714.68
408.023	707.45
408.401	694.8
408.779	702.48
409.156	711.07
409.534	725.31
409.912	742.71
410.29	748.81
410.667	741.12
411.045	758.75
411.422	763.27
411.8	758.3
412.178	806.66
412.555	815.92
412.933	811.63
413.31	801.91
413.687	836.49
414.065	842.36
414.442	843.95
414.819	858.86
415.197	884.85
415.574	893.21
415.951	866.09
416.328	886.43
416.705	898.86
417.082	919.2
417.46	886.66
417.837	905.41
418.214	912.42
418.591	930.27
418.967	935.02
419.344	945.64
419.721	952.64
420.098	944.51
420.475	954
420.852	963.27
421.228	996.49
421.605	1007.11
421.982	1000.78
422.358	1010.95
422.735	1065.18
423.111	1024.28
423.488	1047.56
423.864	1075.13
424.241	1071.51
424.617	1101.57
424.994	1093.88
425.37	1097.5
425.746	1087.1
426.123	1129.59
426.499	1126.2
426.875	1132.75
427.251	1160.77
427.627	1154
428.003	1203.71
428.379	1167.33
428.756	1210.94
429.132	1227.21
429.507	1251.85
429.883	1250.72
430.259	1272.64
430.635	1284.39
431.011	1330.71
431.387	1316.02
431.763	1331.84
432.138	1339.53
432.514	1381.79
432.89	1391.73
433.265	1423.82
433.641	1394.44
434.016	1411.39
434.392	1425.85
434.767	1460.43
435.143	1476.92
435.518	1500.88
435.894	1506.08
436.269	1543.82
436.644	1590.14
437.02	1553.76
437.395	1576.81
437.77	1622.01
438.145	1634.66
438.52	1620.88
438.895	1657.71
439.271	1704.26
439.646	1700.2
440.021	1693.87
440.395	1737.48
440.77	1713.08
441.145	1701.33
441.52	1761.89
441.895	1773.87
442.27	1758.27
442.645	1776.35
443.019	1789.68
443.394	1789.68
443.769	1810.47
444.143	1782.45
444.518	1834.43
444.892	1850.93
445.267	1862.23
445.641	1873.3
446.016	1891.6
446.39	1877.82
446.764	1934.09
447.139	1913.07
447.513	1944.71
447.887	1944.93
448.262	1965.05
448.636	1946.74
449.01	1947.19
449.384	1961.66
449.758	2002.56
450.132	2060.19
450.506	2054.08
450.88	2081.2
451.254	2035.1
451.628	2097.25
452.002	2126.17
452.376	2153.52
452.75	2148.55
453.123	2179.05
453.497	2174.53
453.871	2204.14
454.244	2251.59
454.618	2243.68
454.992	2301.99
455.365	2333.17
455.739	2344.7
456.112	2358.26
456.486	2360.07
456.859	2423.11
457.232	2434.19
457.606	2482.77
457.979	2500.4
458.352	2542.21
458.725	2542.43
459.099	2591.02
459.472	2649.55
459.845	2650.45
460.218	2692.49
460.591	2708.08
460.964	2702.88
461.337	2778.13
461.71	2798.7
462.083	2856.32
462.456	2865.59
462.829	2864.46
463.201	2890.45
463.574	2932.03
463.947	2955.53
464.32	2993.95
464.692	3066.71
465.065	3086.6
465.438	3085.92
465.81	3143.1
466.183	3163.21
466.555	3192.59
466.928	3216.54
467.3	3238.46
467.672	3280.04
468.045	3297.44
468.417	3356.88
468.789	3327.5
469.161	3398.23
469.534	3415.63
469.906	3456.76
470.278	3468.51
470.65	3548.96
471.022	3603.65
471.394	3675.06
471.766	3662.18
472.138	3648.39
472.51	3803.19
472.882	3812.23
473.253	3805.45
473.625	3957.99
473.997	3952.34
474.369	3949.85
474.74	3993.92
475.112	4099.45
475.484	4140.13
475.855	4237.3
476.227	4301.71
476.598	4374.02
476.97	4400.69
477.341	4483.85
477.713	4499.22
478.084	4520.91
478.455	4665.32
478.827	4672.77
479.198	4854.91
479.569	4908.7
479.94	4983.95
480.311	4975.14
480.682	5113.21
481.053	5204.74
481.424	5288.12
481.795	5379.87
482.166	5390.49
482.537	5463.94
482.908	5599.08
483.279	5676.81
483.65	5752.07
484.021	5883.81
484.391	5932.63
484.762	6009.46
485.133	6023.02
485.503	6103.7
485.874	6241.09
486.244	6287.19
486.615	6430.24
486.985	6507.3
487.356	6576.9
487.726	6674.75
488.097	6775.54
488.467	6820.06
488.837	6965.82
489.207	7024.58
489.578	7103.67
489.948	7176.66
490.318	7339.37
490.688	7340.73
491.058	7405.81
491.428	7569.19
491.798	7571
492.168	7794.5
492.538	7866.36
492.908	7886.47
493.278	8024.1
493.648	8060.93
494.017	8140.48
494.387	8245.33
494.757	8289.17
495.126	8286.69
495.496	8379.79
495.866	8462.5
496.235	8553.57
496.605	8632.89
496.974	8665.89
497.344	8780.69
497.713	8815.26
498.082	8819.78
498.452	8943.17
498.821	9017.29
499.19	8959.21
499.559	9095.93
499.928	9162.37
500.298	9255.7
500.667	9294.8
501.036	9258.87
501.405	9351.52
501.774	9335.47
502.143	9486.21
502.512	9518.97
502.88	9563.94
503.249	9577.28
503.618	9688.01
503.987	9718.74
504.356	9807.78
504.724	9801.68
505.093	9799.42
505.462	9876.03
505.83	9951.05
506.199	9959.19
506.567	10179.75
506.936	10132.52
507.304	10264.26
507.672	10255.9
508.041	10294.32
508.409	10384.26
508.777	10466.52
509.145	10586.06
509.514	10559.17
509.882	10568.21
510.25	10685.27
510.618	10778.15
510.986	10713.97
511.354	10821.54
511.722	10925.72
512.09	11013.17
512.458	11019.27
512.826	11081.87
513.193	11150.57
513.561	11257.01
513.929	11337.23
514.297	11377
514.664	11484.34
515.032	11507.17
515.4	11632.59
515.767	11612.03
516.135	11704.9
516.502	11711.46
516.869	11854.5
517.237	11979.47
517.604	11910.1
517.972	12117.55
518.339	12201.39
518.706	12237.55
519.073	12335.17
519.44	12399.8
519.808	12461.72
520.175	12574.49
520.542	12703.97
520.909	12750.53
521.276	12861.94
521.643	13087.47
522.009	13045.89
522.376	13148.03
522.743	13219.89
523.11	13496.04
523.477	13536.95
523.843	13665.76
524.21	13846.54
524.577	13909.82
524.943	13960.44
525.31	14015.13
525.676	14195.46
526.043	14369.69
526.409	14465.96
526.776	14615.34
527.142	14692.17
527.508	14763.35
527.874	14894.42
528.241	14982.33
528.607	15040.86
528.973	15261.87
529.339	15363.11
529.705	15404.47
530.071	15537.35
530.437	15689.88
530.803	15748.64
531.169	15847.62
531.535	15940.05
531.901	15997.45
532.267	16051.23
532.632	16180.72
532.998	16298.68
533.364	16291.45
533.73	16403.54
534.095	16646.92
534.461	16675.85
534.826	16793.58
535.192	16789.74
535.557	16994.26
535.923	16984.99
536.288	17062.05
536.653	17199.9
537.019	17205.78
537.384	17071.32
537.749	17236.74
538.114	17427.92
538.479	17309.28
538.845	17426.11
539.21	17445.54
539.575	17587.46
539.94	17700.45
540.305	17718.98
540.67	17811.64
541.034	17788.13
541.399	17909.71
541.764	17971.86
542.129	17928.7
542.494	18035.36
542.858	18206.43
543.223	18163.49
543.587	18289.82
543.952	18228.35
544.316	18330.49
544.681	18248.01
545.045	18430.83
545.41	18545.63
545.774	18467.44
546.138	18453.88
546.503	18584.05
546.867	18629.02
547.231	18794.44
547.595	18753.98
547.959	18837.37
548.324	18883.02
548.688	19014.09
549.052	19116.23
549.416	18962.57
549.779	19073.98
550.143	19141.54
550.507	19223.35
550.871	19232.84
551.235	19297.25
551.599	19524.81
551.962	19519.16
552.326	19494.76
552.689	19464.47
553.053	19514.42
553.417	19655.88
553.78	19922.77
554.143	19874.63
554.507	19968.19
554.87	20004.57
555.234	20272.14
555.597	20099.26
555.96	20182.42
556.323	20389.87
556.686	20438.01
557.05	20533.15
557.413	20556.2
557.776	20667.61
558.139	20804.78
558.502	20980.14
558.865	20989.41
559.228	21129.97
559.59	21282.05
559.953	21324.76
560.316	21587.13
560.679	21604.08
561.041	21764.07
561.404	21935.37
561.767	22087
562.129	22091.07
562.492	22305.76
562.854	22445.86
563.217	22527.9
563.579	22648.35
563.941	22909.36
564.304	23095.57
564.666	23303.92
565.028	23362
565.39	23589.34
565.753	23855.09
566.115	23976.22
566.477	24143
566.839	24342.76
567.201	24585.7
567.563	24742.3
567.925	25040.6
568.287	24972.13
568.648	25267.26
569.01	25485.33
569.372	25773.46
569.734	25872.44
570.095	26213.68
570.457	26498.41
570.819	26637.84
571.18	26812.08
571.542	27309.47
571.903	27224.72
572.265	27574.32
572.626	27712.84
572.987	27932.05
573.349	28136.34
573.71	28491.58
574.071	28621.97
574.432	28983.09
574.794	29322.52
575.155	29255.4
575.516	29470.31
575.877	29735.16
576.238	29830.08
576.599	30063.52
576.96	30236.39
577.32	30419.44
577.681	30631.86
578.042	30882.93
578.403	30859.65
578.763	31015.81
579.124	31208.57
579.485	31501.67
579.845	31556.81
580.206	31518.85
580.566	31647.66
580.927	31750.03
581.287	32029.12
581.648	31880.19
582.008	32171.48
582.368	32206.29
582.728	32271.82
583.089	32248.77
583.449	32329.45
583.809	32335.77
584.169	32519.05
584.529	32462.55
584.889	32718.59
585.249	32531.48
585.609	32401.99
585.969	32732.83
586.329	32626.39
586.688	32850.34
587.048	32736.89
587.408	32814.63
587.768	32769.21
588.127	32766.27
588.487	32810.79
588.846	32966.04
589.206	32770.56
589.565	32772.15
589.925	32985.93
590.284	32968.98
590.643	32835.42
591.003	33089.2
591.362	33324.9
591.721	33088.07
592.08	33014.17
592.44	33413.03
592.799	33098.69
593.158	33239.03
593.517	33043.55
593.876	33286.48
594.235	33344.11
594.593	33266.82
594.952	33275.41
595.311	33242.64
595.67	33272.02
596.029	33391.11
596.387	33472.69
596.746	33626.36
597.104	33375.07
597.463	33465.46
597.822	33753.14
598.18	33531.22
598.538	33417.33
598.897	33797.66
599.255	33538.23
599.613	33914.49
599.972	33594.5
600.33	33766.7
600.688	33832.91
601.046	33835.17
601.404	33969.86
601.762	33781.39
602.12	33928.27
602.478	33997.65
602.836	34114.03
603.194	33744.32
603.552	33985.67
603.91	34031.55
604.268	34093.92
604.625	34069.51
604.983	34237.42
605.341	34113.81
605.698	34257.76
606.056	34398.32
606.413	34348.15
606.771	34490.97
607.128	34460.24
607.485	34378.66
607.843	34316.96
608.2	34391.54
608.557	34649.16
608.914	34488.26
609.272	34706.11
609.629	34888.02
609.986	34733.9
610.343	34729.16
610.7	34995.14
611.057	35052.09
611.414	34824.52
611.771	35132.76
612.127	35072.65
612.484	35172.54
612.841	35251.63
613.198	35027.68
613.554	35100.22
613.911	35448.01
614.267	35287.79
614.624	35394.68
614.98	35460.21
615.337	35522.36
615.693	35621.11
616.05	35595.8
616.406	35682.8
616.762	35628.34
617.118	35495.01
617.475	35516.03
617.831	35740.66
618.187	35784.27
618.543	35929.35
618.899	36083.92
619.255	36017.94
619.611	35742.46
619.967	35926.41
620.323	36153.98
620.678	35955.57
621.034	35864.49
621.39	35967.32
621.746	35832.41
622.101	36233.3
622.457	35911.5
622.812	36219.51
623.168	36245.28
623.523	36246.63
623.879	36305.84
624.234	36128.22
624.589	36115.11
624.945	36201.44
625.3	36330.25
625.655	36252.28
626.01	36329.34
626.365	36395.55
626.72	36362.11
627.075	36121.89
627.43	36175
627.785	36118.05
628.14	36106.07
628.495	36072.85
628.85	36255.22
629.205	36000.76
629.559	36176.35
629.914	36010.25
630.269	36045.73
630.623	35768.68
630.978	35751.05
631.332	35950.37
631.687	35861.11
632.041	35763.48
632.396	35861.56
632.75	35857.94
633.104	35770.26
633.459	35803.03
633.813	35662.24
634.167	35611.85
634.521	35633.77
634.875	35674.44
635.229	35663.6
635.583	35325.07
635.937	35313.77
636.291	35390.16
636.645	35370.04
636.999	35163.72
637.352	35255.47
637.706	35058.41
638.06	35248.92
638.413	35142.93
638.767	35086.66
639.121	35088.7
639.474	34875.14
639.828	34970.96
640.181	34990.85
640.534	35030.39
640.888	34869.04
641.241	34693
641.594	34720.8
641.947	34825.88
642.301	34636.05
642.654	34655.71
643.007	34722.83
643.36	34788.14
643.713	34587.92
644.066	34755.15
644.419	34474.25
644.771	34092.11
645.124	33665.46
645.477	33731.67
645.83	33676.08
646.182	33624.78
646.535	33552.24
646.888	33669.75
647.24	33607.38
647.593	33762.63
647.945	33657.55
648.298	33471.79
648.65	33320.83
649.002	33062.53
649.355	32928.75
649.707	32780.73
650.059	32838.81
650.411	33385.24
650.763	33600.37
651.115	34094.15
651.467	33970.99
651.819	34072.9
652.171	33977.99
652.523	33901.83
652.875	33868.39
653.227	33896.41
653.578	34087.82
653.93	33923.53
654.282	33806.47
654.633	33740.93
654.985	33848.28
655.337	33860.03
655.688	33735.96
656.039	33835.85
656.391	33654.38
656.742	33896.64
657.094	33836.53
657.445	33849.86
657.796	33871.1
658.147	33745.91
658.498	33859.12
658.849	33936.41
659.2	33800.14
659.551	33625.91
659.902	33961.04
660.253	33691.67
660.604	33903.87
660.955	33744.32
661.306	33946.81
661.656	33815.06
662.007	33802.4
662.358	33873.59
662.708	33926.92
663.059	34092.34
663.409	33586.81
663.76	33940.48
664.11	33954.26
664.461	34014.15
664.811	33921.04
665.161	34061.6
665.511	33960.82
665.862	33964.43
666.212	33977.09
666.562	34090.98
666.912	34073.13
667.262	33894.6
667.612	33920.14
667.962	33879.69
668.312	33851.67
668.662	34180.47
669.011	33924.66
669.361	33978.44
669.711	34022.28
670.06	33929.4
670.41	33930.53
670.76	33875.85
671.109	34100.47
671.459	33942.51
671.808	33883.98
672.157	33850.08
672.507	33790.2
672.856	33686.02
673.205	33761.73
673.554	33745
673.904	33566.02
674.253	33937.54
674.602	33704.55
674.951	33234.51
675.3	33104.57
675.649	33578.68
675.998	33643.31
676.346	33684.89
676.695	33753.36
677.044	33422.07
677.393	33486.93
677.741	33501.62
678.09	33456.2
678.438	33325.13
678.787	33338.91
679.135	33347.5
679.484	33062.99
679.832	33289.87
680.181	33194.51
680.529	33159.26
680.877	33139.59
681.225	32934.63
681.573	33314.51
681.922	32966.27
682.27	33000.39
682.618	32907.28
682.966	32741.64
683.314	32833.16
683.661	32667.74
684.009	32654.41
684.357	32613.96
684.705	32453.51
685.053	32570.34
685.4	32239.96
685.748	32291.26
686.095	32186.17
686.443	32013.52
686.79	32147.98
687.138	32152.73
687.485	31979.85
687.832	31742.57
688.18	31819.18
688.527	31639.97
688.874	31518.62
689.221	31586.19
689.568	31244.05
689.915	31235.46
690.262	31390.71
690.609	31260.1
690.956	31154.79
691.303	31134
691.65	30758.41
691.997	30750.28
692.344	30671.64
692.69	30609.27
693.037	30514.58
693.383	30267.13
693.73	30348.03
694.077	30195.72
694.423	30095.38
694.769	30022.16
695.116	29909.85
695.462	29748.27
695.808	29635.28
696.155	29681.83
696.501	29399.13
696.847	29503.53
697.193	29263.76
697.539	29424.44
697.885	29087.72
698.231	28970.21
698.577	28925.47
698.923	28902.64
699.269	28799.14
699.614	28477.34
699.96	28318.25
700.306	28503.56
700.651	28205.49
700.997	28068.32
701.342	28043.46
701.688	27953.74
702.033	27977.92
702.379	27772.73
702.724	27678.04
703.069	27718.95
703.415	27409.35
703.76	27325.06
704.105	27387.88
704.45	27283.48
704.795	27026.99
705.14	26998.51
705.485	26999.87
705.83	26711.74
706.175	26902.24
706.52	26815.69
706.865	26686.88
707.209	26593.33
707.554	26444.86
707.899	26457.51
708.243	26328.02
708.588	26193.11
708.932	26112.66
709.277	26194.01
709.621	26041.7
709.966	25906.56
710.31	25985.21
710.654	25858.2
710.998	25872.22
711.342	25766
711.687	25689.4
712.031	25644.65
712.375	25495.05
712.719	25453.92
713.063	25499.57
713.407	25524.43
713.75	25496.18
714.094	25412.79
714.438	25284.21
714.782	25257.32
715.125	25200.37
715.469	25321.95
715.812	25050.09
716.156	25199.69
716.499	25080.82
716.843	25029.53
717.186	25039.24
717.53	25043.76
717.873	25080.37
718.216	25101.16
718.559	24978.68
718.902	24743.21
719.246	24831.56
719.589	24889.42
719.932	24693.72
720.275	24698.91
720.617	24782.53
720.96	24715.64
721.303	24771.91
721.646	24734.62
721.989	24676.09
722.331	24764.67
722.674	24534.4
723.016	24543.66
723.359	24523.32
723.701	24657.11
724.044	24530.56
724.386	24486.71
724.729	24542.98
725.071	24572.81
725.413	24622.76
725.755	24533.04
726.097	24546.6
726.439	24386.15
726.782	24415.76
727.124	24527.84
727.465	24482.2
727.807	24415.76
728.149	24561.29
728.491	24445.59
728.833	24466.83
729.175	24497.34
729.516	24553.15
729.858	24462.53
730.199	24504.57
730.541	24516.32
730.882	24474.29
731.224	24488.52
731.565	24447.17
731.906	24513.15
732.248	24737.1
732.589	24503.44
732.93	24465.25
733.271	24488.3
733.612	24489.65
733.953	24577.11
734.294	24488.07
734.635	24609.65
734.976	24604.23
735.317	24572.81
735.658	24714.73
735.999	24545.24
736.339	24596.77
736.68	24882.18
737.021	24604.45
737.361	24662.53
737.702	24868.85
738.042	24695.52
738.383	24872.92
738.723	24930.55
739.063	24893.71
739.404	25156.3
739.744	25094.83
740.084	24993.82
740.424	25178.9
740.764	25065.23
741.104	25321.95
741.444	25210.76
741.784	25278.56
742.124	25367.6
742.464	25395.39
742.804	25426.8
743.143	25534.37
743.483	25566.46
743.823	25608.72
744.162	25660.92
744.502	25763.29
744.841	25879.67
745.181	25971.87
745.52	25959.22
745.86	26081.25
746.199	26200.57
746.538	26260.23
746.877	26561.46
747.216	26616.38
747.556	26650.27
747.895	26763.49
748.234	26913.32
748.573	27011.17
748.911	27099.08
749.25	27262.46
749.589	27280.99
749.928	27557.37
750.267	27617.71
750.605	27672.39
750.944	27988.54
751.283	28012.5
751.621	28283.9
751.96	28191.93
752.298	28444.58
752.636	28603.44
752.975	28732.93
753.313	28831.69
753.651	29271
753.989	29205.46
754.327	29376.08
754.666	29343.76
755.004	29640.25
755.342	29754.15
755.679	29933.13
756.017	29925.22
756.355	30263.29
756.693	30270.07
757.031	30549.15
757.368	30565.88
757.706	30845.19
758.044	30903.04
758.381	31105.52
758.719	31111.17
759.056	31313.88
759.394	31364.5
759.731	31302.58
760.068	31593.65
760.405	31822.34
760.743	31785.51
761.08	31937.14
761.417	31841.55
761.754	31990.25
762.091	32189.34
762.428	32255.32
762.765	32213.07
763.102	32414.87
763.438	32351.37
763.775	32420.97
764.112	32635.65
764.449	32707.97
764.785	32899.6
765.122	32678.59
765.458	32752.94
765.795	32879.94
766.131	32845.37
766.467	33057.11
766.804	32873.16
767.14	32975.08
767.476	32915.19
767.812	32937.79
768.148	33071.35
768.485	33045.36
768.821	32955.19
769.157	33067.96
769.492	33013.72
769.828	33171.23
770.164	32977.11
770.5	32827.06
770.836	33014.85
771.171	32925.59
771.507	32892.37
771.842	32681.08
772.178	32840.17
772.513	32798.59
772.849	32698.48
773.184	32780.73
773.519	32804.46
773.855	32601.53
774.19	32754.29
774.525	32626.39
774.86	32655.77
775.195	32514.3
775.53	32465.04
775.865	32395.89
776.2	32169.22
776.535	32119.96
776.87	32038.38
777.205	32052.84
777.539	31920.42
777.874	31919.97
778.209	31715.68
778.543	31678.62
778.878	31565.4
779.212	31681.55
779.547	31519.07
779.881	31579.86
780.215	31165.86
780.55	31451.05
780.884	31125.86
781.218	31183.94
781.552	31120.21
781.886	30950.5
782.22	30904.85
782.554	30704.63
782.888	30635.48
783.222	30631.86
783.556	30428.71
783.889	30366.79
784.223	30155.49
784.557	30296.28
784.89	30309.84
785.224	30043.4
785.557	29813.81
785.891	29882.51
786.224	29960.02
786.558	29822.17
786.891	29600.48
787.224	29519.58
787.557	29525.45
787.891	29495.85
788.224	29300.15
788.557	29247.49
788.89	29288.17
789.223	29104.22
789.556	28965.24
789.888	28841.85
790.221	28795.08
790.554	28745.81
790.887	28844.11
791.219	28605.02
791.552	28593.5
791.884	28494.07
792.217	28331.81
792.549	28198.03
792.882	27991.26
793.214	28106.51
793.546	28096.56
793.879	27885.5
794.211	27761.43
794.543	27846.17
794.875	27624.71
795.207	27688.89
795.539	27568.22
795.871	27590.59
796.203	27424.04
796.535	27198.96
796.867	27379.29
797.198	27145.63
797.53	27037.83
797.862	26914.67
798.193	27074.9
798.525	26757.39
798.856	26931.17
799.188	26550.84
799.519	26539.54
799.85	26400.56
800.182	26383.61
800.513	26494.8
800.844	26044.19
801.175	26256.39
801.506	26262.49
801.837	26105.88
802.168	26142.04
802.499	26180.68
802.83	25949.05
803.161	25906.79
803.491	25786.34
803.822	25831.09
804.153	25653.24
804.483	25499.8
804.814	25351.32
805.145	25431.55
805.475	25363.53
805.805	25326.92
806.136	25342.74
806.466	25258.22
806.796	25157.66
807.126	24946.59
807.457	25019.36
807.787	25019.36
808.117	24870.43
808.447	24814.39
808.777	24879.7
809.107	24608.29
809.436	24547.5
809.766	24531.69
810.096	24509.09
810.426	24439.26
810.755	24476.77
811.085	24304.8
811.414	24515.41
811.744	24236.55
812.073	24232.26
812.403	24197.01
812.732	24070.45
813.061	24224.8
813.39	23984.13
813.719	23910.23
814.049	23961.98
814.378	24000.4
814.707	23823.68
815.036	23754.76
815.365	23686.74
815.693	23552.95
816.022	23625.95
816.351	23589.79
816.68	23286.29
817.008	23473.18
817.337	23346.41
817.665	23195.45
817.994	23340.53
818.322	23370.13
818.651	23177.37
818.979	23142.57
819.307	23225.73
819.636	23147.99
819.964	23062.57
820.292	23087.43
820.62	23022.12
820.948	23069.8
821.276	23081.1
821.604	23042.01
821.932	23133.53
822.259	23059.41
822.587	23008.56
822.915	22987.32
823.243	23037.94
823.57	22900.32
823.898	23127.88
824.225	22966.98
824.553	23030.48
824.88	23015.34
825.207	23030.93
825.535	22969.01
825.862	23105.28
826.189	23061.44
826.516	23180.08
826.843	23231.83
827.17	23048.33
827.497	23175.34
827.824	23099.63
828.151	23156.81
828.478	23020.31
828.805	23282
829.131	23181.66
829.458	23176.24
829.785	23003.59
830.111	23099.63
830.438	23144.83
830.764	23108.22
831.09	23171.72
831.417	22922.69
831.743	23197.94
832.069	23094.44
832.395	23097.82
832.722	23072.74
833.048	23019.41
833.374	23055.34
833.7	22973.76
834.026	23068.67
834.351	22965.17
834.677	23044.94
835.003	23021.44
835.329	22994.55
835.654	22946.19
835.98	22846.53
836.306	22943.93
836.631	22829.13
836.956	23044.27
837.282	22897.6
837.607	22867.32
837.932	22887.66
838.258	22762.47
838.583	22707.33
838.908	22697.38
839.233	22709.36
839.558	22609.7
839.883	22566.54
840.208	22558.86
840.533	22528.57
840.858	22459.42
841.182	22505.98
841.507	22499.42
841.832	22415.36
842.156	22388.24
842.481	22397.5
842.805	22245.87
843.13	22153.89
843.454	22164.74
843.778	22254.23
844.103	22098.08
844.427	21992.77
844.751	22064.18
845.075	21953
845.399	21931.53
845.723	21737.63
846.047	21882.26
846.371	21652.89
846.695	21637.75
847.019	21488.83
847.343	21474.14
847.666	21448.15
847.99	21289.28
848.313	21224.65
848.637	21194.6
848.96	21094.71
849.284	21002.96
849.607	20787.83
849.931	20776.3
850.254	20743.08
850.577	20646.14
850.9	20452.02
851.223	20505.35
851.546	20422.64
851.869	20306.94
852.192	20351.46
852.515	20151.01
852.838	20071.01
853.161	19986.49
853.483	19892.03
853.806	19748.53
854.129	19877.12
854.451	19873.05
854.774	19644.81
855.096	19642.55
855.419	19510.35
855.741	19425.38
856.063	19319.39
856.385	19313.52
856.708	19287.98
857.03	19233.97
857.352	19167.31
857.674	19281.88
857.996	19064.48
858.318	18986.97
858.64	19118.72
858.961	19020.42
859.283	18974.54
859.605	18826.07
859.926	18780.42
860.248	18780.2
860.57	18615.46
860.891	18618.85
861.212	18623.59
861.534	18563.48
861.855	18518.96
862.176	18475.35
862.498	18526.19
862.819	18407.33
863.14	18293.21
863.461	18247.78
863.782	18291.4
864.103	18336.59
864.424	18158.75
864.745	18218.86
865.065	18043.72
865.386	18012.99
865.707	18123.72
866.027	18031.29
866.348	18104.06
866.668	17940.45
866.989	17958.75
867.309	17864.29
867.63	17904.52
867.95	17860.45
868.27	17781.35
868.59	17829.94
868.91	17751.3
869.23	17669.04
869.55	17531.42
869.87	17709.27
870.19	17560.12
870.51	17635.6
870.83	17599.21
871.15	17516.28
871.469	17465.2
871.789	17494.81
872.109	17524.41
872.428	17399.44
872.748	17500.23
873.067	17394.92
873.386	17415.26
873.706	17264.76
874.025	17304.98
874.344	17131.88
874.663	17229.5
874.982	17260.69
875.301	17100.69
875.62	17134.82
875.939	17029.28
876.258	17158.55
876.577	17071.77
876.896	17100.92
877.214	16966.23
877.533	17114.71
877.852	17000.81
878.17	16917.42
878.489	16907.48
878.807	16959.46
879.125	16808.95
879.444	16838.1
879.762	16803.08
880.08	16885.56
880.398	16728.05
880.716	16767.82
881.034	16625.9
881.352	16681.04
881.67	16667.03
881.988	16586.58
882.306	16584.78
882.624	16586.36
882.941	16471.78
883.259	16397.66
883.577	16396.53
883.894	16404.22
884.212	16314.27
884.529	16209.19
884.846	16219.81
885.164	16132.36
885.481	16046.26
885.798	16130.32
886.115	16021.17
886.432	16099.59
886.75	16047.84
887.067	16046.71
887.383	15984.79
887.7	15948.86
888.017	15753.84
888.334	15875.64
888.651	15752.71
888.967	15778.92
889.284	15657.79
889.6	15576.67
889.917	15475.65
890.233	15622.54
890.55	15516.33
890.866	15484.01
891.182	15407.63
891.498	15402.66
891.815	15307.52
892.131	15277.01
892.447	15293.74
892.763	15203.57
893.079	15237.01
893.395	15202.67
893.71	15201.08
894.026	15128.77
894.342	14969.45
894.657	14836.57
894.973	14814.88
895.289	14839.06
895.604	14755.22
895.92	14762.68
896.235	14708.67
896.55	14678.61
896.865	14625.05
897.181	14672.96
897.496	14529.91
897.811	14485.17
898.126	14433.19
898.441	14377.6
898.756	14411.05
899.071	14242.24
899.386	14278.85
899.7	14216.02
900.015	14091.96
900.33	14051.74
900.644	13981.68
900.959	13983.49
901.273	13893.77
901.588	13890.84
901.902	13807.67
902.216	13766.09
902.531	13713.89
902.845	13672.08
903.159	13610.16
903.473	13584.85
903.787	13455.14
904.101	13397.51
904.415	13553.9
904.729	13364.75
905.042	13412.2
905.356	13316.16
905.67	13211.76
905.984	13244.07
906.297	13221.93
906.611	13103.51
906.924	13035.72
907.237	13022.16
907.551	12981.93
907.864	12920.24
908.177	12881.14
908.491	12851.54
908.804	12779.23
909.117	12675.95
909.43	12620.36
909.743	12555.5
910.056	12611.09
910.368	12511.44
910.681	12414.04
910.994	12408.84
911.307	12342.85
911.619	12168.62
911.932	12251.1
912.244	12188.96
912.557	12131.33
912.869	12065.12
913.181	12045.91
913.494	12006.59
913.806	11915.52
914.118	11846.82
914.43	11848.18
914.742	11764.79
915.054	11604.57
915.366	11675.3
915.678	11677.33
915.99	11603.66
916.302	11536.09
916.613	11450.45
916.925	11435.76
917.236	11395.76
917.548	11332.48
917.859	11326.38
918.171	11248.87
918.482	11193.28
918.794	11135.43
919.105	11194.41
919.416	11071.02
919.727	11019.5
920.038	10997.35
920.349	10956.9
920.66	10917.58
920.971	10849.56
921.282	10796.23
921.593	10776.79
921.903	10669.9
922.214	10629
922.525	10664.71
922.835	10560.53
923.146	10511.72
923.456	10433.07
923.767	10407.09
924.077	10353.75
924.387	10342.68
924.697	10281.66
925.008	10317.37
925.318	10224.27
925.628	10217.26
925.938	10181.1
926.248	10054.1
926.558	10060.88
926.867	10031.73
927.177	9957.38
927.487	9907.66
927.796	9935.01
928.106	9896.82
928.416	9779.31
928.725	9793.32
929.034	9706.31
929.344	9773.66
929.653	9696.37
929.962	9571.4
930.271	9569.59
930.581	9572.76
930.89	9506.77
931.199	9434.23
931.508	9358.53
931.817	9392.42
932.125	9325.31
932.434	9319.2
932.743	9243.73
933.051	9199.43
933.36	9193.78
933.669	9125.31
933.977	9034.24
934.286	8996.73
934.594	9031.53
934.902	8946.11
935.21	8845.77
935.519	8822.04
935.827	8836.05
936.135	8840.57
936.443	8741.14
936.751	8701.82
937.059	8704.98
937.367	8643.52
937.674	8669.05
937.982	8632.67
938.29	8596.74
938.597	8555.61
938.905	8519.45
939.213	8365.33
939.52	8336.86
939.827	8424.76
940.135	8294.15
940.442	8306.12
940.749	8245.33
941.056	8343.18
941.363	8176.64
941.67	8161.49
941.977	8102.74
942.284	8036.53
942.591	7977.32
942.898	7997.66
943.205	8040.82
943.511	7873.59
943.818	7915.17
944.125	7862.29
944.431	7797.89
944.738	7798.11
945.044	7724.22
945.35	7726.25
945.657	7665.91
945.963	7694.16
946.269	7646.25
946.575	7526.26
946.881	7555.63
947.187	7549.08
947.493	7477.22
947.799	7472.02
948.105	7364
948.41	7370.33
948.716	7347.05
949.022	7312.25
949.327	7278.58
949.633	7273.61
949.938	7240.61
950.244	7227.51
950.549	7167.85
950.854	7139.15
951.16	7127.62
951.465	7084.91
951.77	7010.11
952.075	6989.77
952.38	6993.39
952.685	6951.81
952.99	6875.65
953.294	6897.35
953.599	6820.74
953.904	6807.41
954.209	6769.21
954.513	6764.92
954.818	6778.71
955.122	6693.28
955.426	6675.21
955.731	6649.44
956.035	6599.95
956.339	6617.81
956.643	6594.3
956.948	6555.21
957.252	6516.79
957.556	6518.83
957.86	6470.24
958.163	6437.47
958.467	6431.14
958.771	6369.45
959.075	6346.17
959.378	6331.03
959.682	6323.58
959.985	6295.1
960.289	6187.76
960.592	6175.11
960.896	6151.83
961.199	6166.74
961.502	6138.27
961.805	6130.81
962.108	5989.57
962.411	6044.49
962.714	6041.1
963.017	5997.48
963.32	5922.01
963.623	5920.65
963.926	5946.64
964.228	5869.58
964.531	5879.52
964.833	5835.91
965.136	5862.35
965.438	5731.73
965.741	5698.73
966.043	5727.89
966.345	5641.11
966.648	5696.02
966.95	5644.95
967.252	5612.18
967.554	5633.65
967.856	5670.94
968.158	5551.17
968.46	5553.88
968.761	5478.18
969.063	5471.17
969.365	5456.71
969.666	5389.36
969.968	5367.44
970.269	5355.47
970.571	5305.75
970.872	5345.75
971.174	5291.97
971.475	5299.65
971.776	5278.86
972.077	5260.33
972.378	5240.67
972.679	5211.29
972.98	5206.32
973.281	5127
973.582	5084.74
973.883	5104.85
974.183	5053.78
974.484	5059.88
974.785	5016.27
975.085	5001.13
975.386	4994.8
975.686	4935.36
975.986	4907.79
976.287	4938.75
976.587	4857.85
976.887	4905.99
977.187	4901.92
977.487	4825.08
977.787	4810.85
978.087	4780.57
978.387	4778.53
978.687	4749.61
978.987	4720
979.286	4692.89
979.586	4687.46
979.885	4660.8
980.185	4657.41
980.484	4600.23
980.784	4615.82
981.083	4578.76
981.382	4569.72
981.682	4528.82
981.981	4529.95
982.28	4506.9
982.579	4447.02
982.878	4464.42
983.177	4451.08
983.475	4430.97
983.774	4376.96
984.073	4360.69
984.372	4353.46
984.67	4355.27
984.969	4333.8
985.267	4286.12
985.566	4277.3
985.864	4228.72
986.162	4183.52
986.461	4168.83
986.759	4193.92
987.057	4127.25
987.355	4127.93
987.653	4115.05
987.951	4108.49
988.249	4075.95
988.547	4026.46
988.844	4047.25
989.142	4026.01
989.44	4053.58
989.737	4016.29
990.035	3959.35
990.332	3929.06
990.63	3944.2
990.927	3949.85
991.224	3872.79
991.521	3891.55
991.819	3899.01
992.116	3849.07
992.413	3813.36
992.71	3827.15
993.006	3745.34
993.303	3763.42
993.6	3752.8
993.897	3770.88
994.193	3732.91
994.49	3739.24
994.787	3680.71
995.083	3651.33
995.379	3653.36
995.676	3645.23
995.972	3573.59
996.268	3571.11
996.565	3548.06
996.861	3541.73
997.157	3527.72
997.453	3494.95
997.749	3500.6
998.044	3461.73
998.34	3479.81
998.636	3448.17
998.932	3420.38
999.227	3404.56
999.523	3450.88
999.818	3392.58
1000.114	3353.71
1000.409	3316.2
1000.704	3302.64
1001	3301.51
1001.295	3221.74
1001.59	3249.76
1001.885	3226.48
1002.18	3205.01
1002.475	3226.93
1002.77	3204.34
1003.065	3151.46
1003.359	3185.58
1003.654	3188.52
1003.949	3116.43
1004.243	3092.7
1004.538	3066.94
1004.832	3068.52
1005.127	3042.08
1005.421	3030.1
1005.715	3014.74
1006.009	3025.81
1006.304	2955.98
1006.598	2993.49
1006.892	2913.72
1007.186	2919.15
1007.48	2867.4
1007.773	2903.33
1008.067	2867.62
1008.361	2849.09
1008.655	2831.92
1008.948	2777
1009.242	2797.57
1009.535	2821.3
1009.829	2758.92
1010.122	2748.3
1010.415	2741.3
1010.708	2732.26
1011.001	2703.11
1011.295	2687.74
1011.588	2671.47
1011.881	2631.02
1012.173	2637.12
1012.466	2629.89
1012.759	2608.19
1013.052	2577.46
1013.344	2596.44
1013.637	2539.72
1013.93	2559.38
1014.222	2532.72
1014.514	2510.57
1014.807	2497.24
1015.099	2487.52
1015.391	2477.35
1015.683	2450.46
1015.976	2407.3
1016.268	2421.08
1016.56	2407.07
1016.851	2339.27
1017.143	2379.05
1017.435	2343.34
1017.727	2318.26
1018.018	2327.3
1018.31	2291.59
1018.602	2296.34
1018.893	2282.78
1019.185	2271.71
1019.476	2252.5
1019.767	2215.89
1020.058	2189
1020.35	2188.32
1020.641	2153.06
1020.932	2198.49
1021.223	2164.59
1021.514	2139.96
1021.804	2094.99
1022.095	2133.86
1022.386	2102.22
1022.677	2070.58
1022.967	2061.32
1023.258	2059.28
1023.548	2028.32
1023.839	1990.36
1024.129	1984.26
1024.419	1975.22
1024.709	1981.54
1025	1949.45
1025.29	1959.85
1025.58	1921.21
1025.87	1934.77
1026.16	1908.55
1026.449	1907.65
1026.739	1889.12
1027.029	1862
1027.319	1874.2
1027.608	1873.98
1027.898	1832.17
1028.187	1836.24
1028.477	1843.02
1028.766	1798.5
1029.055	1778.84
1029.344	1755.11
1029.634	1744.49
1029.923	1709.46
1030.212	1729.57
1030.501	1744.04
1030.79	1714.43
1031.078	1689.12
1031.367	1675.34
1031.656	1697.03
1031.945	1666.98
1032.233	1655.22
1032.522	1600.54
1032.81	1653.64
1033.099	1626.07
1033.387	1603.47
1033.675	1585.85
1033.963	1597.37
1034.251	1598.96
1034.54	1556.47
1034.828	1559.86
1035.116	1542.23
1035.403	1542.01
1035.691	1519.64
1035.979	1506.53
1036.267	1496.58
1036.554	1480.31
1036.842	1462.01
1037.129	1495.91
1037.417	1429.69
1037.704	1415.46
1037.992	1448.68
1038.279	1421.33
1038.566	1407.1
1038.853	1407.1
1039.14	1407.1
