Data from 19-3921_FLMS001491_001.txt Node
Date: Thu Apr 19 16:40:58 BST 2018
User: hsy
Spectrometer: FLMS00149
Trigger mode: 0
Integration Time (sec): 1.000000E-2
Scans to average: 10
Electric dark correction enabled: true
Nonlinearity correction enabled: false
Boxcar width: 0
XAxis mode: Wavelengths
Number of Pixels in Spectrum: 2048
>>>>>Begin Spectral Data<<<<<
341.393	0.75
341.776	0.75
342.16	0.75
342.543	-66.82
342.927	-51
343.31	-69.98
343.693	-81.51
344.077	-55.52
344.46	-57.55
344.843	-53.71
345.226	-48.97
345.61	-36.76
345.993	-18.69
346.376	-10.1
346.759	10.47
347.142	36.23
347.525	38.04
347.908	56.57
348.291	79.39
348.674	100.18
349.057	111.93
349.44	120.52
349.823	132.72
350.206	173.17
350.588	215.21
350.971	221.08
351.354	264.92
351.737	245.26
352.119	254.08
352.502	282.32
352.884	299.72
353.267	316.45
353.65	316.9
354.032	326.16
354.414	338.14
354.797	333.85
355.179	336.78
355.562	360.74
355.944	353.51
356.326	390.79
356.709	385.6
357.091	360.29
357.473	346.73
357.855	375.43
358.238	377.24
358.62	364.35
359.002	392.83
359.384	379.27
359.766	366.84
360.148	379.72
360.53	355.54
360.912	376.11
361.294	381.98
361.676	366.39
362.057	381.53
362.439	377.01
362.821	376.33
363.203	340.85
363.584	357.12
363.966	363.22
364.348	348.08
364.729	362.09
365.111	360.51
365.493	361.87
365.874	364.81
366.256	360.29
366.637	363.45
367.019	364.58
367.4	367.97
367.781	354.86
368.163	359.38
368.544	371.36
368.925	351.25
369.306	361.64
369.688	352.38
370.069	350.57
370.45	345.15
370.831	374.52
371.212	371.81
371.593	354.64
371.974	357.8
372.355	365.94
372.736	374.98
373.117	360.51
373.498	365.48
373.879	385.6
374.26	379.5
374.641	367.07
375.021	377.46
375.402	373.85
375.783	378.14
376.163	398.93
376.544	391.47
376.925	411.36
377.305	409.78
377.686	413.85
378.066	387.18
378.447	400.96
378.827	380.63
379.208	404.81
379.588	413.85
379.968	402.55
380.349	414.75
380.729	413.39
381.109	399.38
381.489	426.5
381.87	422.88
382.25	419.49
382.63	426.95
383.01	436.22
383.39	432.38
383.77	431.7
384.15	407.74
384.53	428.08
384.91	446.39
385.29	438.03
385.67	437.35
386.049	437.12
386.429	443.9
386.809	452.94
387.189	461.53
387.568	470.79
387.948	448.87
388.328	458.36
388.707	477.12
389.087	439.61
389.466	473.96
389.846	463.56
390.225	474.41
390.605	473.28
390.984	485.71
391.363	493.16
391.743	504.92
392.122	492.26
392.501	499.72
392.881	492.71
393.26	506.27
393.639	522.77
394.018	513.05
394.397	515.76
394.776	520.96
395.155	513.96
395.534	536.78
395.913	528.42
396.292	556.67
396.671	539.94
397.05	530.45
397.429	548.76
397.808	562.32
398.186	547.17
398.565	583.78
398.944	554.18
399.323	562.09
399.701	590.79
400.08	570.23
400.458	561.86
400.837	585.82
401.215	601.41
401.594	581.07
401.972	585.14
402.351	598.7
402.729	610.9
403.107	624.46
403.486	606.83
403.864	602.09
404.242	625.59
404.62	635.99
404.999	640.28
405.377	646.38
405.755	630.11
406.133	655.87
406.511	643.9
406.889	656.32
407.267	670.11
407.645	677.79
408.023	673.5
408.401	697
408.779	705.14
409.156	710.79
409.534	713.05
409.912	718.24
410.29	730.45
410.667	734.29
411.045	742.42
411.422	746.94
411.8	750.56
412.178	781.52
412.555	742.65
412.933	806.38
413.31	776.1
413.687	802.08
414.065	797.11
414.442	806.38
414.819	825.36
415.197	849.99
415.574	842.99
415.951	847.28
416.328	882.08
416.705	850.67
417.082	850.22
417.46	864.68
417.837	890.44
418.214	878.01
418.591	892.7
418.967	905.13
419.344	904.91
419.721	936.54
420.098	905.58
420.475	944.68
420.852	950.1
421.228	931.12
421.605	958.92
421.982	971.34
422.358	998.91
422.735	989.2
423.111	993.94
423.488	992.81
423.864	1018.57
424.241	998.46
424.617	1027.16
424.994	1033.04
425.37	1061.74
425.746	1049.08
426.123	1077.78
426.499	1098.35
426.875	1097.67
427.251	1101.51
427.627	1111.45
428.003	1159.14
428.379	1132.02
428.756	1148.29
429.132	1132.02
429.507	1192.36
429.883	1189.19
430.259	1212.02
430.635	1240.94
431.011	1245.01
431.387	1260.83
431.763	1290.88
432.138	1258.57
432.514	1285.69
432.89	1299.25
433.265	1345.35
433.641	1342.63
434.016	1364.55
434.392	1378.79
434.767	1396.87
435.143	1408.4
435.518	1419.69
435.894	1398.68
436.269	1473.7
436.644	1453.14
437.02	1468.05
437.395	1467.83
437.77	1513.7
438.145	1505.57
438.52	1535.17
438.895	1548.96
439.271	1556.19
439.646	1574.94
440.021	1602.29
440.395	1605.68
440.77	1616.98
441.145	1631.67
441.52	1603.42
441.895	1629.63
442.27	1654.72
442.645	1654.94
443.019	1673.02
443.394	1672.57
443.769	1672.79
444.143	1699.69
444.518	1719.8
444.892	1727.71
445.267	1708.05
445.641	1725.9
446.016	1742.62
446.39	1767.48
446.764	1761.15
447.139	1774.71
447.513	1781.49
447.887	1810.42
448.262	1788.72
448.636	1802.06
449.01	1835.28
449.384	1827.14
449.758	1873.24
450.132	1876.41
450.506	1904.88
450.88	1909.85
451.254	1921.6
451.628	1934.48
452.002	1962.5
452.376	1988.49
452.75	2023.07
453.123	2000.47
453.497	2033.46
453.871	2009.06
454.244	2106.46
454.618	2131.99
454.992	2167.47
455.365	2154.82
455.739	2203.18
456.112	2215.83
456.486	2247.02
456.859	2252.67
457.232	2300.35
457.606	2292.67
457.979	2336.28
458.352	2386.22
458.725	2391.19
459.099	2420.12
459.472	2452.66
459.845	2521.59
460.218	2500.34
460.591	2537.18
460.964	2536.73
461.337	2571.98
461.71	2623.73
462.083	2642.94
462.456	2692.43
462.829	2621.7
463.201	2729.49
463.574	2708.02
463.947	2760.22
464.32	2803.39
464.692	2797.06
465.065	2855.59
465.438	2864.85
465.81	2890.62
466.183	2944.4
466.555	2968.35
466.928	3029.37
467.3	3038.63
467.672	3047.9
468.045	3130.84
468.417	3086.54
468.789	3161.8
469.161	3183.72
469.534	3205.41
469.906	3273.2
470.278	3316.82
470.65	3336.93
471.022	3345.97
471.394	3444.05
471.766	3394.78
472.138	3500.54
472.51	3546.19
472.882	3583.48
473.253	3640.88
473.625	3674.78
473.997	3760.65
474.369	3774.43
474.74	3816.24
475.112	3903.47
475.484	3949.8
475.855	3994.32
476.227	4046.97
476.598	4115.89
476.97	4177.36
477.341	4227.08
477.713	4305.72
478.084	4343.91
478.455	4428.88
478.827	4474.76
479.198	4622.55
479.569	4622.32
479.94	4693.96
480.311	4790.23
480.682	4817.35
481.053	4956.32
481.424	5047.62
481.795	5069.77
482.166	5185.25
482.537	5231.12
482.908	5352.92
483.279	5324.45
483.65	5526.48
484.021	5542.75
484.391	5648.28
484.762	5707.94
485.133	5776.42
485.503	5805.12
485.874	5948.61
486.244	5983.64
486.615	6139.57
486.985	6223.41
487.356	6284.2
487.726	6349.51
488.097	6501.82
488.467	6517.19
488.837	6639.9
489.207	6776.84
489.578	6782.27
489.948	6963.05
490.318	7031.75
490.688	6980.9
491.058	7211.63
491.428	7194.23
491.798	7280.33
492.168	7473.55
492.538	7462.02
492.908	7579.98
493.278	7683.71
493.648	7650.26
494.017	7805.06
494.387	7830.83
494.757	7921.9
495.126	7996.02
495.496	8028.56
495.866	8166.64
496.235	8204.83
496.605	8224.94
496.974	8360.08
497.344	8401.66
497.713	8431.94
498.082	8514.42
498.452	8576.34
498.821	8634.87
499.19	8667.64
499.559	8747.86
499.928	8773.63
500.298	8864.02
500.667	8899.27
501.036	8958.25
501.405	8987.18
501.774	9052.04
502.143	9200.51
502.512	9169.55
502.88	9272.82
503.249	9223.78
503.618	9354.4
503.987	9367.96
504.356	9513.27
504.724	9465.13
505.093	9493.83
505.462	9485.47
505.83	9621.29
506.199	9732.24
506.567	9788.29
506.936	9811.56
507.304	9942.63
507.672	9956.42
508.041	10014.95
508.409	10176.07
508.777	10227.82
509.145	10242.51
509.514	10298.56
509.882	10318.67
510.25	10391.44
510.618	10423.75
510.986	10501.49
511.354	10667.36
511.722	10674.82
512.09	10798.88
512.458	10819.22
512.826	10843.4
513.193	10963.85
513.561	11047.01
513.929	11077.29
514.297	11216.95
514.664	11245.2
515.032	11272.32
515.4	11460.11
515.767	11448.13
516.135	11558.41
516.502	11505.76
516.869	11702.81
517.237	11782.36
517.604	11738.29
517.972	11947.55
518.339	12043.6
518.706	12082.69
519.073	12157.04
519.44	12169.69
519.808	12369.46
520.175	12356.13
520.542	12527.88
520.909	12683.8
521.276	12724.93
521.643	12911.14
522.009	12943.91
522.376	13063.91
522.743	13080.86
523.11	13289.66
523.477	13454.41
523.843	13463.9
524.21	13648.75
524.577	13836.32
524.943	13941.4
525.31	13961.74
525.676	14053.49
526.043	14247.83
526.409	14350.65
526.776	14489.41
527.142	14560.59
527.508	14650.76
527.874	14786.57
528.241	14920.81
528.607	15024.31
528.973	15199.67
529.339	15213.46
529.705	15306.11
530.071	15540.9
530.437	15576.84
530.803	15704.97
531.169	15834.91
531.535	15840.33
531.901	16022.7
532.267	16049.82
532.632	16135.92
532.998	16288
533.364	16348.57
533.73	16484.16
534.095	16522.35
534.461	16579.52
534.826	16735
535.192	16796.24
535.557	16925.05
535.923	16879.17
536.288	17109.45
536.653	17115.1
537.019	17150.58
537.384	17334.3
537.749	17314.42
538.114	17369.33
538.479	17364.36
538.845	17570.23
539.21	17540.4
539.575	17657.23
539.94	17646.84
540.305	17790.79
540.67	17753.95
541.034	17910.79
541.399	17923.44
541.764	18038.01
542.129	18004.12
542.494	18100.16
542.858	18111.01
543.223	18221.74
543.587	18289.31
543.952	18316.2
544.316	18396.65
544.681	18422.19
545.045	18622.41
545.41	18487.72
545.774	18642.52
546.138	18595.97
546.503	18746.7
546.867	18816.07
547.231	18968.16
547.595	18923.64
547.959	19020.59
548.324	19086.8
548.688	19133.35
549.052	19133.8
549.416	19190.53
549.779	19182.84
550.143	19331.54
550.507	19464.64
550.871	19508.26
551.235	19444.53
551.599	19671.87
551.962	19688.82
552.326	19743.51
552.689	19810.85
553.053	19730.63
553.417	19892.43
553.78	20173.1
554.143	20122.93
554.507	20247
554.87	20358.18
555.234	20478.18
555.597	20404.05
555.96	20431.62
556.323	20583.48
556.686	20724.27
557.05	20892.18
557.413	20970.37
557.776	20986.19
558.139	21119.52
558.502	21196.35
558.865	21188.44
559.228	21450.58
559.59	21525.38
559.953	21619.84
560.316	21839.04
560.679	21951.58
561.041	22065.48
561.404	22261.63
561.767	22472.25
562.129	22416.88
562.492	22625.92
562.854	22713.15
563.217	22866.59
563.579	22954.5
563.941	23171.44
564.304	23290.53
564.666	23579.11
565.028	23690.52
565.39	23756.51
565.753	24003.06
566.115	24078.31
566.477	24274.91
566.839	24483.49
567.201	24813.43
567.563	24714.22
567.925	25019.53
568.287	25206.19
568.648	25378.61
569.01	25633.07
569.372	25881.2
569.734	25867.64
570.095	26078.03
570.457	26474.18
570.819	26575.87
571.18	26580.84
571.542	26894.5
571.903	26958.23
572.265	27362.74
572.626	27441.83
572.987	27605.22
573.349	27809.28
573.71	27955.27
574.071	28279.78
574.432	28596.15
574.794	28739.88
575.155	28782.14
575.516	28933.32
575.877	29094.67
576.238	29208.12
576.599	29482.91
576.96	29612.85
577.32	29758.38
577.681	29877.48
578.042	30201.31
578.403	30173.06
578.763	30222.78
579.124	30415.99
579.485	30642.2
579.845	30800.84
580.206	30728.53
580.566	30939.14
580.927	30946.6
581.287	31061.63
581.648	31086.03
582.008	31255.29
582.368	31218.91
582.728	31303.88
583.089	31282.86
583.449	31361.28
583.809	31350.43
584.169	31457.77
584.529	31464.78
584.889	31681.05
585.249	31414.84
585.609	31378.91
585.969	31719.24
586.329	31535.51
586.688	31696.64
587.048	31707.49
587.408	31683.53
587.768	31693.02
588.127	31597.88
588.487	31576.87
588.846	31815.73
589.206	31590.88
589.565	31525.34
589.925	31815.05
590.284	31650.09
590.643	31797.43
591.003	31642.4
591.362	31843.53
591.721	31804.66
592.08	31804.66
592.44	31869.74
592.799	31671.55
593.158	31613.48
593.517	31688.5
593.876	31695.06
594.235	31737.32
594.593	31697.99
594.952	31772.12
595.311	31597.88
595.67	31825.45
596.029	31892.57
596.387	31956.07
596.746	31962.17
597.104	31723.53
597.463	31810.53
597.822	32133.46
598.18	31802.4
598.538	31899.57
598.897	31956.97
599.255	31638.33
599.613	32130.98
599.972	31888.72
600.33	31991.77
600.688	31866.35
601.046	31979.57
601.404	32088.04
601.762	32067.25
602.12	32125.55
602.478	32055.5
602.836	32098.66
603.194	31813.02
603.552	32093.46
603.91	32014.6
604.268	32055.72
604.625	31954.94
604.983	32178.43
605.341	32028.38
605.698	32280.13
606.056	32268.6
606.413	32233.57
606.771	32332.78
607.128	32295.49
607.485	32160.35
607.843	32298.66
608.2	32228.6
608.557	32365.77
608.914	32345.21
609.272	32434.25
609.629	32646.44
609.986	32667.46
610.343	32542.72
610.7	32802.82
611.057	32747.68
611.414	32652.09
611.771	32878.98
612.127	32754.24
612.484	32837.63
612.841	32967.79
613.198	32930.28
613.554	32802.37
613.911	33008.47
614.267	33082.82
614.624	32965.08
614.98	33051.86
615.337	33166.43
615.693	33074.91
616.05	33137.5
616.406	33348.35
616.762	33239.2
617.118	33274.45
617.475	33097.73
617.831	33350.38
618.187	33354.45
618.543	33399.19
618.899	33632.63
619.255	33524.84
619.611	33497.95
619.967	33490.26
620.323	33717.6
620.678	33527.78
621.034	33545.4
621.39	33493.2
621.746	33663.59
622.101	33977.03
622.457	33593.99
622.812	33630.6
623.168	33830.37
623.523	33597.61
623.879	33866.75
624.234	33671.95
624.589	33643.93
624.945	33788.79
625.3	33765.96
625.655	33752.18
626.01	33784.27
626.365	33853.42
626.72	33680.09
627.075	33694.33
627.43	33690.48
627.785	33578.62
628.14	33709.47
628.495	33541.56
628.85	33605.29
629.205	33567.1
629.559	33712.63
629.914	33454.78
630.269	33550.6
630.623	33397.38
630.978	33290.95
631.332	33638.28
631.687	33378.63
632.041	33445.52
632.396	33412.53
632.75	33331.62
633.104	33348.57
633.459	33094.79
633.813	33238.74
634.167	33142.25
634.521	33170.27
634.875	33071.97
635.229	33028.81
635.583	32875.14
635.937	32734.13
636.291	32859.32
636.645	32897.06
636.999	32705.43
637.352	32894.57
637.706	32537.29
638.06	32702.94
638.413	32600.34
638.767	32429.95
639.121	32523.28
639.474	32361.25
639.828	32296.85
640.181	32301.59
640.534	32327.13
640.888	32170.07
641.241	32123.75
641.594	32197.19
641.947	32191.31
642.301	32056.85
642.654	32086.68
643.007	31936.63
643.36	31973.24
643.713	31977.99
644.066	32026.57
644.419	31808.05
644.771	31520.15
645.124	31307.95
645.477	31296.65
645.83	31222.3
646.182	31216.2
646.535	31107.95
646.888	31251.68
647.24	31101.85
647.593	31125.58
647.945	31147.27
648.298	30924.91
648.65	30839.03
649.002	30420.97
649.355	30407.86
649.707	30280.18
650.059	30252.16
650.411	30675.42
650.763	30902.31
651.115	31500.49
651.467	31312.69
651.819	31327.38
652.171	31260.72
652.523	31288.51
652.875	31215.75
653.227	31008.97
653.578	31365.8
653.93	31225.24
654.282	30938.47
654.633	30951.8
654.985	31026.37
655.337	31070.21
655.688	30948.18
656.039	31086.71
656.391	30884
656.742	31020.95
657.094	30938.69
657.445	30904.57
657.796	30890.11
658.147	30757.45
658.498	31043.77
658.849	30919.71
659.2	30739.83
659.551	30852.14
659.902	30960.61
660.253	30918.58
660.604	30967.62
660.955	30890.78
661.306	31001.06
661.656	30816.21
662.007	30903.89
662.358	30873.16
662.708	31000.16
663.059	30860.28
663.409	30898.02
663.76	30946.6
664.11	30927.39
664.461	30939.6
664.811	30873.38
665.161	31043.77
665.511	30876.55
665.862	30807.17
666.212	31088.29
666.562	31008.52
666.912	31000.61
667.262	30860.05
667.612	30895.08
667.962	30949.31
668.312	30927.17
668.662	31062.3
669.011	31055.98
669.361	30784.57
669.711	30960.84
670.06	30855.98
670.41	30879.03
670.76	30838.58
671.109	30956.77
671.459	30700.73
671.808	30823.67
672.157	30750.22
672.507	30762.88
672.856	30646.95
673.205	30766.72
673.554	30928.07
673.904	30681.75
674.253	30973.04
674.602	30613.73
674.951	30188.43
675.3	30089
675.649	30632.94
675.998	30613.5
676.346	30592.03
676.695	30618.25
677.044	30407.86
677.393	30442.21
677.741	30540.28
678.09	30577.12
678.438	30393.4
678.787	30584.8
679.135	30458.93
679.484	30300.97
679.832	30350.69
680.181	30279.05
680.529	30268.88
680.877	30066.62
681.225	30138.04
681.573	30228.65
681.922	30189.11
682.27	30067.98
682.618	30012.39
682.966	29964.25
683.314	30038.6
683.661	29982.56
684.009	29796.58
684.357	29763.36
684.705	29649.69
685.053	29651.27
685.4	29457.83
685.748	29375.57
686.095	29494.66
686.443	29272.07
686.79	29208.34
687.138	29323.14
687.485	29293.54
687.832	29017.84
688.18	29027.33
688.527	29049.7
688.874	28791.4
689.221	28842.48
689.568	28719.54
689.915	28605.19
690.262	28722.03
690.609	28517.29
690.956	28437.97
691.303	28532.43
691.65	28276.16
691.997	28276.16
692.344	28135.38
692.69	27986.68
693.037	28055.15
693.383	27807.7
693.73	27881.82
694.077	27658.33
694.423	27628.04
694.769	27482.29
695.116	27488.16
695.462	27201.16
695.808	27158.23
696.155	27319.58
696.501	27030.09
696.847	27092.92
697.193	26961.17
697.539	26817.22
697.885	26732.93
698.231	26600.05
698.577	26659.93
698.923	26570.22
699.269	26343.33
699.614	26239.61
699.96	26175.65
700.306	26287.74
700.651	26145.6
700.997	25944.93
701.342	25884.36
701.688	25876.23
702.033	25684.37
702.379	25703.12
702.724	25466.97
703.069	25589.91
703.415	25378.16
703.76	25252.51
704.105	25179.52
704.45	25214.32
704.795	25131.39
705.14	24999.87
705.485	24961.67
705.83	24790.15
706.175	25056.36
706.52	24737.73
706.865	24838.97
707.209	24684.39
707.554	24547.45
707.899	24474.68
708.243	24506.32
708.588	24441.46
708.932	24267
709.277	24231.98
709.621	24105.2
709.966	24042.6
710.31	24062.26
710.654	23954.02
710.998	23959.44
711.342	23896.39
711.687	23857.75
712.031	23782.95
712.375	23657.53
712.719	23616.62
713.063	23510.64
713.407	23688.26
713.75	23466.35
714.094	23575.95
714.438	23388.16
714.782	23487.14
715.125	23292.34
715.469	23463.18
715.812	23266.58
716.156	23309.74
716.499	23246.92
716.843	23239.01
717.186	23203.75
717.53	23252.79
717.873	23257.76
718.216	23293.47
718.559	23061.39
718.902	22841.28
719.246	23022.97
719.589	22869.07
719.932	22798.12
720.275	22903.88
720.617	22798.57
720.96	22782.52
721.303	22855.97
721.646	22797.66
721.989	22790.66
722.331	22831.33
722.674	22724.44
723.016	22716.54
723.359	22636.54
723.701	22648.51
724.044	22522.42
724.386	22506.37
724.729	22648.97
725.071	22554.73
725.413	22535.98
725.755	22485.81
726.097	22442.87
726.439	22309.09
726.782	22366.94
727.124	22478.12
727.465	22379.6
727.807	22316.77
728.149	22481.97
728.491	22318.13
728.833	22336.88
729.175	22314.74
729.516	22323.33
729.858	22202.88
730.199	22370.33
730.541	22265.93
730.882	22180.05
731.224	22244.68
731.565	22237.23
731.906	22264.57
732.248	22333.27
732.589	22280.61
732.93	22177.57
733.271	22250.56
733.612	22204.23
733.953	22366.26
734.294	22222.09
734.635	22203.1
734.976	22294.4
735.317	22198.13
735.658	22177.57
735.999	22217.11
736.339	22149.09
736.68	22095.53
737.021	22257.11
737.361	22205.59
737.702	22255.53
738.042	22174.63
738.383	22221.41
738.723	22282.2
739.063	22153.16
739.404	22369.43
739.744	22195.42
740.084	22196.32
740.424	22303.66
740.764	22345.92
741.104	22392.48
741.444	22254.4
741.784	22361.74
742.124	22540.04
742.464	22514.05
742.804	22381.18
743.143	22348.86
743.483	22553.83
743.823	22419.82
744.162	22450.55
744.502	22600.61
744.841	22655.97
745.181	22815.52
745.52	22702.3
745.86	22651.45
746.199	22749.53
746.538	22793.14
746.877	22904.78
747.216	23042.4
747.556	22932.35
747.895	23080.14
748.234	23115.17
748.573	23226.8
748.911	23116.07
749.25	23267.48
749.589	23206.24
749.928	23326.01
750.267	23381.38
750.605	23394.48
750.944	23483.52
751.283	23462.5
751.621	23691.88
751.96	23556.51
752.298	23631.09
752.636	23792.89
752.975	23770.07
753.313	23732.1
753.651	24026.33
753.989	24020.91
754.327	24031.08
754.666	24008.25
755.004	24206.21
755.342	24235.59
755.679	24250.96
756.017	24255.25
756.355	24355.14
756.693	24400.11
757.031	24526.88
757.368	24434.23
757.706	24523.04
758.044	24514.68
758.381	24615.47
758.719	24690.49
759.056	24786.99
759.394	24759.65
759.731	24631.06
760.068	24821.56
760.405	24782.24
760.743	24930.04
761.08	24833.77
761.417	24866.54
761.754	24901.56
762.091	24894.11
762.428	24822.24
762.765	24836.93
763.102	25001.67
763.438	24914.67
763.775	24840.1
764.112	24969.13
764.449	24999.41
764.785	25017.04
765.122	24924.39
765.458	24800.55
765.795	24866.08
766.131	24897.95
766.467	24839.64
766.804	24760.78
767.14	24798.51
767.476	24715.35
767.812	24713.77
768.148	24833.32
768.485	24813.66
768.821	24665.18
769.157	24689.36
769.492	24703.6
769.828	24624.28
770.164	24408.69
770.5	24475.59
770.836	24511.06
771.171	24459.77
771.507	24345.42
771.842	24166.21
772.178	24300.9
772.513	24288.47
772.849	24163.73
773.184	24064.75
773.519	24049.61
773.855	24034.69
774.19	23913.34
774.525	23834.25
774.86	23881.25
775.195	23795.83
775.53	23687.81
775.865	23551.09
776.2	23457.98
776.535	23331.89
776.87	23365.33
777.205	23338.21
777.539	23278.78
777.874	23208.95
778.209	22923.31
778.543	23080.37
778.878	22912.24
779.212	22902.75
779.547	22711.79
779.881	22808.74
780.215	22640.83
780.55	22742.07
780.884	22483.1
781.218	22531.91
781.552	22461.17
781.886	22318.13
782.22	22296.89
782.554	22175.98
782.888	22024.12
783.222	22157.23
783.556	21920.85
783.889	21765.83
784.223	21637.24
784.557	21744.36
784.89	21646.51
785.224	21546.85
785.557	21517.92
785.891	21333.07
786.224	21488.32
786.558	21361.77
786.891	21194.09
787.224	21255.78
787.557	21041.33
787.891	21002.23
788.224	20809.47
788.557	20934.44
788.89	20896.7
789.223	20793.42
789.556	20694.44
789.888	20645.63
790.221	20527.44
790.554	20441.79
790.887	20400.44
791.219	20305.53
791.552	20279.76
791.884	20234.57
792.217	20143.04
792.549	20044.06
792.882	19923.39
793.214	19871.64
793.546	19893.33
793.879	19760.91
794.211	19567.92
794.543	19768.59
794.875	19676.62
795.207	19637.52
795.539	19548.94
795.871	19578.31
796.203	19405.66
796.535	19380.35
796.867	19288.38
797.198	19189.17
797.53	19147.59
797.862	19000.47
798.193	19025.11
798.525	18919.57
798.856	19040.02
799.188	18800.25
799.519	18763.42
799.85	18727.71
800.182	18777.43
800.513	18725
800.844	18487.27
801.175	18613.82
801.506	18609.52
801.837	18449.08
802.168	18457.89
802.499	18357.78
802.83	18293.15
803.161	18231
803.491	18250.21
803.822	18297.22
804.153	18114.4
804.483	18041.86
804.814	17850.22
805.145	18008.86
805.475	17986.26
805.805	17855.42
806.136	17856.78
806.466	17825.59
806.796	17729.32
807.126	17545.15
807.457	17670.57
807.787	17625.14
808.117	17596.22
808.447	17514.86
808.777	17565.26
809.107	17431.93
809.436	17334.53
809.766	17306.96
810.096	17273.51
810.426	17268.54
810.755	17321.88
811.085	17256.79
811.414	17184.03
811.744	17038.49
812.073	17021.77
812.403	16984.48
812.732	16825.16
813.061	17000.75
813.39	16900.87
813.719	16871.49
814.049	16881.21
814.378	16871.94
814.707	16684.6
815.036	16857.48
815.365	16710.82
815.693	16622.91
816.022	16570.48
816.351	16505.4
816.68	16396.25
817.008	16490.48
817.337	16262.24
817.665	16412.07
817.994	16326.2
818.322	16408
818.651	16274.67
818.979	16293.65
819.307	16315.35
819.636	16251.85
819.964	16119.65
820.292	16165.52
820.62	16129.14
820.948	16225.18
821.276	16229.7
821.604	16106.99
821.932	16135.69
822.259	16065.64
822.587	16111.74
822.915	16085.07
823.243	16159.87
823.57	16071.51
823.898	16138.86
824.225	16120.55
824.553	16059.99
824.88	16181.57
825.207	16282.13
825.535	16044.39
825.862	16229.47
826.189	16067.67
826.516	16250.72
826.843	16277.61
827.17	16225.86
827.497	16239.64
827.824	16167.78
828.151	16280.32
828.478	16142.25
828.805	16198.29
829.131	16202.36
829.458	16102.02
829.785	16096.82
830.111	16101.12
830.438	16284.84
830.764	16212.75
831.09	16187.44
831.417	16075.81
831.743	16256.37
832.069	16060.21
832.395	15991.97
832.722	16077.84
833.048	16005.75
833.374	16149.25
833.7	16096.37
834.026	16051.63
834.351	16057.73
834.677	16055.69
835.003	15970.95
835.329	16032.64
835.654	15998.29
835.98	15876.72
836.306	16024.06
836.631	15884.17
836.956	15982.93
837.282	15928.92
837.607	15978.86
837.932	15826.1
838.258	15831.74
838.583	15846.43
838.908	15803.04
839.233	15836.04
839.558	15726.66
839.883	15742.26
840.208	15652.09
840.533	15686.21
840.858	15718.3
841.182	15705.87
841.507	15729.37
841.832	15540.68
842.156	15599.21
842.481	15467.69
842.805	15521.24
843.13	15435.6
843.454	15465.65
843.778	15351.08
844.103	15306.11
844.427	15303.62
844.751	15304.07
845.075	15227.47
845.399	15266.79
845.723	15264.98
846.047	15242.83
846.371	15099.79
846.695	15040.35
847.019	15017.53
847.343	14949.96
847.666	14876.97
847.99	14784.54
848.313	14766.91
848.637	14808.72
848.96	14604.21
849.284	14564.43
849.607	14620.93
849.931	14548.16
850.254	14457.32
850.577	14294.84
850.9	14234.27
851.223	14255.51
851.546	14192.24
851.869	14129.64
852.192	14149.08
852.515	14005.58
852.838	13904.34
853.161	13945.69
853.483	13897.56
853.806	13945.69
854.129	13784.11
854.451	13825.7
854.774	13688.3
855.096	13606.94
855.419	13598.13
855.741	13592.71
856.063	13520.85
856.385	13387.52
856.708	13395.42
857.03	13434.97
857.352	13481.52
857.674	13375.99
857.996	13259.38
858.318	13281.53
858.64	13304.81
858.961	13200.18
859.283	13174.87
859.605	13089.67
859.926	13094.42
860.248	13069.33
860.57	12986.62
860.891	13011.25
861.212	12942.56
861.534	12964.48
861.855	12955.21
862.176	13016.45
862.498	12902.33
862.819	12859.85
863.14	12801.99
863.461	12799.06
863.782	12805.16
864.103	12691.94
864.424	12737.14
864.745	12686.06
865.065	12602.68
865.386	12532.62
865.707	12665.5
866.027	12630.47
866.348	12516.58
866.668	12552.28
866.989	12576.24
867.309	12460.31
867.63	12490.36
867.95	12536.92
868.27	12410.59
868.59	12449.69
868.91	12372.85
869.23	12336.02
869.55	12256.47
869.87	12351.61
870.19	12231.16
870.51	12317.49
870.83	12246.75
871.15	12223.48
871.469	12144.61
871.789	12240.2
872.109	12246.08
872.428	12152.97
872.748	12186.87
873.067	12083.37
873.386	12111.39
873.706	12090.6
874.025	12086.31
874.344	12034.1
874.663	12095.8
874.982	12082.69
875.301	12004.5
875.62	11981.9
875.939	11941.23
876.258	11947.55
876.577	11882.24
876.896	11898.29
877.214	11858.06
877.533	11845.86
877.852	11935.8
878.17	11869.82
878.489	11766.99
878.807	11816.71
879.125	11730.16
879.444	11781.91
879.762	11648.8
880.08	11792.98
880.398	11717.95
880.716	11703.49
881.034	11637.73
881.352	11660.1
881.67	11590.73
881.988	11609.48
882.306	11575.81
882.624	11570.16
882.941	11485.64
883.259	11446.78
883.577	11446.55
883.894	11406.1
884.212	11435.02
884.529	11418.08
884.846	11257.4
885.164	11297.17
885.481	11271.64
885.798	11296.04
886.115	11154.81
886.432	11210.85
886.75	11188.48
887.067	11188.7
887.383	11136.05
887.7	11100.12
888.017	10968.37
888.334	11063.51
888.651	11006.79
888.967	10954.36
889.284	10894.7
889.6	10942.16
889.917	10909.39
890.233	10892.89
890.55	10847.24
890.866	10833.01
891.182	10751.2
891.498	10696.06
891.815	10685.67
892.131	10634.59
892.447	10615.61
892.763	10651.09
893.079	10536.97
893.395	10544.43
893.71	10599.79
894.026	10494.48
894.342	10512.34
894.657	10353.24
894.973	10322.96
895.289	10338.33
895.604	10307.6
895.92	10286.58
896.235	10321.61
896.55	10313.25
896.865	10232.57
897.181	10218.78
897.496	10173.14
897.811	10150.54
898.126	10131.78
898.441	10030.99
898.756	10012.69
899.071	9976.53
899.386	9979.24
899.7	9866.03
900.015	9881.17
900.33	9713.71
900.644	9810.89
900.959	9735.18
901.273	9665.58
901.588	9674.39
901.902	9660.83
902.216	9579.71
902.531	9564.79
902.845	9558.24
903.159	9516.88
903.473	9506.71
903.787	9433.95
904.101	9423.55
904.415	9456.77
904.729	9457
905.042	9366.15
905.356	9344.46
905.67	9263.78
905.984	9298.36
906.297	9236.89
906.611	9147.85
906.924	9138.14
907.237	9153.28
907.551	9093.39
907.864	9103.79
908.177	9069.21
908.491	8998.93
908.804	8999.16
909.117	8871.93
909.43	8872.15
909.743	8843.45
910.056	8842.55
910.368	8805.71
910.681	8758.94
910.994	8742.89
911.307	8699.95
911.619	8593.97
911.932	8654.98
912.244	8527.76
912.557	8552.16
912.869	8499.51
913.181	8462.9
913.494	8456.35
913.806	8403.01
914.118	8419.06
914.43	8319.4
914.742	8349
915.054	8270.81
915.366	8217.48
915.678	8209.12
915.99	8180.19
916.302	8031.95
916.613	8114.66
916.925	8146.07
917.236	8021.33
917.548	8011.84
917.859	7954.21
918.171	7953.08
918.482	7875.34
918.794	7865.17
919.105	7872.63
919.416	7789.24
919.727	7836.02
920.038	7743.14
920.349	7759.64
920.66	7673.99
920.971	7631.73
921.282	7649.36
921.593	7580.89
921.903	7537.27
922.214	7529.82
922.525	7490.5
922.835	7487.33
923.146	7420.89
923.456	7446.88
923.767	7330.95
924.077	7302.93
924.387	7308.8
924.697	7241.01
925.008	7227.68
925.318	7248.92
925.628	7197.4
925.938	7133.67
926.248	7133.89
926.558	7029.49
926.867	7076.04
927.177	7014.12
927.487	7022.71
927.796	6967.57
928.106	6960.57
928.416	6941.13
928.725	6923.05
929.034	6911.08
929.344	6876.05
929.653	6796.28
929.962	6756.73
930.271	6763.73
930.581	6687.13
930.89	6668.6
931.199	6641.25
931.508	6627.47
931.817	6644.42
932.125	6641.25
932.434	6599.67
932.743	6536.17
933.051	6495.72
933.36	6469.51
933.669	6452.78
933.977	6489.62
934.286	6452.56
934.594	6371.2
934.902	6334.37
935.21	6302.73
935.519	6224.99
935.827	6312.67
936.135	6182.28
936.443	6227.25
936.751	6153.13
937.059	6137.31
937.367	6120.14
937.674	6111.77
937.982	6135.73
938.29	6068.84
938.597	6054.6
938.905	5974.38
939.213	5996.3
939.52	5952
939.827	5962.17
940.135	5974.83
940.442	5871.1
940.749	5866.13
941.056	5856.64
941.363	5820.48
941.67	5754.04
941.977	5732.8
942.284	5733.71
942.591	5685.57
942.898	5677.21
943.205	5662.52
943.511	5610.54
943.818	5641.5
944.125	5630.88
944.431	5527.16
944.738	5486.03
945.044	5581.39
945.35	5453.49
945.657	5499.81
945.963	5481.51
946.269	5379.14
946.575	5402.19
946.881	5369.87
947.187	5419.36
947.493	5334.62
947.799	5309.31
948.105	5269.31
948.41	5203.32
948.716	5256.66
949.022	5276.54
949.327	5170.56
949.633	5180.27
949.938	5158.81
950.244	5163.1
950.549	5112.48
950.854	5073.16
951.16	5062.54
951.465	5027.06
951.77	5011.46
952.075	5008.98
952.38	4966.27
952.685	4979.6
952.99	4946.38
953.294	4946.16
953.599	4878.81
953.904	4888.76
954.209	4868.64
954.513	4846.72
954.818	4783.9
955.122	4805.37
955.426	4756.56
955.731	4736.9
956.035	4709.55
956.339	4729.21
956.643	4683.79
956.948	4661.19
957.252	4693.05
957.556	4615.99
957.86	4602.44
958.163	4602.66
958.467	4594.3
958.771	4587.52
959.075	4561.76
959.378	4505.71
959.682	4500.29
959.985	4463.68
960.289	4455.32
960.592	4445.6
960.896	4392.27
961.199	4386.17
961.502	4387.98
961.805	4392.5
962.108	4326.28
962.411	4344.59
962.714	4296.68
963.017	4296.91
963.32	4253.52
963.623	4248.32
963.926	4216.68
964.228	4220.3
964.531	4204.93
964.833	4217.13
965.136	4204.03
965.438	4129
965.741	4060.53
966.043	4104.14
966.345	4092.39
966.648	4093.3
966.95	4079.06
967.252	4039.51
967.554	4027.31
967.856	4045.84
968.158	3959.74
968.46	3961.1
968.761	3967.88
969.063	3956.8
969.365	3953.64
969.666	3899.86
969.968	3878.84
970.269	3870.48
970.571	3837.71
970.872	3819.18
971.174	3838.84
971.475	3784.15
971.776	3785.06
972.077	3816.69
972.378	3778.5
972.679	3752.06
972.98	3740.31
973.281	3664.61
973.582	3667.77
973.883	3688.34
974.183	3648.11
974.484	3637.49
974.785	3595.46
975.085	3628
975.386	3618.96
975.686	3576.47
975.986	3551.62
976.287	3609.02
976.587	3529.92
976.887	3531.96
977.187	3520.43
977.487	3533.76
977.787	3492.18
978.087	3448.12
978.387	3446.31
978.687	3485.85
978.987	3393.88
979.286	3447.44
979.586	3400.89
979.885	3402.69
980.185	3389.36
980.484	3289.7
980.784	3310.27
981.083	3310.49
981.382	3296.71
981.682	3298.97
981.981	3250.38
982.28	3269.36
982.579	3265.3
982.878	3230.04
983.177	3209.25
983.475	3223.49
983.774	3197.95
984.073	3176.03
984.372	3154.56
984.67	3165.41
984.969	3165.19
985.267	3145.52
985.566	3118.41
985.864	3094.68
986.162	3083.61
986.461	3068.46
986.759	3039.99
987.057	3028.47
987.355	3016.49
987.653	3013.32
987.951	2987.11
988.249	2942.59
988.547	2960.22
988.844	2950.95
989.142	2946.89
989.44	2914.57
989.737	2891.07
990.035	2862.82
990.332	2902.82
990.63	2870.05
990.927	2881.35
991.224	2843.16
991.521	2800.67
991.819	2798.42
992.116	2829.15
992.413	2791.64
992.71	2781.69
993.006	2811.75
993.303	2779.43
993.6	2777.17
993.897	2770.39
994.193	2730.62
994.49	2722.71
994.787	2719.55
995.083	2691.53
995.379	2678.64
995.676	2640.91
995.972	2633.45
996.268	2621.47
996.565	2580.12
996.861	2593.22
997.157	2580.34
997.453	2572.88
997.749	2561.59
998.044	2564.07
998.34	2530.17
998.636	2523.17
998.932	2536.73
999.227	2482.04
999.523	2498.99
999.818	2480.23
1000.114	2444.98
1000.409	2446.56
1000.704	2416.05
1001	2417.18
1001.295	2396.84
1001.59	2444.75
1001.885	2368.82
1002.18	2368.14
1002.475	2373.79
1002.77	2320.01
1003.065	2351.2
1003.359	2339.22
1003.654	2337.41
1003.949	2336.96
1004.243	2297.64
1004.538	2263.74
1004.832	2263.51
1005.127	2250.18
1005.421	2240.46
1005.715	2222.84
1006.009	2255.38
1006.304	2186.45
1006.598	2189.62
1006.892	2169.73
1007.186	2152.56
1007.48	2166.34
1007.773	2141.71
1008.067	2172.22
1008.361	2124.53
1008.655	2094.93
1008.948	2096.06
1009.242	2062.16
1009.535	2073.24
1009.829	2077.76
1010.122	2049.73
1010.415	2015.84
1010.708	1981.26
1011.001	2002.5
1011.295	2000.02
1011.588	1970.41
1011.881	1951.66
1012.173	1955.95
1012.466	1948.95
1012.759	1938.55
1013.052	1953.47
1013.344	1924.09
1013.637	1922.96
1013.93	1906.46
1014.222	1918.44
1014.514	1866.24
1014.807	1899.23
1015.099	1843.64
1015.391	1837.76
1015.683	1809.97
1015.976	1824.88
1016.268	1797.54
1016.56	1790.31
1016.851	1784.66
1017.143	1762.28
1017.435	1772.68
1017.727	1725.9
1018.018	1749.4
1018.31	1713.47
1018.602	1736.97
1018.893	1747.37
1019.185	1689.29
1019.476	1682.74
1019.767	1648.61
1020.058	1659.24
1020.35	1640.48
1020.641	1668.28
1020.932	1617.66
1021.223	1616.53
1021.514	1601.84
1021.804	1597.09
1022.095	1630.31
1022.386	1573.81
1022.677	1551.44
1022.967	1564.78
1023.258	1543.31
1023.548	1546.47
1023.839	1512.57
1024.129	1520.71
1024.419	1517.32
1024.709	1501.27
1025	1489.3
1025.29	1481.16
1025.58	1471.22
1025.87	1453.82
1026.16	1453.14
1026.449	1444.1
1026.739	1440.48
1027.029	1434.16
1027.319	1435.74
1027.608	1409.53
1027.898	1415.4
1028.187	1402.07
1028.477	1398.45
1028.766	1356.65
1029.055	1351.22
1029.344	1370.66
1029.634	1308.51
1029.923	1350.77
1030.212	1350.54
1030.501	1310.54
1030.79	1320.26
1031.078	1287.49
1031.367	1319.81
1031.656	1275.74
1031.945	1281.84
1032.233	1279.58
1032.522	1232.81
1032.81	1248.17
1033.099	1216.31
1033.387	1251.79
1033.675	1229.87
1033.963	1224.9
1034.251	1208.63
1034.54	1211.79
1034.828	1215.86
1035.116	1179.47
1035.403	1169.76
1035.691	1170.66
1035.979	1155.75
1036.267	1150.55
1036.554	1151.68
1036.842	1144.9
1037.129	1144.45
1037.417	1157.1
1037.704	1120.04
1037.992	1102.41
1038.279	1077.1
1038.566	1077.78
1038.853	1077.78
1039.14	1077.78
