Data from 19-3935_FLMS001491_008.txt Node
Date: Thu Apr 19 16:40:20 BST 2018
User: hsy
Spectrometer: FLMS00149
Trigger mode: 0
Integration Time (sec): 1.000000E-2
Scans to average: 10
Electric dark correction enabled: true
Nonlinearity correction enabled: false
Boxcar width: 0
XAxis mode: Wavelengths
Number of Pixels in Spectrum: 2048
>>>>>Begin Spectral Data<<<<<
341.393	-19.96
341.776	-19.96
342.16	-19.96
342.543	-56.79
342.927	-48.2
343.31	-79.84
343.693	-77.81
344.077	-69.45
344.46	-47.98
344.843	-45.95
345.226	-41.43
345.61	-24.93
345.993	-17.7
346.376	-3.01
346.759	4.9
347.142	13.04
347.525	40.38
347.908	71.57
348.291	62.98
348.674	76.54
349.057	138.68
349.44	126.25
349.823	160.83
350.206	186.82
350.588	215.74
350.971	249.64
351.354	245.12
351.737	265.01
352.119	273.59
352.502	309.98
352.884	285.8
353.267	320.15
353.65	313.59
354.032	327.15
354.414	312.01
354.797	352.91
355.179	346.13
355.562	358.34
355.944	346.59
356.326	367.15
356.709	352.24
357.091	382.29
357.473	385.68
357.855	370.99
358.238	405.12
358.62	362.18
359.002	362.86
359.384	368.51
359.766	367.38
360.148	371.9
360.53	388.17
360.912	347.72
361.294	369.19
361.676	386.36
362.057	370.99
362.439	366.7
362.821	347.94
363.203	374.16
363.584	358.79
363.966	364.89
364.348	390.43
364.729	368.96
365.111	379.81
365.493	359.69
365.874	360.15
366.256	369.41
366.637	371.67
367.019	362.86
367.4	358.34
367.781	350.65
368.163	380.26
368.544	358.34
368.925	368.96
369.306	353.59
369.688	369.64
370.069	346.59
370.45	365.8
370.831	355.85
371.212	353.82
371.593	370.99
371.974	354.95
372.355	380.26
372.736	370.09
373.117	365.34
373.498	375.96
373.879	371.9
374.26	383.87
374.641	374.16
375.021	367.15
375.402	389.98
375.783	392.46
376.163	395.17
376.544	373.03
376.925	384.55
377.305	398.79
377.686	378.22
378.066	381.84
378.447	394.27
378.827	389.98
379.208	385.23
379.588	390.88
379.968	409.64
380.349	422.07
380.729	417.77
381.109	414.38
381.489	442.86
381.87	415.06
382.25	427.49
382.63	404.89
383.01	444.66
383.39	410.09
383.77	427.26
384.15	408.28
384.53	440.6
384.91	435.85
385.29	447.15
385.67	446.47
386.049	448.51
386.429	433.36
386.809	478.11
387.189	450.09
387.568	447.15
387.948	443.08
388.328	455.28
388.707	460.71
389.087	471.56
389.466	486.47
389.846	484.89
390.225	479.01
390.605	499.35
390.984	462.74
391.363	487.83
391.743	497.77
392.122	497.32
392.501	519.92
392.881	519.92
393.26	512.46
393.639	528.73
394.018	508.39
394.397	509.75
394.776	498.22
395.155	539.12
395.534	533.47
395.913	543.87
396.292	559.24
396.671	529.86
397.05	537.77
397.429	555.85
397.808	537.32
398.186	557.88
398.565	560.59
398.944	552.01
399.323	583.42
399.701	566.92
400.08	581.83
400.458	579.12
400.837	562.17
401.215	593.36
401.594	602.17
401.972	598.56
402.351	602.17
402.729	597.88
403.107	609.86
403.486	620.93
403.864	622.06
404.242	625
404.62	627.03
404.999	641.27
405.377	631.1
405.755	668.16
406.133	665
406.511	652.34
406.889	673.13
407.267	691.66
407.645	664.54
408.023	698.67
408.401	712.23
408.779	718.33
409.156	732.79
409.534	715.62
409.912	735.28
410.29	742.28
410.667	771.66
411.045	763.98
411.422	753.36
411.8	760.36
412.178	772.56
412.555	803.75
412.933	804.2
413.31	818.66
413.687	812.79
414.065	816.18
414.442	837.65
414.819	849.17
415.197	875.39
415.574	861.83
415.951	879.45
416.328	903.18
416.705	885.56
417.082	905.67
417.46	888.27
417.837	919
418.214	923.97
418.591	947.7
418.967	931.88
419.344	922.17
419.721	939.34
420.098	965.78
420.475	934.14
420.852	978.21
421.228	979.79
421.605	997.42
421.982	1007.81
422.358	1024.31
422.735	1017.3
423.111	1019.34
423.488	1053.91
423.864	1038.32
424.241	1083.29
424.617	1064.99
424.994	1096.17
425.37	1061.6
425.746	1087.36
426.123	1092.78
426.499	1121.93
426.875	1137.3
427.251	1143.18
427.627	1188.6
428.003	1198.32
428.379	1173.23
428.756	1196.51
429.132	1230.18
429.507	1223.4
429.883	1238.31
430.259	1247.13
430.635	1263.4
431.011	1294.36
431.387	1314.92
431.763	1340.69
432.138	1319.89
432.514	1337.07
432.89	1341.59
433.265	1391.08
433.641	1404.19
434.016	1394.02
434.392	1462.26
434.767	1450.06
435.143	1458.65
435.518	1457.29
435.894	1496.16
436.269	1550.62
436.644	1520.12
437.02	1556.27
437.395	1563.05
437.77	1594.92
438.145	1629.49
438.52	1620.45
438.895	1652.54
439.271	1623.84
439.646	1671.75
440.021	1681.24
440.395	1712.65
440.77	1699.77
441.145	1714.69
441.52	1724.86
441.895	1739.77
442.27	1743.16
442.645	1750.17
443.019	1760.11
443.394	1770.28
443.769	1796.49
444.143	1799.66
444.518	1798.53
444.892	1794.68
445.267	1823.16
445.641	1837.85
446.016	1868.13
446.39	1880.11
446.764	1881.01
447.139	1849.6
447.513	1896.6
447.887	1918.75
448.262	1919.65
448.636	1927.79
449.01	1934.34
449.384	1974.57
449.758	2000.78
450.132	1986.09
450.506	2014.79
450.88	2051.4
451.254	2038.29
451.628	2055.47
452.002	2105.86
452.376	2123.04
452.75	2125.3
453.123	2136.82
453.497	2163.94
453.871	2181.11
454.244	2237.38
454.618	2223.6
454.992	2260.89
455.365	2293.2
455.739	2349.92
456.112	2329.13
456.486	2386.76
456.859	2393.54
457.232	2426.76
457.606	2450.71
457.979	2478.28
458.352	2517.15
458.725	2551.73
459.099	2578.84
459.472	2585.85
459.845	2670.14
460.218	2663.59
460.591	2692.06
460.964	2716.02
461.337	2737.71
461.71	2792.4
462.083	2818.61
462.456	2821.32
462.829	2864.94
463.201	2918.95
463.574	2859.74
463.947	2946.97
464.32	2911.04
464.692	2991.49
465.065	3012.96
465.438	3067.42
465.81	3086.63
466.183	3085.27
466.555	3160.98
466.928	3193.74
467.3	3183.35
467.672	3242.33
468.045	3316
468.417	3258.83
468.789	3329.56
469.161	3359.16
469.534	3404.13
469.906	3476
470.278	3496.33
470.65	3517.13
471.022	3566.62
471.394	3628.76
471.766	3679.38
472.138	3693.62
472.51	3804.35
472.882	3802.99
473.253	3808.64
473.625	3870.11
473.997	3936.78
474.369	3965.93
474.74	4019.26
475.112	4061.29
475.484	4167.96
475.855	4195.53
476.227	4225.58
476.598	4321.62
476.97	4362.3
477.341	4490.88
477.713	4505.35
478.084	4534.05
478.455	4671.67
478.827	4698.11
479.198	4793.7
479.569	4806.58
479.94	4995.96
480.311	4976.07
480.682	5054.49
481.053	5149.85
481.424	5216.29
481.795	5305.78
482.166	5380.13
482.537	5452.89
482.908	5516.17
483.279	5630.74
483.65	5691.53
484.021	5799.55
484.391	5890.62
484.762	5985.31
485.133	6032.31
485.503	6139.43
485.874	6238.64
486.244	6231.18
486.615	6368.12
486.985	6438.4
487.356	6518.85
487.726	6601.11
488.097	6741.45
488.467	6796.81
488.837	6897.15
489.207	6953.19
489.578	7163.81
489.948	7217.37
490.318	7280.87
490.688	7289
491.058	7431.82
491.428	7477.92
491.798	7580.75
492.168	7707.3
492.538	7804.02
492.908	7898.93
493.278	8003.33
493.648	8064.12
494.017	8127.85
494.387	8202.2
494.757	8241.52
495.126	8339.6
495.496	8388.64
495.866	8479.03
496.235	8514.73
496.605	8569.65
496.974	8667.72
497.344	8720.83
497.713	8769.42
498.082	8822.52
498.452	8922.18
498.821	8916.31
499.19	8943.2
499.559	9002.18
499.928	9095.51
500.298	9163.76
500.667	9234.26
501.036	9256.64
501.405	9253.92
501.774	9359.01
502.143	9507.25
502.512	9468.61
502.88	9599.9
503.249	9527.59
503.618	9629.28
503.987	9637.87
504.356	9796.06
504.724	9841.25
505.093	9847.13
505.462	9853.68
505.83	9906.11
506.199	10004.86
506.567	10093.9
506.936	10092.77
507.304	10217.51
507.672	10204.41
508.041	10341.13
508.409	10420.45
508.777	10457.28
509.145	10488.47
509.514	10568.92
509.882	10654.56
510.25	10681.46
510.618	10793.77
510.986	10682.13
511.354	10809.59
511.722	10934.11
512.09	11022.46
512.458	11049.58
512.826	11155.34
513.193	11099.3
513.561	11271.72
513.929	11271.72
514.297	11413.87
514.664	11394.21
515.032	11474.88
515.4	11617.93
515.767	11644.59
516.135	11732.28
516.502	11685.05
516.869	11962.78
517.237	11898.37
517.604	11914.87
517.972	12116.9
518.339	12179.95
518.706	12214.52
519.073	12240.96
519.44	12323
519.808	12497.45
520.175	12570.45
520.542	12677.56
520.909	12723.44
521.276	12792.36
521.643	12947.16
522.009	13056.54
522.376	13182.86
522.743	13228.06
523.11	13354.38
523.477	13485.45
523.843	13554.83
524.21	13697.42
524.577	13799.57
524.943	13840.47
525.31	14002.05
525.676	14148.48
526.043	14274.81
526.409	14395.03
526.776	14485.88
527.142	14513.67
527.508	14625.76
527.874	14783.72
528.241	14887.67
528.607	14907.79
528.973	15128.12
529.339	15126.31
529.705	15312.75
530.071	15490.14
530.437	15555.68
530.803	15601.55
531.169	15713.41
531.535	15797.71
531.901	15845.39
532.267	15912.28
532.632	16078.6
532.998	16179.39
533.364	16226.85
533.73	16263
534.095	16493.06
534.461	16441.3
534.826	16624.8
535.192	16622.09
535.557	16794.74
535.923	16824.35
536.288	16836.32
536.653	17011.91
537.019	16995.19
537.384	17052.59
537.749	17052.14
538.114	17153.83
538.479	17161.06
538.845	17353.6
539.21	17273.6
539.575	17412.13
539.94	17543.65
540.305	17509.98
540.67	17479.92
541.034	17652.8
541.399	17704.32
541.764	17761.27
542.129	17786.13
542.494	17897.09
542.858	17967.14
543.223	17912.9
543.587	17989.51
543.952	18001.49
544.316	18149.51
544.681	18114.03
545.045	18209.17
545.41	18307.02
545.774	18313.57
546.138	18233.12
546.503	18438.31
546.867	18439.67
547.231	18531.42
547.595	18614.81
547.959	18594.02
548.324	18648.03
548.688	18600.12
549.052	18799.21
549.416	18770.06
549.779	18782.03
550.143	18980.67
550.507	19055.47
550.871	19048.69
551.235	19026.1
551.599	19183.38
551.962	19274
552.326	19315.81
552.689	19325.3
553.053	19339.76
553.417	19425.18
553.78	19680.99
554.143	19626.98
554.507	19678.73
554.87	19847.09
555.234	19964.15
555.597	19881.67
555.96	19955.79
556.323	20125.05
556.686	20064.71
557.05	20262.45
557.413	20383.57
557.776	20349.9
558.139	20602.1
558.502	20584.47
558.865	20657.47
559.228	20739.5
559.59	20908.31
559.953	20952.82
560.316	21293.38
560.679	21175.87
561.041	21313.95
561.404	21591.68
561.767	21805.46
562.129	21734.27
562.492	21951.44
562.854	22106.24
563.217	22119.12
563.579	22230.31
563.941	22438.44
564.304	22725.21
564.666	22842.27
565.028	22910.29
565.39	23062.83
565.753	23151.86
566.115	23308.02
566.477	23537.62
566.839	23707.55
567.201	23984.84
567.563	23978.28
567.925	24331.72
568.287	24350.7
568.648	24600.41
569.01	24891.48
569.372	25218.7
569.734	25194.3
570.095	25547.28
570.457	25671.12
570.819	25897.33
571.18	26035.18
571.542	26329.63
571.903	26430.87
572.265	26672.67
572.626	26846.68
572.987	27070.86
573.349	27261.13
573.71	27489.38
574.071	27660.22
574.432	27827.22
574.794	28191.96
575.155	28328
575.516	28308.34
575.877	28486.41
576.238	28643.47
576.599	28930.47
576.96	29001.43
577.32	29162.78
577.681	29417.01
578.042	29616.78
578.403	29738.36
578.763	29762.99
579.124	29808.64
579.485	30013.6
579.845	30147.16
580.206	30164.33
580.566	30213.82
580.927	30303.31
581.287	30499.92
581.648	30423.54
582.008	30763.87
582.368	30807.93
582.728	30789.4
583.089	30922.28
583.449	30817.88
583.809	31054.25
584.169	31166.57
584.529	30989.17
584.889	31126.57
585.249	31127.7
585.609	31065.55
585.969	31320.91
586.329	31241.37
586.688	31406.34
587.048	31333.12
587.408	31326.56
587.768	31222.61
588.127	31295.38
588.487	31263.74
588.846	31600.68
589.206	31337.18
589.565	31334.7
589.925	31578.76
590.284	31515.26
590.643	31583.05
591.003	31507.12
591.362	31675.93
591.721	31622.15
592.08	31603.39
592.44	31725.2
592.799	31719.77
593.158	31673.22
593.517	31616.73
593.876	31776.72
594.235	31702.37
594.593	31745.54
594.952	31872.54
595.311	31850.17
595.67	31904.4
596.029	32160.21
596.387	32099.42
596.746	32097.39
597.104	31938.75
597.463	32004.06
597.822	32144.85
598.18	31997.73
598.538	32071.18
598.897	32226.2
599.255	32165.19
599.613	32438.17
599.972	32273.43
600.33	32369.25
600.688	32341.68
601.046	32364.5
601.404	32684.72
601.762	32554.1
602.12	32639.3
602.478	32578.51
602.836	32559.98
603.194	32332.64
603.552	32567.43
603.91	32679.07
604.268	32709.8
604.625	32590.71
604.983	32800.87
605.341	32558.62
605.698	32736.24
606.056	33051.49
606.413	32816.47
606.771	33115.44
607.128	32897.82
607.485	32752.97
607.843	32843.13
608.2	33004.03
608.557	33033.41
608.914	33086.74
609.272	33048.1
609.629	33271.82
609.986	33419.16
610.343	33387.53
610.7	33605.83
611.057	33400.41
611.414	33360.18
611.771	33586.16
612.127	33634.53
612.484	33575.77
612.841	33705.94
613.198	33568.54
613.554	33454.42
613.911	33711.36
614.267	33822.09
614.624	33881.52
614.98	34010.79
615.337	34248.29
615.693	33914.74
616.05	34128.75
616.406	34092.82
616.762	34001.75
617.118	34031.35
617.475	34160.16
617.831	34326.48
618.187	34363.77
618.543	34367.84
618.899	34517.67
619.255	34414.62
619.611	34394.73
619.967	34541.85
620.323	34601.05
620.678	34547.72
621.034	34390.89
621.39	34466.14
621.746	34396.77
622.101	34808.05
622.457	34543.2
622.812	34711.11
623.168	34800.37
623.523	34839.92
623.879	34828.84
624.234	34492.13
624.589	34686.25
624.945	34759.02
625.3	34738
625.655	34788.85
626.01	34709.3
626.365	34745.91
626.72	34601.51
627.075	34523.99
627.43	34792.46
627.785	34726.02
628.14	34613.93
628.495	34677.21
628.85	34738.45
629.205	34595.86
629.559	34745.23
629.914	34563.54
630.269	34639.24
630.623	34448.06
630.978	34270.67
631.332	34511.79
631.687	34546.14
632.041	34363.32
632.396	34267.05
632.75	34272.25
633.104	34439.7
633.459	34140.95
633.813	34202.42
634.167	34150.22
634.521	34063.44
634.875	34071.35
635.229	34080.39
635.583	33986.15
635.937	33884.69
636.291	33924.01
636.645	33813.96
636.999	33668.2
637.352	33710.46
637.706	33718.36
638.06	33846.27
638.413	33667.07
638.767	33464.81
639.121	33630.23
639.474	33458.03
639.828	33315.21
640.181	33494.42
640.534	33492.38
640.888	33348.21
641.241	33163.35
641.594	33247.19
641.947	33466.39
642.301	33200.19
642.654	33365.83
643.007	33229.11
643.36	33229.79
643.713	33098.72
644.066	33260.98
644.419	32940.98
644.771	32667.55
645.124	32427.78
645.477	32410.15
645.83	32232.75
646.182	32199.31
646.535	32100.78
646.888	32257.61
647.24	32127.67
647.593	32333.54
647.945	32200.44
648.298	32064.62
648.65	31918.19
649.002	31764.74
649.355	31557.74
649.707	31463.73
650.059	31437.97
650.411	31909.82
650.763	32086.32
651.115	32780.76
651.467	32536.02
651.819	32475.69
652.171	32500.77
652.523	32336.25
652.875	32441.79
653.227	32294.9
653.578	32578.06
653.93	32444.95
654.282	32121.8
654.633	32325.41
654.985	32195.92
655.337	32470.49
655.688	32445.4
656.039	32467.55
656.391	32203.38
656.742	32357.04
657.094	32223.49
657.445	32431.84
657.796	32306.88
658.147	32226.43
658.498	32289.48
658.849	32658.05
659.2	32316.14
659.551	32311.62
659.902	32476.14
660.253	32211.51
660.604	32332.19
660.955	32194.11
661.306	32355.24
661.656	32403.15
662.007	32409.02
662.358	32398.63
662.708	32452.41
663.059	32393.43
663.409	32266.43
663.76	32557.72
664.11	32444.73
664.461	32500.54
664.811	32490.83
665.161	32466.19
665.511	32466.42
665.862	32448.57
666.212	32416.25
666.562	32475.01
666.912	32546.19
667.262	32298.29
667.612	32421.9
667.962	32442.24
668.312	32355.46
668.662	32591.16
669.011	32472.75
669.361	32536.48
669.711	32509.58
670.06	32377.84
670.41	32318.18
670.76	32402.47
671.109	32454.44
671.459	32348.01
671.808	32240.66
672.157	32288.8
672.507	32202.47
672.856	32246.99
673.205	32231.17
673.554	32354.11
673.904	32202.7
674.253	32446.08
674.602	32153.21
674.951	31804.29
675.3	31514.35
675.649	32055.58
675.998	32225.3
676.346	32182.36
676.695	32243.38
677.044	31881.35
677.393	31979.43
677.741	32030.27
678.09	31920.45
678.438	31814.69
678.787	31896.27
679.135	31848.58
679.484	31705.31
679.832	31723.16
680.181	31659.66
680.529	31641.13
680.877	31560.46
681.225	31516.16
681.573	31707.57
681.922	31421.7
682.27	31432.1
682.618	31357.07
682.966	31324.98
683.314	31223.06
683.661	31255.83
684.009	31079.34
684.357	31057.87
684.705	30950.08
685.053	30952.79
685.4	30831.89
685.748	30867.14
686.095	30708.95
686.443	30539.47
686.79	30564.55
687.138	30644.55
687.485	30534.72
687.832	30372.46
688.18	30328.17
688.527	30216.54
688.874	30225.35
689.221	30095.86
689.568	29897.9
689.915	29763.67
690.262	29864.23
690.609	29747.85
690.956	29649.55
691.303	29575.65
691.65	29447.97
691.997	29358.03
692.344	29235.54
692.69	29185.15
693.037	29267.86
693.383	28900.64
693.73	29020.86
694.077	28772.51
694.423	28725.28
694.769	28550.82
695.116	28476.24
695.462	28261.33
695.808	28278.51
696.155	28384.27
696.501	28199.64
696.847	28217.04
697.193	28059.3
697.539	27885.98
697.885	27694.79
698.231	27662.48
698.577	27576.38
698.923	27715.58
699.269	27368.02
699.614	27224.07
699.96	27158.31
700.306	27186.33
700.651	27053
700.997	26867.92
701.342	26837.87
701.688	26754.93
702.033	26635.16
702.379	26687.59
702.724	26368.73
703.069	26538.67
703.415	26209.18
703.76	26072.69
704.105	26211.44
704.45	26033.14
704.795	25977.55
705.14	25838.35
705.485	25803.32
705.83	25742.53
706.175	25752.02
706.52	25551.8
706.865	25420.96
707.209	25387.51
707.554	25351.13
707.899	25300.51
708.243	25139.38
708.588	25139.83
708.932	24926.28
709.277	25009.22
709.621	25015.77
709.966	24854.64
710.31	24780.07
710.654	24620.98
710.998	24693.74
711.342	24784.81
711.687	24574.2
712.031	24512.51
712.375	24357.93
712.719	24515.22
713.063	24481.77
713.407	24485.16
713.75	24339.18
714.094	24264.83
714.438	24202
714.782	24255.34
715.125	23935.12
715.469	24209.69
715.812	23943.25
716.156	23964.72
716.499	23987.55
716.843	24017.38
717.186	23948.9
717.53	23966.98
717.873	24129.46
718.216	23871.17
718.559	23818.96
718.902	23609.03
719.246	23844.05
719.589	23759.76
719.932	23579.65
720.275	23685.41
720.617	23570.38
720.96	23530.38
721.303	23604.96
721.646	23650.83
721.989	23391.18
722.331	23604.96
722.674	23534.45
723.016	23452.42
723.359	23443.15
723.701	23476.6
724.044	23381.69
724.386	23287.9
724.729	23390.95
725.071	23331.97
725.413	23315.93
725.755	23370.61
726.097	23324.29
726.439	23258.75
726.782	23213.78
727.124	23321.8
727.465	23352.99
727.807	23181.69
728.149	23305.53
728.491	23314.12
728.833	23344.4
729.175	23287.45
729.516	23297.4
729.858	23316.83
730.199	23379.88
730.541	23315.7
730.882	23363.83
731.224	23338.07
731.565	23312.99
731.906	23305.31
732.248	23465.75
732.589	23365.19
732.93	23456.94
733.271	23351.63
733.612	23333.1
733.953	23470.72
734.294	23223.27
734.635	23353.21
734.976	23546.2
735.317	23445.19
735.658	23472.31
735.999	23507.56
736.339	23483.15
736.68	23578.07
737.021	23625.97
737.361	23582.59
737.702	23783.03
738.042	23710.27
738.383	23706.88
738.723	23838.17
739.063	23737.61
739.404	23955.68
739.744	23823.26
740.084	23950.26
740.424	23881.11
740.764	24029.81
741.104	24087.88
741.444	24033.42
741.784	24043.59
742.124	24159.97
742.464	24232.51
742.804	24238.84
743.143	24342.11
743.483	24525.61
743.823	24336.46
744.162	24583.24
744.502	24668.66
744.841	24703.46
745.181	24823.91
745.52	24827.53
745.86	24949.33
746.199	25028.88
746.538	25127.18
746.877	25404.23
747.216	25334.86
747.556	25464.34
747.895	25651.23
748.234	25724.9
748.573	25850.78
748.911	25794.96
749.25	25970.09
749.589	26105.23
749.928	26304.55
750.267	26412.79
750.605	26485.11
750.944	26651.66
751.283	26876.51
751.621	27006.45
751.96	26999.67
752.298	27241.7
752.636	27466.55
752.975	27612.08
753.313	27681.91
753.651	27982.24
753.989	27922.81
754.327	28191.05
754.666	28153.77
755.004	28545.62
755.342	28631.27
755.679	28911.26
756.017	28716.01
756.355	29228.99
756.693	29254.98
757.031	29480.74
757.368	29361.19
757.706	29670.79
758.044	29726.83
758.381	29975.64
758.719	30089.08
759.056	30233.48
759.394	30336.31
759.731	30399.13
760.068	30586.24
760.405	30673.47
760.743	30716.41
761.08	31043.18
761.417	31016.29
761.754	31209.28
762.091	31293.8
762.428	31370.86
762.765	31293.57
763.102	31628.48
763.438	31705.76
763.775	31575.37
764.112	31819.43
764.449	32013.1
764.785	31889.03
765.122	31935.81
765.458	32072.98
765.795	32013.32
766.131	32262.36
766.467	32169.93
766.804	32226.88
767.14	32162.7
767.476	32201.34
767.812	32238.18
768.148	32463.71
768.485	32489.92
768.821	32266.43
769.157	32302.13
769.492	32407.89
769.828	32331.96
770.164	32269.59
770.5	32227.56
770.836	32594.33
771.171	32327.89
771.507	32337.84
771.842	32108.46
772.178	32272.98
772.513	32322.02
772.849	32298.52
773.184	32285.63
773.519	32253.77
773.855	32068.01
774.19	32068.46
774.525	32176.03
774.86	32067.11
775.195	32092.19
775.53	32000.9
775.865	32011.07
776.2	31681.13
776.535	31537.86
776.87	31664.86
777.205	31576.05
777.539	31458.54
777.874	31566.56
778.209	31401.82
778.543	31416.96
778.878	31281.37
779.212	31402.04
779.547	30913.24
779.881	31197.3
780.215	30851.77
780.55	30936.07
780.884	30779.69
781.218	30747.6
781.552	30874.37
781.886	30674.83
782.22	30417.66
782.554	30461.73
782.888	30189.19
783.222	30248.63
783.556	30052.7
783.889	29938.8
784.223	29826.49
784.557	29862.42
784.89	29874.62
785.224	29595.31
785.557	29686.61
785.891	29516.44
786.224	29569.32
786.558	29354.86
786.891	29304.24
787.224	29197.81
787.557	29118.94
787.891	29018.15
788.224	29032.39
788.557	28892.05
788.89	28950.35
789.223	28837.14
789.556	28715.11
789.888	28598.5
790.221	28484.38
790.554	28435.34
790.887	28413.65
791.219	28198.96
791.552	28268.56
791.884	27967.56
792.217	28081
792.549	27916.71
792.882	27712.2
793.214	27699.77
793.546	27716.94
793.879	27662.93
794.211	27408.7
794.543	27588.81
794.875	27272.43
795.207	27273.34
795.539	27285.09
795.871	27328.48
796.203	27113.34
796.535	26934.81
796.867	26982.5
797.198	26735.27
797.53	26819.34
797.862	26631.55
798.193	26659.12
798.525	26553.13
798.856	26599.91
799.188	26344.1
799.519	26312.91
799.85	26219.58
800.182	26025.46
800.513	26272.01
800.844	25943.2
801.175	26134.84
801.506	26015.97
801.837	25803.77
802.168	25838.35
802.499	25788.4
802.83	25597.9
803.161	25497.11
803.491	25465.93
803.822	25600.16
804.153	25396.55
804.483	25272.71
804.814	25090.12
805.145	25199.04
805.475	25194.97
805.805	25094.86
806.136	25180.74
806.466	24975.09
806.796	24980.29
807.126	24768.32
807.457	24796.57
807.787	24679.28
808.117	24585.72
808.447	24590.47
808.777	24601.99
809.107	24434.77
809.436	24435.45
809.766	24402.23
810.096	24467.31
810.426	24293.53
810.755	24360.19
811.085	24250.59
811.414	24238.61
811.744	23942.12
812.073	24035.68
812.403	24012.41
812.732	23835.23
813.061	23976.93
813.39	23646.54
813.719	23775.8
814.049	23898.28
814.378	23832.3
814.707	23559.08
815.036	23617.84
815.365	23562.7
815.693	23393.21
816.022	23444.74
816.351	23363.38
816.68	23283.38
817.008	23347.11
817.337	23176.27
817.665	23208.81
817.994	23193.44
818.322	23195.48
818.651	23200.9
818.979	23013.11
819.307	23106.89
819.636	22986.67
819.964	22903.51
820.292	22979.21
820.62	22963.17
820.948	22934.24
821.276	23131.52
821.604	22911.42
821.932	23125.42
822.259	22924.75
822.587	22882.72
822.915	22935.82
823.243	22915.03
823.57	22858.99
823.898	22971.98
824.225	22862.61
824.553	22904.19
824.88	22950.29
825.207	23040.68
825.535	22881.36
825.862	23015.14
826.189	22874.36
826.516	23071.87
826.843	23083.16
827.17	23038.19
827.497	22966.78
827.824	23018.99
828.151	23083.16
828.478	22958.87
828.805	23119.55
829.131	22981.92
829.458	23100.11
829.785	22860.12
830.111	22964.52
830.438	23090.62
830.764	23016.95
831.09	23106.21
831.417	22972.88
831.743	23131.52
832.069	22892.43
832.395	22947.12
832.722	23028.7
833.048	22921.59
833.374	22908.25
833.7	22809.05
834.026	22949.61
834.351	22874.58
834.677	22978.53
835.003	22894.24
835.329	22842.49
835.654	22871.87
835.98	22778.77
836.306	22834.13
836.631	22712.33
836.956	22843.17
837.282	22888.14
837.607	22806.56
837.932	22750.52
838.258	22797.75
838.583	22657.19
838.908	22626.45
839.233	22659.22
839.558	22425.1
839.883	22525.66
840.208	22320.02
840.533	22445.44
840.858	22488.38
841.182	22396.63
841.507	22353.47
841.832	22215.84
842.156	22266.69
842.481	22171.1
842.805	22144.88
843.13	22092.23
843.454	22053.81
843.778	21922.06
844.103	21989.18
844.427	21867.6
844.751	21982.4
845.075	21891.78
845.399	21859.24
845.723	21614.95
846.047	21675.07
846.371	21571.11
846.695	21471.68
847.019	21369.31
847.343	21221.74
847.666	21218.81
847.99	21017.46
848.313	20998.93
848.637	20987.63
848.96	20861.75
849.284	20881.41
849.607	20835.31
849.931	20722.55
850.254	20603.68
850.577	20469.22
850.9	20325.72
851.223	20403.91
851.546	20184.71
851.869	20237.36
852.192	20250.47
852.515	20076.01
852.838	19864.72
853.161	19935
853.483	19791.73
853.806	19757.15
854.129	19657.49
854.451	19662.69
854.774	19501.11
855.096	19504.73
855.419	19374.34
855.741	19455.46
856.063	19260.67
856.385	19209.82
856.708	19203.04
857.03	19131.63
857.352	19055.93
857.674	19158.75
857.996	18894.35
858.318	18809.83
858.64	18877.85
858.961	18801.92
859.283	18768.93
859.605	18606.67
859.926	18754.01
860.248	18678.76
860.57	18555.83
860.891	18611.87
861.212	18454.59
861.534	18435.38
861.855	18344.08
862.176	18441.93
862.498	18386.34
862.819	18417.07
863.14	18204.65
863.461	18290.52
863.782	18066.57
864.103	18112.22
864.424	18064.31
864.745	18144.99
865.065	18061.83
865.386	17939.12
865.707	17884.88
866.027	17949.06
866.348	17944.54
866.668	17906.8
866.989	17854.83
867.309	17754.72
867.63	17769.18
867.95	17798.56
868.27	17663.19
868.59	17704.1
868.91	17655.28
869.23	17602.18
869.55	17561.28
869.87	17665.68
870.19	17496.87
870.51	17598.11
870.83	17568.06
871.15	17427.95
871.469	17431.56
871.789	17477.21
872.109	17567.15
872.428	17335.97
872.748	17459.58
873.067	17352.92
873.386	17333.71
873.706	17374.16
874.025	17269.76
874.344	17124.45
874.663	17342.07
874.982	17213.71
875.301	17267.05
875.62	17128.52
875.939	16979.82
876.258	17099.14
876.577	16972.59
876.896	17053.94
877.214	17042.65
877.533	17011.69
877.852	16989.31
878.17	16932.59
878.489	16897.79
878.807	16905.7
879.125	16872.25
879.444	16880.16
879.762	16735.31
880.08	16898.02
880.398	16764.23
880.716	16771.92
881.034	16590.68
881.352	16644.46
881.67	16556.78
881.988	16622.32
882.306	16490.57
882.624	16528.53
882.941	16394.75
883.259	16365.37
883.577	16429.78
883.894	16286.96
884.212	16379.16
884.529	16248.77
884.846	16256.68
885.164	16186.4
885.481	16144.14
885.798	16103.01
886.115	16097.81
886.432	16089.9
886.75	16010.36
887.067	15994.09
887.383	15952.28
887.7	15905.95
888.017	15843.58
888.334	15818.72
888.651	15695.79
888.967	15790.25
889.284	15665.73
889.6	15560.88
889.917	15623.25
890.233	15573.76
890.55	15466.87
890.866	15493.08
891.182	15456.47
891.498	15399.52
891.815	15245.63
892.131	15268.91
892.447	15323.59
892.763	15178.74
893.079	15088.8
893.395	15142.58
893.71	15123.15
894.026	15067.78
894.342	14966.09
894.657	14898.52
894.973	14987.56
895.289	14836.83
895.604	14776.49
895.92	14764.74
896.235	14675.02
896.55	14612.2
896.865	14537.63
897.181	14461.7
897.496	14631.41
897.811	14406.33
898.126	14395.71
898.441	14437.97
898.756	14378.53
899.071	14208.82
899.386	14234.58
899.7	14080.01
900.015	14100.58
900.33	13936.51
900.644	13950.75
900.959	13954.14
901.273	13955.95
901.588	13872.11
901.902	13803.18
902.216	13733.81
902.531	13663.3
902.845	13697.65
903.159	13552.57
903.473	13484.55
903.787	13450.65
904.101	13388.05
904.415	13393.25
904.729	13350.76
905.042	13324.32
905.356	13227.6
905.67	13206.14
905.984	13177.66
906.297	13063.54
906.611	13019.02
906.924	13021.28
907.237	12988.29
907.551	12958.68
907.864	12814.51
908.177	12794.17
908.491	12773.83
908.804	12740.84
909.117	12664.23
909.43	12540.16
909.743	12541.75
910.056	12565.47
910.368	12448.19
910.681	12403.45
910.994	12374.29
911.307	12256.78
911.619	12132.94
911.932	12155.99
912.244	12107.41
912.557	12066.5
912.869	12007.07
913.181	11970.24
913.494	11982.89
913.806	11902.89
914.118	11825.83
914.43	11829.9
914.742	11759.39
915.054	11606.63
915.366	11657.02
915.678	11535.9
915.99	11549.68
916.302	11447.76
916.613	11449.35
916.925	11427.65
917.236	11415.45
917.548	11219.07
917.859	11313.98
918.171	11190.37
918.482	11111.73
918.794	11191.95
919.105	11029.02
919.416	11045.97
919.727	10997.38
920.038	10927.78
920.349	10861.11
920.66	10863.15
920.971	10823.83
921.282	10730.72
921.593	10714
921.903	10508.58
922.214	10576.6
922.525	10494.79
922.835	10536.15
923.146	10465.19
923.456	10475.36
923.767	10415.02
924.077	10359.66
924.387	10379.54
924.697	10267.46
925.008	10207.57
925.318	10205.54
925.628	10156.95
925.938	10137.97
926.248	10047.35
926.558	10007.12
926.867	9955.83
927.177	9939.1
927.487	9916.96
927.796	9850.52
928.106	9855.26
928.416	9763.74
928.725	9703.4
929.034	9650.3
929.344	9718.54
929.653	9631.31
929.962	9558.32
930.271	9559.45
930.581	9452.34
930.89	9417.31
931.199	9407.14
931.508	9373.02
931.817	9338.21
932.125	9270.19
932.434	9288.05
932.743	9189.29
933.051	9092.57
933.36	9090.54
933.669	9058.22
933.977	9035.4
934.286	8930.99
934.594	9006.25
934.902	8911.11
935.21	8895.06
935.519	8816.19
935.827	8801.73
936.135	8730.55
936.443	8654.84
936.751	8686.03
937.059	8694.39
937.367	8610.78
937.674	8591.34
937.982	8618.91
938.29	8504.34
938.597	8459.37
938.905	8382.99
939.213	8423.66
939.52	8355.64
939.827	8422.31
940.135	8305.25
940.442	8223.89
940.749	8206.95
941.056	8232.48
941.363	8117.68
941.67	8082.43
941.977	8077.68
942.284	8021.19
942.591	8016.44
942.898	7980.74
943.205	8034.07
943.511	7904.81
943.818	7847.41
944.125	7797.92
944.431	7710.24
944.738	7722.21
945.044	7709.33
945.35	7672.5
945.657	7666.62
945.963	7596.34
946.269	7567.41
946.575	7554.08
946.881	7534.65
947.187	7449.9
947.493	7425.95
947.799	7394.99
948.105	7385.05
948.41	7369.45
948.716	7367.19
949.022	7266.86
949.327	7270.7
949.633	7197.71
949.938	7195.45
950.244	7194.32
950.549	7125.62
950.854	7135.33
951.16	7060.31
951.465	7046.52
951.77	7017.15
952.075	6990.71
952.38	7004.49
952.685	6952.97
952.99	6936.92
953.294	6841.78
953.599	6811.73
953.904	6788
954.209	6787.32
954.513	6753.2
954.818	6715.01
955.122	6717.94
955.426	6696.93
955.731	6616.93
956.035	6620.09
956.339	6602.69
956.643	6554.79
956.948	6476.14
957.252	6477.27
957.556	6460.32
957.86	6420.33
958.163	6404.73
958.467	6373.77
958.771	6382.13
959.075	6275.02
959.378	6224.4
959.682	6284.96
959.985	6225.75
960.289	6178.07
960.592	6174.91
960.896	6155.02
961.199	6132.88
961.502	6103.95
961.805	6091.75
962.108	6028.92
962.411	6016.04
962.714	5968.36
963.017	5938.53
963.32	5948.93
963.623	5887.91
963.926	5939.43
964.228	5856.05
964.531	5811.08
964.833	5826.44
965.136	5769.5
965.438	5736.5
965.741	5687.46
966.043	5690.4
966.345	5714.13
966.648	5597.52
966.95	5683.17
967.252	5567.92
967.554	5558.43
967.856	5552.78
968.158	5543.29
968.46	5529.73
968.761	5480.46
969.063	5430.97
969.365	5410.86
969.666	5426.68
969.968	5360.92
970.269	5312.33
970.571	5352.56
970.872	5359.11
971.174	5260.81
971.475	5291.54
971.776	5217.65
972.077	5226.01
972.378	5159.34
972.679	5205.22
972.98	5162.51
973.281	5151.88
973.582	5113.92
973.883	5109.63
974.183	5057.65
974.484	5020.59
974.785	5003.87
975.085	4966.35
975.386	4970.65
975.686	4914.83
975.986	4925.9
976.287	4906.02
976.587	4872.57
976.887	4851.78
977.187	4824.66
977.487	4834.15
977.787	4785.79
978.087	4701.73
978.387	4674.16
978.687	4752.8
978.987	4690.65
979.286	4670.77
979.586	4626.47
979.885	4619.24
980.185	4660.6
980.484	4568.4
980.784	4556.42
981.083	4524.33
981.382	4568.4
981.682	4523.65
981.981	4507.61
982.28	4490.21
982.579	4417.67
982.878	4464.9
983.177	4396.88
983.475	4391.68
983.774	4334.28
984.073	4375.86
984.372	4315.3
984.67	4280.04
984.969	4303.09
985.267	4291.34
985.566	4250.44
985.864	4191.68
986.162	4216.09
986.461	4185.13
986.759	4183.1
987.057	4108.97
987.355	4118.24
987.653	4118.47
987.951	4054.96
988.249	4057.9
988.547	4018.81
988.844	4017.45
989.142	4034.4
989.44	4001.41
989.737	3968.86
990.035	3961.18
990.332	3919.83
990.63	3929.54
990.927	3920.28
991.224	3880.96
991.521	3897.68
991.819	3839.38
992.116	3808.87
992.413	3831.47
992.71	3815.65
993.006	3755.99
993.303	3753.05
993.6	3760.73
993.897	3732.26
994.193	3714.18
994.49	3662.88
994.787	3657.01
995.083	3656.1
995.379	3592.6
995.676	3635.54
995.972	3611.36
996.268	3612.26
996.565	3556.9
996.861	3538.59
997.157	3482.32
997.453	3473.06
997.749	3479.16
998.044	3455.43
998.34	3442.1
998.636	3440.97
998.932	3470.35
999.227	3371.37
999.523	3397.35
999.818	3318.49
1000.114	3299.96
1000.409	3299.05
1000.704	3323.68
1001	3281.88
1001.295	3251.14
1001.59	3284.59
1001.885	3219.96
1002.18	3191.48
1002.475	3187.19
1002.77	3176.12
1003.065	3132.95
1003.359	3129.34
1003.654	3110.13
1003.949	3132.28
1004.243	3076.68
1004.538	3030.13
1004.832	3064.93
1005.127	3029.68
1005.421	3030.81
1005.715	3018.83
1006.009	2968.66
1006.304	2931.83
1006.598	2943.13
1006.892	2905.84
1007.186	2877.37
1007.48	2909.68
1007.773	2867.2
1008.067	2860.19
1008.361	2840.08
1008.655	2825.62
1008.948	2792.85
1009.242	2777.71
1009.535	2782.91
1009.829	2746.07
1010.122	2734.77
1010.415	2757.6
1010.708	2706.07
1011.001	2697.26
1011.295	2698.16
1011.588	2666.53
1011.881	2608
1012.173	2634.89
1012.466	2574.32
1012.759	2615.91
1013.052	2581.78
1013.344	2540.88
1013.637	2549.69
1013.93	2537.72
1014.222	2514.44
1014.514	2502.91
1014.807	2474.89
1015.099	2429.24
1015.391	2450.03
1015.683	2439.64
1015.976	2424.5
1016.268	2414.1
1016.56	2383.6
1016.851	2363.26
1017.143	2374.33
1017.435	2343.82
1017.727	2300.66
1018.018	2309.7
1018.31	2300.21
1018.602	2256.14
1018.893	2254.79
1019.185	2234.22
1019.476	2203.49
1019.767	2226.76
1020.058	2182.24
1020.35	2197.61
1020.641	2195.35
1020.932	2143.38
1021.223	2144.05
1021.514	2126.2
1021.804	2088.91
1022.095	2083.94
1022.386	2074.68
1022.677	2107.22
1022.967	2067.22
1023.258	2021.35
1023.548	2022.02
1023.839	2023.38
1024.129	1997.84
1024.419	1986.32
1024.709	1945.87
1025	1946.77
1025.29	1921.46
1025.58	1908.58
1025.87	1884.4
1026.16	1895.47
1026.449	1901.8
1026.739	1855.25
1027.029	1851.86
1027.319	1839.43
1027.608	1850.05
1027.898	1857.96
1028.187	1831.52
1028.477	1811.86
1028.766	1808.7
1029.055	1780.45
1029.344	1741.8
1029.634	1733.67
1029.923	1724.4
1030.212	1722.37
1030.501	1722.37
1030.79	1706.1
1031.078	1668.36
1031.367	1679.89
1031.656	1644.86
1031.945	1672.88
1032.233	1651.86
1032.522	1607.8
1032.81	1621.13
1033.099	1628.14
1033.387	1609.15
1033.675	1582.71
1033.963	1575.71
1034.251	1553.56
1034.54	1536.39
1034.828	1537.74
1035.116	1518.99
1035.403	1508.59
1035.691	1496.39
1035.979	1498.65
1036.267	1485.99
1036.554	1515.37
1036.842	1425.43
1037.129	1466.33
1037.417	1426.56
1037.704	1409.61
1037.992	1429.27
1038.279	1405.09
1038.566	1384.3
1038.853	1384.3
1039.14	1384.3
