Data from 19-3921_FLMS001491_006.txt Node
Date: Thu Apr 19 16:42:05 BST 2018
User: hsy
Spectrometer: FLMS00149
Trigger mode: 0
Integration Time (sec): 1.000000E-2
Scans to average: 10
Electric dark correction enabled: true
Nonlinearity correction enabled: false
Boxcar width: 0
XAxis mode: Wavelengths
Number of Pixels in Spectrum: 2048
>>>>>Begin Spectral Data<<<<<
341.393	-26.82
341.776	-26.82
342.16	-26.82
342.543	-97.33
342.927	-61.62
343.31	-70.21
343.693	-85.8
344.077	-47.84
344.46	-75.41
344.843	-54.62
345.226	-49.87
345.61	-30.89
345.993	-20.95
346.376	3.69
346.759	-1.29
347.142	21.31
347.525	55.66
347.908	76.68
348.291	84.36
348.674	85.27
349.057	109.9
349.44	142.44
349.823	149.9
350.206	160.97
350.588	202.55
350.971	240.74
351.354	243
351.737	252.49
352.119	278.48
352.502	293.85
352.884	313.73
353.267	321.64
353.65	297.01
354.032	324.58
354.414	337.69
354.797	340.4
355.179	342.21
355.562	345.37
355.944	345.15
356.326	356.22
356.709	365.26
357.091	364.35
357.473	367.97
357.855	359.38
358.238	364.58
358.62	377.69
359.002	362.32
359.384	388.99
359.766	366.16
360.148	362.55
360.53	380.63
360.912	386.95
361.294	367.07
361.676	354.86
362.057	356.9
362.439	367.29
362.821	351.25
363.203	374.98
363.584	360.06
363.966	354.64
364.348	372.04
364.729	370.91
365.111	347.41
365.493	378.82
365.874	369.55
366.256	327.07
366.637	352.15
367.019	358.03
367.4	384.69
367.781	357.35
368.163	382.43
368.544	328.65
368.925	368.42
369.306	364.58
369.688	377.69
370.069	371.81
370.45	363.45
370.831	353.51
371.212	356.9
371.593	367.29
371.974	364.58
372.355	354.41
372.736	367.97
373.117	395.77
373.498	378.59
373.879	360.97
374.26	363.22
374.641	364.58
375.021	379.04
375.402	367.07
375.783	370.68
376.163	394.18
376.544	398.03
376.925	397.57
377.305	413.17
377.686	404.13
378.066	400.51
378.447	409.55
378.827	402.32
379.208	386.95
379.588	386.73
379.968	399.16
380.349	428.53
380.729	386.95
381.109	417.69
381.489	407.07
381.87	397.8
382.25	425.37
382.63	421.98
383.01	439.16
383.39	421.53
383.77	430.34
384.15	426.27
384.53	411.36
384.91	433.05
385.29	442.54
385.67	444.13
386.049	456.1
386.429	456.56
386.809	446.39
387.189	464.92
387.568	457.23
387.948	457.01
388.328	471.24
388.707	481.19
389.087	480.51
389.466	485.71
389.846	501.3
390.225	489.78
390.605	478.93
390.984	506.5
391.363	486.39
391.743	518.48
392.122	504.46
392.501	506.72
392.881	527.97
393.26	526.38
393.639	518.25
394.018	516.67
394.397	517.35
394.776	531.36
395.155	534.52
395.534	532.94
395.913	535.65
396.292	540.17
396.671	549.89
397.05	549.89
397.429	556.21
397.808	567.06
398.186	567.29
398.565	570.9
398.944	567.51
399.323	565.03
399.701	592.15
400.08	576.78
400.458	612.94
400.837	594.63
401.215	587.85
401.594	594.41
401.972	584.01
402.351	610.9
402.729	597.34
403.107	610.9
403.486	612.03
403.864	659.49
404.242	612.03
404.62	645.48
404.999	663.56
405.377	634.63
405.755	654.97
406.133	679.15
406.511	679.37
406.889	668.98
407.267	685.93
407.645	690.9
408.023	689.54
408.401	686.15
408.779	699.94
409.156	716.89
409.534	700.17
409.912	729.77
410.29	772.48
410.667	747.85
411.045	779.26
411.422	768.41
411.8	788.3
412.178	763.44
412.555	780.16
412.933	812.93
413.31	817.9
413.687	823.78
414.065	814.29
414.442	829.88
414.819	859.03
415.197	852.7
415.574	858.58
415.951	880.05
416.328	861.97
416.705	874.62
417.082	889.76
417.46	902.65
417.837	903.32
418.214	917.79
418.591	932.25
418.967	904.45
419.344	916.66
419.721	934.06
420.098	959.14
420.475	968.41
420.852	956.2
421.228	965.47
421.605	968.63
421.982	1019.7
422.358	1019.93
422.735	1030.55
423.111	971.12
423.488	1025.35
423.864	1021.51
424.241	1028.29
424.617	1073.04
424.994	1045.92
425.37	1074.39
425.746	1054.28
426.123	1084.79
426.499	1104
426.875	1106.93
427.251	1151.23
427.627	1149.87
428.003	1162.75
428.379	1157.33
428.756	1199.59
429.132	1210.66
429.507	1228.29
429.883	1203.2
430.259	1270.09
430.635	1278.23
431.011	1270.32
431.387	1311.22
431.763	1289.75
432.138	1311
432.514	1319.81
432.89	1338.34
433.265	1358
433.641	1378.79
434.016	1413.82
434.392	1420.37
434.767	1442.74
435.143	1462.63
435.518	1434.38
435.894	1483.87
436.269	1511.44
436.644	1529.07
437.02	1512.57
437.395	1525.23
437.77	1584.89
438.145	1570.88
438.52	1573.81
438.895	1628.5
439.271	1619.46
439.646	1641.84
440.021	1643.87
440.395	1661.72
440.77	1637.77
441.145	1650.65
441.52	1689.74
441.895	1711.21
442.27	1715.51
442.645	1720.03
443.019	1712.57
443.394	1720.93
443.769	1748.5
444.143	1729.52
444.518	1772.45
444.892	1745.56
445.267	1809.29
445.641	1792.11
446.016	1832.34
446.39	1837.54
446.764	1837.31
447.139	1839.57
447.513	1847.25
447.887	1842.28
448.262	1892.68
448.636	1863.98
449.01	1918.89
449.384	1908.95
449.758	1916.18
450.132	1966.12
450.506	1938.55
450.88	1973.58
451.254	1968.15
451.628	2035.95
452.002	2020.58
452.376	2022.16
452.75	2064.42
453.123	2111.2
453.497	2102.16
453.871	2132.9
454.244	2155.27
454.618	2166.34
454.992	2231.65
455.365	2267.36
455.739	2250.41
456.112	2258.32
456.486	2330.4
456.859	2309.39
457.232	2396.39
457.606	2413.34
457.979	2441.14
458.352	2438.88
458.725	2471.87
459.099	2487.91
459.472	2530.63
459.845	2553.22
460.218	2584.18
460.591	2574.47
460.964	2574.24
461.337	2645.88
461.71	2710.73
462.083	2725.87
462.456	2741.69
462.829	2750.05
463.201	2800.9
463.574	2788.47
463.947	2835.93
464.32	2874.35
464.692	2886.77
465.065	2908.02
465.438	2974
465.81	2993.44
466.183	3039.54
466.555	3054.68
466.928	3103.72
467.3	3103.72
467.672	3129.71
468.045	3192.98
468.417	3179.42
468.789	3222.36
469.161	3284.5
469.534	3286.31
469.906	3387.1
470.278	3441.34
470.65	3427.1
471.022	3460.54
471.394	3527.89
471.766	3565.17
472.138	3634.1
472.51	3681.78
472.882	3699.86
473.253	3755.9
473.625	3809.69
473.997	3832.06
474.369	3887.65
474.74	3962.45
475.112	4023.24
475.484	4095.1
475.855	4099.17
476.227	4128.32
476.598	4234.99
476.97	4320.18
477.341	4356.57
477.713	4436.56
478.084	4466.85
478.455	4567.86
478.827	4624.13
479.198	4773.73
479.569	4726.27
479.94	4853.73
480.311	4914.52
480.682	4990.22
481.053	5092.59
481.424	5175.53
481.795	5201.06
482.166	5261.85
482.537	5320.61
482.908	5450.55
483.279	5546.37
483.65	5622.75
484.021	5726.93
484.391	5802.86
484.762	5840.37
485.133	5879.92
485.503	5975.28
485.874	6092.79
486.244	6151.32
486.615	6229.96
486.985	6348.6
487.356	6444.87
487.726	6426.12
488.097	6645.09
488.467	6681.02
488.837	6805.54
489.207	6874.01
489.578	6996.04
489.948	7103.16
490.318	7155.59
490.688	7189.71
491.058	7267.9
491.428	7355.81
491.798	7475.58
492.168	7578.18
492.538	7688
492.908	7728.68
493.278	7843.03
493.648	7857.04
494.017	8052.74
494.387	8022.46
494.757	8090.25
495.126	8180.42
495.496	8163.47
495.866	8325.95
496.235	8377.93
496.605	8440.53
496.974	8518.72
497.344	8563.91
497.713	8595.32
498.082	8652.95
498.452	8736.34
498.821	8783.57
499.19	8859.5
499.559	8913.06
499.928	8946.73
500.298	8997.8
500.667	9125.03
501.036	9124.58
501.405	9190.11
501.774	9172.03
502.143	9369.09
502.512	9414.74
502.88	9454.06
503.249	9438.01
503.618	9531.8
503.987	9551.91
504.356	9623.55
504.724	9667.84
505.093	9745.35
505.462	9793.26
505.83	9795.97
506.199	9901.05
506.567	10064.89
506.936	10047.72
507.304	10246.81
507.672	10148.28
508.041	10206.13
508.409	10267.6
508.777	10346.24
509.145	10464.43
509.514	10507.82
509.882	10589.85
510.25	10559.12
510.618	10719.11
510.986	10722.27
511.354	10788.04
511.722	10887.24
512.09	11042.49
512.458	11043.4
512.826	11095.15
513.193	11117.29
513.561	11219.66
513.929	11380.11
514.297	11413.1
514.664	11558.41
515.032	11584.62
515.4	11615.81
515.767	11694.23
516.135	11821.23
516.502	11755.47
516.869	12028.91
517.237	12031.84
517.604	12016.03
517.972	12249.01
518.339	12254.66
518.706	12380.76
519.073	12474.54
519.44	12496.92
519.808	12722.22
520.175	12771.26
520.542	12909.79
520.909	12981.2
521.276	13080.86
521.643	13163.79
522.009	13260.29
522.376	13426.61
522.743	13510.68
523.11	13679.71
523.477	13755.64
523.843	13874.51
524.21	14025.01
524.577	14072.69
524.943	14340.48
525.31	14299.58
525.676	14489.63
526.043	14608.27
526.409	14704.54
526.776	14901.15
527.142	14944.54
527.508	15076.06
527.874	15234.47
528.241	15309.05
528.607	15427.46
528.973	15547.46
529.339	15691.64
529.705	15890.5
530.071	16005.98
530.437	16117.39
530.803	16177.27
531.169	16266.99
531.535	16430.6
531.901	16477.6
532.267	16469.47
532.632	16655.45
532.998	16757.82
533.364	16862.45
533.73	16865.62
534.095	17115.55
534.461	17180.86
534.826	17243.46
535.192	17359.84
535.557	17491.81
535.923	17559.83
536.288	17601.87
536.653	17699.49
537.019	17784.46
537.384	17862.65
537.749	17906.49
538.114	17974.74
538.479	17996.66
538.845	18054.74
539.21	18165.92
539.575	18249.31
539.94	18407.27
540.305	18389.87
540.67	18397.78
541.034	18488.4
541.399	18499.02
541.764	18545.8
542.129	18737.66
542.494	18823.53
542.858	18720.71
543.223	18807.26
543.587	18887.94
543.952	18863.53
544.316	19028.27
544.681	19083.41
545.045	19353.46
545.41	19269.39
545.774	19342.16
546.138	19400.92
546.503	19437.75
546.867	19519.33
547.231	19634.58
547.595	19705.54
547.959	19688.82
548.324	19798.87
548.688	19890.62
549.052	19995.03
549.416	19964.29
549.779	19965.65
550.143	20024.85
550.507	20201.8
550.871	20313.89
551.235	20302.59
551.599	20555.01
551.962	20517.27
552.326	20671.84
552.689	20720.88
553.053	20646.53
553.417	20766.08
553.78	20960.42
554.143	21047.88
554.507	20996.58
554.87	21230.02
555.234	21282
555.597	21325.16
555.96	21516.57
556.323	21522.22
556.686	21531.26
557.05	21762.66
557.413	21904.35
557.776	21873.17
558.139	22094.63
558.502	22083.56
558.865	22294.17
559.228	22387.28
559.59	22523.77
559.953	22566.93
560.316	22901.39
560.679	22954.27
561.041	23055.51
561.404	23231.55
561.767	23450.98
562.129	23343.41
562.492	23661.6
562.854	23726.45
563.217	23807.58
563.579	24013.22
563.941	24248.7
564.304	24389.49
564.666	24725.97
565.028	24786.31
565.39	24952.63
565.753	25164.15
566.115	25279.41
566.477	25509
566.839	25772.5
567.201	26055.43
567.563	26084.13
567.925	26370.9
568.287	26480.28
568.648	26634.85
569.01	26974.05
569.372	27222.41
569.734	27228.96
570.095	27634.37
570.457	27966.34
570.819	27887.25
571.18	28196.62
571.542	28564.52
571.903	28587.79
572.265	28871.18
572.626	29160.21
572.987	29247.21
573.349	29560.2
573.71	29786.41
574.071	29932.16
574.432	30290.12
574.794	30527.4
575.155	30650.34
575.516	30717.91
575.877	31084.68
576.238	31075.19
576.599	31435.18
576.96	31533.25
577.32	31595.85
577.681	31797.65
578.042	32075.84
578.403	32032.45
578.763	32157.87
579.124	32360.58
579.485	32637.86
579.845	32836.95
580.206	32726.89
580.566	32791.3
580.927	32812.09
581.287	33052.76
581.648	33064.06
582.008	33260.66
582.368	33321.91
582.728	33408.91
583.089	33442.58
583.449	33402.58
583.809	33650.03
584.169	33616.14
584.529	33462.92
584.889	33870.37
585.249	33593.54
585.609	33564.16
585.969	33753.31
586.329	33588.11
586.688	33754.89
587.048	33824.49
587.408	33700.88
587.768	33748.34
588.127	33680.54
588.487	33629.02
588.846	33990.36
589.206	33655.46
589.565	33746.98
589.925	34032.17
590.284	33826.53
590.643	33786.53
591.003	33738.84
591.362	34032.62
591.721	33816.58
592.08	33811.84
592.44	33977.03
592.799	33789.46
593.158	33928.44
593.517	33772.52
593.876	33744.95
594.235	33812.29
594.593	33900.87
594.952	33847.32
595.311	33779.07
595.67	33952.17
596.029	34018.61
596.387	33950.59
596.746	34095.9
597.104	33844.15
597.463	33902.23
597.822	34038.95
598.18	33907.43
598.538	33861.33
598.897	34101.09
599.255	33887.77
599.613	34226.52
599.972	34036.69
600.33	34028.78
600.688	33924.83
601.046	33980.87
601.404	34135.67
601.762	34121.21
602.12	34154.43
602.478	34152.17
602.836	34161.43
603.194	34089.12
603.552	34169.12
603.91	34182.45
604.268	34279.85
604.625	34049.12
604.983	34408.43
605.341	33971.83
605.698	34299.06
606.056	34455.89
606.413	34187.65
606.771	34337.7
607.128	34350.35
607.485	34252.96
607.843	34259.51
608.2	34319.39
608.557	34508.54
608.914	34352.16
609.272	34558.71
609.629	34646.39
609.986	34678.71
610.343	34725.49
610.7	34885.26
611.057	34818.14
611.414	34678.48
611.771	34783.79
612.127	34887.97
612.484	34974.07
612.841	35041.18
613.198	34885.93
613.554	34865.37
613.911	35058.36
614.267	34982.65
614.624	35050.45
614.98	35105.14
615.337	35355.98
615.693	35226.04
616.05	35244.34
616.406	35339.71
616.762	35155.98
617.118	35256.09
617.475	35262.19
617.831	35460.38
618.187	35320.05
618.543	35502.87
618.899	35510.55
619.255	35652.24
619.611	35429.2
619.967	35677.78
620.323	35742.18
620.678	35540.38
621.034	35623.99
621.39	35526.82
621.746	35575.86
622.101	35918
622.457	35583.77
622.812	35745.12
623.168	35728.62
623.523	35659.25
623.879	35937.88
624.234	35777.89
624.589	35806.36
624.945	35772.46
625.3	35798.9
625.655	35766.81
626.01	35802.97
626.365	35758.23
626.72	35726.36
627.075	35655.86
627.43	35764.78
627.785	35722.3
628.14	35700.6
628.495	35764.33
628.85	35781.95
629.205	35663.77
629.559	35671.45
629.914	35466.71
630.269	35653.14
630.623	35384
630.978	35239.6
631.332	35573.6
631.687	35503.77
632.041	35386.48
632.396	35344.68
632.75	35326.37
633.104	35299.03
633.459	35088.87
633.813	35073.5
634.167	35002.77
634.521	35090.67
634.875	35100.16
635.229	34791.92
635.583	34753.28
635.937	34791.25
636.291	34757.35
636.645	34742.43
636.999	34673.96
637.352	34866.95
637.706	34463.35
638.06	34697.01
638.413	34601.42
638.767	34475.55
639.121	34559.39
639.474	34367.75
639.828	34238.04
640.181	34321.43
640.534	34406.4
640.888	34177.7
641.241	34098.84
641.594	33991.04
641.947	34136.12
642.301	34045.5
642.654	34069.46
643.007	33977.48
643.36	34005.5
643.713	34035.79
644.066	34134.77
644.419	33762.57
644.771	33340.66
645.124	33176.15
645.477	33205.53
645.83	33128.92
646.182	33080.78
646.535	32980.67
646.888	33194.23
647.24	32944.97
647.593	33091.18
647.945	32907.68
648.298	32904.97
648.65	32547.01
649.002	32325.1
649.355	32240.35
649.707	32039.23
650.059	32076.29
650.411	32540.23
650.763	32736.16
651.115	33477.16
651.467	33219.54
651.819	33188.12
652.171	33174.34
652.523	33010.95
652.875	33219.31
653.227	32929.83
653.578	33289.14
653.93	33160.55
654.282	32933.44
654.633	32968.24
654.985	32983.16
655.337	33008.92
655.688	33028.58
656.039	33055.47
656.391	32736.16
656.742	32770.96
657.094	32845.31
657.445	32777.06
657.796	32885.08
658.147	32796.5
658.498	32862.26
658.849	32828.59
659.2	32757.85
659.551	32780.9
659.902	32954.46
660.253	32678.53
660.604	32854.12
660.955	32717.63
661.306	32848.02
661.656	32821.13
662.007	32923.72
662.358	32836.04
662.708	32896.83
663.059	32778.64
663.409	32557.86
663.76	32913.33
664.11	32751.75
664.461	32826.1
664.811	32843.73
665.161	32733.22
665.511	32672.66
665.862	32766.44
666.212	32840.79
666.562	32706.78
666.912	32720.57
667.262	32638.53
667.612	32716.95
667.962	32695.26
668.312	32689.61
668.662	32884.4
669.011	32856.38
669.361	32656.16
669.711	32681.47
670.06	32427.24
670.41	32633.34
670.76	32692.77
671.109	32703.39
671.459	32635.14
671.808	32674.92
672.157	32688.02
672.507	32466.79
672.856	32524.64
673.205	32576.39
673.554	32558.99
673.904	32493.45
674.253	32757.18
674.602	32614.35
674.951	32117.64
675.3	31885.79
675.649	32633.11
675.998	32525.09
676.346	32457.07
676.695	32550.18
677.044	32183.41
677.393	32287.81
677.741	32463.85
678.09	32303.85
678.438	32329.84
678.787	32307.24
679.135	32216.4
679.484	32022.28
679.832	32071.77
680.181	31964.88
680.529	32108.6
680.877	31913.13
681.225	31938.44
681.573	32078.55
681.922	31797.43
682.27	31777.31
682.618	31838.78
682.966	31671.78
683.314	31708.16
683.661	31690.08
684.009	31635.62
684.357	31385.46
684.705	31445.8
685.053	31426.59
685.4	31333.71
685.748	31192.47
686.095	31145.69
686.443	31036.99
686.79	30919.03
687.138	31079.03
687.485	31088.74
687.832	30731.92
688.18	30959.93
688.527	30723.1
688.874	30744.12
689.221	30606.72
689.568	30498.93
689.915	30295.77
690.262	30368.54
690.609	30348.43
690.956	30086.29
691.303	30204.25
691.65	30036.12
691.997	29850.36
692.344	29831.15
692.69	29695.11
693.037	29717.71
693.383	29538.28
693.73	29579.41
694.077	29383.7
694.423	29329.69
694.769	29214.67
695.116	29207.44
695.462	29028.69
695.808	28928.12
696.155	29056.71
696.501	28850.16
696.847	28858.97
697.193	28531.07
697.539	28479.55
697.885	28265.77
698.231	28314.58
698.577	28120.46
698.923	28312.09
699.269	28043.85
699.614	27837.76
699.96	27737.65
700.306	27720.92
700.651	27632.79
700.997	27562.06
701.342	27423.3
701.688	27391.21
702.033	27403.64
702.379	27407.03
702.724	27144.44
703.069	27182.41
703.415	26857.9
703.76	26878.01
704.105	26894.96
704.45	26809.99
704.795	26558.24
705.14	26518.47
705.485	26595.08
705.83	26330.9
706.175	26505.14
706.52	26374.07
706.865	26317.8
707.209	26109.67
707.554	26106.73
707.899	25993.51
708.243	25956.9
708.588	25870.58
708.932	25720.52
709.277	25770.24
709.621	25620.19
709.966	25459.97
710.31	25501.1
710.654	25292.06
710.998	25348.78
711.342	25356.69
711.687	25268.78
712.031	25271.5
712.375	25116.7
712.719	25044.16
713.063	25127.09
713.407	25162.12
713.75	25017.27
714.094	24996.7
714.438	24866.99
714.782	24782.47
715.125	24753.32
715.469	24930.49
715.812	24675.81
716.156	24589.71
716.499	24588.12
716.843	24660.44
717.186	24456.6
717.53	24664.28
717.873	24613.66
718.216	24525.3
718.559	24379.32
718.902	24221.35
719.246	24414.8
719.589	24314.23
719.932	24190.4
720.275	24265.42
720.617	24388.13
720.96	24218.64
721.303	24179.77
721.646	24176.61
721.989	24097.74
722.331	24102.49
722.674	23938.42
723.016	23984.07
723.359	23950.4
723.701	24071.53
724.044	23941.59
724.386	23845.09
724.729	23843.06
725.071	23829.5
725.413	23760.35
725.755	23813
726.097	23766.68
726.439	23591.09
726.782	23801.03
727.124	23842.38
727.465	23782.5
727.807	23638.77
728.149	23606.68
728.491	23571.43
728.833	23665.89
729.175	23657.53
729.516	23575.04
729.858	23558.1
730.199	23616.85
730.541	23646.45
730.882	23592.67
731.224	23529.85
731.565	23486.68
731.906	23475.84
732.248	23582.28
732.589	23525.55
732.93	23463.86
733.271	23594.03
733.612	23516.06
733.953	23603.97
734.294	23564.65
734.635	23461.6
734.976	23499.11
735.317	23530.53
735.658	23507.25
735.999	23461.83
736.339	23507.02
736.68	23603.97
737.021	23660.69
737.361	23539.79
737.702	23686.45
738.042	23550.86
738.383	23681.71
738.723	23652.78
739.063	23735.04
739.404	23650.97
739.744	23608.26
740.084	23563.97
740.424	23791.54
740.764	23641.71
741.104	23916.5
741.444	23750.63
741.784	23603.29
742.124	23735.94
742.464	23814.36
742.804	23794.25
743.143	23861.82
743.483	23904.98
743.823	23839.22
744.162	24027.69
744.502	24025.43
744.841	23978.2
745.181	24142.71
745.52	24093.22
745.86	24216.16
746.199	24123.73
746.538	24267.91
746.877	24432.2
747.216	24345.65
747.556	24264.29
747.895	24335.02
748.234	24403.72
748.573	24556.04
748.911	24469.94
749.25	24721.91
749.589	24617.73
749.928	24757.61
750.267	24879.42
750.605	24850.94
750.944	24986.08
751.283	24927.32
751.621	25105.63
751.96	24992.86
752.298	25083.7
752.636	25233.76
752.975	25229.92
753.313	25190.37
753.651	25563.47
753.989	25317.82
754.327	25483.02
754.666	25459.06
755.004	25643.01
755.342	25614.99
755.679	25810.47
756.017	25790.13
756.355	25985.38
756.693	25918.71
757.031	26012.95
757.368	26013.85
757.706	26148.08
758.044	26042.55
758.381	26109.21
758.719	26242.32
759.056	26287.74
759.394	26183.56
759.731	26081.87
760.068	26307.18
760.405	26355.08
760.743	26302.43
761.08	26423.33
761.417	26417
761.754	26434.18
762.091	26467.85
762.428	26554.85
762.765	26376.55
763.102	26455.42
763.438	26593.27
763.775	26269.66
764.112	26540.39
764.449	26578.58
764.785	26374.74
765.122	26447.28
765.458	26284.58
765.795	26446.15
766.131	26461.75
766.467	26447.28
766.804	26241.19
767.14	26373.39
767.476	26348.98
767.812	26221.3
768.148	26344.01
768.485	26227.86
768.821	26136.56
769.157	26151.7
769.492	26108.31
769.828	26114.86
770.164	25968.2
770.5	25782.44
770.836	25871.25
771.171	25834.42
771.507	25768.66
771.842	25646.4
772.178	25647.76
772.513	25564.37
772.849	25459.74
773.184	25492.96
773.519	25456.35
773.855	25274.66
774.19	25355.34
774.525	25134.32
774.86	25278.5
775.195	25157.6
775.53	24955.57
775.865	24814.56
776.2	24822.92
776.535	24682.81
776.87	24682.36
777.205	24610.72
777.539	24400.56
777.874	24658.18
778.209	24330.05
778.543	24397.4
778.878	24283.73
779.212	24321.24
779.547	24057.97
779.881	24157.85
780.215	24010.06
780.55	24004.86
780.884	23818.88
781.218	23769.39
781.552	23886.9
781.886	23652.33
782.22	23552.9
782.554	23429.51
782.888	23268.16
783.222	23267.71
783.556	23184.55
783.889	23052.57
784.223	22996.98
784.557	22956.76
784.89	23018.22
785.224	22859.13
785.557	22604
785.891	22672.24
786.224	22659.36
786.558	22738.46
786.891	22393.38
787.224	22334.85
787.557	22248.53
787.891	22279.26
788.224	22104.12
788.557	22129.21
788.89	22009.66
789.223	21954.3
789.556	21856.9
789.888	21821.19
790.221	21705.49
790.554	21633.63
790.887	21642.21
791.219	21502.1
791.552	21400.86
791.884	21391.82
792.217	21281.09
792.549	21253.98
792.882	21175.11
793.214	21040.42
793.546	21107.99
793.879	20832.07
794.211	20763.59
794.543	20850.37
794.875	20836.36
795.207	20733.08
795.539	20621.9
795.871	20759.98
796.203	20554.11
796.535	20345.75
796.867	20361.57
797.198	20285.41
797.53	20312.3
797.862	20152.54
798.193	20126.32
798.525	20122.71
798.856	20090.16
799.188	19896.72
799.519	19836.61
799.85	19743.05
800.182	19878.42
800.513	19779.89
800.844	19502.61
801.175	19593
801.506	19649.27
801.837	19528.37
802.168	19449.5
802.499	19461.25
802.83	19303.97
803.161	19345.32
803.491	19279.34
803.822	19361.14
804.153	19084.31
804.483	18992.11
804.814	18904.66
805.145	18968.61
805.475	18844.09
805.805	18853.36
806.136	18834.6
806.466	18769.97
806.796	18741.95
807.126	18549.41
807.457	18557.77
807.787	18649.07
808.117	18516.87
808.447	18411.34
808.777	18538.57
809.107	18394.84
809.436	18280.27
809.766	18311.23
810.096	18289.76
810.426	18128.86
810.755	18181.74
811.085	18116.2
811.414	18134.28
811.744	18080.05
812.073	17982.65
812.403	17946.94
812.732	17848.64
813.061	17887.06
813.39	17793.95
813.719	17694.29
814.049	17852.71
814.378	17687.06
814.707	17516.9
815.036	17688.65
815.365	17526.16
815.693	17440.74
816.022	17472.15
816.351	17342.67
816.68	17221.54
817.008	17390.57
817.337	17208.21
817.665	17162.33
817.994	17196.45
818.322	17266.74
818.651	17160.98
818.979	17058.38
819.307	17106.97
819.636	17100.19
819.964	17085.5
820.292	17103.8
820.62	17008.89
820.948	17063.12
821.276	17117.13
821.604	17053.18
821.932	17140.86
822.259	16931.38
822.587	16976.57
822.915	16962.34
823.243	17045.27
823.57	16909.68
823.898	16992.39
824.225	16960.98
824.553	16971.38
824.88	17008.21
825.207	17023.8
825.535	16889.57
825.862	17019.96
826.189	16937.48
826.516	17039.17
826.843	16999.85
827.17	17160.98
827.497	17112.62
827.824	17060.64
828.151	17130.47
828.478	17013.86
828.805	17161.88
829.131	17112.16
829.458	17046.63
829.785	16948.33
830.111	17028.1
830.438	17163.24
830.764	17116.68
831.09	17063.58
831.417	16957.82
831.743	17100.64
832.069	17060.64
832.395	17052.96
832.722	17104.03
833.048	16969.79
833.374	17015.44
833.7	16900.19
834.026	17065.38
834.351	16967.31
834.677	16902.23
835.003	16975.9
835.329	16973.64
835.654	16885.5
835.98	16869.91
836.306	16938.38
836.631	16874.2
836.956	16959.62
837.282	16967.53
837.607	16852.28
837.932	16844.83
838.258	16742.23
838.583	16796.01
838.908	16671.72
839.233	16765.73
839.558	16641.44
839.883	16567.32
840.208	16558.51
840.533	16542.69
840.858	16621.33
841.182	16575
841.507	16594.44
841.832	16505.4
842.156	16431.5
842.481	16409.81
842.805	16342.01
843.13	16329.58
843.454	16298.17
843.778	16338.85
844.103	16222.47
844.427	16172.75
844.751	16187.22
845.075	16251.62
845.399	16101.79
845.723	16053.89
846.047	16055.47
846.371	15935.24
846.695	15807.79
847.019	15815.02
847.343	15671.07
847.666	15692.31
847.99	15524.18
848.313	15538.19
848.637	15582.49
848.96	15496.16
849.284	15500.68
849.607	15273.34
849.931	15355.6
850.254	15251.2
850.577	15167.36
850.9	15078.77
851.223	15068.37
851.546	15092.56
851.869	14854.82
852.192	14946.57
852.515	14751.55
852.838	14787.7
853.161	14776.86
853.483	14624.77
853.806	14663.64
854.129	14562.17
854.451	14456.64
854.774	14423.65
855.096	14405.57
855.419	14345.23
855.741	14313.59
856.063	14271.11
856.385	14234.95
856.708	14209.64
857.03	14107.04
857.352	14137.78
857.674	14078.8
857.996	14008.29
858.318	13857.33
858.64	14045.35
858.961	13902.53
859.283	13918.8
859.605	13736.21
859.926	13756.55
860.248	13779.14
860.57	13696.43
860.891	13589.32
861.212	13627.51
861.534	13576.89
861.855	13486.5
862.176	13587.96
862.498	13564.01
862.819	13514.29
863.14	13511.58
863.461	13382.54
863.782	13374.86
864.103	13390.23
864.424	13367.18
864.745	13341.64
865.065	13295.99
865.386	13215.99
865.707	13176
866.027	13174.64
866.348	13282.66
866.668	13210.8
866.989	13190.01
867.309	13037.69
867.63	13066.17
867.95	13114.98
868.27	13067.3
868.59	13062.33
868.91	13047.41
869.23	13026.62
869.55	12994.98
869.87	13008.99
870.19	12974.42
870.51	12964.7
870.83	12933.97
871.15	12849.9
871.469	12852.39
871.789	12876.57
872.109	12929.45
872.428	12872.5
872.748	12835.89
873.067	12796.12
873.386	12792.95
873.706	12807.64
874.025	12648.55
874.344	12710.92
874.663	12742.11
874.982	12634.99
875.301	12627.54
875.62	12655.56
875.939	12576.01
876.258	12609.23
876.577	12493.53
876.896	12507.99
877.214	12451.27
877.533	12504.37
877.852	12425.73
878.17	12460.76
878.489	12402.46
878.807	12338.96
879.125	12404.94
879.444	12361.33
879.762	12392.29
880.08	12387.77
880.398	12199.75
880.716	12301.67
881.034	12228
881.352	12326.07
881.67	12234.1
881.988	12211.5
882.306	12142.58
882.624	12188.68
882.941	12093.31
883.259	12035.46
883.577	12081.56
883.894	11989.81
884.212	11978.06
884.529	12020.32
884.846	11897.38
885.164	11872.07
885.481	11906.2
885.798	11891.51
886.115	11869.59
886.432	11805.64
886.75	11813.32
887.067	11801.57
887.383	11688.35
887.7	11674.34
888.017	11587.56
888.334	11716.37
888.651	11675.24
888.967	11619.65
889.284	11617.62
889.6	11447.45
889.917	11468.7
890.233	11428.7
890.55	11384.86
890.866	11516.38
891.182	11488.36
891.498	11384.18
891.815	11259.89
892.131	11293.33
892.447	11225.09
892.763	11192.32
893.079	11171.75
893.395	11158.2
893.71	11105.09
894.026	11111.64
894.342	11036.62
894.657	11011.31
894.973	11006.79
895.289	10921.14
895.604	10923.4
895.92	10823.06
896.235	10828.71
896.55	10869.16
896.865	10819.45
897.181	10733.12
897.496	10775.38
897.811	10709.85
898.126	10649.06
898.441	10635.27
898.756	10628.04
899.071	10542.17
899.386	10588.04
899.7	10496.97
900.015	10442.06
900.33	10367.03
900.644	10373.36
900.959	10318.22
901.273	10302.85
901.588	10245.22
901.902	10237.77
902.216	10156.64
902.531	10096.53
902.845	10118.22
903.159	9954.16
903.473	10022.18
903.787	9945.35
904.101	9912.13
904.415	9926.59
904.729	9855.18
905.042	9849.98
905.356	9795.29
905.67	9748.29
905.984	9755.75
906.297	9754.84
906.611	9712.58
906.924	9657.22
907.237	9609.08
907.551	9555.53
907.864	9489.31
908.177	9560.72
908.491	9522.98
908.804	9393.04
909.117	9314.63
909.43	9296.78
909.743	9307.85
910.056	9310.79
910.368	9222.88
910.681	9207.51
910.994	9189.66
911.307	9102.66
911.619	9042.54
911.932	9081.87
912.244	9045.26
912.557	9001.42
912.869	8914.64
913.181	8926.84
913.494	8896.79
913.806	8818.14
914.118	8874.41
914.43	8741.54
914.742	8744.7
915.054	8709.67
915.366	8659.05
915.678	8607.53
915.99	8590.13
916.302	8483.01
916.613	8482.56
916.925	8501.99
917.236	8466.74
917.548	8413.63
917.859	8403.24
918.171	8375.67
918.482	8299.74
918.794	8276.46
919.105	8260.42
919.416	8142.46
919.727	8160.53
920.038	8145.62
920.349	8079.86
920.66	8121.44
920.971	8053.42
921.282	8003.02
921.593	7946.98
921.903	7903.14
922.214	7826.76
922.525	7887.32
922.835	7791.05
923.146	7776.59
923.456	7729.13
923.767	7638.06
924.077	7743.82
924.387	7713.77
924.697	7611.62
925.008	7539.31
925.318	7537.27
925.628	7542.02
925.938	7575.24
926.248	7420.21
926.558	7418.63
926.867	7383.61
927.177	7442.59
927.487	7413.66
927.796	7344.28
928.106	7305.42
928.416	7262.03
928.725	7246.89
929.034	7209.15
929.344	7204.63
929.653	7185.19
929.962	7102.93
930.271	7016.61
930.581	7075.14
930.89	7016.84
931.199	6993.56
931.508	6977.06
931.817	7024.07
932.125	6936.39
932.434	6922.15
932.743	6777.29
933.051	6793.79
933.36	6787.01
933.669	6731.87
933.977	6750.18
934.286	6696.62
934.594	6671.31
934.902	6660.23
935.21	6588.37
935.519	6622.72
935.827	6655.49
936.135	6533.46
936.443	6474.93
936.751	6433.12
937.059	6448.49
937.367	6432.44
937.674	6456.4
937.982	6423.18
938.29	6406.46
938.597	6337.31
938.905	6277.87
939.213	6276.52
939.52	6248.72
939.827	6221.83
940.135	6235.61
940.442	6177.99
940.749	6173.47
941.056	6158.33
941.363	6027.71
941.67	6083.75
941.977	6047.82
942.284	6011.21
942.591	5975.51
942.898	6032
943.205	5981.16
943.511	5941.38
943.818	5933.7
944.125	5861.84
944.431	5852.12
944.738	5826.58
945.044	5787.94
945.35	5740.03
945.657	5744.55
945.963	5758.11
946.269	5705.01
946.575	5675.18
946.881	5671.33
947.187	5669.07
947.493	5615.52
947.799	5561.28
948.105	5568.74
948.41	5590.88
948.716	5531.68
949.022	5508.63
949.327	5470.21
949.633	5408.06
949.938	5465.24
950.244	5413.71
950.549	5398.8
950.854	5362.42
951.16	5378.46
951.465	5337.56
951.77	5279.03
952.075	5253.49
952.38	5244.68
952.685	5258.01
952.99	5207.62
953.294	5209.88
953.599	5139.14
953.904	5133.49
954.209	5045.14
954.513	5082.42
954.818	5039.26
955.122	5032.25
955.426	5053.95
955.731	5033.84
956.035	4958.81
956.339	4924.69
956.643	4956.55
956.948	4890.56
957.252	4894.86
957.556	4875.42
957.86	4844.91
958.163	4847.4
958.467	4791.36
958.771	4813.5
959.075	4779.61
959.378	4736.22
959.682	4767.4
959.985	4715.65
960.289	4660.51
960.592	4693.51
960.896	4684.24
961.199	4626.84
961.502	4602.44
961.805	4557.69
962.108	4566.96
962.411	4528.99
962.714	4509.78
963.017	4518.6
963.32	4479.27
963.623	4533.06
963.926	4476.56
964.228	4411.71
964.531	4404.7
964.833	4404.25
965.136	4370.35
965.438	4338.94
965.741	4331.93
966.043	4277.25
966.345	4325.61
966.648	4278.38
966.95	4313.63
967.252	4224.14
967.554	4205.16
967.856	4212.39
968.158	4201.54
968.46	4130.81
968.761	4168.1
969.063	4185.72
969.365	4101.88
969.666	4098.27
969.968	4065.27
970.269	4086.74
970.571	4053.07
970.872	4016.69
971.174	4070.25
971.475	4011.94
971.776	3972.85
972.077	3988.67
972.378	3981.66
972.679	3959.97
972.98	3927.65
973.281	3915.9
973.582	3892.85
973.883	3883.36
974.183	3866.86
974.484	3841.55
974.785	3840.2
975.085	3847.2
975.386	3810.37
975.686	3788.22
975.986	3775.56
976.287	3737.37
976.587	3724.27
976.887	3722.91
977.187	3712.29
977.487	3670.03
977.787	3650.14
978.087	3671.61
978.387	3623.7
978.687	3627.09
978.987	3623.7
979.286	3550.26
979.586	3558.62
979.885	3535.34
980.185	3580.99
980.484	3489.92
980.784	3517.27
981.083	3471.62
981.382	3483.37
981.682	3478.4
981.981	3471.39
982.28	3468.23
982.579	3441.34
982.878	3422.35
983.177	3392.07
983.475	3372.64
983.774	3347.78
984.073	3319.98
984.372	3329.47
984.67	3302.81
984.969	3284.05
985.267	3299.64
985.566	3245.86
985.864	3199.53
986.162	3274.11
986.461	3200.44
986.759	3209.7
987.057	3181.68
987.355	3168.57
987.653	3127.45
987.951	3149.82
988.249	3122.02
988.547	3114.11
988.844	3105.07
989.142	3109.82
989.44	3065.3
989.737	3072.08
990.035	3004.51
990.332	3028.92
990.63	3003.38
990.927	2987.11
991.224	2950.5
991.521	2960.44
991.819	2956.15
992.116	2953.44
992.413	2928.13
992.71	2922.48
993.006	2899.43
993.303	2906.66
993.6	2902.59
993.897	2897.62
994.193	2867.11
994.49	2839.77
994.787	2808.81
995.083	2811.3
995.379	2784.86
995.676	2784.4
995.972	2805.19
996.268	2783.05
996.565	2751.41
996.861	2704.63
997.157	2735.59
997.453	2677.06
997.749	2691.07
998.044	2654.69
998.34	2662.15
998.636	2618.31
998.932	2591.64
999.227	2594.8
999.523	2621.47
999.818	2601.58
1000.114	2547.57
1000.409	2541.7
1000.704	2529.72
1001	2542.15
1001.295	2530.63
1001.59	2493.56
1001.885	2484.98
1002.18	2485.65
1002.475	2435.71
1002.77	2442.72
1003.065	2429.61
1003.359	2436.16
1003.654	2395.71
1003.949	2435.26
1004.243	2403.85
1004.538	2392.1
1004.832	2388.93
1005.127	2335.15
1005.421	2337.18
1005.715	2322.5
1006.009	2318.43
1006.304	2317.52
1006.598	2264.42
1006.892	2296.06
1007.186	2254.25
1007.48	2260.58
1007.773	2240.46
1008.067	2243.4
1008.361	2194.36
1008.655	2196.62
1008.948	2189.62
1009.242	2183.06
1009.535	2148.04
1009.829	2176.06
1010.122	2091.99
1010.415	2090.86
1010.708	2074.59
1011.001	2082.95
1011.295	2094.48
1011.588	2081.6
1011.881	2059.23
1012.173	2046.34
1012.466	2027.81
1012.759	2041.15
1013.052	2028.04
1013.344	2000.02
1013.637	2000.24
1013.93	1986.91
1014.222	1971.77
1014.514	1925.67
1014.807	1921.83
1015.099	1948.72
1015.391	1908.04
1015.683	1889.06
1015.976	1901.04
1016.268	1902.62
1016.56	1874.37
1016.851	1855.39
1017.143	1807.93
1017.435	1840.25
1017.727	1810.87
1018.018	1785.79
1018.31	1826.01
1018.602	1802.51
1018.893	1755.28
1019.185	1778.33
1019.476	1755.96
1019.767	1746.47
1020.058	1742.85
1020.35	1708.27
1020.641	1711.21
1020.932	1701.95
1021.223	1710.53
1021.514	1688.84
1021.804	1656.3
1022.095	1647.48
1022.386	1635.28
1022.677	1627.37
1022.967	1634.83
1023.258	1622.4
1023.548	1611.78
1023.839	1644.77
1024.129	1602.29
1024.419	1582.18
1024.709	1603.64
1025	1540.37
1025.29	1550.76
1025.58	1544.44
1025.87	1532.91
1026.16	1505.12
1026.449	1548.96
1026.739	1484.78
1027.029	1495.85
1027.319	1452.69
1027.608	1469.64
1027.898	1446.81
1028.187	1424.44
1028.477	1437.77
1028.766	1448.62
1029.055	1434.38
1029.344	1431.67
1029.634	1402.52
1029.923	1385.34
1030.212	1378.79
1030.501	1378.11
1030.79	1337.89
1031.078	1336.76
1031.367	1324.1
1031.656	1319.36
1031.945	1329.08
1032.233	1332.92
1032.522	1302.41
1032.81	1274.84
1033.099	1290.88
1033.387	1299.92
1033.675	1259.47
1033.963	1268.74
1034.251	1278.68
1034.54	1267.83
1034.828	1236.65
1035.116	1200.27
1035.403	1257.21
1035.691	1210.89
1035.979	1214.73
1036.267	1212.24
1036.554	1229.19
1036.842	1174.05
1037.129	1179.47
1037.417	1170.89
1037.704	1192.36
1037.992	1159.59
1038.279	1161.85
1038.566	1125.92
1038.853	1125.92
1039.14	1125.92
