Data from 19-3935_FLMS001491_009.txt Node
Date: Thu Apr 19 16:40:22 BST 2018
User: hsy
Spectrometer: FLMS00149
Trigger mode: 0
Integration Time (sec): 1.000000E-2
Scans to average: 10
Electric dark correction enabled: true
Nonlinearity correction enabled: false
Boxcar width: 0
XAxis mode: Wavelengths
Number of Pixels in Spectrum: 2048
>>>>>Begin Spectral Data<<<<<
341.393	-25.49
341.776	-25.49
342.16	-25.49
342.543	-62.33
342.927	-58.04
343.31	-70.01
343.693	-85.83
344.077	-69.56
344.46	-68.43
344.843	-54.65
345.226	-41.54
345.61	-16.45
345.993	-25.49
346.376	-12.61
346.759	16.99
347.142	31.45
347.525	47.27
347.908	68.97
348.291	84.79
348.674	92.02
349.057	103.09
349.44	130.66
349.823	121.4
350.206	157.78
350.588	238.23
350.971	237.1
351.354	253.82
351.737	259.47
352.119	265.35
352.502	299.47
352.884	283.65
353.267	314.16
353.65	336.76
354.032	334.04
354.414	333.37
354.797	331.79
355.179	350.32
355.562	363.87
355.944	357.32
356.326	395.06
356.709	382.41
357.091	360.71
357.473	364.55
357.855	377.21
358.238	360.26
358.62	350.32
359.002	386.02
359.384	380.15
359.766	352.35
360.148	376.08
360.53	393.03
360.912	348.06
361.294	346.93
361.676	383.31
362.057	347.83
362.439	338.34
362.821	365
363.203	377.43
363.584	360.26
363.966	374.5
364.348	368.17
364.729	375.63
365.111	358.9
365.493	324.78
365.874	366.81
366.256	355.51
366.637	363.42
367.019	355.51
367.4	349.64
367.781	353.03
368.163	352.35
368.544	351.22
368.925	353.25
369.306	353.71
369.688	353.25
370.069	357.32
370.45	359.58
370.831	343.54
371.212	369.52
371.593	346.47
371.974	335.63
372.355	358.9
372.736	379.92
373.117	363.87
373.498	371.33
373.879	357.55
374.26	367.72
374.641	360.03
375.021	360.94
375.402	387.38
375.783	379.69
376.163	399.13
376.544	379.24
376.925	399.35
377.305	382.63
377.686	398.68
378.066	407.04
378.447	394.61
378.827	384.67
379.208	426.02
379.588	410.43
379.968	419.01
380.349	423.76
380.729	394.38
381.109	428.51
381.489	396.64
381.87	430.54
382.25	408.39
382.63	430.99
383.01	418.11
383.39	437.77
383.77	405.68
384.15	410.2
384.53	436.42
384.91	437.09
385.29	427.83
385.67	426.47
386.049	451.56
386.429	428.96
386.809	443.65
387.189	465.57
387.568	463.76
387.948	450.2
388.328	439.8
388.707	447.04
389.087	465.34
389.466	489.52
389.846	496.3
390.225	478.67
390.605	503.76
390.984	474.15
391.363	460.37
391.743	496.3
392.122	491.78
392.501	495.62
392.881	496.3
393.26	511.44
393.639	511.22
394.018	505.79
394.397	504.44
394.776	523.64
395.155	522.06
395.534	537.88
395.913	525.68
396.292	540.82
396.671	532.91
397.05	528.84
397.429	532.23
397.808	562.74
398.186	547.82
398.565	539.92
398.944	557.99
399.323	587.15
399.701	553.93
400.08	583.3
400.458	575.39
400.837	581.27
401.215	588.5
401.594	573.36
401.972	587.82
402.351	585.79
402.729	598.67
403.107	626.24
403.486	632.79
403.864	624.66
404.242	628.05
404.62	618.56
404.999	626.47
405.377	614.26
405.755	638.67
406.133	660.36
406.511	673.02
406.889	658.1
407.267	675.05
407.645	674.37
408.023	694.26
408.401	705.11
408.779	709.18
409.156	712.11
409.534	708.5
409.912	720.7
410.29	756.41
410.667	733.13
411.045	757.99
411.422	778.78
411.8	763.41
412.178	788.04
412.555	785.11
412.933	815.16
413.31	807.7
413.687	825.11
414.065	825.11
414.442	832.56
414.819	835.73
415.197	860.13
415.574	855.39
415.951	865.1
416.328	857.87
416.705	872.11
417.082	860.13
417.46	897.42
417.837	908.27
418.214	936.74
418.591	919.79
418.967	923.18
419.344	938.55
419.721	939.45
420.098	954.14
420.475	957.53
420.852	950.07
421.228	960.24
421.605	976.51
421.982	975.61
422.358	1007.47
422.735	1027.36
423.111	993.24
423.488	985.1
423.864	1019
424.241	1031.88
424.617	1089.28
424.994	1054.48
425.37	1081.14
425.746	1069.62
426.123	1062.16
426.499	1133.8
426.875	1141.48
427.251	1148.03
427.627	1164.31
428.003	1170.41
428.379	1185.77
428.756	1195.49
429.132	1208.82
429.507	1243.17
429.883	1208.6
430.259	1259.44
430.635	1263.51
431.011	1281.14
431.387	1299.9
431.763	1301.48
432.138	1313.68
432.514	1339.89
432.89	1327.69
433.265	1371.98
433.641	1390.74
434.016	1416.28
434.392	1446.78
434.767	1437.52
435.143	1477.52
435.518	1482.94
435.894	1478.65
436.269	1504.18
436.644	1520.23
437.02	1538.98
437.395	1535.37
437.77	1609.49
438.145	1609.94
438.52	1610.85
438.895	1625.31
439.271	1637.74
439.646	1635.48
440.021	1702.6
440.395	1661.02
440.77	1684.74
441.145	1676.38
441.52	1694.46
441.895	1730.84
442.27	1724.74
442.645	1724.52
443.019	1746.21
443.394	1753.89
443.769	1786.66
444.143	1750.5
444.518	1798.41
444.892	1800
445.267	1784.18
445.641	1812.88
446.016	1833.89
446.39	1867.11
446.764	1846.77
447.139	1844.06
447.513	1879.54
447.887	1895.81
448.262	1909.6
448.636	1925.64
449.01	1929.03
449.384	1950.27
449.758	1941.23
450.132	1975.13
450.506	1976.94
450.88	2026.88
451.254	1996.37
451.628	2014.68
452.002	2040.44
452.376	2073.89
452.75	2097.84
453.123	2121.34
453.497	2133.09
453.871	2156.82
454.244	2176.26
454.618	2200.44
454.992	2237.27
455.365	2246.09
455.739	2323.37
456.112	2322.02
456.486	2338.51
456.859	2357.95
457.232	2406.98
457.606	2396.36
457.979	2449.47
458.352	2467.77
458.725	2540.09
459.099	2535.79
459.472	2555.46
459.845	2592.29
460.218	2644.94
460.591	2635.23
460.964	2647.2
461.337	2714.55
461.71	2782.34
462.083	2808.33
462.456	2770.37
462.829	2831.15
463.201	2876.8
463.574	2819.18
463.947	2895.79
464.32	2927.65
464.692	2953.86
465.065	2980.53
465.438	3011.94
465.81	3063.01
466.183	3064.14
466.555	3096.68
466.928	3156.12
467.3	3098.27
467.672	3170.58
468.045	3256.68
468.417	3264.36
468.789	3281.99
469.161	3324.47
469.534	3348.2
469.906	3381.42
470.278	3474.98
470.65	3485.37
471.022	3547.07
471.394	3548.65
471.766	3603.56
472.138	3651.02
472.51	3729.44
472.882	3746.84
473.253	3794.97
473.625	3790
473.997	3874.97
474.369	3938.47
474.74	3965.81
475.112	4015.76
475.484	4046.72
475.855	4133.49
476.227	4166.94
476.598	4290.78
476.97	4321.96
477.341	4400.83
477.713	4521.73
478.084	4456.87
478.455	4568.96
478.827	4582.29
479.198	4776.19
479.569	4719.92
479.94	4876.52
480.311	4909.29
480.682	5038.55
481.053	5095.05
481.424	5159
481.795	5188.15
482.166	5314.48
482.537	5331.65
482.908	5523.51
483.279	5564.87
483.65	5667.01
484.021	5739.55
484.391	5836.95
484.762	5870.62
485.133	5934.8
485.503	5994.69
485.874	6132.31
486.244	6213.44
486.615	6318.07
486.985	6376.37
487.356	6441.68
487.726	6521.45
488.097	6695.91
488.467	6734.55
488.837	6878.96
489.207	6873.76
489.578	6995.34
489.948	7118.95
490.318	7177.03
490.688	7190.81
491.058	7355.33
491.428	7430.36
491.798	7470.13
492.168	7584.93
492.538	7715.09
492.908	7798.93
493.278	7850.68
493.648	7820.85
494.017	8020.17
494.387	8090
494.757	8100.85
495.126	8234.4
495.496	8271.46
495.866	8341.07
496.235	8398.47
496.605	8457.22
496.974	8521.4
497.344	8637.33
497.713	8713.49
498.082	8628.97
498.452	8790.32
498.821	8899.02
499.19	8914.16
499.559	8977.66
499.928	9021.73
500.298	9110.76
500.667	9125.23
501.036	9131.33
501.405	9235.96
501.774	9224.21
502.143	9285.45
502.512	9384.88
502.88	9454.48
503.249	9489.06
503.618	9571.09
503.987	9604.99
504.356	9615.61
504.724	9678.43
505.093	9696.96
505.462	9734.25
505.83	9750.75
506.199	9870.52
506.567	9962.94
506.936	10003.17
507.304	10053.11
507.672	10115.71
508.041	10209.27
508.409	10259.66
508.777	10380.56
509.145	10353.44
509.514	10429.6
509.882	10441.8
510.25	10583.72
510.618	10587.56
510.986	10592.08
511.354	10672.98
511.722	10796.14
512.09	10872.07
512.458	10778.52
512.826	10999.75
513.193	11081.11
513.561	11127.21
513.929	11145.96
514.297	11295.56
514.664	11333.53
515.032	11416.47
515.4	11500.3
515.767	11566.29
516.135	11590.7
516.502	11594.77
516.869	11815.78
517.237	11869.11
517.604	11788.66
517.972	12046.05
518.339	12134.19
518.706	12040.63
519.073	12168.08
519.44	12256.22
519.808	12456.89
520.175	12366.95
520.542	12608.75
520.909	12602.42
521.276	12709.99
521.643	12853.72
522.009	12895.75
522.376	12976.2
522.743	13090.09
523.11	13269.52
523.477	13406.24
523.843	13395.85
524.21	13634.71
524.577	13749.29
524.943	13842.39
525.31	13876.29
525.676	14021.37
526.043	14087.13
526.409	14255.26
526.776	14422.49
527.142	14468.81
527.508	14574.12
527.874	14765.3
528.241	14823.61
528.607	14812.31
528.973	15106.09
529.339	15074.45
529.705	15329.36
530.071	15333.42
530.437	15408.9
530.803	15524.15
531.169	15653.87
531.535	15691.16
531.901	15787.42
532.267	15767.31
532.632	15986.06
532.998	16050.24
533.364	16199.16
533.73	16182.67
534.095	16364.58
534.461	16368.2
534.826	16548.99
535.192	16617.68
535.557	16646.16
535.923	16736.1
536.288	16847.96
536.653	16921.18
537.019	16877.79
537.384	17030.56
537.749	17141.74
538.114	17045.02
538.479	17173.38
538.845	17155.75
539.21	17233.94
539.575	17364.78
539.94	17346.7
540.305	17527.27
540.67	17458.79
541.034	17551.45
541.399	17678
541.764	17706.7
542.129	17675.28
542.494	17818.78
542.858	17870.98
543.223	17814.26
543.587	17955.73
543.952	17927.25
544.316	17999.34
544.681	18019.23
545.045	18136.29
545.41	18254.03
545.774	18106.68
546.138	18283.4
546.503	18192.11
546.867	18381.48
547.231	18501.7
547.595	18509.16
547.959	18525.43
548.324	18576.28
548.688	18638.65
549.052	18735.37
549.416	18696.27
549.779	18735.59
550.143	18789.15
550.507	18858.53
550.871	18975.59
551.235	19025.76
551.599	19069.37
551.962	19103.49
552.326	19239.99
552.689	19356.6
553.053	19251.29
553.417	19397.72
553.78	19583.48
554.143	19645.4
554.507	19602.24
554.87	19653.76
555.234	19871.61
555.597	19783.7
555.96	19921.1
556.323	20069.12
556.686	20090.59
557.05	20196.35
557.413	20218.04
557.776	20387.98
558.139	20549.56
558.502	20624.13
558.865	20685.15
559.228	20786.61
559.59	20825.48
559.953	20829.33
560.316	21185.47
560.679	21152.71
561.041	21395.64
561.404	21473.38
561.767	21727.83
562.129	21594.95
562.492	21842.41
562.854	21881.27
563.217	22032.68
563.579	22200.81
563.941	22356.74
564.304	22552.22
564.666	22723.96
565.028	22765.09
565.39	23044.18
565.753	23206.21
566.115	23341.58
566.477	23486.66
566.839	23681.45
567.201	24108.56
567.563	23996.93
567.925	24148.11
568.287	24372.06
568.648	24570.7
569.01	24784.48
569.372	25064.69
569.734	25224.46
570.095	25405.93
570.457	25690.89
570.819	25868.97
571.18	26014.95
571.542	26289.52
571.903	26532.23
572.265	26664.43
572.626	26730.86
572.987	26924.31
573.349	27228.03
573.71	27391.41
574.071	27662.82
574.432	27917.5
574.794	28241.79
575.155	28349.58
575.516	28372.18
575.877	28692.85
576.238	28765.84
576.599	28945.04
576.96	29108.43
577.32	29291.7
577.681	29388.42
578.042	29681.97
578.403	29797
578.763	29839.71
579.124	29931.23
579.485	30164
579.845	30361.5
580.206	30275.4
580.566	30476.3
580.927	30384.1
581.287	30659.12
581.648	30638.11
582.008	30783.87
582.368	30971.66
582.728	30925.56
583.089	30982.05
583.449	31003.52
583.809	31149.51
584.169	31220.01
584.529	31076.06
584.889	31297.07
585.249	31217.53
585.609	31083.52
585.969	31378.2
586.329	31269.28
586.688	31374.81
587.048	31386.11
587.408	31478.08
587.768	31406.9
588.127	31368.48
588.487	31478.99
588.846	31577.52
589.206	31314.02
589.565	31305.43
589.925	31695.25
590.284	31500.01
590.643	31463.17
591.003	31425.88
591.362	31615.26
591.721	31682.15
592.08	31552.89
592.44	31706.1
592.799	31719.66
593.158	31742.71
593.517	31683.5
593.876	31730.51
594.235	31720.11
594.593	31874.23
594.952	31787.91
595.311	31753.78
595.67	31841.92
596.029	32064.28
596.387	32002.36
596.746	32179.76
597.104	32117.84
597.463	31975.7
597.822	32175.69
598.18	32101.12
598.538	32163.26
598.897	32265.86
599.255	32117.62
599.613	32451.84
599.972	32197.16
600.33	32299.31
600.688	32277.16
601.046	32414.11
601.404	32570.94
601.762	32472.41
602.12	32671.73
602.478	32593.99
602.836	32554.67
603.194	32462.24
603.552	32644.83
603.91	32539.53
604.268	32629.69
604.625	32567.55
604.983	32863.59
605.341	32644.16
605.698	32811.83
606.056	32909.46
606.413	32772.51
606.771	32970.25
607.128	32906.97
607.485	32878.95
607.843	32969.12
608.2	33064.94
608.557	33188.55
608.914	33095.22
609.272	33233.07
609.629	33349.67
609.986	33370.01
610.343	33249.34
610.7	33579.27
611.057	33588.99
611.414	33428.99
611.771	33578.14
612.127	33678.48
612.484	33685.94
612.841	33657.01
613.198	33508.31
613.554	33705.14
613.911	33792.37
614.267	33946.27
614.624	33796.89
614.98	34052.25
615.337	34103.78
615.693	34151.69
616.05	34153.49
616.406	34215.19
616.762	34136.55
617.118	34207.5
617.475	34183.32
617.831	34285.24
618.187	34495.86
618.543	34466.93
618.899	34658.79
619.255	34484.33
619.611	34357.33
619.967	34693.37
620.323	34682.75
620.678	34482.53
621.034	34533.6
621.39	34645.23
621.746	34614.05
622.101	34972.68
622.457	34731.33
622.812	34851.56
623.168	34831.89
623.523	34805
623.879	34880.03
624.234	34741.5
624.589	34786.25
624.945	34810.65
625.3	35017.2
625.655	34938.33
626.01	34951.44
626.365	34954.83
626.72	34873.48
627.075	34738.34
627.43	34818.34
627.785	34713.48
628.14	34752.12
628.495	34758.45
628.85	34769.07
629.205	34660.83
629.559	34871.89
629.914	34752.35
630.269	34648.85
630.623	34511.9
630.978	34379.93
631.332	34740.37
631.687	34642.75
632.041	34442.98
632.396	34525.01
632.75	34463.09
633.104	34574.95
633.459	34228.97
633.813	34360.49
634.167	34298.35
634.521	34204.57
634.875	34211.8
635.229	34276.66
635.583	33991.01
635.937	34025.59
636.291	33951.92
636.645	34106.26
636.999	33877.57
637.352	33900.62
637.706	33732.94
638.06	33902.2
638.413	33758.48
638.767	33662.89
639.121	33721.87
639.474	33545.15
639.828	33539.73
640.181	33501.31
640.534	33488.2
640.888	33429.22
641.241	33229
641.594	33314.87
641.947	33330.24
642.301	33135.44
642.654	33140.41
643.007	33065.84
643.36	33292.05
643.713	33172.05
644.066	33255.44
644.419	32949.68
644.771	32734.77
645.124	32357.84
645.477	32484.16
645.83	32331.62
646.182	32476.25
646.535	32269.93
646.888	32467.89
647.24	32420.88
647.593	32447.78
647.945	32330.94
648.298	32182.7
648.65	32086.2
649.002	31792.43
649.355	31677.18
649.707	31563.96
650.059	31522.38
650.411	32016.83
650.763	32409.59
651.115	32920.08
651.467	32675.34
651.819	32710.37
652.171	32689.13
652.523	32638.96
652.875	32709.24
653.227	32576.81
653.578	32824.94
653.93	32672.18
654.282	32537.04
654.633	32394.44
654.985	32645.29
655.337	32597.38
655.688	32481.45
656.039	32612.07
656.391	32288.01
656.742	32401.68
657.094	32502.46
657.445	32490.71
657.796	32443.26
658.147	32445.97
658.498	32434.9
658.849	32533.2
659.2	32480.54
659.551	32440.55
659.902	32643.25
660.253	32424.27
660.604	32579.3
660.955	32466.31
661.306	32520.09
661.656	32565.51
662.007	32529.36
662.358	32466.31
662.708	32573.42
663.059	32504.27
663.409	32326.2
663.76	32623.14
664.11	32725.74
664.461	32569.36
664.811	32582.46
665.161	32561.67
665.511	32471.96
665.862	32504.5
666.212	32501.11
666.562	32718.73
666.912	32614.1
667.262	32403.94
667.612	32624.04
667.962	32459.98
668.312	32477.83
668.662	32693.19
669.011	32594.89
669.361	32507.89
669.711	32623.59
670.06	32524.84
670.41	32409.81
670.76	32453.65
671.109	32556.93
671.459	32518.51
671.808	32412.3
672.157	32507.66
672.507	32207.56
672.856	32265.41
673.205	32348.34
673.554	32316.71
673.904	32201.23
674.253	32569.13
674.602	32177.05
674.951	31851.86
675.3	31700.23
675.649	32178.63
675.998	32208.24
676.346	32164.62
676.695	32327.55
677.044	32055.92
677.393	32203.49
677.741	32140.21
678.09	32004.62
678.438	31955.36
678.787	32234.22
679.135	32025.19
679.484	31949.71
679.832	31974.79
680.181	31841.92
680.529	31917.4
680.877	31739.09
681.225	31783.84
681.573	31932.76
681.922	31721.47
682.27	31595.6
682.618	31533.22
682.966	31451.19
683.314	31574.13
683.661	31485.99
684.009	31402.38
684.357	31217.98
684.705	31113.8
685.053	31231.76
685.4	31192.22
685.748	30940.02
686.095	30956.97
686.443	30820.47
686.79	30768.72
687.138	30823.41
687.485	30828.61
687.832	30650.31
688.18	30606.92
688.527	30455.96
688.874	30422.07
689.221	30425.91
689.568	30211.68
689.915	29985.02
690.262	30116.76
690.609	29928.75
690.956	29862.08
691.303	29849.43
691.65	29613.73
691.997	29567.63
692.344	29389.33
692.69	29288.99
693.037	29267.52
693.383	29150.24
693.73	29162.67
694.077	29092.38
694.423	29024.36
694.769	28854.2
695.116	28745.5
695.462	28641.55
695.808	28548.9
696.155	28574.88
696.501	28307.09
696.847	28331.73
697.193	28131.05
697.539	28153.88
697.885	27960.89
698.231	27879.54
698.577	27826.66
698.923	27753.21
699.269	27588.02
699.614	27506.89
699.96	27353
700.306	27418.3
700.651	27140.57
700.997	26998.65
701.342	27035.04
701.688	26918.88
702.033	26839.34
702.379	26792.33
702.724	26675.27
703.069	26676.4
703.415	26315.06
703.76	26357.54
704.105	26377.2
704.45	26287.49
704.795	26159.81
705.14	25973.6
705.485	25948.06
705.83	25774.05
706.175	25909.42
706.52	25766.37
706.865	25686.6
707.209	25590.56
707.554	25554.4
707.899	25551.69
708.243	25374.52
708.588	25115.77
708.932	25087.74
709.277	25181.53
709.621	25095.65
709.966	24929.1
710.31	24946.73
710.654	24800.07
710.998	24763.69
711.342	24845.49
711.687	24789
712.031	24603.69
712.375	24458.83
712.719	24541.32
713.063	24448.21
713.407	24489.57
713.75	24452.73
714.094	24445.05
714.438	24233.3
714.782	24252.29
715.125	24201.89
715.469	24271.72
715.812	24143.59
716.156	24028.56
716.499	24091.39
716.843	24155.79
717.186	23928.68
717.53	24134.1
717.873	24204.38
718.216	24123.7
718.559	23932.07
718.902	23772.52
719.246	23815.24
719.589	23805.52
719.932	23708.57
720.275	23713.77
720.617	23821.34
720.96	23772.52
721.303	23774.78
721.646	23684.84
721.989	23644.62
722.331	23695.92
722.674	23597.61
723.016	23601.23
723.359	23478.07
723.701	23524.17
724.044	23507.67
724.386	23384.74
724.729	23491.85
725.071	23535.02
725.413	23448.69
725.755	23446.88
726.097	23392.42
726.439	23363.27
726.782	23291.86
727.124	23557.39
727.465	23330.73
727.807	23294.12
728.149	23449.37
728.491	23370.95
728.833	23379.77
729.175	23486.43
729.516	23268.58
729.858	23349.26
730.199	23498.18
730.541	23500.44
730.882	23326.43
731.224	23400.78
731.565	23426.77
731.906	23348.81
732.248	23358.75
732.589	23332.99
732.93	23249.37
733.271	23393.55
733.612	23385.42
733.953	23471.52
734.294	23449.37
734.635	23330.5
734.976	23431.29
735.317	23499.54
735.658	23523.04
735.999	23469.26
736.339	23468.58
736.68	23541.57
737.021	23635.81
737.361	23512.87
737.702	23787.89
738.042	23725.07
738.383	23714.45
738.723	23784.5
739.063	23740.44
739.404	23848.23
739.744	23773.88
740.084	23786.76
740.424	23995.34
740.764	23931.62
741.104	24032.4
741.444	24027.66
741.784	24071.95
742.124	24108.11
742.464	24309.91
742.804	24345.16
743.143	24371.83
743.483	24415.22
743.823	24393.3
744.162	24363.7
744.502	24634.2
744.841	24570.7
745.181	24811.14
745.52	24767.07
745.86	25058.37
746.199	24993.51
746.538	25030.8
746.877	25372.03
747.216	25431.92
747.556	25344.23
747.895	25545.36
748.234	25611.57
748.573	25884.33
748.911	25773.6
749.25	26019.02
749.589	26005.91
749.928	26245
750.267	26407.26
750.605	26437.09
750.944	26633.92
751.283	26692.45
751.621	26799.79
751.96	26942.84
752.298	27150.29
752.636	27330.85
752.975	27350.28
753.313	27434.35
753.651	27864.85
753.989	27732.42
754.327	28015.12
754.666	27922.47
755.004	28300.09
755.342	28447.88
755.679	28540.99
756.017	28653.3
756.355	28774.88
756.693	28959.96
757.031	29265.26
757.368	29302.32
757.706	29394.52
758.044	29610.56
758.381	29573.28
758.719	29754.74
759.056	30005.36
759.394	30059.14
759.731	30042.64
760.068	30226.14
760.405	30454.16
760.743	30512.91
761.08	30611.44
761.417	30665.22
761.754	30802.4
762.091	31043.07
762.428	31047.81
762.765	31054.37
763.102	31223.4
763.438	31297.98
763.775	31189.05
764.112	31428.37
764.449	31590.17
764.785	31503.85
765.122	31556.95
765.458	31601.92
765.795	31685.31
766.131	31818.41
766.467	31867
766.804	31836.49
767.14	31939.54
767.476	31863.84
767.812	32019.09
768.148	32008.01
768.485	31950.16
768.821	31876.72
769.157	31960.56
769.492	32034.45
769.828	32028.8
770.164	31837.62
770.5	31968.02
770.836	31892.76
771.171	31893.44
771.507	31857.06
771.842	31683.96
772.178	31748.59
772.513	31777.51
772.849	31654.35
773.184	31950.16
773.519	31680.34
773.855	31660.45
774.19	31555.14
774.525	31623.17
774.86	31541.36
775.195	31567.12
775.53	31461.59
775.865	31286.9
776.2	31177.08
776.535	31236.74
776.87	31213.46
777.205	31080.13
777.539	31056.4
777.874	31041.03
778.209	30816.86
778.543	30953.13
778.878	30748.84
779.212	30763.53
779.547	30598.79
779.881	30698.9
780.215	30359.24
780.55	30449.86
780.884	30313.37
781.218	30200.6
781.552	30327.83
781.886	30140.94
782.22	30072.7
782.554	29869.31
782.888	29856.66
783.222	29768.75
783.556	29641.75
783.889	29518.14
784.223	29280.4
784.557	29412.38
784.89	29453.73
785.224	29292.15
785.557	29148.43
785.891	29040.86
786.224	29193.63
786.558	29035.66
786.891	28858.49
787.224	28540.53
787.557	28579.4
787.891	28508.45
788.224	28465.73
788.557	28428.22
788.89	28470.71
789.223	28387.32
789.556	28204.05
789.888	28174.89
790.221	28017.84
790.554	27846.77
790.887	27976.03
791.219	27743.95
791.552	27839.08
791.884	27661.01
792.217	27525.87
792.549	27447.46
792.882	27278.87
793.214	27242.49
793.546	27287.46
793.879	27121.82
794.211	26989.84
794.543	27133.79
794.875	26983.51
795.207	26972.21
795.539	26993.46
795.871	26909.39
796.203	26692
796.535	26531.1
796.867	26550.76
797.198	26426.24
797.53	26439.35
797.862	26177.66
798.193	26198.22
798.525	26168.85
798.856	26209.52
799.188	25875.52
799.519	25795.3
799.85	25662.42
800.182	25704.45
800.513	25805.92
800.844	25453.84
801.175	25652.02
801.506	25615.19
801.837	25345.36
802.168	25477.34
802.499	25451.12
802.83	25304.46
803.161	25171.36
803.491	25192.15
803.822	25296.1
804.153	25064.02
804.483	24819.28
804.814	24823.8
805.145	24874.64
805.475	24887.75
805.805	24775.66
806.136	24706.06
806.466	24520.53
806.796	24563.24
807.126	24395.56
807.457	24398.27
807.787	24433.98
808.117	24250.48
808.447	24230.82
808.777	24392.62
809.107	24003.03
809.436	24072.86
809.766	24078.05
810.096	23987.89
810.426	23960.54
810.755	23958.73
811.085	23784.5
811.414	23766.42
811.744	23723.26
812.073	23757.16
812.403	23641.45
812.732	23567.11
813.061	23586.54
813.39	23380.67
813.719	23439.2
814.049	23487.33
814.378	23388.35
814.707	23226.32
815.036	23347.68
815.365	23119.43
815.693	23089.38
816.022	23111.98
816.351	23024.3
816.68	22834.02
817.008	23027.69
817.337	22791.53
817.665	22764.42
817.994	22770.07
818.322	22838.76
818.651	22661.82
818.979	22603.29
819.307	22561.48
819.636	22474.71
819.964	22440.36
820.292	22530.75
820.62	22376.4
820.948	22543.63
821.276	22596.28
821.604	22544.53
821.932	22669.28
822.259	22570.75
822.587	22455.95
822.915	22429.28
823.243	22471.09
823.57	22514.93
823.898	22490.75
824.225	22534.37
824.553	22533.24
824.88	22474.93
825.207	22612.78
825.535	22403.3
825.862	22519.22
826.189	22465.44
826.516	22631.54
826.843	22559.9
827.17	22628.37
827.497	22552.67
827.824	22722.38
828.151	22656.4
828.478	22576.17
828.805	22688.26
829.131	22661.14
829.458	22703.85
829.785	22488.49
830.111	22696.39
830.438	22682.61
830.764	22592.67
831.09	22673.34
831.417	22444.65
831.743	22595.83
832.069	22555.83
832.395	22576.4
832.722	22636.51
833.048	22505.67
833.374	22628.6
833.7	22455.5
834.026	22610.07
834.351	22494.14
834.677	22502.73
835.003	22457.08
835.329	22506.12
835.654	22342.05
835.98	22324.65
836.306	22426.35
836.631	22361.71
836.956	22578.43
837.282	22425.67
837.607	22412.56
837.932	22257.31
838.258	22259.8
838.583	22202.17
838.908	22123.3
839.233	22188.84
839.558	22062.51
839.883	22138.22
840.208	22070.42
840.533	22043.98
840.858	22051.67
841.182	22027.03
841.507	22022.74
841.832	21889.86
842.156	21942.29
842.481	21886.25
842.805	21770.09
843.13	21709.3
843.454	21771.45
843.778	21634.95
844.103	21661.17
844.427	21571.23
844.751	21632.24
845.075	21506.6
845.399	21454.39
845.723	21272.48
846.047	21281.06
846.371	21182.31
846.695	21064.8
847.019	21061.18
847.343	20893.5
847.666	20836.56
847.99	20721.08
848.313	20639.05
848.637	20578.03
848.96	20635.88
849.284	20623
849.607	20474.53
849.931	20325.84
850.254	20232.96
850.577	20141.43
850.9	19867.99
851.223	19980.76
851.546	19899.63
851.869	19839.97
852.192	19957.48
852.515	19759.3
852.838	19646.53
853.161	19617.15
853.483	19542.13
853.806	19432.53
854.129	19444.73
854.451	19331.06
854.774	19243.38
855.096	19193.44
855.419	19139.88
855.741	19091.07
856.063	19039.77
856.385	18985.98
856.708	18927
857.03	18924.74
857.352	18828.93
857.674	18708.7
857.996	18645.88
858.318	18595.26
858.64	18672.09
858.961	18521.59
859.283	18483.85
859.605	18348.71
859.926	18449.27
860.248	18343.51
860.57	18176.06
860.891	18311.2
861.212	18170.64
861.534	18076.86
861.855	18068.49
862.176	18048.83
862.498	18061.94
862.819	18069.17
863.14	17942.17
863.461	17950.08
863.782	17944.43
864.103	17903.53
864.424	17740.82
864.745	17782.63
865.065	17735.17
865.386	17693.14
865.707	17731.1
866.027	17604.55
866.348	17683.87
866.668	17569.98
866.989	17582.4
867.309	17420.38
867.63	17482.07
867.95	17444.78
868.27	17314.62
868.59	17448.4
868.91	17347.38
869.23	17463.31
869.55	17242.53
869.87	17293.82
870.19	17242.98
870.51	17206.14
870.83	17244.79
871.15	17126.15
871.469	17143.55
871.789	17167.5
872.109	17240.94
872.428	16976.09
872.748	17168.86
873.067	17070.78
873.386	17046.6
873.706	17009.09
874.025	16941.52
874.344	16928.41
874.663	16981.52
874.982	16858.13
875.301	16829.43
875.62	16751.92
875.939	16706.27
876.258	16731.35
876.577	16623.56
876.896	16779.94
877.214	16690
877.533	16580.62
877.852	16633.96
878.17	16623.56
878.489	16617.68
878.807	16494.52
879.125	16461.98
879.444	16387.18
879.762	16460.17
880.08	16497.46
880.398	16372.04
880.716	16393.96
881.034	16346.73
881.352	16347.41
881.67	16258.6
881.988	16290.46
882.306	16300.18
882.624	16222.89
882.941	16024.03
883.259	16064.7
883.577	16018.15
883.894	15955.78
884.212	15971.37
884.529	16066.51
884.846	15914.2
885.164	15861.32
885.481	15901.09
885.798	15934.31
886.115	15711.95
886.432	15882.56
886.75	15662
887.067	15710.59
887.383	15610.25
887.7	15653.19
888.017	15514.44
888.334	15535.68
888.651	15510.82
888.967	15451.61
889.284	15388.79
889.6	15343.82
889.917	15253.2
890.233	15341.56
890.55	15143.6
890.866	15218.63
891.182	15211.62
891.498	15076.26
891.815	15015.24
892.131	14978.41
892.447	15037.84
892.763	14926.43
893.079	14888.46
893.395	14838.07
893.71	14787.22
894.026	14783.38
894.342	14755.13
894.657	14644.4
894.973	14607.57
895.289	14574.12
895.604	14641.47
895.92	14510.4
896.235	14481.47
896.55	14408.93
896.865	14344.52
897.181	14346.56
897.496	14414.13
897.811	14193.34
898.126	14112.89
898.441	14119.9
898.756	14133.46
899.071	14005.55
899.386	14076.06
899.7	13874.71
900.015	13929.17
900.33	13744.77
900.644	13747.03
900.959	13654.15
901.273	13621.61
901.588	13601.49
901.902	13574.83
902.216	13655.5
902.531	13429.07
902.845	13418.9
903.159	13267.04
903.473	13311.1
903.787	13170.77
904.101	13260.94
904.415	13201.73
904.729	13103.65
905.042	13054.16
905.356	13011.68
905.67	12946.37
905.984	12902.98
906.297	12885.13
906.611	12817.56
906.924	12847.61
907.237	12694.85
907.551	12677
907.864	12607.39
908.177	12667.05
908.491	12553.84
908.804	12502.99
909.117	12418.25
909.43	12465.48
909.743	12296.67
910.056	12274.3
910.368	12227.52
910.681	12305.26
910.994	12083.57
911.307	12075.66
911.619	11954.76
911.932	11995.89
912.244	11869.33
912.557	11855.55
912.869	11755.89
913.181	11774.2
913.494	11727.19
913.806	11630.25
914.118	11635.89
914.43	11506.63
914.742	11541.21
915.054	11454.88
915.366	11369.91
915.678	11371.04
915.99	11337.82
916.302	11195.45
916.613	11241.1
916.925	11220.76
917.236	11177.83
917.548	11129.24
917.859	11112.52
918.171	11012.18
918.482	10913.43
918.794	10972.41
919.105	10882.24
919.416	10832.98
919.727	10823.26
920.038	10768.8
920.349	10628.46
920.66	10656.03
920.971	10609.48
921.282	10605.87
921.593	10520.44
921.903	10454.23
922.214	10486.32
922.525	10409.94
922.835	10376.72
923.146	10254.24
923.456	10251.75
923.767	10179.21
924.077	10203.62
924.387	10246.33
924.697	10100.79
925.008	10123.84
925.318	10051.98
925.628	9964.53
925.938	9949.39
926.248	9846.56
926.558	9818.99
926.867	9852.44
927.177	9717.98
927.487	9724.98
927.796	9691.31
928.106	9686.12
928.416	9663.52
928.725	9582.39
929.034	9576.97
929.344	9549.4
929.653	9496.97
929.962	9386.24
930.271	9381.94
930.581	9346.24
930.89	9291.1
931.199	9217.43
931.508	9147.6
931.817	9162.97
932.125	9156.41
932.434	9102.85
932.743	9022.63
933.051	9032.35
933.36	9033.03
933.669	8945.57
933.977	8960.48
934.286	8923.65
934.594	8845.23
934.902	8778.34
935.21	8767.27
935.519	8694.05
935.827	8688.4
936.135	8667.16
936.443	8515.07
936.751	8551.23
937.059	8541.06
937.367	8460.61
937.674	8463.77
937.982	8464.9
938.29	8392.36
938.597	8386.04
938.905	8262.42
939.213	8261.52
939.52	8227.4
939.827	8202.54
940.135	8151.47
940.442	8130.68
940.749	8102.43
941.056	8113.73
941.363	8012.94
941.67	7971.81
941.977	7959.16
942.284	7892.94
942.591	7874.19
942.898	7909.21
943.205	7871.93
943.511	7757.8
943.818	7798.26
944.125	7696.34
944.431	7637.58
944.738	7741.53
945.044	7628.77
945.35	7581.31
945.657	7509
945.963	7528.66
946.269	7471.03
946.575	7379.96
946.881	7443.24
947.187	7384.25
947.493	7362.33
947.799	7337.93
948.105	7270.13
948.41	7280.3
948.716	7274.43
949.022	7190.14
949.327	7166.86
949.633	7107.43
949.938	7094.77
950.244	7171.15
950.549	7002.57
950.854	6975.9
951.16	6970.25
951.465	6966.41
951.77	6900.88
952.075	6898.17
952.38	6847.55
952.685	6790.6
952.99	6774.1
953.294	6764.84
953.599	6712.63
953.904	6685.06
954.209	6605.52
954.513	6642.58
954.818	6581.34
955.122	6563.71
955.426	6515.8
955.731	6532.75
956.035	6546.76
956.339	6473.32
956.643	6417.05
956.948	6374.34
957.252	6437.39
957.556	6362.81
957.86	6314.68
958.163	6292.76
958.467	6252.99
958.771	6275.81
959.075	6238.97
959.378	6195.59
959.682	6197.17
959.985	6127.79
960.289	6064.29
960.592	6102.03
960.896	6064.29
961.199	5965.54
961.502	5996.95
961.805	5987
962.108	5915.59
962.411	5910.62
962.714	5881.7
963.017	5885.99
963.32	5929.83
963.623	5836.5
963.926	5863.17
964.228	5784.3
964.531	5716.05
964.833	5716.95
965.136	5702.94
965.438	5661.81
965.741	5601.7
966.043	5606.67
966.345	5580.91
966.648	5517.64
966.95	5603.28
967.252	5529.16
967.554	5493.01
967.856	5456.85
968.158	5467.24
968.46	5455.72
968.761	5381.82
969.063	5387.92
969.365	5288.04
969.666	5309.06
969.968	5244.88
970.269	5280.36
970.571	5218.66
970.872	5206.23
971.174	5161.26
971.475	5174.82
971.776	5145.67
972.077	5138.89
972.378	5101.83
972.679	5093.69
972.98	5106.8
973.281	5059.8
973.582	5027.48
973.883	5007.59
974.183	4961.04
974.484	4944.09
974.785	4940.93
975.085	4893.25
975.386	4907.94
975.686	4862.51
975.986	4847.82
976.287	4842.85
976.587	4808.28
976.887	4728.05
977.187	4794.94
977.487	4741.84
977.787	4717.88
978.087	4721.27
978.387	4633.14
978.687	4652.35
978.987	4580.94
979.286	4579.81
979.586	4620.49
979.885	4539.13
980.185	4539.81
980.484	4524.9
980.784	4467.04
981.083	4504.56
981.382	4447.61
981.682	4471.79
981.981	4380.49
982.28	4386.59
982.579	4343.21
982.878	4393.15
983.177	4354.73
983.475	4272.02
983.774	4303.66
984.073	4300.04
984.372	4243.32
984.67	4203.32
984.969	4211.23
985.267	4252.13
985.566	4173.72
985.864	4152.7
986.162	4126.26
986.461	4100.95
986.759	4110.44
987.057	4038.13
987.355	4009.2
987.653	4043.78
987.951	4026.6
988.249	3977.56
988.547	3950.45
988.844	3943.89
989.142	3985.25
989.44	3943.44
989.737	3925.14
990.035	3943.22
990.332	3929.88
990.63	3887.4
990.927	3849.66
991.224	3816.89
991.521	3796.78
991.819	3790.9
992.116	3776.44
992.413	3748.87
992.71	3782.77
993.006	3728.76
993.303	3692.37
993.6	3695.31
993.897	3665.03
994.193	3672.04
994.49	3625.94
994.787	3600.4
995.083	3607.86
995.379	3617.12
995.676	3527.18
995.972	3537.8
996.268	3518.37
996.565	3478.37
996.861	3484.24
997.157	3471.82
997.453	3465.71
997.749	3469.33
998.044	3408.99
998.34	3408.31
998.636	3377.35
998.932	3374.42
999.227	3346.4
999.523	3361.99
999.818	3323.8
1000.114	3286.51
1000.409	3292.61
1000.704	3232.95
1001	3202.44
1001.295	3227.98
1001.59	3206.29
1001.885	3193.86
1002.18	3161.09
1002.475	3150.24
1002.77	3130.13
1003.065	3115.44
1003.359	3102.11
1003.654	3059.85
1003.949	3030.47
1004.243	3051.26
1004.538	2977.59
1004.832	3005.61
1005.127	2996.8
1005.421	2984.6
1005.715	2945.95
1006.009	2944.6
1006.304	2909.34
1006.598	2927.2
1006.892	2906.86
1007.186	2884.94
1007.48	2884.03
1007.773	2828.89
1008.067	2832.96
1008.361	2827.54
1008.655	2822.57
1008.948	2792.74
1009.242	2756.58
1009.535	2766.98
1009.829	2743.25
1010.122	2691.27
1010.415	2702.34
1010.708	2667.32
1011.001	2660.31
1011.295	2590.26
1011.588	2653.76
1011.881	2577.83
1012.173	2599.3
1012.466	2563.82
1012.759	2564.27
1013.052	2564.72
1013.344	2516.36
1013.637	2536.02
1013.93	2496.47
1014.222	2463.93
1014.514	2479.07
1014.807	2458.28
1015.099	2398.17
1015.391	2405.4
1015.683	2412.63
1015.976	2388.68
1016.268	2353.65
1016.56	2397.49
1016.851	2332.18
1017.143	2352.07
1017.435	2303.48
1017.727	2290.6
1018.018	2262.58
1018.31	2257.38
1018.602	2268.91
1018.893	2244.05
1019.185	2237.72
1019.476	2200.89
1019.767	2201.11
1020.058	2154.34
1020.35	2165.41
1020.641	2120.21
1020.932	2121.12
1021.223	2094.68
1021.514	2091.96
1021.804	2064.62
1022.095	2058.29
1022.386	2030.27
1022.677	2053.55
1022.967	2037.73
1023.258	1993.66
1023.548	2028.24
1023.839	1977.84
1024.129	1993.66
1024.419	1974.23
1024.709	1956.6
1025	1949.37
1025.29	1905.53
1025.58	1924.74
1025.87	1875.93
1026.16	1871.63
1026.449	1873.21
1026.739	1860.56
1027.029	1854
1027.319	1814.46
1027.608	1828.02
1027.898	1785.98
1028.187	1800.22
1028.477	1775.14
1028.766	1771.07
1029.055	1762.93
1029.344	1715.93
1029.634	1731.07
1029.923	1710.73
1030.212	1702.82
1030.501	1669.6
1030.79	1651.3
1031.078	1640.23
1031.367	1632.99
1031.656	1656.5
1031.945	1633.67
1032.233	1626.89
1032.522	1600.9
1032.81	1599.1
1033.099	1560.68
1033.387	1567.46
1033.675	1588.25
1033.963	1556.16
1034.251	1533.79
1034.54	1549.61
1034.828	1531.75
1035.116	1477.97
1035.403	1466.44
1035.691	1516.84
1035.979	1480
1036.267	1465.99
1036.554	1450.85
1036.842	1443.17
1037.129	1440.68
1037.417	1429.84
1037.704	1400.23
1037.992	1363.4
1038.279	1387.8
1038.566	1395.94
1038.853	1395.94
1039.14	1395.94
