Data from 19-3935_FLMS001491_004.txt Node
Date: Thu Apr 19 16:40:09 BST 2018
User: hsy
Spectrometer: FLMS00149
Trigger mode: 0
Integration Time (sec): 1.000000E-2
Scans to average: 10
Electric dark correction enabled: true
Nonlinearity correction enabled: false
Boxcar width: 0
XAxis mode: Wavelengths
Number of Pixels in Spectrum: 2048
>>>>>Begin Spectral Data<<<<<
341.393	-32.56
341.776	-32.56
342.16	-32.56
342.543	-70.52
342.927	-77.07
343.31	-77.75
343.693	-74.14
344.077	-56.74
344.46	-64.19
344.843	-39.11
345.226	-66.45
345.61	-21.48
345.993	-30.3
346.376	12.64
346.759	7.9
347.142	13.32
347.525	59.42
347.908	65.75
348.291	79.98
348.674	93.32
349.057	97.84
349.44	130.38
349.823	168.12
350.206	164.5
350.588	240.88
350.971	254.22
351.354	278.4
351.737	266.42
352.119	288.57
352.502	291.28
352.884	312.97
353.267	321.79
353.65	337.6
354.032	333.54
354.414	328.11
354.797	355.91
355.179	348.23
355.562	364.72
355.944	349.36
356.326	346.87
356.709	373.76
357.091	378.51
357.473	394.78
357.855	369.24
358.238	389.58
358.62	395.91
359.002	371.05
359.384	384.61
359.766	406.53
360.148	390.48
360.53	388.45
360.912	366.53
361.294	376.7
361.676	364.27
362.057	375.12
362.439	383.25
362.821	364.5
363.203	369.69
363.584	362.46
363.966	370.37
364.348	355.23
364.729	372.18
365.111	363.14
365.493	366.53
365.874	379.86
366.256	381.22
366.637	380.54
367.019	378.28
367.4	373.99
367.781	389.35
368.163	368.34
368.544	374.44
368.925	375.12
369.306	358.39
369.688	356.59
370.069	370.15
370.45	376.7
370.831	371.05
371.212	365.63
371.593	378.96
371.974	380.31
372.355	372.63
372.736	405.62
373.117	383.7
373.498	382.57
373.879	393.87
374.26	365.4
374.641	377.15
375.021	361.33
375.402	416.25
375.783	423.7
376.163	418.05
376.544	383.48
376.925	378.51
377.305	394.1
377.686	403.82
378.066	395
378.447	412.4
378.827	412.18
379.208	396.13
379.588	435.45
379.968	421.44
380.349	430.71
380.729	430.26
381.109	413.76
381.489	438.39
381.87	415.57
382.25	433.65
382.63	436.58
383.01	448.11
383.39	430.93
383.77	434.78
384.15	440.43
384.53	434.78
384.91	462.35
385.29	459.41
385.67	456.25
386.049	453.08
386.429	475.45
386.809	483.14
387.189	446.53
387.568	462.35
387.948	470.71
388.328	471.39
388.707	460.99
389.087	487.2
389.466	493.76
389.846	476.58
390.225	479.52
390.605	497.83
390.984	494.21
391.363	512.74
391.743	507.77
392.122	523.14
392.501	524.94
392.881	520.2
393.26	513.64
393.639	532.18
394.018	542.8
394.397	525.17
394.776	566.3
395.155	570.82
395.534	547.32
395.913	566.07
396.292	559.07
396.671	573.76
397.05	562.91
397.429	573.98
397.808	567.2
398.186	580.76
398.565	568.33
398.944	578.28
399.323	571.04
399.701	576.24
400.08	596.81
400.458	610.82
400.837	591.38
401.215	609.24
401.594	618.05
401.972	619.4
402.351	631.16
402.729	644.94
403.107	630.48
403.486	651.04
403.864	642.45
404.242	629.12
404.62	657.82
404.999	671.15
405.377	677.26
405.755	685.84
406.133	686.97
406.511	687.43
406.889	709.57
407.267	700.98
407.645	710.93
408.023	726.75
408.401	726.07
408.779	719.74
409.156	757.48
409.534	732.17
409.912	768.55
410.29	775.33
410.667	780.53
411.045	792.73
411.422	799.51
411.8	806.07
412.178	823.92
412.555	813.75
412.933	840.87
413.31	859.62
413.687	860.53
414.065	884.26
414.442	864.82
414.819	872.28
415.197	895.33
415.574	877.02
415.951	932.16
416.328	918.15
416.705	904.82
417.082	929.23
417.46	930.81
417.837	960.86
418.214	979.17
418.591	945.05
418.967	961.99
419.344	979.85
419.721	1012.84
420.098	989.79
420.475	1019.85
420.852	1018.72
421.228	1037.02
421.605	1009.45
421.982	1052.61
422.358	1039.28
422.735	1063.01
423.111	1070.01
423.488	1106.4
423.864	1088.54
424.241	1105.04
424.617	1094.65
424.994	1133.06
425.37	1116.34
425.746	1164.02
426.123	1160.41
426.499	1168.32
426.875	1179.16
427.251	1210.8
427.627	1237.92
428.003	1223.23
428.379	1249.22
428.756	1257.35
429.132	1292.38
429.507	1288.54
429.883	1305.04
430.259	1316.79
430.635	1351.59
431.011	1353.17
431.387	1372.61
431.763	1397.01
432.138	1412.83
432.514	1404.69
432.89	1419.84
433.265	1462.55
433.641	1460.96
434.016	1486.5
434.392	1518.59
434.767	1536.44
435.143	1532.6
435.518	1544.35
435.894	1595.65
436.269	1608.53
436.644	1662.09
437.02	1641.75
437.395	1674.29
437.77	1681.52
438.145	1705.25
438.52	1717.68
438.895	1739.6
439.271	1711.58
439.646	1727.4
440.021	1779.83
440.395	1778.24
440.77	1753.84
441.145	1754.52
441.52	1833.84
441.895	1809.66
442.27	1819.6
442.645	1829.32
443.019	1849.65
443.394	1839.26
443.769	1860.05
444.143	1871.8
444.518	1906.15
444.892	1905.02
445.267	1898.92
445.641	1938.47
446.016	1983.44
446.39	1971.91
446.764	1962.19
447.139	1975.08
447.513	1998.35
447.887	2001.74
448.262	2026.83
448.636	1974.62
449.01	2037.9
449.384	2062.53
449.758	2096.88
450.132	2085.81
450.506	2129.87
450.88	2127.61
451.254	2103.89
451.628	2167.61
452.002	2174.17
452.376	2213.94
452.75	2255.07
453.123	2249.42
453.497	2285.35
453.871	2285.12
454.244	2356.53
454.618	2330.77
454.992	2407.61
455.365	2414.84
455.739	2429.3
456.112	2468.17
456.486	2480.37
456.859	2505.23
457.232	2559.69
457.606	2582.29
457.979	2580.71
458.352	2646.47
458.725	2675.4
459.099	2677.66
459.472	2722.4
459.845	2725.79
460.218	2769.4
460.591	2816.18
460.964	2812.12
461.337	2877.65
461.71	2918.1
462.083	2914.26
462.456	2949.29
462.829	2985.22
463.201	3013.92
463.574	3018.44
463.947	3083.97
464.32	3095.27
464.692	3169.39
465.065	3157.19
465.438	3159.22
465.81	3235.61
466.183	3279.22
466.555	3292.78
466.928	3346.11
467.3	3340.91
467.672	3365.1
468.045	3454.36
468.417	3435.6
468.789	3474.24
469.161	3586.11
469.534	3604.41
469.906	3621.59
470.278	3652.09
470.65	3680.79
471.022	3751.75
471.394	3797.4
471.766	3850.51
472.138	3860.68
472.51	3991.97
472.882	3959.88
473.253	4031.74
473.625	4094.34
473.997	4183.38
474.369	4212.08
474.74	4270.16
475.112	4334.34
475.484	4322.58
475.855	4432.19
476.227	4500.21
476.598	4534.56
476.97	4604.61
477.341	4688.22
477.713	4763.7
478.084	4776.13
478.455	4916.24
478.827	4935.22
479.198	5104.71
479.569	5076.01
479.94	5207.08
480.311	5274.65
480.682	5338.15
481.053	5481.65
481.424	5596.22
481.795	5601.65
482.166	5674.41
482.537	5773.17
482.908	5930
483.279	5915.99
483.65	6077.11
484.021	6144.46
484.391	6223.33
484.762	6295.64
485.133	6363.66
485.503	6430.78
485.874	6591.22
486.244	6703.09
486.615	6760.03
486.985	6788.96
487.356	6927.94
487.726	6976.98
488.097	7168.61
488.467	7205.9
488.837	7323.86
489.207	7423.52
489.578	7490.86
489.948	7642.5
490.318	7731.31
490.688	7709.16
491.058	7907.57
491.428	7975.82
491.798	8117.29
492.168	8210.39
492.538	8256.72
492.908	8350.5
493.278	8430.72
493.648	8476.37
494.017	8614.22
494.387	8674.33
494.757	8749.59
495.126	8814.22
495.496	8843.6
495.866	8917.04
496.235	9050.82
496.605	9107.77
496.974	9250.36
497.344	9255.56
497.713	9322.23
498.082	9317.03
498.452	9459.85
498.821	9502.79
499.19	9508.89
499.559	9536.23
499.928	9646.51
500.298	9714.76
500.667	9840.18
501.036	9861.2
501.405	9870.46
501.774	9918.14
502.143	9992.49
502.512	10002.66
502.88	10136.67
503.249	10118.14
503.618	10202.2
503.987	10289.88
504.356	10370.79
504.724	10400.62
505.093	10385.25
505.462	10516.55
505.83	10514.96
506.199	10599.03
506.567	10723.55
506.936	10750.89
507.304	10829.08
507.672	10878.57
508.041	10893.94
508.409	11036.08
508.777	11078.11
509.145	11201.73
509.514	11206.02
509.882	11328.95
510.25	11322.63
510.618	11403.98
510.986	11419.8
511.354	11479.68
511.722	11648.04
512.09	11686.23
512.458	11710.64
512.826	11852.56
513.193	11829.96
513.561	11908.83
513.929	12063.62
514.297	12210.06
514.664	12155.37
515.032	12247.57
515.4	12396.27
515.767	12428.36
516.135	12529.83
516.502	12465.42
516.869	12687.11
517.237	12748.8
517.604	12770.5
517.972	13020.43
518.339	12969.59
518.706	13028.12
519.073	13132.07
519.44	13188.79
519.808	13360.76
520.175	13354.21
520.542	13475.11
520.909	13600.98
521.276	13661.77
521.643	13766.4
522.009	13946.51
522.376	14101.99
522.743	14127.07
523.11	14275.54
523.477	14467.18
523.843	14534.07
524.21	14742.65
524.577	14799.82
524.943	14824.45
525.31	14941.06
525.676	15198.46
526.043	15224.44
526.409	15408.85
526.776	15540.14
527.142	15614.72
527.508	15625.56
527.874	15885.9
528.241	15952.56
528.607	16018.1
528.973	16151.88
529.339	16206.11
529.705	16400.01
530.071	16574.47
530.437	16675.93
530.803	16814.23
531.169	16874.34
531.535	16927.22
531.901	17071.18
532.267	17144.85
532.632	17325.86
532.998	17328.8
533.364	17357.5
533.73	17538.28
534.095	17711.84
534.461	17715.9
534.826	17846.97
535.192	17902.79
535.557	18046.52
535.923	18001.09
536.288	18234.53
536.653	18190.24
537.019	18271.14
537.384	18345.04
537.749	18473.4
538.114	18486.51
538.479	18525.6
538.845	18550.46
539.21	18663.9
539.575	18747.74
539.94	18846.95
540.305	18991.58
540.67	18956.55
541.034	18957
541.399	19001.52
541.764	19175.3
542.129	19190.89
542.494	19239.48
542.858	19247.62
543.223	19266.37
543.587	19397.89
543.952	19465.01
544.316	19533.71
544.681	19513.82
545.045	19592.69
545.41	19724.21
545.774	19768.96
546.138	19788.84
546.503	19949.74
546.867	19835.4
547.231	20102.96
547.595	20092.56
547.959	20032.23
548.324	20082.4
548.688	20130.3
549.052	20303.18
549.416	20317.87
549.779	20311.09
550.143	20324.42
550.507	20568.94
550.871	20556.96
551.235	20684.41
551.599	20788.59
551.962	20787.01
552.326	20880.79
552.689	20865.88
553.053	20839.66
553.417	20964.86
553.78	21184.06
554.143	21255.25
554.507	21274.68
554.87	21260.67
555.234	21586.08
555.597	21509.7
555.96	21525.3
556.323	21707.44
556.686	21653.65
557.05	21875.57
557.413	22030.82
557.776	22004.15
558.139	22246.86
558.502	22212.74
558.865	22341.77
559.228	22551.26
559.59	22664.02
559.953	22704.25
560.316	22916.9
560.679	22933.39
561.041	23072.83
561.404	23365.02
561.767	23566.6
562.129	23416.32
562.492	23773.37
562.854	23771.56
563.217	23889.3
563.579	24034.38
563.941	24099.69
564.304	24425.56
564.666	24609.51
565.028	24677.53
565.39	24896.96
565.753	25109.38
566.115	25318.19
566.477	25418.53
566.839	25567
567.201	25885.86
567.563	25920.21
567.925	26184.38
568.287	26498.5
568.648	26645.84
569.01	26853.97
569.372	27131.02
569.734	27242.89
570.095	27422.32
570.457	27913.83
570.819	27904.79
571.18	27977.56
571.542	28397.43
571.903	28564.43
572.265	28736.86
572.626	28987.7
572.987	29201.48
573.349	29425.43
573.71	29460.68
574.071	29898.86
574.432	30105.18
574.794	30355.8
575.155	30436.93
575.516	30626.3
575.877	30760.53
576.238	30929.34
576.599	31035.1
576.96	31238.03
577.32	31235.32
577.681	31594.41
578.042	31934.06
578.403	31925.25
578.763	32028.52
579.124	32076.43
579.485	32405.24
579.845	32515.74
580.206	32628.51
580.566	32802.51
580.927	32740.82
581.287	32942.85
581.648	32863.3
582.008	33096.29
582.368	33170.41
582.728	33298.55
583.089	33229.85
583.449	33362.5
583.809	33316.17
584.169	33633
584.529	33394.36
584.889	33722.49
585.249	33438.43
585.609	33425.55
585.969	33636.84
586.329	33595.94
586.688	33754.58
587.048	33644.98
587.408	33708.25
587.768	33690.63
588.127	33835.93
588.487	33788.7
588.846	34027.79
589.206	33645.65
589.565	33770.85
589.925	33985.98
590.284	33846.33
590.643	33898.98
591.003	33955.25
591.362	34125.87
591.721	34049.03
592.08	34035.02
592.44	34029.83
592.799	34266.43
593.158	34201.57
593.517	34139.88
593.876	34213.78
594.235	34124.29
594.593	34163.38
594.952	34138.98
595.311	34235.02
595.67	34277.5
596.029	34512.07
596.387	34400.21
596.746	34599.53
597.104	34462.58
597.463	34369.7
597.822	34617.83
598.18	34494.22
598.538	34481.79
598.897	34672.75
599.255	34428.91
599.613	34961.1
599.972	34703.25
600.33	34733.54
600.688	34736.02
601.046	34828.45
601.404	35056.69
601.762	34957.71
602.12	34997.71
602.478	34950.71
602.836	35189.12
603.194	34818.73
603.552	35077.03
603.91	34972.63
604.268	35124.49
604.625	34979.86
604.983	35268.21
605.341	35167.42
605.698	35211.72
606.056	35433.86
606.413	35233.18
606.771	35405.16
607.128	35480.18
607.485	35384.37
607.843	35379.85
608.2	35514.31
608.557	35572.16
608.914	35510.24
609.272	35751.14
609.629	35888.76
609.986	36137.79
610.343	35985.93
610.7	36069.77
611.057	36024.58
611.414	35997.23
611.771	36222.54
612.127	36250.78
612.484	36194.06
612.841	36301.63
613.198	36094.63
613.554	36290.33
613.911	36465.02
614.267	36385.47
614.624	36350.44
614.98	36564.9
615.337	36716.76
615.693	36660.49
616.05	36718.57
616.406	36883.08
616.762	36732.13
617.118	36974.61
617.475	36733.94
617.831	37036.3
618.187	36903.87
618.543	37050.76
618.899	37221.61
619.255	37074.04
619.611	37134.15
619.967	37170.53
620.323	37282.62
620.678	36993.14
621.034	37060.25
621.39	37060.48
621.746	37065.68
622.101	37558.32
622.457	37059.12
622.812	37480.36
623.168	37492.56
623.523	37145.45
623.879	37487.14
624.234	37113.36
624.589	37401.94
624.945	37373.01
625.3	37460.47
625.655	37465.44
626.01	37395.16
626.365	37438.32
626.72	37304.54
627.075	37233.81
627.43	37376.63
627.785	37300.02
628.14	37375.27
628.495	37388.61
628.85	37380.92
629.205	37271.32
629.559	37400.13
629.914	37174.38
630.269	37156.75
630.623	36935.51
630.978	36938.68
631.332	37254.83
631.687	37154.49
632.041	37125.11
632.396	36994.72
632.75	37048.05
633.104	37008.05
633.459	36810.77
633.813	36781.17
634.167	36747.72
634.521	36710.66
634.875	36725.57
635.229	36627.72
635.583	36559.7
635.937	36439.48
636.291	36437.9
636.645	36566.93
636.999	36272.7
637.352	36429.76
637.706	36331.91
638.06	36371.01
638.413	36184.57
638.767	36190.22
639.121	36276.32
639.474	36124.23
639.828	36022.09
640.181	35976.89
640.534	36124.23
640.888	35728.99
641.241	35777.8
641.594	35776.22
641.947	35794.98
642.301	35787.97
642.654	35741.19
643.007	35646.05
643.36	35726.73
643.713	35516.57
644.066	35804.47
644.419	35528.77
644.771	35078.16
645.124	34818.73
645.477	34677.27
645.83	34700.09
646.182	34629.58
646.535	34626.42
646.888	34807.21
647.24	34583.03
647.593	34858.5
647.945	34484.95
648.298	34418.74
648.65	34293.77
649.002	34107.11
649.355	34083.38
649.707	33927
650.059	33958.87
650.411	34299.2
650.763	34699.64
651.115	35064.83
651.467	35024.83
651.819	35035.45
652.171	34951.16
652.523	34781.67
652.875	34920.42
653.227	34830.03
653.578	35054.43
653.93	34969.46
654.282	34852.85
654.633	34847.66
654.985	34706.19
655.337	34805.4
655.688	34844.04
656.039	34896.7
656.391	34623.71
656.742	34638.4
657.094	34670.94
657.445	34643.14
657.796	34639.75
658.147	34595.23
658.498	34871.84
658.849	34932.63
659.2	34658.06
659.551	34548
659.902	34936.02
660.253	34721.11
660.604	34926.98
660.955	34590.49
661.306	34912.06
661.656	34809.47
662.007	34838.39
662.358	34867.77
662.708	34988.9
663.059	34880.2
663.409	34637.49
663.76	35050.82
664.11	34918.62
664.461	34923.14
664.811	34978.05
665.161	34947.09
665.511	34817.83
665.862	35001.1
666.212	34957.03
666.562	34972.85
666.912	34891.95
667.262	35006.98
667.612	34900.31
667.962	34918.84
668.312	34758.39
668.662	34912.97
669.011	35032.74
669.361	34935.34
669.711	34942.8
670.06	34895.57
670.41	34842.69
670.76	34833.42
671.109	34874.1
671.459	34763.14
671.808	34793.87
672.157	34861.22
672.507	34540.32
672.856	34574.22
673.205	34693.99
673.554	34646.53
673.904	34671.84
674.253	34856.24
674.602	34701.45
674.951	34335.35
675.3	34085.42
675.649	34645.85
675.998	34644.72
676.346	34513.2
676.695	34591.84
677.044	34440.66
677.393	34400.21
677.741	34552.3
678.09	34456.71
678.438	34242.02
678.787	34313.21
679.135	34491.06
679.484	34117.05
679.832	34228.69
680.181	34110.5
680.529	34127.68
680.877	34097.85
681.225	33962.71
681.573	34251.97
681.922	33888.59
682.27	33788.93
682.618	33811.53
682.966	33714.81
683.314	33660.34
683.661	33602.27
684.009	33576.5
684.357	33396.62
684.705	33341.93
685.053	33416.73
685.4	33182.84
685.748	33190.07
686.095	33139.68
686.443	33077.76
686.79	32991.43
687.138	32998.89
687.485	32891.55
687.832	32721.16
688.18	32763.42
688.527	32639.58
688.874	32597.77
689.221	32534.5
689.568	32453.14
689.915	32239.59
690.262	32332.24
690.609	32208.86
690.956	32003.66
691.303	32068.52
691.65	31852.93
691.997	31794.86
692.344	31700.17
692.69	31480.74
693.037	31461.08
693.383	31223.35
693.73	31279.39
694.077	31185.61
694.423	31040.98
694.769	30815.9
695.116	30875.33
695.462	30670.14
695.808	30445.51
696.155	30616.13
696.501	30277.83
696.847	30398.73
697.193	30149.25
697.539	30208.01
697.885	30012.76
698.231	29827.9
698.577	29834.46
698.923	29757.85
699.269	29542.71
699.614	29592.65
699.96	29282.15
700.306	29398.08
700.651	29114.7
700.997	29124.87
701.342	29109.28
701.688	28965.55
702.033	28775.27
702.379	28760.36
702.724	28572.34
703.069	28678.55
703.415	28267.72
703.76	28335.06
704.105	28243.54
704.45	28083.32
704.795	27940.27
705.14	27965.35
705.485	27874.73
705.83	27698.01
706.175	27742.08
706.52	27550.22
706.865	27497.79
707.209	27484.23
707.554	27505.25
707.899	27479.72
708.243	27314.07
708.588	27124.47
708.932	27126.28
709.277	27125.83
709.621	26897.81
709.966	26819.39
710.31	26778.26
710.654	26701.43
710.998	26713.63
711.342	26703.24
711.687	26586.86
712.031	26485.84
712.375	26381.67
712.719	26279.97
713.063	26279.07
713.407	26397.71
713.75	26250.37
714.094	26206.98
714.438	26074.1
714.782	26193.2
715.125	25901.68
715.469	26169.47
715.812	25894.9
716.156	25910.27
716.499	25788.46
716.843	25910.72
717.186	25769.7
717.53	25944.84
717.873	25961.56
718.216	25944.16
718.559	25612.19
718.902	25550.27
719.246	25675.24
719.589	25565.64
719.932	25417.62
720.275	25554.79
720.617	25574
720.96	25459.66
721.303	25472.76
721.646	25505.3
721.989	25302.15
722.331	25437.96
722.674	25383.27
723.016	25429.15
723.359	25322.48
723.701	25281.36
724.044	25236.61
724.386	25209.94
724.729	25358.64
725.071	25293.56
725.413	25269.83
725.755	25262.37
726.097	25227.57
726.439	25097.41
726.782	25045.88
727.124	25229.83
727.465	25150.96
727.807	25118.87
728.149	25157.29
728.491	25026.45
728.833	25235.93
729.175	25095.6
729.516	25167.23
729.858	25100.57
730.199	25125.88
730.541	25086.11
730.882	25025.32
731.224	25151.41
731.565	25002.94
731.906	25105.09
732.248	25297.17
732.589	24982.15
732.93	25088.59
733.271	25161.58
733.612	25121.81
733.953	25291.98
734.294	25229.83
734.635	25137.18
734.976	25330.39
735.317	25124.3
735.658	25381.92
735.999	25193.9
736.339	25240.23
736.68	25326.78
737.021	25347.12
737.361	25313.22
737.702	25543.04
738.042	25473.21
738.383	25486.32
738.723	25621.46
739.063	25407.45
739.404	25582.59
739.744	25583.04
740.084	25524.51
740.424	25682.47
740.764	25736.94
741.104	25871.17
741.444	25760.89
741.784	25740.1
742.124	25957.04
742.464	25924.5
742.804	26008.34
743.143	26115.91
743.483	26143.71
743.823	26135.34
744.162	26313.19
744.502	26391.38
744.841	26436.8
745.181	26578.72
745.52	26533.3
745.86	26740.3
746.199	26749.57
746.538	26809.22
746.877	27030.01
747.216	27071.14
747.556	27046.28
747.895	27241.53
748.234	27303.22
748.573	27359.49
748.911	27466.83
749.25	27715.64
749.589	27756.32
749.928	27944.34
750.267	28039.47
750.605	28083.32
750.944	28190.66
751.283	28353.82
751.621	28687.14
751.96	28583.87
752.298	28818.44
752.636	28907.25
752.975	28920.58
753.313	29069.96
753.651	29517.63
753.989	29433.79
754.327	29631.98
754.666	29563.5
755.004	29944.96
755.342	30146.76
755.679	30287.1
756.017	30251.17
756.355	30556.92
756.693	30564.61
757.031	31054.31
757.368	30982.22
757.706	31097.47
758.044	31238.94
758.381	31362.55
758.719	31541.3
759.056	31673.5
759.394	31761.18
759.731	31664.01
760.068	31958.24
760.405	32111.46
760.743	32202.08
761.08	32297.44
761.417	32372.47
761.754	32444.78
762.091	32620.6
762.428	32563.88
762.765	32773.59
763.102	32955.28
763.438	32999.34
763.775	32850.65
764.112	32953.02
764.449	33178.55
764.785	33080.92
765.122	33208.38
765.458	33187.81
765.795	33388.49
766.131	33545.54
766.467	33506.9
766.804	33438.43
767.14	33343.29
767.476	33489.5
767.812	33539.22
768.148	33740.12
768.485	33618.54
768.821	33393.91
769.157	33469.16
769.492	33557.3
769.828	33635.71
770.164	33360.01
770.5	33438.2
770.836	33617.63
771.171	33514.13
771.507	33417.64
771.842	33347.36
772.178	33414.25
772.513	33433.01
772.849	33355.04
773.184	33352.33
773.519	33211.09
773.855	33139.68
774.19	33270.52
774.525	33184.65
774.86	33166.12
775.195	33183.07
775.53	33038.89
775.865	32902.17
776.2	32757.99
776.535	32616.08
776.87	32696.98
777.205	32617.21
777.539	32551.45
777.874	32630.99
778.209	32402.52
778.543	32416.99
778.878	32337.67
779.212	32269.65
779.547	32055.87
779.881	32185.13
780.215	31917.56
780.55	32048.18
780.884	31850.22
781.218	31657.01
781.552	31841.18
781.886	31712.6
782.22	31472.6
782.554	31454.53
782.888	31222.67
783.222	31302.89
783.556	31096.12
783.889	31092.05
784.223	30848.67
784.557	30763.47
784.89	30845.5
785.224	30668.33
785.557	30611.38
785.891	30447.09
786.224	30398.51
786.558	30464.04
786.891	30245.29
787.224	30132.98
787.557	30047.33
787.891	29994
788.224	29957.39
788.557	29891.18
788.89	29841.69
789.223	29798.07
789.556	29602.6
789.888	29513.79
790.221	29442.15
790.554	29327.12
790.887	29284.41
791.219	29230.18
791.552	29097.75
791.884	28971.2
792.217	28874.71
792.549	28891.66
792.882	28665.45
793.214	28545.68
793.546	28553.13
793.879	28353.82
794.211	28272.69
794.543	28462.06
794.875	28283.31
795.207	28317.21
795.539	28141.62
795.871	28169.19
796.203	28022.53
796.535	27822.08
796.867	27714.06
797.198	27640.84
797.53	27569.43
797.862	27399.49
798.193	27480.39
798.525	27283.11
798.856	27473.61
799.188	26973.51
799.519	27104.36
799.85	26872.73
800.182	26990.46
800.513	27020.97
800.844	26735.78
801.175	26955.21
801.506	26893.06
801.837	26657.36
802.168	26671.15
802.499	26589.12
802.83	26299.63
803.161	26388.9
803.491	26352.51
803.822	26317.26
804.153	26108.45
804.483	25962.69
804.814	25952.07
805.145	26030.26
805.475	25951.62
805.805	26004.27
806.136	25814.22
806.466	25649.03
806.796	25677.05
807.126	25512.99
807.457	25456.94
807.787	25452.42
808.117	25396.61
808.447	25331.98
808.777	25346.89
809.107	25126.1
809.436	25106.22
809.766	25089.04
810.096	25094.92
810.426	24955.71
810.755	25076.39
811.085	24891.76
811.414	24951.65
811.744	24697.64
812.073	24692.44
812.403	24690.18
812.732	24568.38
813.061	24779.45
813.39	24446.57
813.719	24349.63
814.049	24578.1
814.378	24452.22
814.707	24251.33
815.036	24377.88
815.365	24167.03
815.693	24153.93
816.022	24007.49
816.351	23980.82
816.68	23945.12
817.008	23986.7
817.337	23800.26
817.665	23738.8
817.994	23778.57
818.322	23823.09
818.651	23705.8
818.979	23605.01
819.307	23655.18
819.636	23712.36
819.964	23540.84
820.292	23558.69
820.62	23551.68
820.948	23567.95
821.276	23772.47
821.604	23491.8
821.932	23711
822.259	23464
822.587	23540.38
822.915	23578.57
823.243	23531.57
823.57	23482.98
823.898	23579.25
824.225	23485.24
824.553	23541.97
824.88	23638.23
825.207	23754.39
825.535	23709.64
825.862	23610.44
826.189	23600.5
826.516	23721.4
826.843	23752.13
827.17	23727.95
827.497	23682.53
827.824	23681.17
828.151	23761.39
828.478	23571.57
828.805	23659.93
829.131	23743.99
829.458	23698.8
829.785	23507.62
830.111	23620.83
830.438	23719.59
830.764	23618.12
831.09	23719.59
831.417	23513.49
831.743	23723.2
832.069	23600.27
832.395	23675.75
832.722	23667.39
833.048	23564.56
833.374	23689.31
833.7	23541.74
834.026	23600.72
834.351	23540.84
834.677	23572.47
835.003	23580.16
835.329	23528.63
835.654	23527.05
835.98	23398.01
836.306	23446.15
836.631	23338.13
836.956	23573.83
837.282	23489.54
837.607	23369.54
837.932	23279.37
838.258	23240.96
838.583	23125.93
838.908	23268.98
839.233	23225.82
839.558	23155.31
839.883	23128.87
840.208	22999.38
840.533	23050.91
840.858	22987.18
841.182	23027.85
841.507	22924.58
841.832	22767.07
842.156	22866.73
842.481	22791.93
842.805	22723.46
843.13	22677.13
843.454	22740.63
843.778	22558.71
844.103	22566.4
844.427	22449.79
844.751	22442.79
845.075	22512.84
845.399	22397.82
845.723	22258.16
846.047	22306.97
846.371	22149.91
846.695	22100.42
847.019	22105.85
847.343	21876.25
847.666	21827.89
847.99	21754.89
848.313	21625.41
848.637	21705.18
848.96	21547.67
849.284	21570.94
849.607	21250.05
849.931	21358.07
850.254	21109.94
850.577	21022.26
850.9	20996.04
851.223	20946.55
851.546	20784.98
851.869	20831.08
852.192	20817.52
852.515	20566
852.838	20461.82
853.161	20464.98
853.483	20349.73
853.806	20382.5
854.129	20293.46
854.451	20304.08
854.774	20189.96
855.096	20078.55
855.419	19987.93
855.741	19966.01
856.063	19953.36
856.385	19885.56
856.708	19739.35
857.03	19766.7
857.352	19695.97
857.674	19695.06
857.996	19568.96
858.318	19386.59
858.64	19560.38
858.961	19319.93
859.283	19453.94
859.605	19311.12
859.926	19244.9
860.248	19262.08
860.57	19125.36
860.891	19178.69
861.212	19135.3
861.534	19076.77
861.855	18973.72
862.176	18904.8
862.498	18885.82
862.819	18964.91
863.14	18867.96
863.461	18848.3
863.782	18754.3
864.103	18785.71
864.424	18707.29
864.745	18801.98
865.065	18636.33
865.386	18531.48
865.707	18619.38
866.027	18538.03
866.348	18484.25
866.668	18439.28
866.989	18431.37
867.309	18296.45
867.63	18325.61
867.95	18263.91
868.27	18150.47
868.59	18332.61
868.91	18169
869.23	18117.7
869.55	18010.81
869.87	18090.36
870.19	17950.25
870.51	18048.1
870.83	18015.56
871.15	17889.46
871.469	17922.45
871.789	17957.03
872.109	17990.93
872.428	17826.64
872.748	17914.32
873.067	17830.93
873.386	17774.43
873.706	17832.29
874.025	17705.96
874.344	17604.04
874.663	17692.18
874.982	17554.78
875.301	17567.21
875.62	17555.68
875.939	17468.68
876.258	17529.92
876.577	17354.33
876.896	17441.56
877.214	17358.63
877.533	17441.34
877.852	17489.7
878.17	17331.96
878.489	17277.05
878.807	17227.56
879.125	17163.38
879.444	17202.02
879.762	17105.98
880.08	17256.26
880.398	17047.22
880.716	17192.3
881.034	17021.91
881.352	17141
881.67	17016.71
881.988	17038.63
882.306	16861.46
882.624	16916.38
882.941	16827.57
883.259	16853.33
883.577	16780.11
883.894	16758.19
884.212	16661.02
884.529	16691.98
884.846	16573.11
885.164	16556.61
885.481	16495.37
885.798	16559.32
886.115	16378.09
886.432	16441.36
886.75	16427.35
887.067	16422.15
887.383	16287.92
887.7	16248.37
888.017	16197.07
888.334	16154.59
888.651	16137.41
888.967	16071.65
889.284	15987.81
889.6	16051.77
889.917	15952.33
890.233	16011.99
890.55	15932.67
890.866	15867.14
891.182	15844.54
891.498	15725.45
891.815	15675.05
892.131	15652.23
892.447	15560.93
892.763	15556.64
893.079	15579.92
893.395	15435.06
893.71	15494.95
894.026	15403.87
894.342	15473.48
894.657	15315.52
894.973	15205.24
895.289	15256.76
895.604	15245.69
895.92	15079.36
896.235	15150.1
896.55	15098.35
896.865	14994.17
897.181	14984
897.496	14918.92
897.811	14836.66
898.126	14786.94
898.441	14736.77
898.756	14800.27
899.071	14646.83
899.386	14625.36
899.7	14557.12
900.015	14477.12
900.33	14322.77
900.644	14323.23
900.959	14305.6
901.273	14316.67
901.588	14196
901.902	14179.95
902.216	14050.69
902.531	14135.66
902.845	14038.03
903.159	13906.29
903.473	13930.69
903.787	13791.26
904.101	13798.49
904.415	13845.72
904.729	13638.95
905.042	13662.68
905.356	13621.55
905.67	13593.75
905.984	13648.67
906.297	13476.24
906.611	13376.58
906.924	13420.65
907.237	13358.73
907.551	13288.68
907.864	13236.25
908.177	13205.51
908.491	13143.14
908.804	13027.67
909.117	12890.04
909.43	12851.63
909.743	12862.25
910.056	12909.93
910.368	12774.79
910.681	12746.54
910.994	12670.84
911.307	12643.04
911.619	12567.11
911.932	12571.86
912.244	12444.18
912.557	12488.92
912.869	12292.77
913.181	12370.73
913.494	12248.7
913.806	12202.15
914.118	12166.22
914.43	12055.26
914.742	12128.25
915.054	12016.17
915.366	11920.35
915.678	11921.03
915.99	11852.1
916.302	11785.21
916.613	11710.19
916.925	11762.61
917.236	11745.44
917.548	11655.05
917.859	11598.1
918.171	11578.89
918.482	11443.53
918.794	11385.22
919.105	11439.01
919.416	11346.35
919.727	11349.74
920.038	11289.63
920.349	11168.51
920.66	11155.85
920.971	11171.22
921.282	11120.82
921.593	11030.66
921.903	10935.07
922.214	10939.81
922.525	10744.56
922.835	10783.21
923.146	10756.09
923.456	10759.03
923.767	10653.94
924.077	10714.51
924.387	10649.88
924.697	10568.52
925.008	10501.86
925.318	10460.95
925.628	10412.14
925.938	10458.92
926.248	10355.19
926.558	10219.38
926.867	10249.66
927.177	10200.85
927.487	10152.26
927.796	10098.48
928.106	10044.02
928.416	10065.48
928.725	9990.68
929.034	9849.67
929.344	9969.67
929.653	9899.61
929.962	9771.03
930.271	9797.02
930.581	9731.03
930.89	9700.75
931.199	9673.86
931.508	9626.63
931.817	9599.73
932.125	9537.59
932.434	9502.33
932.743	9394.32
933.051	9407.42
933.36	9397.25
933.669	9333.3
933.977	9268.44
934.286	9251.27
934.594	9214.21
934.902	9224.83
935.21	9154.77
935.519	9068.67
935.827	9052.63
936.135	8950.48
936.443	8943.48
936.751	8932.86
937.059	8850.15
937.367	8845.63
937.674	8830.04
937.982	8815.12
938.29	8732.19
938.597	8730.6
938.905	8626.65
939.213	8632.75
939.52	8572.42
939.827	8615.13
940.135	8567.44
940.442	8434.34
940.749	8425.08
941.056	8468.69
941.363	8408.8
941.67	8359.09
941.977	8284.06
942.284	8283.38
942.591	8232.31
942.898	8183.95
943.205	8235.93
943.511	8150.05
943.818	8143.27
944.125	8112.77
944.431	7995.71
944.738	7951.87
945.044	7968.36
945.35	7924.52
945.657	7818.31
945.963	7863.06
946.269	7762.72
946.575	7763.85
946.881	7693.79
947.187	7657.64
947.493	7655.38
947.799	7630.97
948.105	7602.5
948.41	7525.89
948.716	7564.08
949.022	7484.99
949.327	7466.46
949.633	7381.49
949.938	7325.22
950.244	7411.54
950.549	7308.49
950.854	7262.62
951.16	7269.85
951.465	7199.8
951.77	7191.66
952.075	7168.61
952.38	7100.36
952.685	7136.75
952.99	7076.18
953.294	7063.3
953.599	6973.36
953.904	6947.15
954.209	6924.32
954.513	6954.15
954.818	6855.62
955.122	6850.43
955.426	6832.57
955.731	6817.66
956.035	6791.22
956.339	6657.21
956.643	6717.1
956.948	6638.91
957.252	6684.1
957.556	6611.34
957.86	6543.99
958.163	6615.86
958.467	6562.3
958.771	6525.24
959.075	6527.95
959.378	6408.86
959.682	6445.92
959.985	6354.85
960.289	6305.81
960.592	6262.87
960.896	6287.73
961.199	6267.84
961.502	6240.27
961.805	6176.09
962.108	6141.97
962.411	6107.62
962.714	6096.77
963.017	6098.13
963.32	6102.42
963.623	6041.18
963.926	6042.76
964.228	6033.5
964.531	5969.77
964.833	5944.01
965.136	5885.93
965.438	5925.25
965.741	5824.47
966.043	5838.93
966.345	5778.37
966.648	5784.01
966.95	5778.59
967.252	5698.14
967.554	5693.85
967.856	5685.03
968.158	5655.2
968.46	5590.57
968.761	5613.4
969.063	5590.8
969.365	5532.95
969.666	5550.8
969.968	5518.94
970.269	5472.16
970.571	5478.26
970.872	5476.45
971.174	5403.91
971.475	5395.55
971.776	5372.5
972.077	5321.88
972.378	5306.06
972.679	5285.04
972.98	5249.79
973.281	5277.59
973.582	5216.12
973.883	5224.71
974.183	5186.74
974.484	5174.77
974.785	5149
975.085	5083.69
975.386	5100.42
975.686	5007.76
975.986	5069.68
976.287	5017.26
976.587	4964.6
976.887	4979.74
977.187	4942.68
977.487	4942.45
977.787	4981.32
978.087	4867.43
978.387	4856.58
978.687	4888.44
978.987	4820.88
979.286	4796.24
979.586	4783.14
979.885	4730.93
980.185	4702.69
980.484	4670.6
980.784	4685.74
981.083	4673.31
981.382	4619.53
981.682	4662.69
981.981	4613.2
982.28	4622.24
982.579	4558.74
982.878	4566.87
983.177	4513.31
983.475	4532.07
983.774	4486.42
984.073	4419.98
984.372	4429.25
984.67	4421.56
984.969	4397.38
985.267	4395.35
985.566	4326.43
985.864	4324.39
986.162	4319.19
986.461	4301.57
986.759	4240.55
987.057	4260.44
987.355	4242.81
987.653	4195.36
987.951	4180.89
988.249	4169.14
988.547	4178.63
988.844	4143.38
989.142	4143.38
989.44	4134.57
989.737	4034.46
990.035	4042.59
990.332	4079.65
990.63	4054.12
990.927	4008.02
991.224	4027.45
991.521	3959.43
991.819	3931.86
992.116	3956.49
992.413	3946.1
992.71	3909.94
993.006	3924.63
993.303	3859.77
993.6	3842.37
993.897	3831.07
994.193	3875.36
994.49	3774.12
994.787	3749.27
995.083	3745.2
995.379	3725.76
995.676	3723.05
995.972	3676.27
996.268	3675.14
996.565	3604.18
996.861	3645.54
997.157	3584.52
997.453	3617.52
997.749	3545.2
998.044	3557.41
998.34	3508.14
998.636	3496.17
998.932	3510.85
999.227	3495.49
999.523	3422.72
999.818	3433.79
1000.114	3448.48
1000.409	3419.33
1000.704	3362.61
1001	3355.15
1001.295	3340.24
1001.59	3311.76
1001.885	3312.67
1002.18	3253.46
1002.475	3300.24
1002.77	3240.8
1003.065	3243.06
1003.359	3259.79
1003.654	3205.78
1003.949	3189.96
1004.243	3168.94
1004.538	3136.85
1004.832	3087.14
1005.127	3094.59
1005.421	3083.97
1005.715	3070.87
1006.009	3066.57
1006.304	3039
1006.598	3007.59
1006.892	2984.77
1007.186	2943.64
1007.48	2973.47
1007.773	2940.7
1008.067	2951.77
1008.361	2896.86
1008.655	2931.66
1008.948	2864.54
1009.242	2870.64
1009.535	2834.94
1009.829	2780.48
1010.122	2806.69
1010.415	2742.96
1010.708	2749.07
1011.001	2764.66
1011.295	2718.56
1011.588	2727.6
1011.881	2654.61
1012.173	2679.46
1012.466	2629.3
1012.759	2668.39
1013.052	2656.41
1013.344	2603.53
1013.637	2620.26
1013.93	2606.47
1014.222	2561.27
1014.514	2519.02
1014.807	2544.1
1015.099	2516.3
1015.391	2514.04
1015.683	2440.83
1015.976	2493.71
1016.268	2458.45
1016.56	2424.33
1016.851	2395.4
1017.143	2427.94
1017.435	2401.5
1017.727	2400.6
1018.018	2366.03
1018.31	2340.26
1018.602	2350.66
1018.893	2341.62
1019.185	2257.1
1019.476	2268.63
1019.767	2276.76
1020.058	2242.64
1020.35	2215.52
1020.641	2220.94
1020.932	2203.09
1021.223	2175.07
1021.514	2188.4
1021.804	2137.56
1022.095	2140.49
1022.386	2150.21
1022.677	2127.16
1022.967	2079.93
1023.258	2044.23
1023.548	2053.72
1023.839	2033.38
1024.129	2024.34
1024.419	2061.17
1024.709	2008.52
1025	2013.49
1025.29	1954.06
1025.58	1968.52
1025.87	1936.21
1026.16	1948.86
1026.449	1947.73
1026.739	1944.34
1027.029	1914.96
1027.319	1857.56
1027.608	1859.82
1027.898	1870.9
1028.187	1872.25
1028.477	1807.85
1028.766	1809.66
1029.055	1790.9
1029.344	1794.06
1029.634	1801.07
1029.923	1776.66
1030.212	1802.2
1030.501	1753.84
1030.79	1714.74
1031.078	1712.71
1031.367	1701.41
1031.656	1684.24
1031.945	1690.79
1032.233	1674.74
1032.522	1635.2
1032.81	1646.27
1033.099	1643.11
1033.387	1632.71
1033.675	1616.21
1033.963	1616.44
1034.251	1595.42
1034.54	1568.76
1034.828	1578.48
1035.116	1580.96
1035.403	1551.81
1035.691	1538.02
1035.979	1539.15
1036.267	1525.82
1036.554	1510.68
1036.842	1514.52
1037.129	1488.08
1037.417	1498.03
1037.704	1442.43
1037.992	1444.92
1038.279	1440.85
1038.566	1424.81
1038.853	1424.81
1039.14	1424.81
