Data from 19-3921_FLMS001491_008.txt Node
Date: Thu Apr 19 16:42:10 BST 2018
User: hsy
Spectrometer: FLMS00149
Trigger mode: 0
Integration Time (sec): 1.000000E-2
Scans to average: 10
Electric dark correction enabled: true
Nonlinearity correction enabled: false
Boxcar width: 0
XAxis mode: Wavelengths
Number of Pixels in Spectrum: 2048
>>>>>Begin Spectral Data<<<<<
341.393	-11.98
341.776	-11.98
342.16	-11.98
342.543	-57.17
342.927	-87.68
343.31	-68.02
343.693	-58.76
344.077	-71.18
344.46	-59.66
344.843	-72.31
345.226	-66.89
345.61	-35.48
345.993	-18.3
346.376	-2.26
346.759	0.23
347.142	34.35
347.525	40.68
347.908	55.59
348.291	83.16
348.674	115.03
349.057	123.84
349.44	115.93
349.823	154.12
350.206	168.81
350.588	206.32
350.971	220.33
351.354	227.11
351.737	256.72
352.119	255.81
352.502	274.8
352.884	304.17
353.267	312.08
353.65	316.83
354.032	340.78
354.414	317.73
354.797	356.83
355.179	345.08
355.562	342.59
355.944	350.95
356.326	350.27
356.709	390.72
357.091	350.73
357.473	355.92
357.855	362.93
358.238	358.41
358.62	363.38
359.002	369.93
359.384	364.74
359.766	365.87
360.148	371.52
360.53	337.62
360.912	346.66
361.294	372.19
361.676	363.38
362.057	368.58
362.439	368.58
362.821	362.48
363.203	378.75
363.584	361.57
363.966	378.07
364.348	358.63
364.729	355.24
365.111	348.92
365.493	366.09
365.874	360.22
366.256	353.44
366.637	356.37
367.019	367.45
367.4	365.64
367.781	350.05
368.163	368.8
368.544	352.53
368.925	355.47
369.306	355.24
369.688	382.36
370.069	361.35
370.45	367.9
370.831	364.96
371.212	350.5
371.593	365.19
371.974	359.31
372.355	370.61
372.736	357.5
373.117	382.14
373.498	357.05
373.879	380.1
374.26	368.13
374.641	359.54
375.021	376.49
375.402	374.91
375.783	397.05
376.163	388.46
376.544	384.4
376.925	388.46
377.305	381.68
377.686	386.66
378.066	399.76
378.447	411.97
378.827	404.28
379.208	404.96
379.588	392.98
379.968	404.28
380.349	395.47
380.729	411.74
381.109	408.8
381.489	402.25
381.87	403.83
382.25	427.79
382.63	425.98
383.01	421.68
383.39	434.56
383.77	420.1
384.15	434.56
384.53	425.3
384.91	450.84
385.29	422.81
385.67	461.23
386.049	440.89
386.429	452.64
386.809	448.58
387.189	452.19
387.568	447.9
387.948	463.04
388.328	452.19
388.707	470.72
389.087	461
389.466	451.74
389.846	474.34
390.225	492.64
390.605	498.74
390.984	491.74
391.363	477.28
391.743	506.88
392.122	497.39
392.501	501.23
392.881	512.08
393.26	504.62
393.639	527.22
394.018	522.92
394.397	520.44
394.776	524.51
395.155	538.06
395.534	516.82
395.913	514.79
396.292	563.38
396.671	559.76
397.05	527.44
397.429	553.66
397.808	530.83
398.186	569.25
398.565	569.7
398.944	552.98
399.323	580.32
399.701	566.09
400.08	585.07
400.458	568.12
400.837	599.08
401.215	577.61
401.594	595.46
401.972	625.97
402.351	596.82
402.729	602.7
403.107	615.35
403.486	615.58
403.864	626.65
404.242	630.49
404.62	620.77
404.999	625.29
405.377	671.85
405.755	649.02
406.133	651.51
406.511	667.1
406.889	653.99
407.267	661.9
407.645	705.97
408.023	670.94
408.401	719.76
408.779	707.55
409.156	723.82
409.534	704.61
409.912	764.73
410.29	748.45
410.667	743.48
411.045	760.43
411.422	776.02
411.8	788.23
412.178	768.57
412.555	777.38
412.933	804.95
413.31	798.85
413.687	828.45
414.065	824.84
414.442	825.97
414.819	836.59
415.197	838.62
415.574	844.95
415.951	845.4
416.328	873.65
416.705	874.78
417.082	889.47
417.46	906.87
417.837	875.46
418.214	918.39
418.591	912.52
418.967	920.88
419.344	919.3
419.721	950.71
420.098	945.74
420.475	972.4
420.852	949.35
421.228	968.34
421.605	964.27
421.982	996.36
422.358	993.19
422.735	1011.72
423.111	1039.29
423.488	1028.22
423.864	1002.69
424.241	1058.05
424.617	1064.83
424.994	1025.28
425.37	1045.85
425.746	1069.35
426.123	1092.4
426.499	1099.86
426.875	1100.99
427.251	1115.45
427.627	1135.56
428.003	1176.01
428.379	1157.71
428.756	1172.85
429.132	1182.12
429.507	1203.81
429.883	1220.53
430.259	1226.86
430.635	1246.75
431.011	1272.96
431.387	1289.23
431.763	1303.92
432.138	1304.15
432.514	1317.03
432.89	1346.63
433.265	1365.16
433.641	1384.14
434.016	1385.05
434.392	1401.55
434.767	1432.28
435.143	1477.7
435.518	1463.24
435.894	1480.87
436.269	1489.45
436.644	1526.29
437.02	1529.45
437.395	1518.15
437.77	1522.9
438.145	1564.7
438.52	1582.11
438.895	1603.35
439.271	1580.3
439.646	1639.96
440.021	1658.26
440.395	1639.05
440.77	1626.62
441.145	1633.4
441.52	1668.43
441.895	1654.19
442.27	1702.33
442.645	1677.24
443.019	1721.99
443.394	1724.02
443.769	1749.56
444.143	1750.91
444.518	1762.44
444.892	1747.3
445.267	1769.9
445.641	1780.29
446.016	1789.33
446.39	1824.36
446.764	1811.03
447.139	1815.77
447.513	1844.02
447.887	1840.63
448.262	1837.69
448.636	1884.47
449.01	1916.79
449.384	1901.64
449.758	1922.44
450.132	1929.21
450.506	1933.96
450.88	1930.8
451.254	1939.16
451.628	1994.3
452.002	2008.31
452.376	2036.33
452.75	2058.48
453.123	2059.83
453.497	2090.57
453.871	2104.35
454.244	2133.96
454.618	2206.5
454.992	2181.41
455.365	2213.28
455.739	2250.79
456.112	2262.99
456.486	2273.84
456.859	2330.33
457.232	2324.91
457.606	2375.08
457.979	2367.62
458.352	2403.55
458.725	2449.2
459.099	2469.09
459.472	2470.22
459.845	2554.51
460.218	2567.62
460.591	2556.99
460.964	2603.55
461.337	2628.41
461.71	2660.5
462.083	2705.47
462.456	2698.91
462.829	2723.54
463.201	2801.73
463.574	2782.75
463.947	2796.99
464.32	2886.25
464.692	2871.56
465.065	2918.57
465.438	2966.93
465.81	2978.23
466.183	2992.46
466.555	3074.95
466.928	3073.59
467.3	3076.98
467.672	3115.4
468.045	3206.92
468.417	3173.02
468.789	3189.75
469.161	3274.04
469.534	3330.08
469.906	3352.91
470.278	3386.13
470.65	3424.32
471.022	3486.91
471.394	3517.87
471.766	3537.08
472.138	3541.15
472.51	3655.72
472.882	3675.84
473.253	3745.21
473.625	3806.91
473.997	3828.83
474.369	3850.75
474.74	3887.13
475.112	3977.52
475.484	4020.91
475.855	4102.94
476.227	4136.61
476.598	4253
476.97	4279.21
477.341	4354.69
477.713	4421.13
478.084	4413.22
478.455	4543.84
478.827	4572.08
479.198	4683.27
479.569	4652.08
479.94	4846.88
480.311	4939.76
480.682	4987.21
481.053	5057.27
481.424	5167.77
481.795	5223.37
482.166	5307.43
482.537	5341.78
482.908	5447.09
483.279	5497.03
483.65	5614.32
484.021	5744.48
484.391	5774.99
484.762	5879.62
485.133	5889.79
485.503	6020.63
485.874	6126.62
486.244	6205.49
486.615	6238.93
486.985	6330.91
487.356	6432.37
487.726	6512.37
488.097	6663.1
488.467	6685.93
488.837	6813.83
489.207	6887.95
489.578	7022.19
489.948	7103.99
490.318	7195.29
490.688	7260.6
491.058	7335.63
491.428	7453.36
491.798	7449.52
492.168	7688.16
492.538	7654.71
492.908	7758.21
493.278	7838.44
493.648	7871.88
494.017	7990.3
494.387	8046.34
494.757	8090.41
495.126	8230.52
495.496	8248.14
495.866	8325.88
496.235	8433.45
496.605	8555.93
496.974	8576.27
497.344	8652.43
497.713	8711.41
498.082	8724.52
498.452	8835.7
498.821	8894.68
499.19	8888.81
499.559	8999.31
499.928	9092.42
500.298	9070.27
500.667	9199.31
501.036	9203.15
501.405	9257.61
501.774	9372.41
502.143	9406.31
502.512	9414.67
502.88	9467.32
503.249	9460.09
503.618	9598.84
503.987	9612.63
504.356	9734.66
504.724	9759.97
505.093	9792.06
505.462	9836.13
505.83	9911.38
506.199	10006.29
506.567	10072.5
506.936	10055.33
507.304	10224.36
507.672	10233.63
508.041	10316.11
508.409	10444.02
508.777	10498.26
509.145	10562.21
509.514	10535.77
509.882	10551.36
510.25	10654.18
510.618	10768.53
510.986	10810.34
511.354	10855.08
511.722	10974.63
512.09	11080.39
512.458	11101.63
512.826	11224.56
513.193	11274.96
513.561	11367.84
513.929	11432.24
514.297	11509.53
514.664	11625.23
515.032	11625.46
515.4	11765.57
515.767	11792.23
516.135	11933.02
516.502	11898.67
516.869	12101.83
517.237	12175.95
517.604	12137.76
517.972	12351.77
518.339	12397.41
518.706	12520.12
519.073	12602.83
519.44	12654.13
519.808	12825.2
520.175	12847.57
520.542	12989.94
520.909	13090.5
521.276	13144.97
521.643	13294.34
522.009	13354.68
522.376	13571.39
522.743	13569.36
523.11	13843.25
523.477	13904.72
523.843	13892.06
524.21	14127.99
524.577	14213.86
524.943	14300.87
525.31	14471.48
525.676	14588.77
526.043	14757.8
526.409	14790.35
526.776	15019.94
527.142	14963.67
527.508	15120.73
527.874	15339.94
528.241	15305.81
528.607	15443.44
528.973	15700.6
529.339	15766.14
529.705	15966.59
530.071	16081.39
530.437	16183.53
530.803	16249.06
531.169	16339.68
531.535	16448.38
531.901	16510.07
532.267	16616.29
532.632	16786.68
532.998	16822.16
533.364	16943.51
533.73	16954.13
534.095	17206.55
534.461	17189.15
534.826	17333.56
535.192	17472.08
535.557	17568.13
535.923	17515.25
536.288	17702.36
536.653	17816.25
537.019	17799.08
537.384	17916.82
537.749	17997.72
538.114	17962.47
538.479	18063.25
538.845	18157.04
539.21	18133.76
539.575	18176.92
539.94	18372.4
540.305	18487.88
540.67	18393.19
541.034	18486.29
541.399	18639.74
541.764	18687.87
542.129	18717.7
542.494	18789.56
542.858	18867.75
543.223	18871.82
543.587	19029.56
543.952	19003.57
544.316	19039.05
544.681	19077.24
545.045	19210.57
545.41	19233.39
545.774	19258.25
546.138	19354.07
546.503	19386.83
546.867	19446.72
547.231	19672.03
547.595	19497.34
547.959	19823.66
548.324	19845.35
548.688	19867.5
549.052	19970.77
549.416	19941.4
549.779	19996.99
550.143	20085.12
550.507	20138.23
550.871	20248.28
551.235	20284.89
551.599	20522.17
551.962	20469.07
552.326	20494.15
552.689	20659.34
553.053	20478.78
553.417	20721.94
553.78	20901.6
554.143	20896.63
554.507	20904.76
554.87	21069.95
555.234	21180.46
555.597	21138.88
555.96	21338.87
556.323	21429.49
556.686	21474.01
557.05	21707.45
557.413	21821.8
557.776	21878.75
558.139	21980.66
558.502	22094.33
558.865	22131.17
559.228	22353.54
559.59	22389.02
559.953	22501.1
560.316	22762.57
560.679	22781.32
561.041	23038.04
561.404	23027.87
561.767	23364.58
562.129	23274.42
562.492	23556.89
562.854	23682.99
563.217	23723.44
563.579	23808.41
563.941	24111.23
564.304	24152.81
564.666	24543.99
565.028	24581.95
565.39	24644.55
565.753	25010.87
566.115	25026.23
566.477	25283.63
566.839	25522.04
567.201	25878.42
567.563	25781.69
567.925	26096.49
568.287	26216.49
568.648	26353.88
569.01	26747.09
569.372	26910.7
569.734	27098.04
570.095	27408.32
570.457	27652.61
570.819	27881.3
571.18	28035.87
571.542	28267.73
571.903	28446.71
572.265	28761.5
572.626	28817.77
572.987	29040.14
573.349	29342.28
573.71	29426.8
574.071	29571.43
574.432	29884.19
574.794	30172.09
575.155	30309.71
575.516	30459.99
575.877	30596.48
576.238	30865.86
576.599	30984.27
576.96	31204.6
577.32	31200.76
577.681	31472.17
578.042	31754.42
578.403	31729.34
578.763	31953.28
579.124	31981.08
579.485	32334.29
579.845	32487.51
580.206	32433.05
580.566	32567.96
580.927	32575.19
581.287	32831.91
581.648	32709.65
582.008	32787.84
582.368	32942.64
582.728	33070.54
583.089	33047.27
583.449	33178.11
583.809	33183.08
584.169	33371.78
584.529	33141.05
584.889	33471.21
585.249	33270.31
585.609	33089.75
585.969	33510.53
586.329	33303.53
586.688	33497.42
587.048	33369.07
587.408	33445.45
587.768	33346.69
588.127	33429.4
588.487	33295.17
588.846	33596.18
589.206	33211.33
589.565	33260.59
589.925	33515.95
590.284	33455.62
590.643	33443.64
591.003	33473.24
591.362	33642.28
591.721	33494.49
592.08	33470.98
592.44	33518.89
592.799	33413.81
593.158	33411.55
593.517	33323.42
593.876	33638.66
594.235	33524.09
594.593	33427.6
594.952	33471.89
595.311	33503.07
595.67	33520.93
596.029	33697.65
596.387	33797.08
596.746	33753.01
597.104	33455.84
597.463	33488.84
597.822	33584.65
598.18	33501.94
598.538	33483.64
598.897	33890.63
599.255	33573.58
599.613	33910.07
599.972	33690.19
600.33	33653.13
600.688	33616.29
601.046	33619.46
601.404	33943.06
601.762	33750.07
602.12	33756.63
602.478	33653.8
602.836	33850.64
603.194	33666.91
603.552	33764.99
603.91	33659.68
604.268	33958.43
604.625	33772.67
604.983	34062.61
605.341	33709.62
605.698	34002.72
606.056	34125.43
606.413	33802.05
606.771	34139.89
607.128	34008.6
607.485	33955.72
607.843	33892.89
608.2	34049.05
608.557	34082.04
608.914	34109.39
609.272	34239.1
609.629	34318.42
609.986	34314.13
610.343	34332.43
610.7	34497.17
611.057	34401.81
611.414	34341.47
611.771	34484.97
612.127	34407.46
612.484	34545.31
612.841	34465.99
613.198	34503.5
613.554	34487.45
613.911	34713.89
614.267	34763.83
614.624	34632.31
614.98	34726.32
615.337	34868.46
615.693	34856.94
616.05	34917.05
616.406	35006.99
616.762	34773.55
617.118	34901.23
617.475	34793.89
617.831	35025.29
618.187	35066.65
618.543	35092.86
618.899	35184.84
619.255	35082.24
619.611	35259.41
619.967	35289.02
620.323	35346.19
620.678	35160.88
621.034	35105.97
621.39	35059.64
621.746	35286.3
622.101	35446.07
622.457	35283.14
622.812	35498.28
623.168	35449.92
623.523	35291.95
623.879	35419.86
624.234	35270.03
624.589	35451.72
624.945	35432.97
625.3	35458.05
625.655	35418.96
626.01	35508.9
626.365	35354.1
626.72	35321.78
627.075	35265.97
627.43	35304.38
627.785	35408.79
628.14	35220.99
628.495	35396.81
628.85	35392.29
629.205	35136.93
629.559	35305.29
629.914	35163.37
630.269	35406.98
630.623	35081.79
630.978	34874.56
631.332	35223.93
631.687	35072.52
632.041	34999.08
632.396	35024.62
632.75	34937.61
633.104	34977.39
633.459	34818.52
633.813	34760.89
634.167	34756.37
634.521	34837.73
634.875	34650.84
635.229	34576.04
635.583	34517.06
635.937	34442.94
636.291	34451.98
636.645	34390.96
636.999	34364.97
637.352	34343.5
637.706	34167.69
638.06	34309.61
638.413	34218.31
638.767	34095.15
639.121	34242.49
639.474	34007.69
639.828	33945.77
640.181	33885.44
640.534	34025.32
640.888	33875.95
641.241	33877.75
641.594	33663.07
641.947	33847.47
642.301	33639.79
642.654	33668.72
643.007	33678.44
643.36	33732.45
643.713	33603.41
644.066	33793.01
644.419	33436.63
644.771	33012.01
645.124	32802.53
645.477	32786.71
645.83	32766.6
646.182	32816.54
646.535	32696.99
646.888	32795.07
647.24	32632.14
647.593	32753.04
647.945	32633.04
648.298	32444.12
648.65	32306.95
649.002	32040.97
649.355	32043.9
649.707	31672.16
650.059	31753.74
650.411	32200.74
650.763	32610.44
651.115	33007.72
651.467	32880.04
651.819	32922.52
652.171	32789.19
652.523	32653.6
652.875	32854.28
653.227	32694.06
653.578	32828.74
653.93	32737.44
654.282	32676.2
654.633	32487.96
654.985	32492.48
655.337	32694.96
655.688	32567.73
656.039	32731.12
656.391	32402.99
656.742	32450.9
657.094	32494.51
657.445	32544.68
657.796	32535.19
658.147	32483.44
658.498	32437.79
658.849	32572.7
659.2	32404.35
659.551	32338.58
659.902	32622.87
660.253	32385.36
660.604	32451.8
660.955	32369.32
661.306	32485.93
661.656	32320.96
662.007	32425.81
662.358	32425.14
662.708	32460.84
663.059	32416.32
663.409	32227.4
663.76	32443.21
664.11	32477.11
664.461	32492.25
664.811	32395.53
665.161	32463.33
665.511	32352.6
665.862	32322.77
666.212	32519.82
666.562	32615.87
666.912	32539.03
667.262	32491.8
667.612	32330.22
667.962	32570.22
668.312	32464.68
668.662	32604.57
669.011	32472.37
669.361	32465.59
669.711	32410.67
670.06	32372.93
670.41	32334.07
670.76	32318.02
671.109	32614.28
671.459	32442.31
671.808	32475.98
672.157	32527.73
672.507	32221.98
672.856	32245.93
673.205	32224.01
673.554	32321.18
673.904	32293.16
674.253	32370.22
674.602	32217.01
674.951	31825.83
675.3	31575.89
675.649	32157.57
675.998	32102.88
676.346	32113.28
676.695	32173.62
677.044	31977.69
677.393	32026.95
677.741	32008.42
678.09	32028.76
678.438	31852.5
678.787	32075.31
679.135	31970.68
679.484	31792.16
679.832	31871.7
680.181	31647.53
680.529	31722.78
680.877	31615.67
681.225	31661.09
681.573	31741.99
681.922	31447.76
682.27	31556.68
682.618	31493.64
682.966	31288.22
683.314	31398.95
683.661	31333.64
684.009	31142.01
684.357	31113.76
684.705	31085.51
685.053	31169.58
685.4	30976.36
685.748	30873.54
686.095	30867.66
686.443	30704.96
686.79	30679.42
687.138	30858.4
687.485	30709.25
687.832	30464.06
688.18	30468.35
688.527	30303.38
688.874	30267.9
689.221	30209.38
689.568	30148.81
689.915	30015.26
690.262	29899.78
690.609	29845.32
690.956	29745.43
691.303	29745.43
691.65	29608.26
691.997	29580.01
692.344	29485.55
692.69	29397.87
693.037	29426.8
693.383	29130.31
693.73	29178.22
694.077	29041.95
694.423	29022.97
694.769	28866.13
695.116	28813.25
695.462	28677.21
695.808	28604.22
696.155	28553.6
696.501	28383.21
696.847	28519.7
697.193	28208.75
697.539	28237.68
697.885	27915.88
698.231	27892.6
698.577	27862.54
698.923	27810.79
699.269	27597.92
699.614	27565.6
699.96	27499.62
700.306	27462.33
700.651	27317.93
700.997	27318.38
701.342	27115.45
701.688	27055.11
702.033	26980.53
702.379	26933.08
702.724	26819.86
703.069	26831.61
703.415	26501
703.76	26563.82
704.105	26459.87
704.45	26330.83
704.795	26347.1
705.14	26275.24
705.485	26261.68
705.83	26054.91
706.175	26211.51
706.52	26028.69
706.865	25850.85
707.209	25899.66
707.554	25813.56
707.899	25830.06
708.243	25525.88
708.588	25505.54
708.932	25385.1
709.277	25311.42
709.621	25273.46
709.966	25231.43
710.31	25242.27
710.654	25065.1
710.998	25138.55
711.342	25149.62
711.687	25012.68
712.031	24962.96
712.375	24906.92
712.719	24798.44
713.063	24690.2
713.407	24912.34
713.75	24761.61
714.094	24635.74
714.438	24526.81
714.782	24696.98
715.125	24521.16
715.469	24712.34
715.812	24383.77
716.156	24347.38
716.499	24412.47
716.843	24386.7
717.186	24327.04
717.53	24338.57
717.873	24375.63
718.216	24316.42
718.559	24192.36
718.902	24026.71
719.246	24020.39
719.589	24024.68
719.932	24055.19
720.275	23913.72
720.617	24065.81
720.96	23987.39
721.303	23984.91
721.646	24072.59
721.989	23890.67
722.331	23983.78
722.674	23866.49
723.016	23922.08
723.359	23667.4
723.701	23802.76
724.044	23793.72
724.386	23621.07
724.729	23738.81
725.071	23748.53
725.413	23648.64
725.755	23621.98
726.097	23578.59
726.439	23444.13
726.782	23508.76
727.124	23581.98
727.465	23636.21
727.807	23530.45
728.149	23555.31
728.491	23428.76
728.833	23426.28
729.175	23417.01
729.516	23404.36
729.858	23344.47
730.199	23488.42
730.541	23612.49
730.882	23358.26
731.224	23398.48
731.565	23351.02
731.906	23400.97
732.248	23426.28
732.589	23303.57
732.93	23365.94
733.271	23337.24
733.612	23271.03
733.953	23361.65
734.294	23254.08
734.635	23320.06
734.976	23409.78
735.317	23281.87
735.658	23349.22
735.999	23388.99
736.339	23444.81
736.68	23474.41
737.021	23383.57
737.361	23341.53
737.702	23440.51
738.042	23377.92
738.383	23480.96
738.723	23503.34
739.063	23505.37
739.404	23582.2
739.744	23477.8
740.084	23387.18
740.424	23607.97
740.764	23546.73
741.104	23679.15
741.444	23648.64
741.784	23501.98
742.124	23660.85
742.464	23678.47
742.804	23732.26
743.143	23573.62
743.483	23804.35
743.823	23714.18
744.162	23704.46
744.502	23909.2
744.841	23805.48
745.181	23874.85
745.52	23843.44
745.86	23953.72
746.199	24006.83
746.538	24067.39
746.877	24176.31
747.216	24230.78
747.556	24178.8
747.895	24312.81
748.234	24281.4
748.573	24372.92
748.911	24439.36
749.25	24447.04
749.589	24571.11
749.928	24595.29
750.267	24740.59
750.605	24646.81
750.944	24778.11
751.283	24684.32
751.621	24863.98
751.96	24847.93
752.298	24960.47
752.636	24960.02
752.975	25033.01
753.313	25082.05
753.651	25322.5
753.989	25202.95
754.327	25332.22
754.666	25276.62
755.004	25376.96
755.342	25552.55
755.679	25611.3
756.017	25493.57
756.355	25777.63
756.693	25743.05
757.031	25911.18
757.368	25756.38
757.706	25879.55
758.044	25864.63
758.381	25911.64
758.719	25922.48
759.056	26055.36
759.394	25972.65
759.731	26002.25
760.068	26059.88
760.405	26195.47
760.743	26108.01
761.08	26254.9
761.417	26236.82
761.754	26120.9
762.091	26250.61
762.428	26209.71
762.765	25996.6
763.102	26257.84
763.438	26206.09
763.775	26100.33
764.112	26200.89
764.449	26305.97
764.785	26225.53
765.122	26191.63
765.458	26087.22
765.795	26048.13
766.131	26162.25
766.467	26217.39
766.804	25980.11
767.14	26022.37
767.476	26079.99
767.812	25942.59
768.148	26037.06
768.485	26025.98
768.821	25831.64
769.157	25908.47
769.492	25800
769.828	25793.9
770.164	25660.57
770.5	25681.36
770.836	25696.27
771.171	25681.13
771.507	25534.92
771.842	25508.71
772.178	25510.97
772.513	25461.93
772.849	25357.75
773.184	25350.75
773.519	25209.51
773.855	25199.56
774.19	25159.11
774.525	25001.38
774.86	25028.72
775.195	24941.04
775.53	24787.6
775.865	24716.64
776.2	24640.71
776.535	24414.27
776.87	24513.48
777.205	24369.08
777.539	24404.33
777.874	24481.62
778.209	24135.18
778.543	24194.17
778.878	24048.41
779.212	23992.36
779.547	23844.34
779.881	23951.01
780.215	23658.81
780.55	23805.93
780.884	23564.13
781.218	23635.31
781.552	23608.64
781.886	23457.01
782.22	23340.18
782.554	23226.96
782.888	23070.81
783.222	23019.96
783.556	22909.68
783.889	22922.56
784.223	22739.74
784.557	22820.87
784.89	22809.57
785.224	22654.32
785.557	22497.49
785.891	22485.96
786.224	22464.04
786.558	22512.18
786.891	22284.39
787.224	22142.69
787.557	22008.69
787.891	22125.75
788.224	21943.6
788.557	21966.65
788.89	21775.7
789.223	21930.5
789.556	21714.46
789.888	21665.42
790.221	21547.91
790.554	21496.84
790.887	21460
791.219	21375.94
791.552	21381.81
791.884	21203.06
792.217	21200.12
792.549	21125.09
792.882	20931.88
793.214	20899.11
793.546	20812.33
793.879	20810.3
794.211	20659.12
794.543	20652.34
794.875	20721.04
795.207	20535.28
795.539	20539.57
795.871	20546.13
796.203	20442.85
796.535	20242.86
796.867	20281.27
797.198	20156.98
797.53	19994.95
797.862	19947.5
798.193	20049.64
798.525	19873.38
798.856	20018.91
799.188	19712.48
799.519	19686.49
799.85	19562.65
800.182	19635.42
800.513	19666.6
800.844	19359.26
801.175	19510.22
801.506	19481.75
801.837	19335.76
802.168	19286.72
802.499	19261.19
802.83	19122.66
803.161	19056.45
803.491	19068.43
803.822	19084.24
804.153	18936.68
804.483	18852.39
804.814	18789.11
805.145	18790.01
805.475	18760.18
805.805	18585.95
806.136	18652.84
806.466	18542.11
806.796	18570.36
807.126	18442.9
807.457	18411.72
807.787	18451.27
808.117	18305.73
808.447	18187.32
808.777	18348.67
809.107	18074.78
809.436	18087.66
809.766	18105.06
810.096	17995.01
810.426	17913.65
810.755	17985.52
811.085	17873.2
811.414	17941.9
811.744	17878.63
812.073	17854.22
812.403	17750.95
812.732	17693.77
813.061	17795.24
813.39	17543.04
813.719	17572.42
814.049	17732.87
814.378	17605.86
814.707	17548.47
815.036	17447.68
815.365	17444.51
815.693	17346.44
816.022	17328.13
816.351	17269.83
816.68	17181.02
817.008	17267.12
817.337	17155.71
817.665	17132.43
817.994	17056.27
818.322	17142.15
818.651	16940.12
818.979	17001.13
819.307	16974.69
819.636	16935.6
819.964	16872.55
820.292	16930.18
820.62	16906
820.948	16991.64
821.276	17020.34
821.604	16976.95
821.932	17053.79
822.259	16985.09
822.587	16887.01
822.915	16891.08
823.243	16934.24
823.57	16748.49
823.898	16944.87
824.225	16946.22
824.553	16935.15
824.88	16863.74
825.207	16900.35
825.535	16871.65
825.862	16959.1
826.189	16853.57
826.516	16995.26
826.843	16892.44
827.17	17039.1
827.497	16947.8
827.824	16960.01
828.151	17014.69
828.478	16957.29
828.805	17073.22
829.131	17043.17
829.458	17001.81
829.785	16844.08
830.111	17000
830.438	16942.38
830.764	16880.01
831.09	17005.88
831.417	16916.62
831.743	16990.06
832.069	16881.82
832.395	16884.98
832.722	16900.8
833.048	16826
833.374	16865.09
833.7	16868.71
834.026	16801.37
834.351	16711.43
834.677	16871.19
835.003	16804.98
835.329	16828.71
835.654	16808.37
835.98	16705.1
836.306	16703.97
836.631	16680.69
836.956	16753.23
837.282	16799.56
837.607	16608.83
837.932	16621.48
838.258	16637.53
838.583	16609.96
838.908	16414.94
839.233	16561.37
839.558	16487.02
839.883	16391.89
840.208	16428.95
840.533	16400.7
840.858	16417.42
841.182	16418.55
841.507	16345.56
841.832	16290.65
842.156	16263.75
842.481	16199.35
842.805	16154.38
843.13	16164.32
843.454	16181.04
843.778	16013.14
844.103	16150.54
844.427	16028.96
844.751	16007.04
845.075	15978.34
845.399	15948.06
845.723	15976.08
846.047	15948.28
846.371	15798
846.695	15830.77
847.019	15691.56
847.343	15580.83
847.666	15599.36
847.99	15536.77
848.313	15435.3
848.637	15374.29
848.96	15400.73
849.284	15331.57
849.607	15181.52
849.931	15167.06
850.254	15090
850.577	15000.74
850.9	14905.37
851.223	14873.28
851.546	14852.04
851.869	14707.41
852.192	14839.16
852.515	14575.21
852.838	14531.6
853.161	14620.18
853.483	14444.14
853.806	14568.2
854.129	14448.21
854.451	14372.05
854.774	14299.96
855.096	14340.41
855.419	14241.21
855.741	14180.19
856.063	14092.51
856.385	14051.16
856.708	13969.35
857.03	13972.74
857.352	13929.58
857.674	13960.08
857.996	13913.53
858.318	13853.2
858.64	13830.37
858.961	13764.38
859.283	13706.76
859.605	13639.42
859.926	13681.67
860.248	13635.35
860.57	13562.81
860.891	13635.12
861.212	13541.34
861.534	13480.32
861.855	13468.12
862.176	13435.58
862.498	13460.89
862.819	13443.49
863.14	13386.31
863.461	13356.48
863.782	13282.81
864.103	13356.26
864.424	13292.53
864.745	13281.46
865.065	13116.72
865.386	13178.64
865.707	13134.34
866.027	13140.22
866.348	13157.39
866.668	13017.06
866.989	13036.27
867.309	13023.16
867.63	13092.54
867.95	12983.39
868.27	12962.15
868.59	13009.83
868.91	12975.48
869.23	12998.3
869.55	12885.31
869.87	12885.54
870.19	12827.01
870.51	12858.64
870.83	12769.38
871.15	12758.53
871.469	12754.47
871.789	12723.96
872.109	12748.82
872.428	12717.63
872.748	12758.99
873.067	12652.1
873.386	12654.81
873.706	12669.5
874.025	12529.61
874.344	12577.52
874.663	12545.43
874.982	12475.38
875.301	12537.75
875.62	12455.49
875.939	12514.02
876.258	12534.13
876.577	12479.67
876.896	12430.18
877.214	12436.96
877.533	12350.64
877.852	12346.12
878.17	12323.74
878.489	12424.98
878.807	12348.6
879.125	12297.53
879.444	12307.92
879.762	12263.63
880.08	12314.03
880.398	12288.72
880.716	12184.31
881.034	12211.43
881.352	12132.79
881.67	12094.15
881.988	12092.11
882.306	12018.89
882.624	12056.86
882.941	12052.11
883.259	11968.72
883.577	12019.12
883.894	11919.69
884.212	11898.22
884.529	11914.26
884.846	11879.24
885.164	11791.78
885.481	11796.75
885.798	11790.42
886.115	11735.06
886.432	11784.77
886.75	11700.71
887.067	11634.5
887.383	11675.63
887.7	11605.57
888.017	11534.39
888.334	11505.46
888.651	11535.97
888.967	11442.19
889.284	11419.59
889.6	11396.31
889.917	11389.53
890.233	11400.15
890.55	11429.76
890.866	11318.8
891.182	11392.02
891.498	11324.67
891.815	11241.74
892.131	11152.25
892.447	11192.7
892.763	11137.33
893.079	11165.36
893.395	11094.4
893.71	11074.51
894.026	11037.9
894.342	11076.32
894.657	10923.55
894.973	10995.87
895.289	10917.68
895.604	10824.8
895.92	10860.51
896.235	10796.78
896.55	10733.05
896.865	10766.72
897.181	10628.2
897.496	10761.52
897.811	10687.18
898.126	10608.31
898.441	10591.36
898.756	10552.04
899.071	10500.06
899.386	10563.56
899.7	10423.45
900.015	10378.26
900.33	10392.04
900.644	10288.32
900.959	10314.08
901.273	10282.44
901.588	10148.66
901.902	10121.54
902.216	10087.19
902.531	10082.45
902.845	10038.15
903.159	9918.84
903.473	9912.28
903.787	9832.96
904.101	9848.1
904.415	9919.97
904.729	9876.58
905.042	9778.05
905.356	9698.73
905.67	9775.34
905.984	9695.11
906.297	9672.06
906.611	9547.77
906.924	9545.96
907.237	9585.28
907.551	9513.2
907.864	9494.67
908.177	9472.29
908.491	9391.62
908.804	9340.55
909.117	9348.23
909.43	9206.99
909.743	9198.4
910.056	9173.09
910.368	9197.05
910.681	9167.44
910.994	9184.84
911.307	8990.27
911.619	9024.85
911.932	9030.95
912.244	8892.42
912.557	8936.94
912.869	8848.58
913.181	8838.41
913.494	8841.35
913.806	8784.18
914.118	8736.72
914.43	8703.95
914.742	8653.33
915.054	8629.15
915.366	8589.38
915.678	8588.93
915.99	8557.52
916.302	8492.88
916.613	8436.84
916.925	8480.68
917.236	8373.79
917.548	8353.23
917.859	8332.21
918.171	8312.1
918.482	8205.43
918.794	8272.32
919.105	8203.63
919.416	8158.43
919.727	8237.98
920.038	8092.44
920.349	8055.38
920.66	8020.13
920.971	8064.19
921.282	7952.11
921.593	7974.03
921.903	7830.98
922.214	7905.33
922.525	7796.41
922.835	7798.21
923.146	7698.78
923.456	7693.36
923.767	7662.85
924.077	7668.05
924.387	7663.3
924.697	7537.43
925.008	7592.12
925.318	7558.9
925.628	7522.06
925.938	7473.93
926.248	7425.12
926.558	7388.96
926.867	7370.88
927.177	7351.9
927.487	7256.53
927.796	7338.11
928.106	7284.78
928.416	7225.35
928.725	7196.87
929.034	7156.87
929.344	7147.61
929.653	7082.3
929.962	7152.13
930.271	7045.92
930.581	7014.05
930.89	7009.76
931.199	6921.85
931.508	6940.83
931.817	6941.96
932.125	6880.5
932.434	6871.46
932.743	6820.61
933.051	6770.22
933.36	6707.62
933.669	6742.2
933.977	6762.08
934.286	6660.39
934.594	6648.86
934.902	6671.46
935.21	6600.28
935.519	6587.4
935.827	6539.72
936.135	6499.94
936.443	6419.72
936.751	6379.04
937.059	6433.05
937.367	6375.65
937.674	6393.73
937.982	6323
938.29	6275.77
938.597	6302.43
938.905	6271.02
939.213	6213.62
939.52	6190.57
939.827	6146.05
940.135	6102.44
940.442	6097.01
940.749	6052.95
941.056	6100.63
941.363	6028.32
941.67	6002.1
941.977	5956.23
942.284	5911.93
942.591	5955.55
942.898	5896.57
943.205	5849.11
943.511	5868.77
943.818	5859.05
944.125	5806.4
944.431	5773.41
944.738	5746.29
945.044	5727.08
945.35	5731.15
945.657	5680.08
945.963	5690.7
946.269	5613.86
946.575	5595.79
946.881	5589.68
947.187	5565.73
947.493	5551.27
947.799	5500.19
948.105	5508.33
948.41	5429.46
948.716	5436.69
949.022	5400.99
949.327	5427.88
949.633	5391.27
949.938	5355.11
950.244	5337.49
950.549	5318.05
950.854	5272.18
951.16	5273.31
951.465	5238.73
951.77	5248.22
952.075	5184.04
952.38	5146.08
952.685	5132.07
952.99	5124.84
953.294	5092.3
953.599	5081.9
953.904	5058.4
954.209	4993.77
954.513	5039.19
954.818	5003.94
955.122	4997.38
955.426	4989.25
955.731	4967.55
956.035	4906.99
956.339	4917.84
956.643	4874
956.948	4837.16
957.252	4861.57
957.556	4809.82
957.86	4794.22
958.163	4763.72
958.467	4771.63
958.771	4746.99
959.075	4757.16
959.378	4701.57
959.682	4730.5
959.985	4662.25
960.289	4653.21
960.592	4569.15
960.896	4583.16
961.199	4561.24
961.502	4578.41
961.805	4561.91
962.108	4494.35
962.411	4473.55
962.714	4444.85
963.017	4447.57
963.32	4449.83
963.623	4363.73
963.926	4388.59
964.228	4384.74
964.531	4381.58
964.833	4354.24
965.136	4347.91
965.438	4310.4
965.741	4262.03
966.043	4253.22
966.345	4263.39
966.648	4239.21
966.95	4221.58
967.252	4210.74
967.554	4170.96
967.856	4148.59
968.158	4128.7
968.46	4125.77
968.761	4078.31
969.063	4147.91
969.365	4083.28
969.666	4071.31
969.968	4055.03
970.269	4016.62
970.571	4011.19
970.872	3965.77
971.174	4005.32
971.475	3946.79
971.776	3955.6
972.077	3898.65
972.378	3904.76
972.679	3886
972.98	3882.61
973.281	3888.71
973.582	3849.62
973.883	3807.36
974.183	3823.85
974.484	3793.35
974.785	3786.12
975.085	3756.51
975.386	3762.16
975.686	3715.61
975.986	3705.89
976.287	3685.78
976.587	3688.04
976.887	3683.97
977.187	3681.49
977.487	3641.03
977.787	3615.05
978.087	3627.48
978.387	3555.61
978.687	3559.45
978.987	3595.16
979.286	3547.25
979.586	3511.32
979.885	3508.16
980.185	3509.06
980.484	3482.39
980.784	3482.85
981.083	3439.46
981.382	3455.5
981.682	3430.64
981.981	3379.57
982.28	3384.54
982.579	3357.88
982.878	3366.01
983.177	3341.61
983.475	3350.42
983.774	3355.39
984.073	3313.13
984.372	3287.15
984.67	3293.92
984.969	3273.36
985.267	3236.3
985.566	3221.16
985.864	3152.91
986.162	3187.26
986.461	3177.32
986.759	3178.22
987.057	3159.92
987.355	3147.71
987.653	3115.62
987.951	3095.06
988.249	3067.04
988.547	3081.5
988.844	3078.11
989.142	3062.74
989.44	3026.59
989.737	3025.68
990.035	2977.1
990.332	3015.51
990.63	3039.24
990.927	2994.5
991.224	2993.59
991.521	2967.83
991.819	2935.52
992.116	2903.2
992.413	2921.05
992.71	2900.71
993.006	2940.71
993.303	2861.17
993.6	2831.11
993.897	2812.58
994.193	2834.28
994.49	2826.14
994.787	2794.5
995.083	2754.28
995.379	2747.5
995.676	2751.11
995.972	2739.81
996.268	2731
996.565	2688.29
996.861	2686.03
997.157	2672.25
997.453	2664.79
997.749	2675.64
998.044	2630.67
998.34	2653.94
998.636	2625.69
998.932	2615.98
999.227	2608.97
999.523	2601.29
999.818	2598.8
1000.114	2552.48
1000.409	2499.37
1000.704	2526.49
1001	2519.93
1001.295	2488.3
1001.59	2507.73
1001.885	2466.15
1002.18	2467.96
1002.475	2478.8
1002.77	2441.97
1003.065	2428.18
1003.359	2429.99
1003.654	2383.44
1003.949	2345.93
1004.243	2362.2
1004.538	2392.93
1004.832	2352.71
1005.127	2325.81
1005.421	2309.54
1005.715	2297.34
1006.009	2278.58
1006.304	2304.35
1006.598	2234.29
1006.892	2234.97
1007.186	2241.97
1007.48	2231.13
1007.773	2170.34
1008.067	2184.8
1008.361	2188.19
1008.655	2186.84
1008.948	2141.64
1009.242	2167.17
1009.535	2124.46
1009.829	2109.55
1010.122	2141.86
1010.415	2101.87
1010.708	2084.24
1011.001	2109.55
1011.295	2062.09
1011.588	2063.67
1011.881	2043.79
1012.173	2023.45
1012.466	2010.34
1012.759	1999.5
1013.052	2006.27
1013.344	1974.19
1013.637	1943.68
1013.93	1977.12
1014.222	1930.57
1014.514	1904.58
1014.807	1931.47
1015.099	1894.19
1015.391	1892.83
1015.683	1886.96
1015.976	1892.61
1016.268	1855.09
1016.56	1863.23
1016.851	1840.18
1017.143	1829.33
1017.435	1847.18
1017.727	1814.42
1018.018	1802.44
1018.31	1818.71
1018.602	1740.52
1018.893	1775.09
1019.185	1762.89
1019.476	1746.17
1019.767	1753.85
1020.058	1720.63
1020.35	1711.14
1020.641	1670.92
1020.932	1695.77
1021.223	1641.31
1021.514	1646.06
1021.804	1637.7
1022.095	1647.87
1022.386	1627.98
1022.677	1630.24
1022.967	1608.09
1023.258	1590.24
1023.548	1624.14
1023.839	1599.51
1024.129	1570.35
1024.419	1569.22
1024.709	1551.82
1025	1551.15
1025.29	1495.55
1025.58	1531.26
1025.87	1493.75
1026.16	1516.12
1026.449	1488.77
1026.739	1481.54
1027.029	1452.17
1027.319	1430.24
1027.608	1437.7
1027.898	1439.74
1028.187	1415.1
1028.477	1439.96
1028.766	1439.74
1029.055	1408.32
1029.344	1388.21
1029.634	1378.04
1029.923	1358.61
1030.212	1393.18
1030.501	1356.57
1030.79	1324.71
1031.078	1374.43
1031.367	1338.27
1031.656	1332.62
1031.945	1295.33
1032.233	1291.94
1032.522	1298.95
1032.81	1287.42
1033.099	1295.56
1033.387	1272.73
1033.675	1260.53
1033.963	1268.89
1034.251	1254.2
1034.54	1233.41
1034.828	1205.62
1035.116	1227.76
1035.403	1213.75
1035.691	1218.5
1035.979	1210.82
1036.267	1203.36
1036.554	1172.62
1036.842	1176.92
1037.129	1177.14
1037.417	1143.02
1037.704	1174.21
1037.992	1151.16
1038.279	1138.73
1038.566	1129.01
1038.853	1129.01
1039.14	1129.01
