Data from 19-3935_FLMS001491_005.txt Node
Date: Thu Apr 19 16:40:12 BST 2018
User: hsy
Spectrometer: FLMS00149
Trigger mode: 0
Integration Time (sec): 1.000000E-2
Scans to average: 10
Electric dark correction enabled: true
Nonlinearity correction enabled: false
Boxcar width: 0
XAxis mode: Wavelengths
Number of Pixels in Spectrum: 2048
>>>>>Begin Spectral Data<<<<<
341.393	-9.53
341.776	-9.53
342.16	-9.53
342.543	-70.55
342.927	-63.77
343.31	-72.81
343.693	-77.1
344.077	-73.03
344.46	-44.79
344.843	-74.84
345.226	-49.76
345.61	-16.09
345.993	-17.67
346.376	-13.38
346.759	11.48
347.142	17.81
347.525	64.36
347.908	55.78
348.291	81.54
348.674	99.16
349.057	109.33
349.44	137.13
349.823	150.24
350.206	174.87
350.588	228.88
350.971	242.21
351.354	264.13
351.737	278.37
352.119	296.67
352.502	307.07
352.884	304.13
353.267	324.47
353.65	328.76
354.032	334.19
354.414	351.36
354.797	349.1
355.179	381.42
355.562	363.11
355.944	370.57
356.326	358.82
356.709	362.89
357.091	366.95
357.473	383
357.855	384.13
358.238	404.92
358.62	399.5
359.002	380.51
359.384	402.43
359.766	376.67
360.148	390.68
360.53	396.56
360.912	393.17
361.294	385.94
361.676	383.45
362.057	398.14
362.439	373.96
362.821	370.34
363.203	361.53
363.584	354.07
363.966	371.93
364.348	392.04
364.729	371.02
365.111	360.4
365.493	381.87
365.874	360.85
366.256	371.02
366.637	370.12
367.019	363.56
367.4	391.81
367.781	384.35
368.163	350.46
368.544	368.54
368.925	395.43
369.306	368.99
369.688	373.96
370.069	381.87
370.45	374.19
370.831	361.3
371.212	367.41
371.593	378.25
371.974	373.73
372.355	372.6
372.736	369.44
373.117	382.55
373.498	374.86
373.879	386.61
374.26	370.34
374.641	394.3
375.021	375.54
375.402	379.16
375.783	389.1
376.163	389.33
376.544	390.46
376.925	400.17
377.305	398.37
377.686	413.05
378.066	407.63
378.447	413.51
378.827	416.9
379.208	412.6
379.588	427.97
379.968	426.61
380.349	415.09
380.729	415.99
381.109	432.26
381.489	425.03
381.87	416.67
382.25	423.9
382.63	414.41
383.01	423.9
383.39	432.71
383.77	436.33
384.15	437.23
384.53	442.66
384.91	468.65
385.29	454.41
385.67	461.87
386.049	461.87
386.429	462.09
386.809	485.59
387.189	466.61
387.568	466.84
387.948	467.74
388.328	492.37
388.707	466.61
389.087	486.95
389.466	475.2
389.846	486.72
390.225	505.48
390.605	492.83
390.984	505.48
391.363	487.18
391.743	500.06
392.122	520.85
392.501	524.92
392.881	509.77
393.26	508.64
393.639	531.92
394.018	533.5
394.397	521.98
394.776	543.67
395.155	541.19
395.534	549.77
395.913	538.02
396.292	555.65
396.671	568.98
397.05	563.78
397.429	552.49
397.808	574.41
398.186	592.71
398.565	583.9
398.944	575.31
399.323	579.6
399.701	583.67
400.08	603.78
400.458	584.35
400.837	590.45
401.215	609.89
401.594	617.79
401.972	602.2
402.351	628.87
402.729	615.31
403.107	615.53
403.486	648.53
403.864	635.65
404.242	619.83
404.62	649.88
404.999	637.91
405.377	640.84
405.755	661.18
406.133	663.89
406.511	661.64
406.889	687.17
407.267	713.16
407.645	714.06
408.023	706.15
408.401	706.38
408.779	725.14
409.156	750.22
409.534	743.21
409.912	749.77
410.29	749.77
410.667	766.94
411.045	771.69
411.422	773.5
411.8	782.54
412.178	788.64
412.555	807.39
412.933	831.12
413.31	826.6
413.687	835.87
414.065	827.96
414.442	846.26
414.819	862.76
415.197	893.72
415.574	896.21
415.951	898.01
416.328	924.68
416.705	911.57
417.082	886.94
417.46	926.71
417.837	932.14
418.214	908.18
418.591	951.35
418.967	967.84
419.344	981.85
419.721	960.61
420.098	969.2
420.475	1000.38
420.852	1012.36
421.228	1001.29
421.605	1026.37
421.982	1017.78
422.358	1031.34
422.735	1034.73
423.111	1041.51
423.488	1041.06
423.864	1046.48
424.241	1083.77
424.617	1110.21
424.994	1105.92
425.37	1105.24
425.746	1141.4
426.123	1155.41
426.499	1155.18
426.875	1173.03
427.251	1185.01
427.627	1203.09
428.003	1185.24
428.379	1219.36
428.756	1225.69
429.132	1273.82
429.507	1272.24
429.883	1286.03
430.259	1299.81
430.635	1314.05
431.011	1326.25
431.387	1340.26
431.763	1347.94
432.138	1376.19
432.514	1372.8
432.89	1387.94
433.265	1419.36
433.641	1462.74
434.016	1453.03
434.392	1474.5
434.767	1495.29
435.143	1506.81
435.518	1529.18
435.894	1550.65
436.269	1587.26
436.644	1599.46
437.02	1575.51
437.395	1602.63
437.77	1633.81
438.145	1619.58
438.52	1664.77
438.895	1683.76
439.271	1678.56
439.646	1729.86
440.021	1746.35
440.395	1744.32
440.77	1745.9
441.145	1733.92
441.52	1774.15
441.895	1784.32
442.27	1800.14
442.645	1794.26
443.019	1806.46
443.394	1829.97
443.769	1834.94
444.143	1840.14
444.518	1882.85
444.892	1869.06
445.267	1861.6
445.641	1908.16
446.016	1926.69
446.39	1928.72
446.764	1927.36
447.139	1953.58
447.513	1923.75
447.887	1947.03
448.262	1961.26
448.636	2002.39
449.01	2014.14
449.384	2043.07
449.758	2048.27
450.132	2091.2
450.506	2104.08
450.88	2075.16
451.254	2078.55
451.628	2094.37
452.002	2150.41
452.376	2157.42
452.75	2159.45
453.123	2192.67
453.497	2221.59
453.871	2262.05
454.244	2292.55
454.618	2303.4
454.992	2328.26
455.365	2318.31
455.739	2387.69
456.112	2360.8
456.486	2423.85
456.859	2422.94
457.232	2493.23
457.606	2524.64
457.979	2536.61
458.352	2608.93
458.725	2614.58
459.099	2611.64
459.472	2663.39
459.845	2705.65
460.218	2695.25
460.591	2727.34
460.964	2738.87
461.337	2763.95
461.71	2833.78
462.083	2868.13
462.456	2859.54
462.829	2866.77
463.201	2955.13
463.574	2940.9
463.947	2974.12
464.32	3048.47
464.692	3069.48
465.065	3052.98
465.438	3106.32
465.81	3168.24
466.183	3171.17
466.555	3234.67
466.928	3205.75
467.3	3229.7
467.672	3309.93
468.045	3382.24
468.417	3361.68
468.789	3365.97
469.161	3434.67
469.534	3457.49
469.906	3499.3
470.278	3526.19
470.65	3602.8
471.022	3636.92
471.394	3716.24
471.766	3722.35
472.138	3777.71
472.51	3799.86
472.882	3846.41
473.253	3925.96
473.625	3945.16
473.997	4023.13
474.369	4047.99
474.74	4104.26
475.112	4134.54
475.484	4231.94
475.855	4261.77
476.227	4318.26
476.598	4408.43
476.97	4426.06
477.341	4530.01
477.713	4563.91
478.084	4635.32
478.455	4713.73
478.827	4778.82
479.198	4892.26
479.569	4893.61
479.94	4987.17
480.311	5069.88
480.682	5195.75
481.053	5276.88
481.424	5357.1
481.795	5452.7
482.166	5442.53
482.537	5550.09
482.908	5693.37
483.279	5678.23
483.65	5805
484.021	5896.53
484.391	5997.77
484.762	5977.88
485.133	6050.19
485.503	6172.22
485.874	6319.34
486.244	6349.17
486.615	6474.59
486.985	6473.23
487.356	6690.63
487.726	6695.37
488.097	6868.03
488.467	6895.14
488.837	6973.11
489.207	7136.95
489.578	7184.63
489.948	7289.03
490.318	7400.67
490.688	7455.58
491.058	7525.86
491.428	7618.97
491.798	7673.88
492.168	7864.38
492.538	7872.74
492.908	7993.19
493.278	8075.68
493.648	8186.41
494.017	8212.85
494.387	8289.68
494.757	8307.54
495.126	8372.84
495.496	8518.38
495.866	8613.29
496.235	8668.88
496.605	8775.55
496.974	8806.73
497.344	8853.06
497.713	8827.07
498.082	8978.25
498.452	8975.31
498.821	8990.68
499.19	9025.71
499.559	9206.04
499.928	9207.85
500.298	9319.03
500.667	9360.39
501.036	9390.67
501.405	9468.86
501.774	9474.96
502.143	9563.55
502.512	9622.53
502.88	9665.69
503.249	9617.78
503.618	9785.01
503.987	9763.54
504.356	9795.86
504.724	9926.02
505.093	9932.8
505.462	9894.16
505.83	10115.85
506.199	10139.13
506.567	10227.71
506.936	10250.99
507.304	10296.18
507.672	10393.58
508.041	10304.55
508.409	10476.07
508.777	10543.64
509.145	10613.24
509.514	10669.28
509.882	10773.69
510.25	10720.35
510.618	10793.35
510.986	10775.27
511.354	10961.93
511.722	11022.72
512.09	11091.42
512.458	11114.69
512.826	11262.49
513.193	11213.45
513.561	11327.8
513.929	11381.81
514.297	11440.79
514.664	11606.43
515.032	11682.36
515.4	11713.77
515.767	11711.29
516.135	11793.32
516.502	11735.69
516.869	12010.49
517.237	12082.8
517.604	12020.21
517.972	12118.51
518.339	12307.43
518.706	12371.38
519.073	12417.48
519.44	12439.18
519.808	12635.33
520.175	12616.35
520.542	12826.29
520.909	12907.41
521.276	12985.83
521.643	13160.52
522.009	13198.25
522.376	13274.64
522.743	13393.28
523.11	13600.05
523.477	13623.55
523.843	13761.86
524.21	13936.54
524.577	14071.23
524.943	14097.67
525.31	14105.58
525.676	14308.06
526.043	14400.48
526.409	14402.29
526.776	14733.58
527.142	14774.48
527.508	14887.93
527.874	15024.2
528.241	15129.5
528.607	15167.24
528.973	15366.33
529.339	15342.61
529.705	15548.7
530.071	15648.59
530.437	15836.83
530.803	15907.79
531.169	15992.76
531.535	16021.68
531.901	16057.61
532.267	16166.54
532.632	16332.86
532.998	16496.7
533.364	16529.69
533.73	16629.58
534.095	16691.95
534.461	16751.83
534.826	16859.85
535.192	17009.45
535.557	17100.3
535.923	17113.18
536.288	17239.5
536.653	17187.75
537.019	17246.96
537.384	17416.67
537.749	17420.52
538.114	17569.44
538.479	17639.04
538.845	17704.12
539.21	17696.44
539.575	17712.94
539.94	17839.71
540.305	17964.01
540.67	18018.24
541.034	18005.59
541.399	18024.57
541.764	18158.35
542.129	18244.45
542.494	18257.33
542.858	18235.64
543.223	18294.84
543.587	18465.91
543.952	18449.42
544.316	18461.85
544.681	18523.99
545.045	18634.5
545.41	18695.96
545.774	18789.52
546.138	18800.14
546.503	18881.72
546.867	18883.3
547.231	18994.26
547.595	18967.37
547.959	19072.45
548.324	19070.19
548.688	19165.78
549.052	19240.13
549.416	19170.98
549.779	19282.16
550.143	19321.26
550.507	19410.07
550.871	19560.57
551.235	19555.38
551.599	19691.42
551.962	19699.78
552.326	19831.07
552.689	19846.44
553.053	19795.82
553.417	19883.73
553.78	20084.63
554.143	20051.63
554.507	20211.86
554.87	20249.14
555.234	20512.64
555.597	20395.13
555.96	20467.89
556.323	20551.73
556.686	20673.76
557.05	20839.18
557.413	20860.88
557.776	20923.93
558.139	21011.16
558.502	21215.22
558.865	21220.19
559.228	21430.35
559.59	21416.57
559.953	21567.3
560.316	21801.42
560.679	21765.26
561.041	21997.35
561.404	22052.94
561.767	22341.97
562.129	22328.86
562.492	22614.96
562.854	22751.9
563.217	22812.92
563.579	22912.12
563.941	23044.78
564.304	23358.21
564.666	23642.5
565.028	23633.91
565.39	23817.18
565.753	23997.74
566.115	24155.03
566.477	24420.56
566.839	24491.29
567.201	24790.49
567.563	24948.23
567.925	25193.87
568.287	25398.16
568.648	25556.57
569.01	25732.39
569.372	26133.73
569.734	26193.62
570.095	26537.34
570.457	26750.21
570.819	26975.07
571.18	27120.15
571.542	27444.43
571.903	27541.38
572.265	27806.46
572.626	28089.61
572.987	28309.5
573.349	28584.29
573.71	28792.87
574.071	28943.38
574.432	29230.38
574.794	29530.93
575.155	29579.74
575.516	29711.49
575.877	29962.33
576.238	30115.1
576.599	30419.5
576.96	30464.92
577.32	30750.11
577.681	30885.7
578.042	31271.45
578.403	31272.81
578.763	31299.93
579.124	31498.11
579.485	31738.33
579.845	31836.41
580.206	31884.09
580.566	31971.77
580.927	32009.74
581.287	32192.11
581.648	32172.22
582.008	32574.24
582.368	32588.25
582.728	32563.17
583.089	32605.65
583.449	32644.75
583.809	32924.06
584.169	33041.12
584.529	32840.9
584.889	33064.85
585.249	32884.97
585.609	32854.01
585.969	33081.35
586.329	33072.31
586.688	33279.31
587.048	33131.97
587.408	33125.41
587.768	33110.05
588.127	33177.39
588.487	33187.56
588.846	33437.95
589.206	33123.38
589.565	33364.73
589.925	33470.72
590.284	33360.21
590.643	33415.12
591.003	33419.42
591.362	33640.2
591.721	33516.14
592.08	33485.4
592.44	33721.56
592.799	33574.89
593.158	33563.14
593.517	33614.44
593.876	33569.02
594.235	33632.29
594.593	33653.31
594.952	33787.54
595.311	33810.37
595.67	33873.64
596.029	33995.22
596.387	34004.26
596.746	34049.91
597.104	33847.43
597.463	33849.46
597.822	34106.86
598.18	33999.52
598.538	33971.72
598.897	34247.87
599.255	34054.88
599.613	34432.72
599.972	34188.44
600.33	34283.35
600.688	34156.35
601.046	34242.67
601.404	34462.33
601.762	34415.78
602.12	34570.8
602.478	34379.62
602.836	34499.62
603.194	34368.77
603.552	34572.83
603.91	34513.63
604.268	34458.26
604.625	34620.52
604.983	34712.27
605.341	34564.7
605.698	34756.56
606.056	34867.52
606.413	34645.15
606.771	34923.79
607.128	34853.96
607.485	34704.13
607.843	34757.24
608.2	34836.78
608.557	34875.65
608.914	34891.7
609.272	35184.57
609.629	35283.55
609.986	35210.33
610.343	35246.04
610.7	35447.39
611.057	35384.34
611.414	35293.72
611.771	35351.34
612.127	35459.36
612.484	35488.52
612.841	35768.28
613.198	35646.25
613.554	35562.86
613.911	35820.71
614.267	35862.07
614.624	35702.97
614.98	35784.33
615.337	36107.26
615.693	36082.4
616.05	35983.64
616.406	36093.7
616.762	35996.53
617.118	36077.43
617.475	35864.55
617.831	36218.67
618.187	36245.78
618.543	36246.91
618.899	36382.28
619.255	36324.2
619.611	36184.09
619.967	36436.97
620.323	36406.23
620.678	36394.25
621.034	36400.58
621.39	36368.49
621.746	36322.62
622.101	36693.91
622.457	36335.27
622.812	36713.79
623.168	36656.85
623.523	36740.91
623.879	36849.61
624.234	36560.8
624.589	36633.57
624.945	36646.45
625.3	36713.57
625.655	36803.28
626.01	36792.89
626.365	36590.18
626.72	36508.38
627.075	36528.49
627.43	36494.82
627.785	36587.92
628.14	36436.74
628.495	36619.56
628.85	36613.91
629.205	36255.5
629.559	36585.44
629.914	36566.23
630.269	36449.85
630.623	36327.82
630.978	36155.84
631.332	36343.63
631.687	36440.36
632.041	36256.41
632.396	36181.38
632.75	36089.63
633.104	36224.99
633.459	36024.1
633.813	35999.92
634.167	36091.21
634.521	35968.5
634.875	36060.93
635.229	35886.02
635.583	35728.28
635.937	35790.2
636.291	35763.54
636.645	35578.91
636.999	35518.57
637.352	35631.79
637.706	35352.02
638.06	35485.13
638.413	35445.35
638.767	35265.02
639.121	35342.76
639.474	35128.53
639.828	35277
640.181	35085.59
640.534	35194.96
640.888	35132.37
641.241	34978.92
641.594	35045.14
641.947	35137.56
642.301	34945.03
642.654	34963.11
643.007	34961.3
643.36	34944.8
643.713	34806.73
644.066	35034.06
644.419	34731.93
644.771	34423.01
645.124	34128.55
645.477	34220.98
645.83	33995
646.182	34057.14
646.535	33990.7
646.888	33980.53
647.24	33990.48
647.593	34197.25
647.945	33922.23
648.298	33841.78
648.65	33571.05
649.002	33395.24
649.355	33294.22
649.707	33096.71
650.059	33139.43
650.411	33674.78
650.763	33934.88
651.115	34443.57
651.467	34360.64
651.819	34440.63
652.171	34319.96
652.523	34230.92
652.875	34223.92
653.227	34111.83
653.578	34329.9
653.93	34318.15
654.282	33992.51
654.633	34037.03
654.985	34025.96
655.337	34122.45
655.688	34177.59
656.039	34306.85
656.391	33923.36
656.742	34034.32
657.094	34064.82
657.445	34108.21
657.796	34225.5
658.147	34064.15
658.498	34234.76
658.849	34139.85
659.2	34133.07
659.551	34135.11
659.902	34259.62
660.253	34198.83
660.604	34295.78
660.955	34154.31
661.306	34321.77
661.656	34223.92
662.007	34296.01
662.358	34248.55
662.708	34407.87
663.059	34192.28
663.409	34061.43
663.76	34317.93
664.11	34435.89
664.461	34376.45
664.811	34471.59
665.161	34375.1
665.511	34202
665.862	34246.51
666.212	34391.82
666.562	34445.38
666.912	34339.17
667.262	34138.5
667.612	34189.34
667.962	34363.57
668.312	34204.03
668.662	34377.36
669.011	34456
669.361	34237.7
669.711	34322.44
670.06	34166.74
670.41	34098.95
670.76	34302.56
671.109	34466.4
671.459	34089
671.808	34192.05
672.157	34332.16
672.507	34074.99
672.856	33896.24
673.205	34060.53
673.554	34263.92
673.904	34037.48
674.253	34355.44
674.602	34009.46
674.951	33649.92
675.3	33431.17
675.649	34084.49
675.998	33996.8
676.346	33936.24
676.695	33949.57
677.044	33638.17
677.393	33819.86
677.741	33920.87
678.09	33657.38
678.438	33494.67
678.787	33689.02
679.135	33550.71
679.484	33317.27
679.832	33597.27
680.181	33459.42
680.529	33505.29
680.877	33331.06
681.225	33326.54
681.573	33476.37
681.922	33281.57
682.27	33170.16
682.618	33089.48
682.966	33175.58
683.314	33058.98
683.661	32974.23
684.009	32877.96
684.357	32845.87
684.705	32707.12
685.053	32853.11
685.4	32707.57
685.748	32460.35
686.095	32486.56
686.443	32314.59
686.79	32291.09
687.138	32388.03
687.485	32285.21
687.832	32070.98
688.18	32041.6
688.527	31901.04
688.874	31912.34
689.221	31876.18
689.568	31694.72
689.915	31606.36
690.262	31658.33
690.609	31468.73
690.956	31283.65
691.303	31422.41
691.65	31238.68
691.997	31087.28
692.344	31059.48
692.69	30979.03
693.037	30945.58
693.383	30680.28
693.73	30692.48
694.077	30497.46
694.423	30459.04
694.769	30294.75
695.116	30312.83
695.462	30187.64
695.808	29967.31
696.155	30029.45
696.501	29683.7
696.847	29702.23
697.193	29508.56
697.539	29591.5
697.885	29403.03
698.231	29183.82
698.577	29119.19
698.923	29145.86
699.269	28908.12
699.614	28862.7
699.96	28697.51
700.306	28597.4
700.651	28603.27
700.997	28311.98
701.342	28430.4
701.688	28304.52
702.033	28159.44
702.379	28154.25
702.724	27881.94
703.069	27990.86
703.415	27644.2
703.76	27611.44
704.105	27592.45
704.45	27500.93
704.795	27402.4
705.14	27285.57
705.485	27262.97
705.83	27119.02
706.175	27193.82
706.52	27253.48
706.865	26972.36
707.209	26954.5
707.554	26815.52
707.899	26826.6
708.243	26561.07
708.588	26582.31
708.932	26453.73
709.277	26424.12
709.621	26211.02
709.966	26238.82
710.31	26129.44
710.654	25904.36
710.998	26084.92
711.342	26095.32
711.687	26029.33
712.031	25837.02
712.375	25721.54
712.719	25626.4
713.063	25662.79
713.407	25855.55
713.75	25573.97
714.094	25604.71
714.438	25478.84
714.782	25460.76
715.125	25363.36
715.469	25392.06
715.812	25285.39
716.156	25250.37
716.499	25300.08
716.843	25167.21
717.186	25133.08
717.53	25204.94
717.873	25290.59
718.216	25136.7
718.559	25044.5
718.902	24863.71
719.246	24981.67
719.589	24870.04
719.932	24936.7
720.275	24846.08
720.617	24947.32
720.96	24785.52
721.303	24991.39
721.646	24824.84
721.989	24771.06
722.331	24879.53
722.674	24864.39
723.016	24762.24
723.359	24731.51
723.701	24644.73
724.044	24645.41
724.386	24464.63
724.729	24703.26
725.071	24616.94
725.413	24693.55
725.755	24757.72
726.097	24520.44
726.439	24495.36
726.782	24594.11
727.124	24599.08
727.465	24641.34
727.807	24557.5
728.149	24633.89
728.491	24567.22
728.833	24574.45
729.175	24556.6
729.516	24609.48
729.858	24522.48
730.199	24565.87
730.541	24592.98
730.882	24631.4
731.224	24742.36
731.565	24531.52
731.906	24612.87
732.248	24783.71
732.589	24518.18
732.93	24569.93
733.271	24572.64
733.612	24676.6
733.953	24776.48
734.294	24666.88
734.635	24626.2
734.976	24835.01
735.317	24712.98
735.658	24780.77
735.999	24722.02
736.339	24831.62
736.68	24888.79
737.021	24799.08
737.361	24811.96
737.702	25060.77
738.042	24974.44
738.383	25009.47
738.723	25099.64
739.063	25077.26
739.404	25176.24
739.744	25099.64
740.084	25129.47
740.424	25287.43
740.764	25282.46
741.104	25510.93
741.444	25324.04
741.784	25365.39
742.124	25481.1
742.464	25630.24
742.804	25595.22
743.143	25669.79
743.483	25904.36
743.823	25728.77
744.162	25879.05
744.502	26003.57
744.841	26064.58
745.181	26280.17
745.52	26240.17
745.86	26236.56
746.199	26340.51
746.538	26488.07
746.877	26846.71
747.216	26816.43
747.556	26902.08
747.895	27004.9
748.234	26988.85
748.573	27280.6
748.911	27301.39
749.25	27406.92
749.589	27485.79
749.928	27796.97
750.267	27881.94
750.605	27964.65
750.944	28135.49
751.283	28231.76
751.621	28505.87
751.96	28585.65
752.298	28711.97
752.636	28864.51
752.975	28964.85
753.313	29027.22
753.651	29423.14
753.989	29361.67
754.327	29728.44
754.666	29658.84
755.004	29916.46
755.342	30085.04
755.679	30292.27
756.017	30298.14
756.355	30558.7
756.693	30587.18
757.031	30936.55
757.368	30856.77
757.706	31164.79
758.044	31137.44
758.381	31538.11
758.719	31521.84
759.056	31773.81
759.394	31868.05
759.731	31832.57
760.068	32008.83
760.405	32131.99
760.743	32045.44
761.08	32481.82
761.417	32412.66
761.754	32458.99
762.091	32780.79
762.428	32634.35
762.765	32863.73
763.102	33014
763.438	33112.08
763.775	32997.51
764.112	33185.75
764.449	33207.45
764.785	33348.91
765.122	33189.59
765.458	33296.48
765.795	33342.13
766.131	33561.11
766.467	33505.52
766.804	33423.26
767.14	33556.36
767.476	33481.11
767.812	33660.09
768.148	33736.02
768.485	33720.43
768.821	33500.09
769.157	33547.1
769.492	33647.21
769.828	33599.3
770.164	33412.64
770.5	33424.62
770.836	33509.59
771.171	33371.28
771.507	33426.42
771.842	33226.65
772.178	33462.81
772.513	33375.13
772.849	33291.74
773.184	33355.46
773.519	33251.06
773.855	33019.88
774.19	33158.63
774.525	33045.64
774.86	33012.42
775.195	33016.49
775.53	33094.91
775.865	32885.65
776.2	32766.1
776.535	32635.03
776.87	32691.53
777.205	32431.87
777.539	32418.31
777.874	32491.98
778.209	32243.86
778.543	32370.86
778.878	32087.7
779.212	32234.14
779.547	31883.64
779.881	31995.27
780.215	31891.55
780.55	31971.77
780.884	31818.1
781.218	31635.96
781.552	31733.13
781.886	31593.48
782.22	31398.68
782.554	31279.36
782.888	31119.14
783.222	31142.42
783.556	30898.13
783.889	30916.43
784.223	30782.2
784.557	30727.51
784.89	30766.38
785.224	30591.47
785.557	30559.61
785.891	30440.29
786.224	30478.93
786.558	30424.24
786.891	30261.76
787.224	30023.35
787.557	29913.75
787.891	29913.75
788.224	29770.93
788.557	29733.19
788.89	29738.84
789.223	29717.14
789.556	29531.38
789.888	29458.17
790.221	29226.53
790.554	29252.52
790.887	29152.41
791.219	29065.63
791.552	29092.07
791.884	28913.77
792.217	28874.68
792.549	28838.07
792.882	28487.57
793.214	28542.26
793.546	28638.75
793.879	28487.57
794.211	28128.94
794.543	28305.65
794.875	28297.74
795.207	28259.55
795.539	28018.43
795.871	28089.84
796.203	27865.44
796.535	27740.7
796.867	27704.31
797.198	27598.78
797.53	27539.8
797.862	27301.84
798.193	27405.11
798.525	27274.72
798.856	27223.2
799.188	26995.86
799.519	27046.7
799.85	26841.74
800.182	26966.03
800.513	26891.68
800.844	26579.15
801.175	26771.23
801.506	26628.18
801.837	26404.69
802.168	26512.71
802.499	26526.72
802.83	26362.88
803.161	26101.87
803.491	26240.62
803.822	26388.64
804.153	25978.94
804.483	25929.67
804.814	25654.2
805.145	25887.41
805.475	25824.14
805.805	25711.6
806.136	25738.94
806.466	25544.37
806.796	25516.8
807.126	25338.95
807.457	25411.72
807.787	25443.36
808.117	25362
808.447	25148.22
808.777	25234.1
809.107	24977.83
809.436	24843.6
809.766	25080.2
810.096	25039.07
810.426	24829.14
810.755	24910.49
811.085	24699.87
811.414	24862.13
811.744	24639.31
812.073	24631.17
812.403	24636.82
812.732	24504.85
813.061	24611.74
813.39	24306.89
813.719	24345.08
814.049	24417.39
814.378	24324.74
814.707	24161.81
815.036	24170.85
815.365	24100.57
815.693	23870.52
816.022	23867.8
816.351	23893.11
816.68	23751.2
817.008	23894.7
817.337	23683.18
817.665	23655.38
817.994	23651.99
818.322	23693.57
818.651	23531.54
818.979	23568.15
819.307	23448.83
819.636	23457.19
819.964	23394.37
820.292	23428.95
820.62	23392.79
820.948	23617.19
821.276	23528.38
821.604	23482.96
821.932	23440.92
822.259	23441.83
822.587	23478.21
822.915	23405.67
823.243	23489.74
823.57	23421.71
823.898	23537.87
824.225	23427.36
824.553	23382.62
824.88	23465.1
825.207	23466.91
825.535	23422.62
825.862	23520.7
826.189	23344.2
826.516	23651.99
826.843	23561.15
827.17	23610.86
827.497	23546.91
827.824	23423.3
828.151	23559.56
828.478	23514.37
828.805	23658.77
829.131	23452.9
829.458	23598.66
829.785	23339.23
830.111	23452
830.438	23598.89
830.764	23483.18
831.09	23520.92
831.417	23416.29
831.743	23581.94
832.069	23437.53
832.395	23487.93
832.722	23468.04
833.048	23432.11
833.374	23455.39
833.7	23387.14
834.026	23398.44
834.351	23309.18
834.677	23433.69
835.003	23397.76
835.329	23339.68
835.654	23321.38
835.98	23259.01
836.306	23273.92
836.631	23118.67
836.956	23279.35
837.282	23192.57
837.607	23035.51
837.932	23189.18
838.258	23181.95
838.583	23081.38
838.908	23026.92
839.233	23090.2
839.558	22974.95
839.883	22890.2
840.208	22878
840.533	22817.44
840.858	22915.51
841.182	22784.67
841.507	22706.93
841.832	22775.86
842.156	22709.19
842.481	22753.03
842.805	22545.13
843.13	22595.07
843.454	22497.22
843.778	22389.2
844.103	22427.84
844.427	22362.31
844.751	22394.85
845.075	22464.68
845.399	22199.37
845.723	22046.61
846.047	22047.74
846.371	21961.87
846.695	21933.62
847.019	21773.62
847.343	21661.53
847.666	21704.02
847.99	21562.33
848.313	21480.3
848.637	21501.54
848.96	21373.41
849.284	21332.28
849.607	21156.92
849.931	21127.31
850.254	21003.47
850.577	20894.32
850.9	20784.5
851.223	20779.98
851.546	20697.04
851.869	20600.32
852.192	20689.81
852.515	20344.51
852.838	20443.94
853.161	20381.57
853.483	20175.02
853.806	20184.74
854.129	20127.11
854.451	20083.72
854.774	19921.24
855.096	19907.46
855.419	19829.94
855.741	19762.6
856.063	19682.15
856.385	19545.88
856.708	19561.25
857.03	19521.93
857.352	19403.52
857.674	19492.33
857.996	19367.81
858.318	19242.16
858.64	19186.12
858.961	19121.94
859.283	19142.28
859.605	19012.34
859.926	19086.01
860.248	18970.31
860.57	18826.58
860.891	18880.59
861.212	18815.73
861.534	18687.83
861.855	18765.57
862.176	18883.98
862.498	18818.67
862.819	18706.36
863.14	18602.63
863.461	18521.28
863.782	18576.42
864.103	18529.87
864.424	18477.21
864.745	18534.84
865.065	18294.62
865.386	18288.29
865.707	18402.86
866.027	18344.33
866.348	18263.43
866.668	18195.41
866.989	18241.51
867.309	18045.36
867.63	18155.86
867.95	18139.37
868.27	18112.02
868.59	18121.97
868.91	18054.4
869.23	18036.09
869.55	17975.76
869.87	17937.11
870.19	17851.01
870.51	17933.95
870.83	17788.64
871.15	17855.31
871.469	17701.41
871.789	17789.77
872.109	17892.59
872.428	17686.72
872.748	17673.62
873.067	17696.67
873.386	17613.96
873.706	17484.24
874.025	17579.83
874.344	17481.31
874.663	17582.55
874.982	17426.39
875.301	17456.45
875.62	17337.81
875.939	17330.58
876.258	17438.6
876.577	17321.31
876.896	17258.03
877.214	17246.74
877.533	17270.69
877.852	17290.12
878.17	17168.55
878.489	17296.45
878.807	17158.6
879.125	17161.77
879.444	17055.1
879.762	16990.25
880.08	17163.12
880.398	16940.08
880.716	16949.12
881.034	16865.28
881.352	16891.94
881.67	16826.86
881.988	16862.11
882.306	16822.11
882.624	16782.12
882.941	16746.18
883.259	16653.31
883.577	16609.92
883.894	16615.34
884.212	16580.99
884.529	16661.67
884.846	16496.25
885.164	16388.68
885.481	16465.51
885.798	16376.48
886.115	16265.29
886.432	16346.19
886.75	16251.96
887.067	16255.35
887.383	16248.34
887.7	16206.99
888.017	16063.72
888.334	16013.77
888.651	15954.11
888.967	15986.43
889.284	15933.78
889.6	15912.76
889.917	15832.54
890.233	15808.58
890.55	15776.27
890.866	15710.5
891.182	15733.78
891.498	15641.35
891.815	15602.03
892.131	15530.17
892.447	15447.69
892.763	15440.46
893.079	15446.78
893.395	15358.65
893.71	15389.61
894.026	15348.25
894.342	15409.95
894.657	15177.19
894.973	15171.54
895.289	15173.34
895.604	15056.51
895.92	15004.31
896.235	14949.62
896.55	14910.98
896.865	14873.01
897.181	14759.34
897.496	14775.16
897.811	14671.21
898.126	14620.36
898.441	14672.79
898.756	14546.92
899.071	14431.44
899.386	14539.46
899.7	14328.85
900.015	14268.73
900.33	14251.79
900.644	14240.71
900.959	14193.48
901.273	14187.83
901.588	14083.66
901.902	13981.51
902.216	13957.78
902.531	13924.56
902.845	13870.78
903.159	13766.83
903.473	13689.54
903.787	13700.61
904.101	13610
904.415	13651.35
904.729	13561.41
905.042	13453.39
905.356	13541.07
905.67	13452.71
905.984	13388.53
906.297	13368.19
906.611	13280.29
906.924	13275.54
907.237	13264.92
907.551	13148.99
907.864	13112.16
908.177	13103.57
908.491	12982.44
908.804	12909.45
909.117	12955.55
909.43	12794.65
909.743	12775.21
910.056	12755.1
910.368	12625.61
910.681	12611.83
910.994	12501.78
911.307	12469.91
911.619	12400.54
911.932	12404.38
912.244	12248.22
912.557	12288.67
912.869	12219.52
913.181	12172.07
913.494	12172.97
913.806	12087.32
914.118	12008.91
914.43	11971.39
914.742	11960.1
915.054	11866.76
915.366	11843.04
915.678	11759.87
915.99	11742.25
916.302	11695.24
916.613	11592.87
916.925	11607.11
917.236	11625.41
917.548	11551.52
917.859	11471.97
918.171	11383.39
918.482	11289.38
918.794	11226.56
919.105	11321.02
919.416	11217.06
919.727	11169.38
920.038	11153.34
920.349	11028.82
920.66	11054.36
920.971	11070.85
921.282	10987.24
921.593	10902.5
921.903	10811.65
922.214	10833.12
922.525	10743.63
922.835	10663.86
923.146	10586.35
923.456	10574.82
923.767	10543.86
924.077	10509.74
924.387	10516.97
924.697	10439.46
925.008	10410.31
925.318	10372.57
925.628	10333.7
925.938	10309.74
926.248	10247.37
926.558	10231.33
926.867	10178.67
927.177	10119.24
927.487	10046.47
927.796	9989.98
928.106	9962.63
928.416	9949.53
928.725	9912.69
929.034	9849.64
929.344	9873.82
929.653	9867.27
929.962	9699.14
930.271	9652.81
930.581	9727.84
930.89	9558.8
931.199	9531.01
931.508	9550.89
931.817	9507.05
932.125	9457.11
932.434	9440.16
932.743	9371.24
933.051	9319.03
933.36	9270.9
933.669	9225.48
933.977	9164.24
934.286	9206.95
934.594	9119.49
934.902	9148.42
935.21	8940.06
935.519	8989.55
935.827	9013.51
936.135	8896.22
936.443	8879.95
936.751	8830.46
937.059	8794.75
937.367	8732.16
937.674	8828.88
937.982	8731.25
938.29	8717.69
938.597	8605.16
938.905	8602.9
939.213	8524.48
939.52	8525.61
939.827	8530.13
940.135	8481.77
940.442	8435.67
940.749	8342.56
941.056	8427.08
941.363	8320.42
941.67	8224.83
941.977	8178.95
942.284	8186.64
942.591	8175.79
942.898	8149.35
943.205	8109.8
943.511	8001.56
943.818	8065.96
944.125	7975.79
944.431	7882.46
944.738	7915.46
945.044	7868.23
945.35	7792.75
945.657	7748.91
945.963	7760.43
946.269	7725.4
946.575	7704.61
946.881	7604.96
947.187	7650.83
947.493	7558.63
947.799	7511.62
948.105	7484.51
948.41	7447.67
948.716	7522.47
949.022	7392.76
949.327	7418.75
949.633	7302.14
949.938	7309.14
950.244	7332.42
950.549	7190.95
950.854	7213.55
951.16	7210.84
951.465	7232.76
951.77	7102.6
952.075	7078.42
952.38	7064.86
952.685	7070.73
952.99	7047.91
953.294	7011.75
953.599	6964.29
953.904	6871.64
954.209	6851.75
954.513	6903.96
954.818	6807.46
955.122	6864.64
955.426	6796.62
955.731	6758.2
956.035	6712.55
956.339	6688.82
956.643	6651.99
956.948	6559.79
957.252	6547.58
957.556	6525.66
957.86	6530.86
958.163	6572.67
958.467	6468.26
958.771	6467.13
959.075	6421.71
959.378	6366.57
959.682	6369.73
959.985	6328.15
960.289	6324.99
960.592	6292.67
960.896	6297.19
961.199	6244.99
961.502	6218.55
961.805	6133.36
962.108	6126.58
962.411	6120.93
962.714	6027.6
963.017	6076.86
963.32	6077.54
963.623	6013.36
963.926	5985.11
964.228	5956.19
964.531	5990.31
964.833	5947.6
965.136	5884.1
965.438	5848.39
965.741	5827.15
966.043	5791.9
966.345	5755.51
966.648	5779.24
966.95	5728.17
967.252	5686.81
967.554	5677.77
967.856	5639.13
968.158	5608.85
968.46	5628.51
968.761	5598.91
969.063	5550.55
969.365	5549.64
969.666	5497.21
969.968	5457.89
970.269	5415.63
970.571	5417.67
970.872	5386.71
971.174	5377.9
971.475	5385.58
971.776	5385.8
972.077	5300.16
972.378	5311.23
972.679	5259.03
972.98	5248.86
973.281	5226.03
973.582	5234.62
973.883	5149.65
974.183	5188.3
974.484	5121.63
974.785	5090.22
975.085	5094.06
975.386	5084.57
975.686	5038.47
975.986	5051.8
976.287	5005.48
976.587	4940.84
976.887	4965.02
977.187	4948.08
977.487	4915.31
977.787	4875.54
978.087	4862.2
978.387	4798.02
978.687	4845.48
978.987	4785.59
979.286	4725.48
979.586	4798.7
979.885	4696.11
980.185	4675.99
980.484	4662.66
980.784	4666.28
981.083	4649.78
981.382	4622.89
981.682	4606.16
981.981	4602.77
982.28	4590.35
982.579	4579.5
982.878	4502.89
983.177	4489.78
983.475	4479.84
983.774	4429.67
984.073	4438.03
984.372	4407.07
984.67	4384.93
984.969	4393.29
985.267	4370.69
985.566	4353.06
985.864	4298.38
986.162	4269
986.461	4271.94
986.759	4307.41
987.057	4252.05
987.355	4211.82
987.653	4192.39
987.951	4153.07
988.249	4144.48
988.547	4179.28
988.844	4121.88
989.142	4115.1
989.44	4089.79
989.737	4050.25
990.035	4004.6
990.332	4011.6
990.63	4003.69
990.927	3991.27
991.224	3959.63
991.521	3932.51
991.819	3949.46
992.116	3898.84
992.413	3864.26
992.71	3881.89
993.006	3856.35
993.303	3838.95
993.6	3808.45
993.897	3797.82
994.193	3768.22
994.49	3748.11
994.787	3685.74
995.083	3709.24
995.379	3697.04
995.676	3662.69
995.972	3664.95
996.268	3620.88
996.565	3589.69
996.861	3587.21
997.157	3591.28
997.453	3574.78
997.749	3551.95
998.044	3501.56
998.34	3511.5
998.636	3499.3
998.932	3458.4
999.227	3472.18
999.523	3443.03
999.818	3394.67
1000.114	3423.37
1000.409	3398.06
1000.704	3392.64
1001	3367.33
1001.295	3335.01
1001.59	3299.53
1001.885	3306.54
1002.18	3255.47
1002.475	3241
1002.77	3276.48
1003.065	3185.64
1003.359	3222.02
1003.654	3223.6
1003.949	3184.05
1004.243	3134.34
1004.538	3116.03
1004.832	3110.84
1005.127	3081.68
1005.421	3082.14
1005.715	3057.96
1006.009	3050.5
1006.304	3048.47
1006.598	3012.31
1006.892	2988.58
1007.186	2982.25
1007.48	2949.03
1007.773	2961.91
1008.067	2888.92
1008.361	2858.41
1008.655	2872.2
1008.948	2835.82
1009.242	2852.09
1009.535	2814.57
1009.829	2803.5
1010.122	2799.43
1010.415	2800.56
1010.708	2801.24
1011.001	2737.06
1011.295	2738.87
1011.588	2702.94
1011.881	2671.07
1012.173	2665.2
1012.466	2662.94
1012.759	2623.39
1013.052	2643.5
1013.344	2615.93
1013.637	2605.76
1013.93	2554.01
1014.222	2540.91
1014.514	2569.61
1014.807	2522.6
1015.099	2495.03
1015.391	2520.34
1015.683	2493
1015.976	2464.75
1016.268	2457.52
1016.56	2418.2
1016.851	2383.62
1017.143	2403.06
1017.435	2375.04
1017.727	2372.55
1018.018	2351.31
1018.31	2314.93
1018.602	2335.72
1018.893	2302.95
1019.185	2263.63
1019.476	2292.78
1019.767	2248.94
1020.058	2248.49
1020.35	2209.62
1020.641	2198.32
1020.932	2224.53
1021.223	2184.98
1021.514	2169.17
1021.804	2179.79
1022.095	2111.31
1022.386	2156.74
1022.677	2095.72
1022.967	2106.79
1023.258	2062.5
1023.548	2044.42
1023.839	2048.49
1024.129	2046.68
1024.419	2024.09
1024.709	2001.26
1025	1974.37
1025.29	1975.95
1025.58	1964.88
1025.87	1970.08
1026.16	1949.96
1026.449	1915.16
1026.739	1910.87
1027.029	1896.86
1027.319	1881.94
1027.608	1848.27
1027.898	1861.38
1028.187	1854.37
1028.477	1821.38
1028.766	1796.29
1029.055	1801.94
1029.344	1826.35
1029.634	1769.63
1029.923	1766.92
1030.212	1799.68
1030.501	1762.17
1030.79	1717.43
1031.078	1733.02
1031.367	1720.14
1031.656	1690.53
1031.945	1696.86
1032.233	1687.37
1032.522	1653.93
1032.81	1655.06
1033.099	1634.72
1033.387	1627.71
1033.675	1634.04
1033.963	1594.27
1034.251	1593.81
1034.54	1583.19
1034.828	1568.96
1035.116	1552.46
1035.403	1562.85
1035.691	1537.09
1035.979	1528.96
1036.267	1472.24
1036.554	1486.92
1036.842	1466.81
1037.129	1453.25
1037.417	1466.81
1037.704	1482.4
1037.992	1476.75
1038.279	1447.6
1038.566	1426.59
1038.853	1426.59
1039.14	1426.59
