Data from 19-3921_FLMS001491_005.txt Node
Date: Thu Apr 19 16:42:02 BST 2018
User: hsy
Spectrometer: FLMS00149
Trigger mode: 0
Integration Time (sec): 1.000000E-2
Scans to average: 10
Electric dark correction enabled: true
Nonlinearity correction enabled: false
Boxcar width: 0
XAxis mode: Wavelengths
Number of Pixels in Spectrum: 2048
>>>>>Begin Spectral Data<<<<<
341.393	8.01
341.776	8.01
342.16	8.01
342.543	-53.01
342.927	-71.09
343.31	-75.15
343.693	-76.51
344.077	-63.63
344.46	-80.8
344.843	-60.69
345.226	-43.52
345.61	-24.76
345.993	-11.88
346.376	4.39
346.759	17.73
347.142	34.9
347.525	35.35
347.908	56.14
348.291	72.19
348.674	90.72
349.057	125.52
349.44	133.43
349.823	136.37
350.206	175.01
350.588	218.62
350.971	235.35
351.354	251.39
351.737	274.89
352.119	293.65
352.502	293.42
352.884	295.23
353.267	321.67
353.65	318.73
354.032	338.4
354.414	344.27
354.797	356.93
355.179	358.28
355.562	342.24
355.944	355.8
356.326	356.02
356.709	379.75
357.091	380.65
357.473	387.89
357.855	389.24
358.238	380.43
358.62	385.63
359.002	398.28
359.384	376.36
359.766	382.24
360.148	389.69
360.53	391.73
360.912	389.47
361.294	396.7
361.676	375.46
362.057	365.06
362.439	392.86
362.821	377.72
363.203	386.53
363.584	354.67
363.966	373.87
364.348	372.97
364.729	374.55
365.111	365.96
365.493	375
365.874	390.15
366.256	360.99
366.637	376.59
367.019	366.42
367.4	375
367.781	378.62
368.163	370.71
368.544	363.25
368.925	391.73
369.306	377.72
369.688	381.56
370.069	381.33
370.45	384.04
370.831	374.78
371.212	368.22
371.593	382.46
371.974	386.98
372.355	366.64
372.736	387.21
373.117	391.73
373.498	399.18
373.879	397.83
374.26	384.72
374.641	391.73
375.021	385.63
375.402	398.28
375.783	416.13
376.163	413.65
376.544	404.16
376.925	398.96
377.305	409.81
377.686	401.44
378.066	418.17
378.447	402.12
378.827	431.95
379.208	431.95
379.588	426.53
379.968	421.78
380.349	430.14
380.729	403.7
381.109	426.3
381.489	438.96
381.87	433.76
382.25	423.14
382.63	430.37
383.01	433.99
383.39	431.95
383.77	460.43
384.15	464.49
384.53	466.75
384.91	465.85
385.29	436.92
385.67	462.91
386.049	484.38
386.429	480.54
386.809	471.72
387.189	482.8
387.568	471.5
387.948	481.22
388.328	493.19
388.707	488.45
389.087	499.07
389.466	494.32
389.846	525.28
390.225	500.88
390.605	500.65
390.984	529.58
391.363	519.86
391.743	525.28
392.122	538.84
392.501	536.13
392.881	536.81
393.26	560.76
393.639	547.2
394.018	538.39
394.397	548.11
394.776	556.02
395.155	546.07
395.534	566.41
395.913	576.13
396.292	577.94
396.671	580.2
397.05	572.29
397.429	598.05
397.808	597.6
398.186	612.06
398.565	605.05
398.944	603.25
399.323	587.2
399.701	612.74
400.08	623.81
400.458	618.84
400.837	604.15
401.215	631.49
401.594	635.56
401.972	640.08
402.351	658.61
402.729	640.31
403.107	655.9
403.486	662.91
403.864	663.13
404.242	681.66
404.62	681.21
404.999	679.4
405.377	699.29
405.755	692.51
406.133	708.33
406.511	719.4
406.889	722.79
407.267	726.41
407.645	738.38
408.023	763.24
408.401	742.68
408.779	772.28
409.156	766.86
409.534	766.86
409.912	808.89
410.29	790.59
410.667	820.19
411.045	830.81
411.422	814.77
411.8	831.72
412.178	843.01
412.555	875.33
412.933	873.3
413.31	883.47
413.687	907.42
414.065	884.82
414.442	882.11
414.819	897.7
415.197	920.98
415.574	939.06
415.951	937.7
416.328	938.38
416.705	941.32
417.082	971.6
417.46	964.37
417.837	977.7
418.214	997.36
418.591	1000.75
418.967	1010.47
419.344	1017.02
419.721	1023.8
420.098	1016.12
420.475	1066.51
420.852	1062.44
421.228	1048.43
421.605	1066.74
421.982	1076.45
422.358	1075.78
422.735	1102.22
423.111	1089.34
423.488	1117.13
423.864	1109.45
424.241	1105.15
424.617	1141.31
424.994	1165.04
425.37	1160.97
425.746	1182.44
426.123	1192.84
426.499	1217.47
426.875	1193.29
427.251	1217.69
427.627	1282.33
428.003	1264.92
428.379	1293.17
428.756	1293.62
429.132	1288.65
429.507	1343.79
429.883	1321.19
430.259	1335.88
430.635	1363.23
431.011	1372.27
431.387	1414.75
431.763	1409.78
432.138	1447.07
432.514	1446.16
432.89	1458.14
433.265	1481.87
433.641	1515.54
434.016	1501.3
434.392	1566.16
434.767	1579.04
435.143	1593.5
435.518	1588.53
435.894	1606.38
436.269	1664.24
436.644	1668.98
437.02	1682.99
437.395	1670.56
437.77	1711.47
438.145	1732.26
438.52	1727.06
438.895	1781.97
439.271	1747.62
439.646	1792.59
440.021	1802.31
440.395	1821.52
440.77	1795.76
441.145	1832.59
441.52	1817.23
441.895	1878.92
442.27	1877.11
442.645	1872.14
443.019	1883.44
443.394	1900.39
443.769	1909.2
444.143	1913.27
444.518	1974.28
444.892	1944.68
445.267	1973.38
445.641	1993.04
446.016	2012.02
446.39	1997.11
446.764	1998.01
447.139	2012.93
447.513	2020.61
447.887	2020.61
448.262	2047.28
448.636	2040.27
449.01	2094.73
449.384	2120.95
449.758	2088.18
450.132	2119.59
450.506	2175.86
450.88	2209.76
451.254	2188.74
451.628	2188.06
452.002	2253.82
452.376	2278.68
452.75	2324.56
453.123	2279.81
453.497	2334.73
453.871	2335.86
454.244	2403.43
454.618	2456.08
454.992	2420.6
455.365	2437.32
455.739	2514.16
456.112	2516.42
456.486	2578.34
456.859	2550.54
457.232	2623.53
457.606	2638.45
457.979	2696.75
458.352	2728.39
458.725	2736.75
459.099	2727.48
459.472	2811.1
459.845	2790.76
460.218	2837.54
460.591	2865.79
460.964	2898.33
461.337	2991.21
461.71	3003.18
462.083	3026.23
462.456	3036.4
462.829	3026.91
463.201	3139.9
463.574	3138.32
463.947	3171.09
464.32	3199.34
464.692	3240.01
465.065	3277.3
465.438	3351.2
465.81	3377.41
466.183	3386.22
466.555	3436.17
466.928	3477.07
467.3	3484.98
467.672	3492.66
468.045	3638.42
468.417	3580.12
468.789	3617.86
469.161	3668.93
469.534	3699.66
469.906	3791.41
470.278	3830.28
470.65	3821.69
471.022	3926.32
471.394	3924.97
471.766	4011.74
472.138	4055.81
472.51	4128.8
472.882	4185.53
473.253	4231.17
473.625	4249.25
473.997	4366.31
474.369	4414.22
474.74	4407.89
475.112	4449.7
475.484	4567.66
475.855	4638.39
476.227	4648.79
476.598	4756.13
476.97	4806.98
477.341	4889.91
477.713	5001.1
478.084	5056.46
478.455	5171.71
478.827	5165.39
479.198	5364.48
479.569	5352.27
479.94	5463.46
480.311	5560.63
480.682	5695.54
481.053	5765.82
481.424	5856.44
481.795	5922.66
482.166	6029.54
482.537	6102.31
482.908	6208.07
483.279	6288.75
483.65	6395.86
484.021	6488.74
484.391	6596.08
484.762	6571.9
485.133	6685.35
485.503	6786.36
485.874	6931.22
486.244	6986.81
486.615	7171.89
486.985	7241.94
487.356	7337.31
487.726	7464.31
488.097	7548.37
488.467	7576.17
488.837	7705.21
489.207	7842.38
489.578	7967.35
489.948	8031.07
490.318	8172.99
490.688	8206.21
491.058	8314.91
491.428	8494.34
491.798	8539.99
492.168	8746.76
492.538	8737.72
492.908	8887.55
493.278	8993.08
493.648	9021.1
494.017	9102.46
494.387	9228.1
494.757	9316.24
495.126	9310.14
495.496	9377.03
495.866	9504.26
496.235	9605.04
496.605	9723.23
496.974	9709.9
497.344	9824.93
497.713	9951.93
498.082	9861.76
498.452	10032.83
498.821	10082.55
499.19	10182.66
499.559	10218.81
499.928	10248.42
500.298	10343.33
500.667	10391.24
501.036	10355.31
501.405	10555.53
501.774	10447.96
502.143	10704.9
502.512	10724.56
502.88	10779.25
503.249	10771.34
503.618	10863.54
503.987	10931.11
504.356	10941.28
504.724	11045.01
505.093	11081.16
505.462	11164.55
505.83	11174.27
506.199	11289.52
506.567	11418.78
506.936	11455.39
507.304	11575.16
507.672	11673.01
508.041	11626.23
508.409	11740.36
508.777	11882.27
509.145	11931.08
509.514	11976.73
509.882	12049.5
510.25	12088.37
510.618	12280.68
510.986	12238.65
511.354	12348.47
511.722	12437.29
512.09	12540.56
512.458	12520.22
512.826	12667.79
513.193	12790.5
513.561	12788.69
513.929	12947.33
514.297	13110.94
514.664	13184.84
515.032	13176.48
515.4	13455.34
515.767	13382.8
516.135	13502.34
516.502	13440.65
516.869	13711.6
517.237	13742.56
517.604	13713.86
517.972	13972.84
518.339	13999.5
518.706	14142.1
519.073	14152.5
519.44	14295.77
519.808	14509.55
520.175	14444.69
520.542	14636.32
520.909	14731.69
521.276	14859.14
521.643	15014.17
522.009	15055.07
522.376	15204.9
522.743	15383.65
523.11	15475.17
523.477	15642.85
523.843	15789.29
524.21	15894.14
524.577	16053.01
524.943	16102.27
525.31	16262.27
525.676	16516.73
526.043	16643.96
526.409	16735.03
526.776	16991.74
527.142	17082.14
527.508	17086.66
527.874	17288.01
528.241	17352.41
528.607	17419.75
528.973	17619.97
529.339	17708.33
529.705	17962.79
530.071	18111.26
530.437	18291.37
530.803	18337.24
531.169	18393.74
531.535	18487.07
531.901	18622.89
532.267	18636.67
532.632	18817.23
532.998	18892.26
533.364	19052.25
533.73	19189.42
534.095	19333.83
534.461	19301.96
534.826	19415.41
535.192	19484.78
535.557	19668.51
535.923	19685.01
536.288	19830.31
536.653	19971.78
537.019	19957.99
537.384	20069.63
537.749	20163.64
538.114	20118.67
538.479	20092.45
538.845	20274.82
539.21	20299.9
539.575	20386.23
539.94	20573.34
540.305	20662.61
540.67	20613.34
541.034	20770.4
541.399	20800.91
541.764	20858.76
542.129	20919.55
542.494	21047.23
542.858	21074.57
543.223	21124.29
543.587	21329.48
543.952	21176.49
544.316	21333.78
544.681	21333.55
545.045	21526.99
545.41	21558.85
545.774	21563.83
546.138	21645.18
546.503	21741.9
546.867	21749.81
547.231	21972.18
547.595	22031.84
547.959	22069.58
548.324	22132.4
548.688	22152.74
549.052	22330.13
549.416	22168.33
549.779	22327.42
550.143	22386.18
550.507	22509.56
550.871	22656.23
551.235	22628.88
551.599	22809.89
551.962	22871.81
552.326	22988.42
552.689	23065.03
553.053	22962.66
553.417	23286.04
553.78	23406.94
554.143	23520.38
554.507	23481.74
554.87	23569.2
555.234	23761.28
555.597	23660.95
555.96	23805.12
556.323	23995.4
556.686	24040.6
557.05	24209.18
557.413	24216.41
557.776	24183.42
558.139	24523.52
558.502	24702.05
558.865	24669.73
559.228	24872.44
559.59	24886.22
559.953	25086.67
560.316	25323.27
560.679	25236.05
561.041	25525.08
561.404	25712.42
561.767	25945.18
562.129	25924.61
562.492	26199.41
562.854	26194.89
563.217	26313.31
563.579	26455.9
563.941	26786.97
564.304	26950.58
564.666	27122.32
565.028	27281.42
565.39	27286.39
565.753	27726.15
566.115	27821.74
566.477	27963.66
566.839	28209.3
567.201	28616.52
567.563	28590.99
567.925	28884.31
568.287	29069.17
568.648	29313.9
569.01	29431.42
569.372	29708.92
569.734	29870.73
570.095	30136.48
570.457	30359.98
570.819	30441.78
571.18	30534.66
571.542	30935.33
571.903	31072.95
572.265	31370.35
572.626	31648.53
572.987	31707.06
573.349	32035.64
573.71	32235.41
574.071	32447.61
574.432	32740.93
574.794	33018.21
575.155	33159.9
575.516	33117.65
575.877	33377.3
576.238	33581.59
576.599	33810.28
576.96	33962.14
577.32	34113.55
577.681	34313.55
578.042	34435.13
578.403	34680.77
578.763	34657.27
579.124	34870.82
579.485	34987.43
579.845	35146.29
580.206	35162.79
580.566	35228.33
580.927	35323.24
581.287	35467.87
581.648	35381.32
582.008	35689.56
582.368	35639.84
582.728	35740.85
583.089	35804.58
583.449	35806.16
583.809	35886.61
584.169	35987.63
584.529	35819.72
584.889	36380.84
585.249	36166.61
585.609	36044.35
585.969	36300.16
586.329	36077.12
586.688	36286.6
587.048	36132.26
587.408	36072.37
587.768	36072.14
588.127	36257.9
588.487	36148.98
588.846	36384.23
589.206	36245.7
589.565	36038.02
589.925	36334.51
590.284	36393.27
590.643	36378.8
591.003	36334.06
591.362	36436.43
591.721	36308.3
592.08	36412.93
592.44	36483.43
592.799	36380.61
593.158	36260.16
593.517	36244.34
593.876	36251.8
594.235	36301.74
594.593	36228.52
594.952	36270.78
595.311	36331.35
595.67	36288.41
596.029	36421.97
596.387	36400.05
596.746	36566.37
597.104	36391.68
597.463	36349.88
597.822	36505.58
598.18	36400.5
598.538	36281.86
598.897	36464.9
599.255	36384.68
599.613	36784.89
599.972	36467.39
600.33	36581.96
600.688	36518.23
601.046	36486.6
601.404	36774.5
601.762	36482.53
602.12	36681.39
602.478	36666.48
602.836	36732.01
603.194	36478.69
603.552	36579.93
603.91	36578.12
604.268	36596.88
604.625	36643.43
604.983	36838.23
605.341	36473.49
605.698	36787.38
606.056	37041.38
606.413	36770.21
606.771	36928.62
607.128	36841.84
607.485	36703.99
607.843	36787.83
608.2	36936.53
608.557	37043.42
608.914	37017.88
609.272	37062.4
609.629	37198.89
609.986	37262.62
610.343	37192.12
610.7	37359.79
611.057	37242.96
611.414	37143.53
611.771	37375.84
612.127	37419.68
612.484	37340.13
612.841	37576.51
613.198	37460.58
613.554	37540.81
613.911	37786.68
614.267	37652.44
614.624	37783.06
614.98	37763.63
615.337	37858.99
615.693	37905.09
616.05	37937.18
616.406	37955.03
616.762	37922.94
617.118	37962.49
617.475	37944.19
617.831	38111.64
618.187	38076.16
618.543	38016.05
618.899	38287.91
619.255	38161.36
619.611	38222.82
619.967	38384.85
620.323	38337.85
620.678	38201.81
621.034	38119.32
621.39	38209.49
621.746	38094.24
622.101	38650.38
622.457	38211.75
622.812	38499.65
623.168	38440.9
623.523	38362.25
623.879	38477.96
624.234	38236.83
624.589	38367.9
624.945	38275.93
625.3	38289.94
625.655	38429.82
626.01	38456.49
626.365	38434.12
626.72	38282.26
627.075	38244.07
627.43	38312.76
627.785	38333.1
628.14	38252.2
628.495	38336.72
628.85	38399.09
629.205	38083.39
629.559	38285.42
629.914	38187.8
630.269	38278.19
630.623	38086.56
630.978	37922.72
631.332	38111.87
631.687	38067.57
632.041	37891.53
632.396	37996.84
632.75	38009.72
633.104	37997.29
633.459	37858.31
633.813	37698.54
634.167	37740.35
634.521	37843.17
634.875	37748.03
635.229	37571.09
635.583	37434.59
635.937	37412.22
636.291	37327.7
636.645	37396.86
636.999	37266.46
637.352	37273.7
637.706	37097.88
638.06	37294.71
638.413	37095.85
638.767	36941.95
639.121	37069.63
639.474	36799.81
639.828	36826.02
640.181	36846.14
640.534	36956.64
640.888	36661.51
641.241	36482.3
641.594	36628.74
641.947	36679.36
642.301	36454.28
642.654	36597.1
643.007	36518.46
643.36	36556.65
643.713	36344.68
644.066	36595.29
644.419	36215.19
644.771	35884.81
645.124	35532.72
645.477	35464.03
645.83	35413.41
646.182	35544.02
646.535	35352.16
646.888	35433.07
647.24	35276.23
647.593	35433.29
647.945	35323.46
648.298	35218.38
648.65	35079.63
649.002	34822.46
649.355	34636.48
649.707	34611.62
650.059	34596.93
650.411	35181.32
650.763	35202.56
651.115	35934.07
651.467	35590.12
651.819	35676.22
652.171	35653.4
652.523	35641.2
652.875	35636
653.227	35460.64
653.578	35668.54
653.93	35505.83
654.282	35407.08
654.633	35356.01
654.985	35243.92
655.337	35542.22
655.688	35353.75
656.039	35631.48
656.391	35144.49
656.742	35130.02
657.094	35256.12
657.445	35331.15
657.796	35280.75
658.147	35129.12
658.498	35213.18
658.849	35409.79
659.2	35110.14
659.551	35095.9
659.902	35269.91
660.253	35095
660.604	35322.79
660.955	35072.62
661.306	35361.43
661.656	35203.92
662.007	35144.49
662.358	35260.64
662.708	35365.5
663.059	35272.17
663.409	35069.69
663.76	35125.5
664.11	35218.38
664.461	35254.99
664.811	35199.17
665.161	35278.04
665.511	35097.48
665.862	35148.33
666.212	35175.45
666.562	35148.1
666.912	35231.94
667.262	35060.42
667.612	35032.85
667.962	35248.89
668.312	35104.49
668.662	35280.08
669.011	35253.86
669.361	35040.31
669.711	35138.84
670.06	35072.4
670.41	35091.15
670.76	35050.48
671.109	35138.61
671.459	35036.69
671.808	35015.45
672.157	35089.12
672.507	34811.61
672.856	34868.56
673.205	34904.94
673.554	35054.54
673.904	34898.84
674.253	35028.56
674.602	34863.59
674.951	34495.01
675.3	34329.37
675.649	34871.95
675.998	34894.1
676.346	34833.76
676.695	34824.27
677.044	34627.21
677.393	34764.83
677.741	34757.6
678.09	34709.24
678.438	34620.66
678.787	34608
679.135	34592.18
679.484	34387.9
679.832	34603.48
680.181	34311.74
680.529	34479.42
680.877	34175.02
681.225	34216.15
681.573	34457.72
681.922	34259.54
682.27	34125.3
682.618	34110.39
682.966	34024.74
683.314	34003.27
683.661	33995.36
684.009	33868.36
684.357	33820.23
684.705	33670.17
685.053	33753.79
685.4	33574.36
685.748	33451.42
686.095	33511.31
686.443	33285.78
686.79	33052.11
687.138	33253.24
687.485	33183.63
687.832	33074.03
688.18	33057.31
688.527	32906.13
688.874	33006.69
689.221	32820.25
689.568	32700.93
689.915	32514.72
690.262	32771.21
690.609	32510.88
690.956	32369.19
691.303	32357.21
691.65	32232.25
691.997	32126.03
692.344	32026.83
692.69	31865.93
693.037	31902.76
693.383	31566.5
693.73	31599.27
694.077	31517.46
694.423	31515.2
694.769	31292.16
695.116	31346.39
695.462	31121.09
695.808	31056.91
696.155	31078.83
696.501	30789.57
696.847	30851.72
697.193	30583.02
697.539	30595
697.885	30420.99
698.231	30392.97
698.577	30272.98
698.923	30201.56
699.269	30080.66
699.614	30098.97
699.96	29850.84
700.306	29759.32
700.651	29585.08
700.997	29545.08
701.342	29468.93
701.688	29450.62
702.033	29209.73
702.379	29253.57
702.724	29062.84
703.069	29227.58
703.415	28807.03
703.76	28770.64
704.105	28855.84
704.45	28615.17
704.795	28637.76
705.14	28478.45
705.485	28607.93
705.83	28261.5
706.175	28308.96
706.52	28303.54
706.865	28066.93
707.209	28133.37
707.554	27967.05
707.899	27941.29
708.243	27706.26
708.588	27699.26
708.932	27587.62
709.277	27711.01
709.621	27614.97
709.966	27358.93
710.31	27432.37
710.654	27021.76
710.998	27223.11
711.342	27160.51
711.687	27213.85
712.031	26973.85
712.375	26956
712.719	26992.61
713.063	26786.06
713.407	26946.73
713.75	26770.69
714.094	26754.65
714.438	26714.42
714.782	26744.71
715.125	26526.86
715.469	26680.75
715.812	26471.49
716.156	26429.23
716.499	26428.78
716.843	26489.35
717.186	26108.34
717.53	26410.48
717.873	26261.56
718.216	26266.07
718.559	26210.94
718.902	25943.82
719.246	26096.81
719.589	25982.69
719.932	26023.37
720.275	26108.34
720.617	26077.15
720.96	25832.64
721.303	25999.19
721.646	25827.22
721.989	25714
722.331	25958.74
722.674	25788.57
723.016	25748.57
723.359	25641.46
723.701	25707.22
724.044	25563.72
724.386	25490.05
724.729	25498.41
725.071	25497.28
725.413	25470.84
725.755	25463.61
726.097	25455.25
726.439	25332.09
726.782	25326.89
727.124	25449.6
727.465	25417.96
727.807	25338.64
728.149	25306.33
728.491	25318.08
728.833	25357.62
729.175	25430.62
729.516	25208.02
729.858	25280.79
730.199	25331.86
730.541	25264.97
730.882	25246.67
731.224	25280.11
731.565	25215.03
731.906	25192.88
732.248	25108.37
732.589	25051.87
732.93	25075.15
733.271	25078.54
733.612	25128.25
733.953	25212.32
734.294	25156.5
734.635	25040.8
734.976	25251.19
735.317	25229.94
735.658	25161.25
735.999	25039.67
736.339	25164.41
736.68	25149.49
737.021	25090.06
737.361	25034.24
737.702	25288.93
738.042	25104.75
738.383	25200.34
738.723	25184.97
739.063	25205.76
739.404	25316.72
739.744	25221.36
740.084	25112.43
740.424	25264.07
740.764	25229.49
741.104	25434.23
741.444	25238.31
741.784	25213.45
742.124	25498.64
742.464	25321.24
742.804	25368.47
743.143	25360.34
743.483	25499.32
743.823	25346.55
744.162	25441.46
744.502	25555.59
744.841	25384.97
745.181	25669.93
745.52	25542.93
745.86	25589.48
746.199	25687.33
746.538	25763.04
746.877	25895.92
747.216	25849.81
747.556	25787.44
747.895	25808.69
748.234	25841.45
748.573	25874.9
748.911	25977.49
749.25	25979.08
749.589	25926.65
749.928	26096.59
750.267	26208.9
750.605	26165.06
750.944	26215.23
751.283	26390.82
751.621	26434.66
751.96	26512.4
752.298	26511.72
752.636	26619.06
752.975	26582.68
753.313	26640.3
753.651	26982.44
753.989	26843.01
754.327	26908.09
754.666	26880.75
755.004	27062.66
755.342	27020.63
755.679	27175.88
756.017	27065.6
756.355	27279.83
756.693	27424.91
757.031	27520.73
757.368	27258.14
757.706	27447.51
758.044	27508.98
758.381	27583.1
758.719	27425.82
759.056	27534.74
759.394	27607.96
759.731	27458.36
760.068	27536.78
760.405	27683.44
760.743	27565.93
761.08	27780.84
761.417	27736.54
761.754	27764.79
762.091	27803.44
762.428	27755.98
762.765	27633.95
763.102	27812.47
763.438	27807.28
763.775	27682.99
764.112	27638.92
764.449	27704.91
764.785	27819.25
765.122	27639.82
765.458	27738.8
765.795	27660.16
766.131	27724.34
766.467	27652.48
766.804	27519.6
767.14	27506.49
767.476	27542.43
767.812	27517.79
768.148	27664.68
768.485	27613.61
768.821	27489.09
769.157	27384.01
769.492	27402.54
769.828	27307.63
770.164	27150.57
770.5	27088.88
770.836	27117.13
771.171	27020.86
771.507	26942.44
771.842	26812.5
772.178	26883.46
772.513	26858.38
772.849	26690.7
773.184	26823.57
773.519	26640.53
773.855	26573.64
774.19	26549.68
774.525	26350.37
774.86	26325.73
775.195	26268.56
775.53	26211.61
775.865	26099.3
776.2	25910.38
776.535	25807.1
776.87	25838.74
777.205	25763.94
777.539	25659.99
777.874	25762.36
778.209	25536.15
778.543	25401.24
778.878	25293.22
779.212	25318.98
779.547	25174.35
779.881	25139.55
780.215	24950.86
780.55	24943.17
780.884	24833.12
781.218	24886.45
781.552	24906.79
781.886	24673.12
782.22	24524.65
782.554	24525.33
782.888	24201.27
783.222	24281.27
783.556	24178.45
783.889	24080.6
784.223	23882.41
784.557	23975.29
784.89	24019.81
785.224	23818.91
785.557	23581.17
785.891	23587.28
786.224	23670.21
786.558	23569.65
786.891	23451.01
787.224	23316.77
787.557	23306.15
787.891	23236.1
788.224	23110.23
788.557	23180.51
788.89	23061.64
789.223	22993.17
789.556	22790.01
789.888	22740.52
790.221	22674.08
790.554	22663.91
790.887	22560.86
791.219	22443.58
791.552	22420.75
791.884	22187.99
792.217	22330.36
792.549	22213.3
792.882	22020.08
793.214	21932.86
793.546	22046.3
793.879	21783.48
794.211	21763.59
794.543	21783.25
794.875	21716.82
795.207	21675.01
795.539	21609.25
795.871	21644.05
796.203	21463.72
796.535	21327.22
796.867	21310.5
797.198	21213.1
797.53	21249.03
797.862	21047.46
798.193	21177.85
798.525	21029.83
798.856	21029.83
799.188	20808.37
799.519	20755.26
799.85	20687.24
800.182	20668.93
800.513	20740.8
800.844	20465.1
801.175	20692.89
801.506	20517.07
801.837	20374.03
802.168	20269.4
802.499	20257.42
802.83	20152.56
803.161	20092.9
803.491	20110.3
803.822	20171.55
804.153	19983.08
804.483	19920.93
804.814	19715.51
805.145	19803.65
805.475	19832.57
805.805	19720.94
806.136	19786.47
806.466	19657.44
806.796	19675.06
807.126	19478.23
807.457	19469.42
807.787	19465.58
808.117	19413.83
808.447	19308.29
808.777	19447.05
809.107	19221.29
809.436	19111.69
809.766	19158.01
810.096	19081.41
810.426	19029.66
810.755	19076.21
811.085	18968.87
811.414	18979.71
811.744	18936.32
812.073	18885.7
812.403	18807.51
812.732	18686.16
813.061	18826.95
813.39	18666.05
813.719	18749.89
814.049	18617.01
814.378	18629.89
814.707	18564.81
815.036	18426.73
815.365	18383.34
815.693	18289.34
816.022	18292.73
816.351	18190.58
816.68	18196
817.008	18227.42
817.337	18110.81
817.665	18098.61
817.994	18102.45
818.322	18116.46
818.651	18002.79
818.979	17987.42
819.307	17902.23
819.636	17810.93
819.964	17852.74
820.292	17872.4
820.62	17815.9
820.948	17853.41
821.276	17968.89
821.604	17840.31
821.932	17966.63
822.259	17937.93
822.587	17801.66
822.915	17769.58
823.243	17897.93
823.57	17784.04
823.898	17827.43
824.225	17760.08
824.553	17811.61
824.88	17774.55
825.207	17852.74
825.535	17667.43
825.862	17853.87
826.189	17689.58
826.516	17834.88
826.843	17848.67
827.17	17896.8
827.497	17897.71
827.824	17850.7
828.151	17952.17
828.478	17803.47
828.805	17942.45
829.131	17752.85
829.458	17954.43
829.785	17711.27
830.111	17735.45
830.438	17837.37
830.764	17783.81
831.09	17873.75
831.417	17724.15
831.743	17796.02
832.069	17771.16
832.395	17700.2
832.722	17721.89
833.048	17661.56
833.374	17700.2
833.7	17643.93
834.026	17789.91
834.351	17660.2
834.677	17803.25
835.003	17709.01
835.329	17683.25
835.654	17628.56
835.98	17560.09
836.306	17636.47
836.631	17596.7
836.956	17656.58
837.282	17622.23
837.607	17585.85
837.932	17431.5
838.258	17479.19
838.583	17488
838.908	17432.18
839.233	17511.73
839.558	17278.06
839.883	17306.54
840.208	17222.24
840.533	17350.83
840.858	17243.94
841.182	17302.02
841.507	17293.66
841.832	17125.07
842.156	17126.2
842.481	17127.11
842.805	17014.34
843.13	16996.71
843.454	17048.24
843.778	16980.44
844.103	16933.44
844.427	16936.6
844.751	16897.51
845.075	16827
845.399	16851.18
845.723	16722.82
846.047	16735.48
846.371	16577.97
846.695	16563.28
847.019	16487.12
847.343	16327.81
847.666	16313.57
847.99	16307.47
848.313	16219.33
848.637	16214.36
848.96	16144.99
849.284	16107.47
849.607	16039.45
849.931	15930.3
850.254	15879.91
850.577	15748.39
850.9	15621.16
851.223	15535.28
851.546	15568.73
851.869	15415.29
852.192	15575.73
852.515	15412.35
852.838	15402.18
853.161	15375.51
853.483	15221.39
853.806	15200.83
854.129	15255.29
854.451	15185.69
854.774	14995.86
855.096	14953.83
855.419	14936.88
855.741	14959.25
856.063	14844
856.385	14883.78
856.708	14827.51
857.03	14725.81
857.352	14744.57
857.674	14743.89
857.996	14625.48
858.318	14553.39
858.64	14566.95
858.961	14473.39
859.283	14434.97
859.605	14392.71
859.926	14354.3
860.248	14301.42
860.57	14264.13
860.891	14215.32
861.212	14126.06
861.534	14201.99
861.855	14202.66
862.176	14141.87
862.498	14182.32
862.819	14172.61
863.14	14022.1
863.461	14059.84
863.782	13933.29
864.103	13958.6
864.424	13886.51
864.745	13967.87
865.065	13805.16
865.386	13835.89
865.707	13800.41
866.027	13820.75
866.348	13747.31
866.668	13818.94
866.989	13721.32
867.309	13620.08
867.63	13587.99
867.95	13672.06
868.27	13586.41
868.59	13628.67
868.91	13583.7
869.23	13577.82
869.55	13495.79
869.87	13555.45
870.19	13409.69
870.51	13487.88
870.83	13453.76
871.15	13374.21
871.469	13308.68
871.789	13425.73
872.109	13440.65
872.428	13289.47
872.748	13334.44
873.067	13274.33
873.386	13306.19
873.706	13194.55
874.025	13175.57
874.344	13122.47
874.663	13216.7
874.982	13194.55
875.301	13160.88
875.62	13076.14
875.939	13127.44
876.258	13037.27
876.577	12998.4
876.896	12984.62
877.214	13041.79
877.533	12974.22
877.852	12974.9
878.17	12961.11
878.489	12957.5
878.807	12921.12
879.125	12945.07
879.444	12880.66
879.762	12802.25
880.08	12829.82
880.398	12799.54
880.716	12827.78
881.034	12805.19
881.352	12770.84
881.67	12833.43
881.988	12659.43
882.306	12664.4
882.624	12558.64
882.941	12545.31
883.259	12499.66
883.577	12513.44
883.894	12536.04
884.212	12428.92
884.529	12499.21
884.846	12437.74
885.164	12420.56
885.481	12334.92
885.798	12424.86
886.115	12295.82
886.432	12305.54
886.75	12292.43
887.067	12180.34
887.383	12235.71
887.7	12203.62
888.017	12032.32
888.334	12085.66
888.651	12108.26
888.967	12071.19
889.284	11979.44
889.6	11953
889.917	11911.65
890.233	11930.18
890.55	11809.28
890.866	11890.41
891.182	11757.08
891.498	11748.49
891.815	11723.63
892.131	11737.64
892.447	11683.86
892.763	11632.79
893.079	11595.05
893.395	11545.78
893.71	11515.95
894.026	11551.43
894.342	11480.47
894.657	11339.91
894.973	11456.07
895.289	11373.59
895.604	11267.37
895.92	11272.8
896.235	11212.69
896.55	11244.1
896.865	11218.56
897.181	11192.8
897.496	11161.16
897.811	11080.26
898.126	11058.57
898.441	10950.32
898.756	10974.95
899.071	10946.03
899.386	10966.36
899.7	10838.91
900.015	10824.22
900.33	10719.37
900.644	10783.09
900.959	10661.06
901.273	10630.33
901.588	10693.15
901.902	10508.52
902.216	10563.44
902.531	10510.56
902.845	10492.48
903.159	10422.2
903.473	10486.6
903.787	10302.43
904.101	10304.69
904.415	10299.94
904.729	10192.6
905.042	10194.41
905.356	10164.35
905.67	10106.73
905.984	10146.95
906.297	10038.25
906.611	10033.96
906.924	10015.65
907.237	10013.39
907.551	9976.79
907.864	9882.1
908.177	9883.91
908.491	9800.75
908.804	9802.33
909.117	9729.79
909.43	9615.89
909.743	9604.82
910.056	9656.79
910.368	9560.3
910.681	9593.07
910.994	9502.9
911.307	9416.12
911.619	9346.97
911.932	9445.95
912.244	9278.27
912.557	9365.5
912.869	9242.57
913.181	9229.46
913.494	9199.18
913.806	9173.64
914.118	9122.34
914.43	9123.02
914.742	9064.27
915.054	9009.58
915.366	8978.39
915.678	9005.96
915.99	8830.38
916.302	8879.19
916.613	8782.47
916.925	8767.33
917.236	8826.31
917.548	8783.82
917.859	8732.52
918.171	8684.39
918.482	8628.57
918.794	8630.15
919.105	8535.24
919.416	8551.96
919.727	8541.12
920.038	8469.71
920.349	8391.52
920.66	8370.05
920.971	8410.05
921.282	8319.43
921.593	8307.9
921.903	8232.65
922.214	8303.84
922.525	8167.34
922.835	8160.34
923.146	8170.28
923.456	8144.52
923.767	8031.98
924.077	8057.51
924.387	8003.28
924.697	7959.44
925.008	7910.63
925.318	7921.7
925.628	7844.86
925.938	7827.01
926.248	7761.7
926.558	7740.69
926.867	7683.74
927.177	7656.62
927.487	7630.63
927.796	7606.45
928.106	7578.2
928.416	7552.89
928.725	7539.79
929.034	7457.98
929.344	7489.39
929.653	7450.98
929.962	7425.89
930.271	7368.04
930.581	7342.05
930.89	7324.65
931.199	7229.74
931.508	7222.06
931.817	7239.46
932.125	7284.88
932.434	7166.92
932.743	7132.34
933.051	7117.43
933.36	7029.52
933.669	7017.99
933.977	6996.53
934.286	6929.63
934.594	6950.65
934.902	6890.31
935.21	6865.23
935.519	6832.91
935.827	6857.55
936.135	6710.88
936.443	6702.75
936.751	6699.81
937.059	6677.89
937.367	6693.93
937.674	6645.12
937.982	6612.13
938.29	6570.32
938.597	6611.45
938.905	6527.16
939.213	6497.33
939.52	6457.56
939.827	6496.65
940.135	6403.32
940.442	6397.9
940.749	6377.78
941.056	6382.53
941.363	6284.91
941.67	6293.04
941.977	6236.32
942.284	6248.07
942.591	6185.7
942.898	6149.54
943.205	6180.95
943.511	6157.9
943.818	6091.46
944.125	6050.11
944.431	6043.1
944.738	6055.08
945.044	6002.2
945.35	6005.36
945.657	5951.81
945.963	5910.9
946.269	5910.45
946.575	5922.2
946.881	5840.17
947.187	5861.87
947.493	5800.85
947.799	5787.29
948.105	5765.15
948.41	5765.37
948.716	5671.36
949.022	5691.25
949.327	5658.71
949.633	5644.92
949.938	5654.64
950.244	5608.09
950.549	5582.32
950.854	5568.31
951.16	5508.43
951.465	5487.41
951.77	5490.35
952.075	5433.18
952.38	5458.03
952.685	5432.05
952.99	5348.43
953.294	5360.41
953.599	5337.36
953.904	5256.91
954.209	5283.12
954.513	5296.91
954.818	5282.9
955.122	5162.45
955.426	5175.1
955.731	5105.95
956.035	5148.21
956.339	5089.68
956.643	5140.98
956.948	5045.62
957.252	5033.64
957.556	5064.6
957.86	5012.85
958.163	4985.5
958.467	4981.66
958.771	4943.25
959.075	4954.32
959.378	4870.71
959.682	4904.38
959.985	4803.36
960.289	4876.81
960.592	4827.54
960.896	4868.9
961.199	4808.11
961.502	4797.26
961.805	4757.71
962.108	4715.46
962.411	4714.1
962.714	4701.9
963.017	4636.14
963.32	4638.17
963.623	4610.37
963.926	4638.39
964.228	4605.4
964.531	4620.54
964.833	4553.65
965.136	4513.43
965.438	4502.81
965.741	4506.87
966.043	4450.15
966.345	4435.46
966.648	4429.59
966.95	4451.06
967.252	4373.09
967.554	4385.75
967.856	4356.82
968.158	4346.88
968.46	4287.22
968.761	4308.01
969.063	4226.2
969.365	4253.55
969.666	4217.84
969.968	4181.01
970.269	4231.85
970.571	4218.97
970.872	4161.35
971.174	4117.96
971.475	4136.49
971.776	4122.93
972.077	4104.4
972.378	4098.52
972.679	4061.69
972.98	4024.17
973.281	4046.77
973.582	4054
973.883	3971.75
974.183	3950.5
974.484	3920
974.785	3913.44
975.085	3881.35
975.386	3912.54
975.686	3865.99
975.986	3862.14
976.287	3825.99
976.587	3837.06
976.887	3799.55
977.187	3836.83
977.487	3812.88
977.787	3743.96
978.087	3713.9
978.387	3746.22
978.687	3724.52
978.987	3761.58
979.286	3699.44
979.586	3648.36
979.885	3680.91
980.185	3640.46
980.484	3617.4
980.784	3621.02
981.083	3580.57
981.382	3555.49
981.682	3514.81
981.981	3556.16
982.28	3523.4
982.579	3524.07
982.878	3570.17
983.177	3496.28
983.475	3487.92
983.774	3445.21
984.073	3450.86
984.372	3412.66
984.67	3391.42
984.969	3410.63
985.267	3433.45
985.566	3384.42
985.864	3346
986.162	3333.34
986.461	3326.57
986.759	3261.48
987.057	3272.78
987.355	3264.19
987.653	3256.96
987.951	3207.47
988.249	3235.04
988.547	3145.1
988.844	3160.02
989.142	3190.52
989.44	3177.64
989.737	3168.6
990.035	3104.42
990.332	3129.51
990.63	3082.5
990.927	3086.12
991.224	3099.45
991.521	3057.87
991.819	3063.75
992.116	3058.1
992.413	3022.17
992.71	3027.36
993.006	3027.14
993.303	2968.38
993.6	2963.86
993.897	2962.96
994.193	2951.21
994.49	2935.16
994.787	2912.56
995.083	2906.24
995.379	2881.15
995.676	2865.56
995.972	2862.17
996.268	2810.19
996.565	2823.53
996.861	2805.45
997.157	2776.98
997.453	2774.72
997.749	2762.96
998.044	2744.89
998.34	2736.3
998.636	2697.43
998.932	2714.38
999.227	2673.93
999.523	2685.68
999.818	2667.83
1000.114	2646.81
1000.409	2659.69
1000.704	2646.58
1001	2616.98
1001.295	2602.52
1001.59	2575.85
1001.885	2578.11
1002.18	2515.51
1002.475	2526.59
1002.77	2556.19
1003.065	2547.6
1003.359	2508.06
1003.654	2485.01
1003.949	2482.07
1004.243	2447.27
1004.538	2404.33
1004.832	2434.61
1005.127	2397.55
1005.421	2405.46
1005.715	2415.18
1006.009	2379.02
1006.304	2340.15
1006.598	2372.69
1006.892	2347.16
1007.186	2330.66
1007.48	2302.19
1007.773	2284.78
1008.067	2274.39
1008.361	2273.26
1008.655	2244.56
1008.948	2265.12
1009.242	2261.28
1009.535	2200.94
1009.829	2219.02
1010.122	2234.16
1010.415	2196.88
1010.708	2131.12
1011.001	2174.96
1011.295	2156.65
1011.588	2104.68
1011.881	2136.99
1012.173	2132.7
1012.466	2097.44
1012.759	2081.85
1013.052	2076.2
1013.344	2081.85
1013.637	2074.39
1013.93	2056.32
1014.222	1994.4
1014.514	2017.67
1014.807	2020.16
1015.099	1990.33
1015.391	1977.45
1015.683	1983.32
1015.976	1986.49
1016.268	1957.34
1016.56	1927.05
1016.851	1946.49
1017.143	1895.19
1017.435	1880.05
1017.727	1889.99
1018.018	1877.11
1018.31	1866.04
1018.602	1871.46
1018.893	1833.05
1019.185	1811.8
1019.476	1798.24
1019.767	1789.88
1020.058	1779.94
1020.35	1748.98
1020.641	1724.8
1020.932	1751.47
1021.223	1717.34
1021.514	1725.48
1021.804	1723.67
1022.095	1713.05
1022.386	1697.23
1022.677	1691.81
1022.967	1667.4
1023.258	1647.06
1023.548	1664.24
1023.839	1658.13
1024.129	1654.97
1024.419	1640.51
1024.709	1595.31
1025	1593.05
1025.29	1555.76
1025.58	1586.27
1025.87	1560.51
1026.16	1558.93
1026.449	1555.76
1026.739	1510.34
1027.029	1542.43
1027.319	1523.9
1027.608	1509.44
1027.898	1484.35
1028.187	1492.94
1028.477	1471.25
1028.766	1449.1
1029.055	1422.89
1029.344	1451.13
1029.634	1405.03
1029.923	1423.56
1030.212	1430.57
1030.501	1438.25
1030.79	1417.01
1031.078	1390.57
1031.367	1379.27
1031.656	1368.65
1031.945	1372.49
1032.233	1353.51
1032.522	1318.26
1032.81	1349.22
1033.099	1333.62
1033.387	1309.89
1033.675	1334.3
1033.963	1292.49
1034.251	1285.94
1034.54	1279.61
1034.828	1280.52
1035.116	1257.69
1035.403	1237.81
1035.691	1255.21
1035.979	1236.68
1036.267	1252.5
1036.554	1233.51
1036.842	1234.42
1037.129	1213.17
1037.417	1191.93
1037.704	1196.45
1037.992	1184.47
1038.279	1178.6
1038.566	1153.74
1038.853	1153.74
1039.14	1153.74
