Data from 19-3935_FLMS001491_006.txt Node
Date: Thu Apr 19 16:40:15 BST 2018
User: hsy
Spectrometer: FLMS00149
Trigger mode: 0
Integration Time (sec): 1.000000E-2
Scans to average: 10
Electric dark correction enabled: true
Nonlinearity correction enabled: false
Boxcar width: 0
XAxis mode: Wavelengths
Number of Pixels in Spectrum: 2048
>>>>>Begin Spectral Data<<<<<
341.393	13.29
341.776	13.29
342.16	13.29
342.543	-58.35
342.927	-58.8
343.31	-59.48
343.693	-59.48
344.077	-80.04
344.46	-44.79
344.843	-48.63
345.226	-45.46
345.61	-50.89
345.993	-12.25
346.376	2.22
346.759	10.35
347.142	25.72
347.525	33.86
347.908	64.81
348.291	80.41
348.674	86.51
349.057	97.13
349.44	143.91
349.823	160.41
350.206	147.07
350.588	215.09
350.971	216
351.354	254.19
351.737	271.36
352.119	279.27
352.502	280.85
352.884	284.24
353.267	306.16
353.65	314.07
354.032	318.14
354.414	340.29
354.797	344.36
355.179	351.13
355.562	366.28
355.944	367.63
356.326	367.41
356.709	358.14
357.091	367.86
357.473	385.94
357.855	363.34
358.238	375.54
358.62	368.31
359.002	394.98
359.384	368.54
359.766	383
360.148	381.42
360.53	377.12
360.912	335.09
361.294	376.9
361.676	351.13
362.057	357.91
362.439	334.19
362.821	349.78
363.203	366.73
363.584	374.41
363.966	354.75
364.348	347.97
364.729	380.74
365.111	366.73
365.493	382.32
365.874	365.82
366.256	380.06
366.637	372.6
367.019	354.98
367.4	343.23
367.781	366.05
368.163	375.09
368.544	346.84
368.925	369.89
369.306	378.03
369.688	372.6
370.069	366.05
370.45	383.22
370.831	352.94
371.212	386.16
371.593	379.61
371.974	371.25
372.355	368.54
372.736	373.28
373.117	378.03
373.498	362.89
373.879	351.36
374.26	373.06
374.641	371.93
375.021	365.15
375.402	373.96
375.783	376.44
376.163	385.03
376.544	367.41
376.925	393.39
377.305	395.88
377.686	393.17
378.066	384.81
378.447	393.17
378.827	394.07
379.208	404.47
379.588	408.53
379.968	388.87
380.349	388.2
380.729	397.91
381.109	414.18
381.489	420.51
381.87	382.77
382.25	407.63
382.63	407.4
383.01	401.08
383.39	405.37
383.77	425.48
384.15	416.44
384.53	415.09
384.91	409.44
385.29	445.6
385.67	430
386.049	427.74
386.429	442.66
386.809	438.59
387.189	424.58
387.568	477.23
387.948	453.51
388.328	438.82
388.707	444.01
389.087	470.45
389.466	467.52
389.846	471.81
390.225	477.69
390.605	464.13
390.984	471.13
391.363	478.59
391.743	483.79
392.122	490.11
392.501	470.23
392.881	473.17
393.26	492.6
393.639	503.9
394.018	517.23
394.397	485.37
394.776	493.05
395.155	506.38
395.534	499.15
395.913	502.09
396.292	510.9
396.671	532.37
397.05	523.33
397.429	531.02
397.808	535.08
398.186	527.4
398.565	539.83
398.944	536.44
399.323	536.44
399.701	545.71
400.08	539.6
400.458	570.11
400.837	557.68
401.215	545.48
401.594	571.24
401.972	581.64
402.351	569.89
402.729	563.78
403.107	581.86
403.486	584.12
403.864	589.32
404.242	617.57
404.62	596.33
404.999	591.58
405.377	596.78
405.755	618.7
406.133	621.64
406.511	643.33
406.889	629.09
407.267	647.4
407.645	642.43
408.023	660.51
408.401	655.53
408.779	654.4
409.156	674.74
409.534	653.73
409.912	669.32
410.29	683.56
410.667	693.05
411.045	697.34
411.422	729.88
411.8	726.27
412.178	750.22
412.555	749.54
412.933	740.96
413.31	742.31
413.687	760.39
414.065	751.12
414.442	796.32
414.819	806.94
415.197	790.67
415.574	806.04
415.951	812.82
416.328	825.7
416.705	813.27
417.082	840.61
417.46	832.03
417.837	832.7
418.214	857.56
418.591	864.57
418.967	856.66
419.344	859.37
419.721	845.13
420.098	907.5
420.475	899.14
420.852	914.28
421.228	895.3
421.605	888.52
421.982	941.63
422.358	937.33
422.735	925.58
423.111	937.11
423.488	969.42
423.864	962.19
424.241	980.5
424.617	995.64
424.994	990.44
425.37	1000.16
425.746	999.48
426.123	991.34
426.499	1004.23
426.875	1042.42
427.251	1073.15
427.627	1085.8
428.003	1081.74
428.379	1090.1
428.756	1098.01
429.132	1088.52
429.507	1103.88
429.883	1103.21
430.259	1132.13
430.635	1173.49
431.011	1171.68
431.387	1187.05
431.763	1204.22
432.138	1221.39
432.514	1206.93
432.89	1206.48
433.265	1269.08
433.641	1260.49
434.016	1264.56
434.392	1296.42
434.767	1349.75
435.143	1345.23
435.518	1350.66
435.894	1363.99
436.269	1374.16
436.644	1406.02
437.02	1395.4
437.395	1420.71
437.77	1462.97
438.145	1451.22
438.52	1485.57
438.895	1491.67
439.271	1502.74
439.646	1501.84
440.021	1508.84
440.395	1506.58
440.77	1532.35
441.145	1538.67
441.52	1570.09
441.895	1567.83
442.27	1576.87
442.645	1599.92
443.019	1624.77
443.394	1625.68
443.769	1632.68
444.143	1630.65
444.518	1642.63
444.892	1682.17
445.267	1677.65
445.641	1648.5
446.016	1675.17
446.39	1678.11
446.764	1709.74
447.139	1683.98
447.513	1721.27
447.887	1715.84
448.262	1699.12
448.636	1745.45
449.01	1763.53
449.384	1788.61
449.758	1779.35
450.132	1809.18
450.506	1827.25
450.88	1841.94
451.254	1851.43
451.628	1905.67
452.002	1865.22
452.376	1864.09
452.75	1918.55
453.123	1933.92
453.497	1964.43
453.871	1974.37
454.244	1970.08
454.618	2010.53
454.992	2032.45
455.365	2038.77
455.739	2083.52
456.112	2110.64
456.486	2097.98
456.859	2166.68
457.232	2199.67
457.606	2195.83
457.979	2227.02
458.352	2272.21
458.725	2281.03
459.099	2295.94
459.472	2333.91
459.845	2383.62
460.218	2356.96
460.591	2368.48
460.964	2424.75
461.337	2420.46
461.71	2476.95
462.083	2515.15
462.456	2496.39
462.829	2560.57
463.201	2550.85
463.574	2584.07
463.947	2579.32
464.32	2669.94
464.692	2669.04
465.065	2711.52
465.438	2727.34
465.81	2744.74
466.183	2748.81
466.555	2850.05
466.928	2833.33
467.3	2855.48
467.672	2878.07
468.045	2939.32
468.417	2937.06
468.789	2939.54
469.161	3009.37
469.534	2983.38
469.906	3066.77
470.278	3106.09
470.65	3122.36
471.022	3149.03
471.394	3242.13
471.766	3232.64
472.138	3258.63
472.51	3339.08
472.882	3368.23
473.253	3413.65
473.625	3437.83
473.997	3518.51
474.369	3520.32
474.74	3556.02
475.112	3634.44
475.484	3718.05
475.855	3699.97
476.227	3731.84
476.598	3867.88
476.97	3888.44
477.341	3956.24
477.713	3992.62
478.084	4049.57
478.455	4130.24
478.827	4155.33
479.198	4233.74
479.569	4271.26
479.94	4367.53
480.311	4404.36
480.682	4483
481.053	4583.57
481.424	4657.69
481.795	4719.83
482.166	4770.91
482.537	4854.75
482.908	4950.34
483.279	4967.96
483.65	5104.46
484.021	5178.13
484.391	5191.69
484.762	5252.7
485.133	5289.54
485.503	5383.77
485.874	5492.92
486.244	5571.34
486.615	5687.27
486.985	5727.49
487.356	5835.28
487.726	5831.89
488.097	6001.16
488.467	5971.78
488.837	6140.36
489.207	6183.98
489.578	6303.07
489.948	6391.88
490.318	6499.67
490.688	6493.57
491.058	6599.33
491.428	6720.91
491.798	6684.08
492.168	6816.73
492.538	6863.28
492.908	6946.44
493.278	7034.35
493.648	7068.47
494.017	7135.14
494.387	7252.65
494.757	7231.41
495.126	7335.13
495.496	7391.18
495.866	7446.77
496.235	7565.41
496.605	7612.19
496.974	7634.56
497.344	7724.5
497.713	7720.21
498.082	7809.02
498.452	7853.76
498.821	7933.31
499.19	7992.74
499.559	8035.45
499.928	8046.3
500.298	8133.76
500.667	8198.84
501.036	8204.94
501.405	8251.04
501.774	8312.73
502.143	8332.85
502.512	8385.05
502.88	8478.38
503.249	8476.57
503.618	8541.2
503.987	8594.53
504.356	8631.6
504.724	8715.43
505.093	8699.39
505.462	8767.41
505.83	8812.16
506.199	8895.32
506.567	8999.72
506.936	9026.16
507.304	9113.84
507.672	9083.79
508.041	9180.06
508.409	9241.97
508.777	9242.65
509.145	9326.04
509.514	9331.24
509.882	9422.76
510.25	9400.16
510.618	9504.79
510.986	9488.07
511.354	9637.9
511.722	9759.25
512.09	9833.15
512.458	9756.31
512.826	9929.64
513.193	9904.56
513.561	9980.71
513.929	10049.64
514.297	10087.83
514.664	10199.69
515.032	10195.4
515.4	10275.39
515.767	10337.54
516.135	10340.02
516.502	10450.3
516.869	10565.56
517.237	10665.21
517.604	10575.05
517.972	10766.68
518.339	10761.48
518.706	10894.81
519.073	10919.44
519.44	10977.07
519.808	11112.66
520.175	11152.66
520.542	11289.83
520.909	11300.23
521.276	11415.48
521.643	11479.88
522.009	11511.52
522.376	11658.86
522.743	11821.57
523.11	11824.73
523.477	11997.61
523.843	12071.28
524.21	12262.91
524.577	12283.7
524.943	12408.67
525.31	12406.41
525.676	12566.18
526.043	12705.84
526.409	12825.61
526.776	12944.25
527.142	12874.42
527.508	13073.29
527.874	13232.83
528.241	13292.94
528.607	13236.45
528.973	13435.31
529.339	13562.99
529.705	13666.49
530.071	13750.56
530.437	13864
530.803	13962.75
531.169	13999.82
531.535	14009.53
531.901	14098.57
532.267	14221.05
532.632	14320.71
532.998	14380.14
533.364	14520.71
533.73	14595.05
534.095	14718.67
534.461	14662.62
534.826	14836.63
535.192	14907.36
535.557	14885.67
535.923	15060.35
536.288	15157.3
536.653	15155.49
537.019	15148.71
537.384	15287.69
537.749	15248.82
538.114	15430.51
538.479	15417.63
538.845	15376.73
539.21	15510.96
539.575	15553.67
539.94	15609.04
540.305	15762.71
540.67	15690.84
541.034	15701.01
541.399	15902.59
541.764	15931.97
542.129	15931.52
542.494	16040.44
542.858	16051.06
543.223	16062.36
543.587	16140.1
543.952	16158.4
544.316	16213.09
544.681	16260.55
545.045	16376.48
545.41	16410.37
545.774	16355.23
546.138	16386.87
546.503	16509.81
546.867	16489.24
547.231	16583.25
547.595	16632.97
547.959	16765.39
548.324	16698.5
548.688	16759.74
549.052	16863.7
549.416	16835.67
549.779	16934.2
550.143	16996.35
550.507	17151.82
550.871	17111.82
551.235	17145.72
551.599	17282.22
551.962	17287.19
552.326	17340.97
552.689	17398.82
553.053	17326.06
553.417	17565.6
553.78	17704.8
554.143	17718.14
554.507	17747.97
554.87	17775.31
555.234	17928.53
555.597	17873.39
555.96	17962.2
556.323	18096.43
556.686	18145.02
557.05	18285.13
557.413	18344.79
557.776	18346.37
558.139	18409.87
558.502	18640.37
558.865	18660.03
559.228	18792.23
559.59	18873.13
559.953	18883.75
560.316	19105.67
560.679	19117.42
561.041	19213.24
561.404	19370.07
561.767	19639.89
562.129	19565.09
562.492	19851.19
562.854	19807.57
563.217	19989.49
563.579	20172.08
563.941	20291.85
564.304	20488.46
564.666	20688
565.028	20678.74
565.39	20826.98
565.753	21051.61
566.115	21146.75
566.477	21299.96
566.839	21393.97
567.201	21699.95
567.563	21647.07
567.925	21979.27
568.287	21955.09
568.648	22154.86
569.01	22386.94
569.372	22563.21
569.734	22822.18
570.095	23049.75
570.457	23237.76
570.819	23352.79
571.18	23411.09
571.542	23821.03
571.903	23831.2
572.265	23972.43
572.626	24304.4
572.987	24323.16
573.349	24635.92
573.71	24641.57
574.071	24895.12
574.432	25170.37
574.794	25310.48
575.155	25465.28
575.516	25520.42
575.877	25700.75
576.238	25809.9
576.599	26016.9
576.96	26240.4
577.32	26302.09
577.681	26357.23
578.042	26721.06
578.403	26680.84
578.763	26898.91
579.124	26844
579.485	27138.23
579.845	27215.51
580.206	27163.76
580.566	27264.78
580.927	27402.17
581.287	27567.82
581.648	27470.65
582.008	27592
582.368	27845.1
582.728	27856.63
583.089	27926.45
583.449	27915.61
583.809	27959.9
584.169	28077.41
584.529	28082.84
584.889	28208.26
585.249	28159.44
585.609	28074.02
585.969	28315.15
586.329	28119.67
586.688	28356.27
587.048	28235.83
587.408	28313.56
587.768	28276.73
588.127	28373.45
588.487	28281.47
588.846	28650.73
589.206	28301.81
589.565	28304.3
589.925	28551.3
590.284	28387.46
590.643	28462.26
591.003	28572.99
591.362	28754.23
591.721	28547
592.08	28502.03
592.44	28790.39
592.799	28598.53
593.158	28642.37
593.517	28532.09
593.876	28674.91
594.235	28732.08
594.593	28710.16
594.952	28754.91
595.311	28736.15
595.67	28838.3
596.029	29072.64
596.387	29017.73
596.746	29129.59
597.104	29015.24
597.463	28876.03
597.822	29152.86
598.18	29050.95
598.538	29078.06
598.897	29251.39
599.255	29144.5
599.613	29408.9
599.972	29227.89
600.33	29181.79
600.688	29130.27
601.046	29283.71
601.404	29520.54
601.762	29436.25
602.12	29631.27
602.478	29515.34
602.836	29607.99
603.194	29431.73
603.552	29607.31
603.91	29589.46
604.268	29708.33
604.625	29626.3
604.983	29695.67
605.341	29647.09
605.698	29806.63
606.056	29933.86
606.413	29833.98
606.771	29929.34
607.128	29831.26
607.485	29787.87
607.843	29848.44
608.2	29980.64
608.557	30080.52
608.914	30000.98
609.272	30205.27
609.629	30227.19
609.986	30423.79
610.343	30260.86
610.7	30436.9
611.057	30432.6
611.414	30478.25
611.771	30547.63
612.127	30565.71
612.484	30608.64
612.841	30559.83
613.198	30479.61
613.554	30510.12
613.911	30843.67
614.267	30844.8
614.624	30837.56
614.98	30766.38
615.337	31002.76
615.693	30908.75
616.05	30937
616.406	31052.25
616.762	30956.88
617.118	31023.1
617.475	31149.87
617.831	31134.51
618.187	31123.43
618.543	31139.25
618.899	31349.19
619.255	31314.61
619.611	31278.46
619.967	31544.44
620.323	31383.54
620.678	31454.27
621.034	31295.41
621.39	31394.16
621.746	31265.35
622.101	31767.03
622.457	31425.57
622.812	31635.51
623.168	31575.17
623.523	31606.81
623.879	31601.39
624.234	31664.66
624.589	31636.19
624.945	31598.67
625.3	31663.98
625.655	31608.84
626.01	31723.64
626.365	31748.28
626.72	31575.85
627.075	31480.49
627.43	31550.09
627.785	31494.95
628.14	31632.57
628.495	31607.94
628.85	31614.27
629.205	31494.72
629.559	31612.01
629.914	31594.16
630.269	31416.08
630.623	31363.43
630.978	31217.67
631.332	31513.03
631.687	31455.4
632.041	31444.33
632.396	31377.89
632.75	31351.68
633.104	31306.25
633.459	31200.49
633.813	31204.56
634.167	31084.34
634.521	31136.09
634.875	31130.66
635.229	31010.67
635.583	30881.63
635.937	30849.32
636.291	30923.21
636.645	30936.32
636.999	30800.73
637.352	30860.39
637.706	30612.94
638.06	30745.14
638.413	30628.53
638.767	30571.13
639.121	30662.65
639.474	30479.61
639.828	30494.07
640.181	30488.42
640.534	30467.41
640.888	30308.77
641.241	30348.54
641.594	30306.96
641.947	30312.61
642.301	30239.61
642.654	30212.95
643.007	30215.43
643.36	30277.35
643.713	30198.03
644.066	30209.78
644.419	30063.57
644.771	29721.21
645.124	29510.82
645.477	29511.95
645.83	29439.86
646.182	29457.49
646.535	29358.28
646.888	29541.33
647.24	29379.07
647.593	29587.43
647.945	29377.26
648.298	29344.04
648.65	29089.14
649.002	28872.42
649.355	28738.41
649.707	28612.99
650.059	28549.04
650.411	29038.06
650.763	29365.29
651.115	29759.63
651.467	29739.06
651.819	29628.11
652.171	29646.86
652.523	29484.61
652.875	29693.64
653.227	29437.38
653.578	29713.07
653.93	29738.61
654.282	29433.99
654.633	29427.88
654.985	29513.31
655.337	29535.68
655.688	29526.19
656.039	29592.4
656.391	29405.29
656.742	29470.6
657.094	29446.64
657.445	29605.96
657.796	29519.18
658.147	29588.11
658.498	29706.3
658.849	29726.63
659.2	29659.97
659.551	29553.98
659.902	29744.71
660.253	29437.6
660.604	29639.18
660.955	29443.7
661.306	29552.63
661.656	29582.91
662.007	29685.5
662.358	29586.3
662.708	29727.09
663.059	29665.84
663.409	29613.19
663.76	29677.6
664.11	29746.97
664.461	29752.17
664.811	29714.43
665.161	29622.46
665.511	29591.5
665.862	29689.35
666.212	29553.3
666.562	29700.65
666.912	29774.32
667.262	29583.59
667.612	29588.56
667.962	29662.68
668.312	29552.17
668.662	29796.91
669.011	29711.27
669.361	29745.16
669.711	29722.34
670.06	29628.11
670.41	29633.3
670.76	29488.9
671.109	29716.69
671.459	29596.92
671.808	29695.45
672.157	29607.77
672.507	29506.98
672.856	29538.62
673.205	29482.57
673.554	29589.69
673.904	29475.11
674.253	29640.31
674.602	29388.34
674.951	29113.99
675.3	28803.49
675.649	29341.33
675.998	29397.15
676.346	29411.84
676.695	29366.42
677.044	29312.86
677.393	29175.91
677.741	29293.88
678.09	29227.66
678.438	29079.42
678.787	29194.44
679.135	29243.93
679.484	29049.36
679.832	29072.41
680.181	28990.16
680.529	29034.45
680.877	28873.55
681.225	28818.86
681.573	29001.23
681.922	28827.9
682.27	28814.12
682.618	28700.9
682.966	28711.97
683.314	28751.97
683.661	28602.6
684.009	28452.77
684.357	28424.07
684.705	28217.52
685.053	28265.2
685.4	28385.2
685.748	28126.68
686.095	28102.72
686.443	28042.84
686.79	27944.76
687.138	28004.65
687.485	27942.5
687.832	27730.75
688.18	27804.2
688.527	27632.9
688.874	27615.73
689.221	27641.26
689.568	27459.35
689.915	27370.99
690.262	27423.87
690.609	27323.08
690.956	27224.55
691.303	27192.91
691.65	27001.73
691.997	27021.62
692.344	26818.91
692.69	26820.72
693.037	26705.47
693.383	26560.39
693.73	26560.16
694.077	26448.08
694.423	26404.24
694.769	26227.74
695.116	26133.28
695.462	26206.27
695.808	25964.92
696.155	25973.29
696.501	25682.45
696.847	25852.39
697.193	25661.43
697.539	25639.51
697.885	25399.29
698.231	25344.38
698.577	25350.03
698.923	25300.76
699.269	25155.68
699.614	25026.87
699.96	24815.58
700.306	24879.76
700.651	24671.4
700.997	24659.42
701.342	24694
701.688	24481.12
702.033	24390.73
702.379	24351.86
702.724	24204.97
703.069	24251.75
703.415	23955.94
703.76	24009.5
704.105	23922.27
704.45	23795.26
704.795	23764.53
705.14	23623.97
705.485	23605.21
705.83	23421.26
706.175	23579.45
706.52	23399.79
706.865	23430.3
707.209	23269.63
707.554	23275.28
707.899	23139.24
708.243	23063.76
708.588	22986.92
708.932	22870.09
709.277	22959.13
709.621	22774.5
709.966	22715.52
710.31	22734.95
710.654	22548.07
710.998	22604.34
711.342	22496.09
711.687	22501.74
712.031	22441.4
712.375	22240.95
712.719	22315.08
713.063	22244.34
713.407	22376.77
713.75	22312.14
714.094	22150.34
714.438	22115.76
714.782	22129.09
715.125	22009.77
715.469	22111.24
715.812	21923.9
716.156	22018.59
716.499	21893.62
716.843	22020.62
717.186	21860.4
717.53	22007.29
717.873	21967.06
718.216	21958.93
718.559	21853.17
718.902	21700.63
719.246	21751.7
719.589	21654.08
719.932	21650.01
720.275	21654.3
720.617	21701.31
720.96	21559.62
721.303	21740.85
721.646	21662.44
721.989	21455.21
722.331	21605.49
722.674	21585.6
723.016	21531.82
723.359	21384.03
723.701	21480.52
724.044	21465.16
724.386	21398.04
724.729	21485.27
725.071	21494.08
725.413	21463.8
725.755	21384.93
726.097	21365.95
726.439	21460.18
726.782	21388.32
727.124	21443.46
727.465	21355.1
727.807	21316.46
728.149	21381.09
728.491	21415.21
728.833	21414.54
729.175	21423.35
729.516	21451.82
729.858	21419.96
730.199	21451.37
730.541	21524.82
730.882	21363.24
731.224	21432.16
731.565	21397.81
731.906	21409.34
732.248	21568.2
732.589	21468.55
732.93	21422.22
733.271	21423.8
733.612	21443.46
733.953	21498.83
734.294	21524.82
734.635	21343.58
734.976	21573.63
735.317	21478.94
735.658	21595.55
735.999	21524.59
736.339	21559.39
736.68	21607.98
737.021	21623.12
737.361	21584.25
737.702	21789.89
738.042	21699.73
738.383	21809.1
738.723	21888.65
739.063	21689.56
739.404	22016.78
739.744	22045.71
740.084	21946.95
740.424	22050.45
740.764	22047.29
741.104	22197.79
741.444	22218.58
741.784	22107.4
742.124	22264.46
742.464	22439.59
742.804	22409.76
743.143	22473.49
743.483	22538.57
743.823	22635.07
744.162	22564.79
744.502	22682.53
744.841	22691.11
745.181	22890.66
745.52	22883.42
745.86	23020.82
746.199	23228.27
746.538	23208.39
746.877	23494.93
747.216	23545.1
747.556	23552.33
747.895	23731.76
748.234	23686.11
748.573	23903.74
748.911	23998.65
749.25	24208.81
749.589	24157.06
749.928	24258.53
750.267	24469.6
750.605	24625.75
750.944	24834.33
751.283	24925.4
751.621	25166.53
751.96	25165.4
752.298	25308.44
752.636	25460.31
752.975	25518.38
753.313	25624.14
753.651	26034.3
753.989	26072.72
754.327	26223.67
754.666	26236.33
755.004	26443.33
755.342	26747.05
755.679	26849.2
756.017	26808.29
756.355	27203.76
756.693	27256.64
757.031	27657.54
757.368	27591.77
757.706	27721.04
758.044	27815.5
758.381	28056.85
758.719	28122.16
759.056	28490.51
759.394	28490.96
759.731	28371.64
760.068	28631.3
760.405	28814.34
760.743	28832.65
761.08	29168.23
761.417	29148.12
761.754	29250.26
762.091	29533.87
762.428	29402.8
762.765	29500.42
763.102	29678.05
763.438	29789.91
763.775	29755.11
764.112	30060.18
764.449	30138.15
764.785	30085.95
765.122	30170.92
765.458	30070.13
765.795	30321.65
766.131	30379.72
766.467	30411.36
766.804	30414.53
767.14	30337.92
767.476	30372.49
767.812	30407.75
768.148	30655.2
768.485	30446.84
768.821	30433.51
769.157	30506.95
769.492	30593.28
769.828	30648.64
770.164	30508.08
770.5	30423.34
770.836	30589.44
771.171	30480.51
771.507	30618.36
771.842	30353.96
772.178	30492.49
772.513	30434.64
772.849	30371.59
773.184	30477.8
773.519	30492.94
773.855	30317.13
774.19	30314.64
774.525	30289.78
774.86	30366.84
775.195	30121.43
775.53	30196
775.865	30100.86
776.2	29979.96
776.535	29919.4
776.87	29910.36
777.205	29997.13
777.539	29770.02
777.874	29879.17
778.209	29612.51
778.543	29586.3
778.878	29517.37
779.212	29576.36
779.547	29183.82
779.881	29466.75
780.215	29264.95
780.55	29439.64
780.884	29107.21
781.218	29150.83
781.552	29238.74
781.886	29003.94
782.22	28850.5
782.554	28882.36
782.888	28608.47
783.222	28634.68
783.556	28527.8
783.889	28456.38
784.223	28320.57
784.557	28420.23
784.89	28443.05
785.224	28143.17
785.557	28039.67
785.891	28046.23
786.224	28020.92
786.558	27926.68
786.891	27851.43
787.224	27549.29
787.557	27595.39
787.891	27488.73
788.224	27489.4
788.557	27384.1
788.89	27408.5
789.223	27318.11
789.556	27236.3
789.888	27254.83
790.221	27031.34
790.554	26947.95
790.887	26978.68
791.219	26880.61
791.552	26832.02
791.884	26687.39
792.217	26618.47
792.549	26574.63
792.882	26292.83
793.214	26337.57
793.546	26319.27
793.879	26208.76
794.211	26014.41
794.543	26171.47
794.875	26031.59
795.207	26107.75
795.539	26040.85
795.871	25990.23
796.203	25868.66
796.535	25647.42
796.867	25612.17
797.198	25411.94
797.53	25534.65
797.862	25349.12
798.193	25383.92
798.525	25286.52
798.856	25345.73
799.188	25058.73
799.519	25055.8
799.85	25004.95
800.182	24940.54
800.513	24887.89
800.844	24564.96
801.175	24858.29
801.506	24711.4
801.837	24542.36
802.168	24536.04
802.499	24648.35
802.83	24402.25
803.161	24299.43
803.491	24261.69
803.822	24308.92
804.153	24147.12
804.483	23995.26
804.814	23881.82
805.145	24132.43
805.475	24046.56
805.805	23850.4
806.136	23893.11
806.466	23751.65
806.796	23799.11
807.126	23631.65
807.457	23694.7
807.787	23643.63
808.117	23491.77
808.447	23367.25
808.777	23463.75
809.107	23302.62
809.436	23266.92
809.766	23368.83
810.096	23356.86
810.426	23082.74
810.755	23147.37
811.085	23100.37
811.414	23039.13
811.744	22952.12
812.073	22958.68
812.403	22872.12
812.732	22747.83
813.061	22925.46
813.39	22635.75
813.719	22624.9
814.049	22691.79
814.378	22670.1
814.707	22478.24
815.036	22557.78
815.365	22508.74
815.693	22412.93
816.022	22289.32
816.351	22322.99
816.68	22170
817.008	22207.96
817.337	21949.89
817.665	22036.44
817.994	21949.89
818.322	22164.35
818.651	21928.87
818.979	21926.84
819.307	21932.49
819.636	21863.34
819.964	21793.96
820.292	21797.8
820.62	21788.54
820.948	21814.3
821.276	21896.11
821.604	21857.69
821.932	21952.83
822.259	21861.98
822.587	21829.21
822.915	21719.16
823.243	21809.33
823.57	21769.1
823.898	21943.34
824.225	21693.62
824.553	21715.54
824.88	21791.93
825.207	21822.43
825.535	21852.94
825.862	21969.78
826.189	21735.21
826.516	22030.34
826.843	21993.28
827.17	21973.84
827.497	21895.2
827.824	21950.57
828.151	21968.87
828.478	21810.46
828.805	21943.56
829.131	21917.12
829.458	21926.61
829.785	21698.6
830.111	21934.07
830.438	21957.8
830.764	21924.58
831.09	21976.1
831.417	21827.86
831.743	21941.08
832.069	21873.51
832.395	21680.52
832.722	21938.14
833.048	21744.92
833.374	21822.89
833.7	21791.02
834.026	21794.86
834.351	21868.99
834.677	21888.42
835.003	21792.38
835.329	21756.45
835.654	21756.67
835.98	21619.73
836.306	21653.63
836.631	21595.1
836.956	21809.33
837.282	21728.65
837.607	21579.73
837.932	21613.63
838.258	21670.57
838.583	21652.72
838.908	21484.14
839.233	21605.94
839.558	21403.91
839.883	21409.11
840.208	21279.85
840.533	21356.46
840.858	21285.27
841.182	21323.69
841.507	21307.65
841.832	21231.94
842.156	21241.88
842.481	21206.41
842.805	20994.66
843.13	21006.64
843.454	20929.58
843.778	20901.55
844.103	20878.5
844.427	20891.39
844.751	20891.39
845.075	20932.51
845.399	20806.19
845.723	20645.29
846.047	20685.97
846.371	20513.09
846.695	20407.56
847.019	20410.04
847.343	20271.97
847.666	20294.79
847.99	20168.69
848.313	20145.64
848.637	19980.68
848.96	20072.88
849.284	19881.24
849.607	19821.58
849.931	19738.42
850.254	19613.91
850.577	19527.13
850.9	19351.99
851.223	19463.4
851.546	19321.48
851.869	19219.34
852.192	19300.69
852.515	19085.56
852.838	19091.89
853.161	19045.33
853.483	18952.68
853.806	18926.24
854.129	18783.64
854.451	18710.43
854.774	18588.4
855.096	18581.84
855.419	18555.85
855.741	18473.37
856.063	18323.77
856.385	18443.54
856.708	18400.6
857.03	18232.47
857.352	18199.71
857.674	18204.22
857.996	18150.21
858.318	18048.52
858.64	18058.47
858.961	17967.85
859.283	17883.56
859.605	17796.78
859.926	17810.34
860.248	17764.24
860.57	17687.85
860.891	17734.18
861.212	17518.37
861.534	17595.2
861.855	17604.47
862.176	17470.68
862.498	17502.1
862.819	17545.71
863.14	17382.33
863.461	17396.11
863.782	17377.81
864.103	17323.57
864.424	17331.48
864.745	17346.39
865.065	17246.74
865.386	17261.42
865.707	17165.16
866.027	17110.02
866.348	17237.7
866.668	17106.17
866.989	17072.5
867.309	16860.31
867.63	16992.73
867.95	17024.59
868.27	16825.5
868.59	17067.76
868.91	16909.12
869.23	16911.6
869.55	16778.95
869.87	16880.64
870.19	16695.56
870.51	16730.82
870.83	16842.45
871.15	16613.08
871.469	16589.58
871.789	16687.43
872.109	16628.45
872.428	16612.63
872.748	16652.4
873.067	16526.08
873.386	16526.53
873.706	16512.07
874.025	16428.23
874.344	16448.56
874.663	16459.86
874.982	16341.9
875.301	16368.11
875.62	16292.64
875.939	16235.91
876.258	16315.46
876.577	16200.89
876.896	16130.38
877.214	16228.01
877.533	16197.95
877.852	16191.17
878.17	16203.83
878.489	16140.1
878.807	16000.21
879.125	16071.17
879.444	15972.64
879.762	15996.37
880.08	16008.12
880.398	15860.78
880.716	15829.15
881.034	15806.55
881.352	15759.09
881.67	15844.06
881.988	15863.27
882.306	15761.13
882.624	15582.15
882.941	15717.96
883.259	15661.92
883.577	15708.7
883.894	15566.55
884.212	15508.7
884.529	15491.08
884.846	15415.15
885.164	15369.5
885.481	15376.5
885.798	15349.16
886.115	15228.48
886.432	15362.72
886.75	15242.04
887.067	15232.55
887.383	15134.02
887.7	15208.37
888.017	15076.4
888.334	15063.74
888.651	15067.81
888.967	15012.9
889.284	14917.08
889.6	14889.96
889.917	14791.89
890.233	14847.48
890.55	14746.91
890.866	14752.79
891.182	14787.14
891.498	14622.4
891.815	14620.36
892.131	14591.44
892.447	14539.24
892.763	14470.31
893.079	14399.8
893.395	14471.89
893.71	14419.69
894.026	14267.38
894.342	14379.92
894.657	14232.8
894.973	14249.53
895.289	14212.01
895.604	14171.56
895.92	14055.63
896.235	14056.99
896.55	13907.84
896.865	13998.91
897.181	13978.12
897.496	13858.58
897.811	13800.72
898.126	13687.73
898.441	13817
898.756	13735.87
899.071	13607.96
899.386	13639.15
899.7	13476.89
900.015	13381.98
900.33	13341.75
900.644	13233.28
900.959	13371.58
901.273	13343.34
901.588	13248.42
901.902	13146.73
902.216	13088.43
902.531	13101.53
902.845	13014.08
903.159	12990.58
903.473	12897.7
903.787	12895.89
904.101	12820.41
904.415	12816.57
904.729	12711.49
905.042	12669.46
905.356	12711.26
905.67	12575.45
905.984	12596.24
906.297	12556.01
906.611	12409.8
906.924	12481.66
907.237	12416.13
907.551	12389.46
907.864	12231.27
908.177	12188.11
908.491	12241.9
908.804	12096.81
909.117	12019.3
909.43	11891.85
909.743	11944.95
910.056	11941.79
910.368	11836.26
910.681	11759.65
910.994	11778.63
911.307	11718.07
911.619	11587.68
911.932	11692.53
912.244	11546.55
912.557	11531.63
912.869	11403.73
913.181	11425.19
913.494	11434.69
913.806	11320.79
914.118	11356.5
914.43	11222.94
914.742	11276.72
915.054	11164.41
915.366	11077.63
915.678	11061.81
915.99	11041.48
916.302	10976.39
916.613	10864.53
916.925	10858.43
917.236	10915.15
917.548	10827.47
917.859	10774.14
918.171	10693.01
918.482	10649.62
918.794	10546.57
919.105	10585.89
919.416	10537.76
919.727	10427.48
920.038	10491.89
920.349	10349.97
920.66	10306.58
920.971	10309.52
921.282	10240.59
921.593	10225.23
921.903	10118.79
922.214	10162.85
922.525	10146.58
922.835	10097.55
923.146	10004.89
923.456	9949.53
923.767	9956.98
924.077	9890.32
924.387	9926.25
924.697	9821.62
925.008	9825.24
925.318	9765.58
925.628	9720.38
925.938	9718.8
926.248	9592.02
926.558	9558.12
926.867	9540.27
927.177	9514.74
927.487	9565.81
927.796	9406.72
928.106	9438.13
928.416	9403.78
928.725	9321.97
929.034	9320.62
929.344	9312.03
929.653	9223.44
929.962	9126.05
930.271	9143.9
930.581	9113.62
930.89	9025.26
931.199	8984.13
931.508	9013.96
931.817	8931.93
932.125	8888.31
932.434	8854.19
932.743	8772.61
933.051	8764.7
933.36	8709.11
933.669	8675.66
933.977	8678.37
934.286	8613.74
934.594	8555.21
934.902	8553.86
935.21	8499.62
935.519	8434.54
935.827	8410.36
936.135	8393.18
936.443	8327.65
936.751	8271.38
937.059	8291.94
937.367	8282.9
937.674	8300.98
937.982	8195.45
938.29	8143.47
938.597	8155.68
938.905	8076.36
939.213	8029.13
939.52	8002.91
939.827	8005.17
940.135	8011.72
940.442	7948.22
940.749	7880.65
941.056	7907.32
941.363	7754.33
941.67	7785.06
941.977	7761.56
942.284	7706.65
942.591	7698.29
942.898	7673.43
943.205	7646.31
943.511	7523.38
943.818	7565.18
944.125	7477.5
944.431	7442.47
944.738	7429.82
945.044	7415.81
945.35	7372.87
945.657	7350.72
945.963	7351.85
946.269	7262.82
946.575	7252.2
946.881	7198.41
947.187	7159.32
947.493	7098.08
947.799	7164.29
948.105	7072.99
948.41	7063.73
948.716	7003.16
949.022	7022.15
949.327	6978.98
949.633	6878.19
949.938	6922.26
950.244	6913
950.549	6865.77
950.854	6778.99
951.16	6787.35
951.465	6740.12
951.77	6682.27
952.075	6710.52
952.38	6616.51
952.685	6695.83
952.99	6621.7
953.294	6591.2
953.599	6544.87
953.904	6504.87
954.209	6467.36
954.513	6449.96
954.818	6433.46
955.122	6437.08
955.426	6387.13
955.731	6350.98
956.035	6294.93
956.339	6310.75
956.643	6286.57
956.948	6230.98
957.252	6226.23
957.556	6209.29
957.86	6183.07
958.163	6180.81
958.467	6122.51
958.771	6121.6
959.075	6035.05
959.378	6048.39
959.682	6039.12
959.985	6002.74
960.289	5920.03
960.592	5939.24
960.896	5899.24
961.199	5896.07
961.502	5865.79
961.805	5861.27
962.108	5820.6
962.411	5736.76
962.714	5756.64
963.017	5728.39
963.32	5696.98
963.623	5649.53
963.926	5641.17
964.228	5636.65
964.531	5663.31
964.833	5622.41
965.136	5563.88
965.438	5520.49
965.741	5483.2
966.043	5458.57
966.345	5482.75
966.648	5458.35
966.95	5431
967.252	5392.58
967.554	5379.93
967.856	5365.47
968.158	5343.55
968.46	5284.11
968.761	5290.44
969.063	5259.48
969.365	5159.14
969.666	5226.26
969.968	5147.17
970.269	5151.23
970.571	5116.43
970.872	5106.72
971.174	5088.64
971.475	5034.4
971.776	5046.83
972.077	4996.21
972.378	4955.53
972.679	4978.58
972.98	4944.46
973.281	4992.59
973.582	4932.48
973.883	4847.29
974.183	4879.38
974.484	4834.86
974.785	4834.63
975.085	4824.01
975.386	4744.01
975.686	4718.25
975.986	4733.39
976.287	4693.85
976.587	4692.72
976.887	4657.91
977.187	4661.3
977.487	4692.26
977.787	4653.39
978.087	4562.55
978.387	4548.09
978.687	4551.7
978.987	4468.99
979.286	4437.58
979.586	4534.98
979.885	4474.19
980.185	4411.37
980.484	4412.27
980.784	4409.33
981.083	4391.93
981.382	4392.84
981.682	4333.4
981.981	4367.53
982.28	4310.35
982.579	4243.91
982.878	4255.44
983.177	4219.06
983.475	4241.88
983.774	4196.23
984.073	4216.57
984.372	4195.78
984.67	4140.41
984.969	4151.03
985.267	4141.09
985.566	4109
985.864	4067.2
986.162	4069.68
986.461	4053.64
986.759	4037.59
987.057	3959.18
987.355	3958.27
987.653	3947.65
987.951	3967.08
988.249	3905.17
988.547	3895.67
988.844	3867.88
989.142	3881.21
989.44	3841.44
989.737	3824.72
990.035	3858.39
990.332	3762.34
990.63	3795.56
990.927	3768.67
991.224	3728.67
991.521	3746.53
991.819	3695.91
992.116	3692.52
992.413	3694.32
992.71	3641.22
993.006	3706.98
993.303	3638.28
993.6	3581.33
993.897	3602.35
994.193	3595.12
994.49	3592.63
994.787	3522.12
995.083	3497.94
995.379	3471.5
995.676	3469.92
995.972	3485.74
996.268	3445.29
996.565	3387.89
996.861	3388.57
997.157	3394.22
997.453	3353.09
997.749	3355.8
998.044	3302.92
998.34	3296.37
998.636	3347.44
998.932	3277.61
999.227	3264.28
999.523	3239.42
999.818	3203.26
1000.114	3198.97
1000.409	3168.24
1000.704	3165.07
1001	3167.11
1001.295	3111.74
1001.59	3128.24
1001.885	3118.29
1002.18	3078.75
1002.475	3088.01
1002.77	3026.09
1003.065	3083.72
1003.359	3044.17
1003.654	3013.44
1003.949	2981.35
1004.243	2981.57
1004.538	2922.14
1004.832	2933.67
1005.127	2925.08
1005.421	2884.18
1005.715	2868.81
1006.009	2862.93
1006.304	2834.23
1006.598	2843.72
1006.892	2818.87
1007.186	2801.24
1007.48	2773.22
1007.773	2746.78
1008.067	2751.07
1008.361	2756.27
1008.655	2718.3
1008.948	2685.76
1009.242	2707.46
1009.535	2643.73
1009.829	2696.61
1010.122	2669.04
1010.415	2650.74
1010.708	2603.73
1011.001	2598.53
1011.295	2607.8
1011.588	2579.1
1011.881	2570.06
1012.173	2527.35
1012.466	2527.8
1012.759	2506.56
1013.052	2443.28
1013.344	2487.12
1013.637	2453.45
1013.93	2448.93
1014.222	2412.1
1014.514	2411.42
1014.807	2422.94
1015.099	2381.59
1015.391	2368.26
1015.683	2343.62
1015.976	2318.31
1016.268	2310.18
1016.56	2302.95
1016.851	2288.26
1017.143	2256.17
1017.435	2241.93
1017.727	2252.78
1018.018	2261.14
1018.31	2233.8
1018.602	2184.98
1018.893	2189.28
1019.185	2174.82
1019.476	2174.14
1019.767	2169.62
1020.058	2146.79
1020.35	2107.02
1020.641	2104.08
1020.932	2125.33
1021.223	2076.29
1021.514	2053.24
1021.804	2016.63
1022.095	2019.79
1022.386	1973.92
1022.677	1978.21
1022.967	2015.05
1023.258	1966.01
1023.548	1947.93
1023.839	1909.29
1024.129	1917.65
1024.419	1916.07
1024.709	1913.81
1025	1882.17
1025.29	1882.17
1025.58	1870.19
1025.87	1870.42
1026.16	1830.87
1026.449	1828.38
1026.739	1809.18
1027.029	1804.88
1027.319	1791.55
1027.608	1766.01
1027.898	1749.06
1028.187	1738.67
1028.477	1761.95
1028.766	1721.95
1029.055	1719.01
1029.344	1702.96
1029.634	1675.39
1029.923	1691.89
1030.212	1658.9
1030.501	1664.32
1030.79	1654.15
1031.078	1621.84
1031.367	1635.17
1031.656	1606.92
1031.945	1612.12
1032.233	1592.91
1032.522	1586.36
1032.81	1562.85
1033.099	1523.99
1033.387	1561.95
1033.675	1514.49
1033.963	1523.53
1034.251	1552.01
1034.54	1500.26
1034.828	1499.35
1035.116	1473.14
1035.403	1504.55
1035.691	1474.72
1035.979	1456.87
1036.267	1440.6
1036.554	1430.43
1036.842	1427.26
1037.129	1412.35
1037.417	1413.48
1037.704	1403.31
1037.992	1403.76
1038.279	1390.66
1038.566	1370.77
1038.853	1370.77
1039.14	1370.77
