Data from 19-3921_FLMS001491_010.txt Node
Date: Thu Apr 19 16:42:16 BST 2018
User: hsy
Spectrometer: FLMS00149
Trigger mode: 0
Integration Time (sec): 1.000000E-2
Scans to average: 10
Electric dark correction enabled: true
Nonlinearity correction enabled: false
Boxcar width: 0
XAxis mode: Wavelengths
Number of Pixels in Spectrum: 2048
>>>>>Begin Spectral Data<<<<<
341.393	-23.86
341.776	-23.86
342.16	-23.86
342.543	-61.82
342.927	-81.25
343.31	-66.79
343.693	-88.26
344.077	-84.19
344.46	-45.32
344.843	-51.43
345.226	-34.93
345.61	-40.35
345.993	-0.35
346.376	9.36
346.759	-1.71
347.142	22.7
347.525	39.65
347.908	56.14
348.291	87.55
348.674	95.92
349.057	102.02
349.44	134.78
349.823	153.54
350.206	160.55
350.588	215.23
350.971	241
351.354	271.73
351.737	252.52
352.119	271.05
352.502	283.26
352.884	298.17
353.267	322.12
353.65	322.35
354.032	320.09
354.414	331.39
354.797	335.91
355.179	360.99
355.562	332.75
355.944	361.22
356.326	368.9
356.709	379.98
357.091	384.04
357.473	353.76
357.855	381.33
358.238	373.65
358.62	365.06
359.002	374.33
359.384	369.13
359.766	393.31
360.148	398.51
360.53	355.57
360.912	375.91
361.294	372.07
361.676	372.97
362.057	366.42
362.439	381.78
362.821	361.9
363.203	361.22
363.584	371.84
363.966	357.15
364.348	355.8
364.729	375
365.111	359.19
365.493	344.72
365.874	366.42
366.256	378.85
366.637	357.15
367.019	385.63
367.4	369.13
367.781	363.48
368.163	358.73
368.544	368.22
368.925	370.26
369.306	367.32
369.688	353.76
370.069	356.93
370.45	373.87
370.831	372.74
371.212	375.91
371.593	346.98
371.974	351.28
372.355	356.93
372.736	377.49
373.117	387.89
373.498	367.32
373.879	394.44
374.26	396.92
374.641	346.53
375.021	362.8
375.402	406.19
375.783	391.28
376.163	393.31
376.544	367.32
376.925	379.3
377.305	372.52
377.686	415.91
378.066	407.77
378.447	397.15
378.827	419.3
379.208	412.29
379.588	422.23
379.968	412.07
380.349	419.3
380.729	400.54
381.109	417.49
381.489	434.44
381.87	406.87
382.25	425.62
382.63	426.3
383.01	460.2
383.39	430.82
383.77	407.55
384.15	446.64
384.53	410.71
384.91	431.73
385.29	462.23
385.67	431.73
386.049	438.28
386.429	472.85
386.809	447.77
387.189	457.26
387.568	451.16
387.948	456.81
388.328	486.41
388.707	463.14
389.087	471.5
389.466	503.14
389.846	465.85
390.225	481.44
390.605	472.85
390.984	479.18
391.363	504.04
391.743	498.39
392.122	498.84
392.501	506.75
392.881	531.84
393.26	535.45
393.639	498.39
394.018	520.09
394.397	506.98
394.776	530.48
395.155	539.97
395.534	560.54
395.913	517.6
396.292	531.61
396.671	543.14
397.05	564.83
397.429	555.34
397.808	562.8
398.186	567.32
398.565	572.74
398.944	552.85
399.323	584.26
399.701	564.6
400.08	570.25
400.458	577.94
400.837	595.79
401.215	581.78
401.594	594.43
401.972	616.81
402.351	610.7
402.729	633.3
403.107	616.13
403.486	624.72
403.864	634.43
404.242	645.73
404.62	652.96
404.999	621.33
405.377	629.91
405.755	679.18
406.133	646.18
406.511	666.07
406.889	666.07
407.267	672.62
407.645	697.71
408.023	698.39
408.401	722.57
408.779	706.97
409.156	738.16
409.534	742.9
409.912	766.86
410.29	773.19
410.667	763.02
411.045	771.15
411.422	805.73
411.8	777.03
412.178	800.3
412.555	803.92
412.933	814.31
413.31	833.07
413.687	835.78
414.065	829.91
414.442	829
414.819	865.61
415.197	872.39
415.574	883.92
415.951	881.88
416.328	903.35
416.705	864.03
417.082	881.21
417.46	883.24
417.837	907.65
418.214	949.9
418.591	941.32
418.967	934.54
419.344	958.94
419.721	933.86
420.098	969.11
420.475	983.35
420.852	974.54
421.228	1015.44
421.605	992.39
421.982	997.36
422.358	1004.59
422.735	1009.79
423.111	1005.72
423.488	1037.36
423.864	1040.75
424.241	1054.99
424.617	1094.08
424.994	1068.55
425.37	1077.36
425.746	1084.14
426.123	1115.32
426.499	1118.71
426.875	1127.98
427.251	1150.58
427.627	1167.98
428.003	1180.41
428.379	1210.24
428.756	1206.39
429.132	1195.55
429.507	1243.68
429.883	1236.22
430.259	1261.76
430.635	1286.39
431.011	1272.16
431.387	1325.94
431.763	1274.87
432.138	1296.56
432.514	1342.89
432.89	1359.39
433.265	1363.45
433.641	1409.55
434.016	1405.26
434.392	1433.51
434.767	1443.45
435.143	1480.29
435.518	1478.03
435.894	1493.39
436.269	1514.18
436.644	1515.09
437.02	1542.66
437.395	1573.62
437.77	1609.55
438.145	1604.12
438.52	1627.85
438.895	1608.42
439.271	1626.95
439.646	1666.5
440.021	1661.75
440.395	1672.82
440.77	1654.07
441.145	1706.27
441.52	1741.07
441.895	1728.19
442.27	1744.46
442.645	1719.83
443.019	1751.01
443.394	1761.86
443.769	1768.41
444.143	1792.37
444.518	1803.44
444.892	1784.46
445.267	1784.01
445.641	1828.98
446.016	1836.43
446.39	1860.84
446.764	1836.89
447.139	1884.57
447.513	1889.54
447.887	1894.51
448.262	1931.35
448.636	1909.43
449.01	1919.37
449.384	1966.37
449.758	1978.8
450.132	1985.58
450.506	1999.37
450.88	1992.81
451.254	2026.03
451.628	2012.48
452.002	2055.41
452.376	2068.07
452.75	2095.86
453.123	2091.57
453.497	2139.48
453.871	2166.6
454.244	2222.87
454.618	2237.33
454.992	2256.99
455.365	2267.84
455.739	2324.78
456.112	2312.13
456.486	2348.29
456.859	2384.67
457.232	2417.21
457.606	2442.75
457.979	2459.47
458.352	2508.73
458.725	2549.18
459.099	2548.28
459.472	2562.97
459.845	2602.97
460.218	2598.22
460.591	2652.68
460.964	2668.73
461.337	2664.44
461.71	2777.43
462.083	2777.2
462.456	2789.4
462.829	2790.31
463.201	2855.62
463.574	2828.73
463.947	2887.48
464.32	2959.57
464.692	2991.66
465.065	3017.19
465.438	3055.61
465.81	3047.25
466.183	3101.26
466.555	3178.09
466.928	3187.59
467.3	3164.99
467.672	3231.2
468.045	3268.26
468.417	3306.45
468.789	3339.9
469.161	3382.83
469.534	3371.08
469.906	3451.76
470.278	3472.1
470.65	3492.21
471.022	3579.44
471.394	3639.55
471.766	3647.46
472.138	3713.9
472.51	3752.77
472.882	3773.78
473.253	3837.29
473.625	3862.82
473.997	4001.35
474.369	3947.57
474.74	4028.92
475.112	4101.46
475.484	4129.71
475.855	4267.33
476.227	4250.16
476.598	4397.27
476.97	4364.05
477.341	4456.7
477.713	4529.7
478.084	4549.81
478.455	4660.09
478.827	4701.44
479.198	4867.99
479.569	4894.21
479.94	5002.23
480.311	5023.92
480.682	5143.24
481.053	5246.74
481.424	5332.84
481.795	5365.61
482.166	5436.57
482.537	5483.34
482.908	5634.98
483.279	5653.96
483.65	5786.16
484.021	5931.02
484.391	5919.49
484.762	5986.83
485.133	6041.97
485.503	6152.25
485.874	6294.17
486.244	6336.2
486.615	6455.97
486.985	6547.72
487.356	6643.09
487.726	6688.74
488.097	6844.44
488.467	6880.82
488.837	7021.38
489.207	7060.25
489.578	7162.17
489.948	7335.95
490.318	7411.43
490.688	7382.05
491.058	7557.41
491.428	7593.57
491.798	7661.82
492.168	7862.94
492.538	7864.52
492.908	7995.82
493.278	8085.99
493.648	8088.93
494.017	8249.83
494.387	8276.04
494.757	8375.02
495.126	8459.09
495.496	8469.93
495.866	8582.02
496.235	8696.59
496.605	8706.31
496.974	8720.77
497.344	8816.36
497.713	8883.26
498.082	8909.24
498.452	9014.55
498.821	9127.32
499.19	9090.03
499.559	9202.12
499.928	9213.87
500.298	9293.87
500.667	9370.47
501.036	9417.7
501.405	9469
501.774	9431.49
502.143	9601.65
502.512	9595.1
502.88	9746.74
503.249	9681.2
503.618	9774.31
503.987	9872.38
504.356	9942.66
504.724	9997.12
505.093	9999.38
505.462	10080.29
505.83	10064.24
506.199	10235.31
506.567	10303.78
506.936	10291.81
507.304	10429.2
507.672	10501.97
508.041	10498.58
508.409	10550.33
508.777	10626.94
509.145	10787.16
509.514	10788.74
509.882	10821.51
510.25	10905.12
510.618	11000.04
510.986	10996.19
511.354	11109.86
511.722	11201.84
512.09	11345.34
512.458	11353.25
512.826	11399.12
513.193	11402.74
513.561	11543.07
513.929	11668.27
514.297	11742.61
514.664	11776.29
515.032	11837.75
515.4	12015.15
515.767	12054.7
516.135	12182.15
516.502	12111.87
516.869	12290.62
517.237	12411.75
517.604	12288.82
517.972	12489.49
518.339	12557.96
518.706	12667.56
519.073	12741.23
519.44	12833.21
519.808	12863.72
520.175	12978.97
520.542	13175.57
520.909	13309.35
521.276	13273.42
521.643	13468.67
522.009	13614.88
522.376	13649.01
522.743	13786.86
523.11	13997.47
523.477	14105.49
523.843	14160.18
524.21	14325.6
524.577	14444.92
524.943	14574.18
525.31	14528.53
525.676	14696.44
526.043	14925.36
526.409	15044.9
526.776	15122.41
527.142	15220.04
527.508	15388.62
527.874	15441.05
528.241	15580.71
528.607	15593.59
528.973	15879
529.339	15917.65
529.705	16145.89
530.071	16242.84
530.437	16349.05
530.803	16536.16
531.169	16626.33
531.535	16560.57
531.901	16720.56
532.267	16759.43
532.632	16976.38
532.998	17066.32
533.364	17108.35
533.73	17170.04
534.095	17368.68
534.461	17376.59
534.826	17355.8
535.192	17614.1
535.557	17698.39
535.923	17780.42
536.288	17900.65
536.653	18010.7
537.019	18090.92
537.384	18084.37
537.749	18159.62
538.114	18248.21
538.479	18150.36
538.845	18307.64
539.21	18297.24
539.575	18390.58
539.94	18567.29
540.305	18593.28
540.67	18800.51
541.034	18742.2
541.399	18819.94
541.764	18881.18
542.129	18927.51
542.494	19042.99
542.858	19102.87
543.223	19099.71
543.587	19153.04
543.952	19232.36
544.316	19257.9
544.681	19316.65
545.045	19489.76
545.41	19500.83
545.774	19499.47
546.138	19455.41
546.503	19687.72
546.867	19663.99
547.231	19812.69
547.595	19838.9
547.959	20012.91
548.324	19957.54
548.688	20035.73
549.052	20084.54
549.416	20049.97
549.779	20204.09
550.143	20133.35
550.507	20336.97
550.871	20360.47
551.235	20466.91
551.599	20623.06
551.962	20590.97
552.326	20724.98
552.689	20793.68
553.053	20734.69
553.417	20858.08
553.78	21056.95
554.143	21061.24
554.507	21230.05
554.87	21226.66
555.234	21342.14
555.597	21342.14
555.96	21515.01
556.323	21632.3
556.686	21700.09
557.05	21861.9
557.413	21947.32
557.776	22061.67
558.139	22135.56
558.502	22245.39
558.865	22355.22
559.228	22477.25
559.59	22452.84
559.953	22515.67
560.316	22918.82
560.679	22996.33
561.041	23119.49
561.404	23286.49
561.767	23400.84
562.129	23502.08
562.492	23763.09
562.854	23901.17
563.217	23941.39
563.579	23982.75
563.941	24287.37
564.304	24380.93
564.666	24621.37
565.028	24800.12
565.39	24893
565.753	25167.35
566.115	25209.61
566.477	25442.82
566.839	25582.93
567.201	25991.28
567.563	26027.44
567.925	26319.41
568.287	26374.09
568.648	26540.64
569.01	26956.68
569.372	27200.06
569.734	27166.84
570.095	27504.69
570.457	27773.61
570.819	27867.84
571.18	28099.7
571.542	28457.2
571.903	28398.67
572.265	28689.74
572.626	28934.93
572.987	28988.94
573.349	29298.31
573.71	29479.1
574.071	29759.77
574.432	29971.97
574.794	30259.42
575.155	30249.47
575.516	30481.33
575.877	30678.84
576.238	30734.21
576.599	31066.63
576.96	31182.56
577.32	31457.58
577.681	31475.66
578.042	31796.55
578.403	31885.36
578.763	31929.65
579.124	31985.92
579.485	32268.85
579.845	32443.31
580.206	32451.45
580.566	32471.11
580.927	32631.11
581.287	32749.75
581.648	32772.57
582.008	32881.27
582.368	33007.37
582.728	32973.92
583.089	33147.48
583.449	33139.11
583.809	33195.61
584.169	33223.41
584.529	33135.95
584.889	33437.64
585.249	33336.4
585.609	33303.18
585.969	33537.52
586.329	33398.32
586.688	33533
587.048	33491.2
587.408	33433.12
587.768	33390.18
588.127	33437.86
588.487	33359
588.846	33573.68
589.206	33361.48
589.565	33370.52
589.925	33650.97
590.284	33462.72
590.643	33384.76
591.003	33467.24
591.362	33705.65
591.721	33569.16
592.08	33634.47
592.44	33680.57
592.799	33542.04
593.158	33667.91
593.517	33573
593.876	33601.02
594.235	33530.52
594.593	33546.11
594.952	33718.31
595.311	33578.43
595.67	33624.98
596.029	33791.75
596.387	33787.69
596.746	33827.01
597.104	33553.57
597.463	33538.88
597.822	33816.61
598.18	33703.17
598.538	33575.49
598.897	33913.56
599.255	33591.31
599.613	33967.12
599.972	33768.25
600.33	33772.54
600.688	33672.43
601.046	33855.03
601.404	34048.02
601.762	33929.83
602.12	33988.81
602.478	34004.85
602.836	34023.39
603.194	33791.75
603.552	34006.66
603.91	33866.55
604.268	33907
604.625	34013.22
604.983	33951.75
605.341	33864.29
605.698	34024.97
606.056	34153.78
606.413	34141.57
606.771	34147.68
607.128	34161.23
607.485	34139.54
607.843	34178.86
608.2	34223.38
608.557	34449.81
608.914	34313.77
609.272	34435.58
609.629	34512.86
609.986	34480.1
610.343	34436.48
610.7	34698.4
611.057	34654.1
611.414	34632.86
611.771	34717.83
612.127	34717.38
612.484	34664.27
612.841	34748.34
613.198	34619.98
613.554	34702.01
613.911	34814.1
614.267	34847.32
614.624	34718.51
614.98	34962.57
615.337	35081.89
615.693	34988.56
616.05	35039.4
616.406	35156.46
616.762	34976.58
617.118	35137.48
617.475	35015.9
617.831	35201.89
618.187	35236.23
618.543	35352.16
618.899	35304.48
619.255	35377.02
619.611	35351.94
619.967	35510.13
620.323	35622.89
620.678	35507.64
621.034	35402.33
621.39	35462.9
621.746	35429.45
622.101	35878.03
622.457	35465.61
622.812	35695.66
623.168	35686.84
623.523	35557.81
623.879	35657.47
624.234	35384.93
624.589	35574.08
624.945	35613.17
625.3	35708.54
625.655	35573.17
626.01	35674.87
626.365	35809.78
626.72	35520.07
627.075	35583.57
627.43	35419.51
627.785	35538.15
628.14	35546.28
628.495	35588.54
628.85	35566.85
629.205	35509.22
629.559	35654.3
629.914	35379.73
630.269	35486.17
630.623	35266.97
630.978	35236.23
631.332	35503.35
631.687	35302.45
632.041	35291.37
632.396	35377.25
632.75	35259.28
633.104	35303.58
633.459	35043.7
633.813	35048.44
634.167	34932.51
634.521	35050.25
634.875	34948.78
635.229	34749.69
635.583	34677.61
635.937	34751.5
636.291	34767.09
636.645	34664.72
636.999	34349.48
637.352	34583.82
637.706	34331.85
638.06	34563.26
638.413	34389.7
638.767	34185.64
639.121	34476.03
639.474	34139.09
639.828	34279.88
640.181	34220.67
640.534	34114.23
640.888	34002.37
641.241	33934.12
641.594	33970.05
641.947	33901.13
642.301	33931.64
642.654	33887.34
643.007	33857.51
643.36	33936.16
643.713	33761.25
644.066	33858.87
644.419	33628.82
644.771	33314.25
645.124	32932.79
645.477	33010.53
645.83	33007.14
646.182	32948.16
646.535	32886.24
646.888	32916.75
647.24	32754.27
647.593	32998.33
647.945	32799.24
648.298	32686.25
648.65	32555.63
649.002	32226.14
649.355	32293.04
649.707	31933.72
650.059	31916.32
650.411	32495.52
650.763	32609.18
651.115	33133.69
651.467	33123.75
651.819	33120.13
652.171	33071.32
652.523	33013.02
652.875	32923.98
653.227	32843.08
653.578	32987.93
653.93	32911.32
654.282	32731.89
654.633	32629.75
654.985	32970.53
655.337	32876.97
655.688	32721.95
656.039	32859.12
656.391	32477.66
656.742	32646.92
657.094	32638.34
657.445	32789.29
657.796	32660.71
658.147	32560.15
658.498	32675.17
658.849	32817.54
659.2	32664.1
659.551	32752.01
659.902	32818.22
660.253	32683.08
660.604	32737.77
660.955	32504.1
661.306	32751.1
661.656	32606.7
662.007	32676.3
662.358	32549.07
662.708	32763.08
663.059	32546.14
663.409	32498.23
663.76	32601.05
664.11	32744.32
664.461	32617.09
664.811	32679.24
665.161	32629.98
665.511	32546.81
665.862	32612.57
666.212	32694.15
666.562	32790.2
666.912	32675.4
667.262	32636.08
667.612	32708.17
667.962	32776.64
668.312	32616.42
668.662	32763.98
669.011	32785
669.361	32584.55
669.711	32621.61
670.06	32619.35
670.41	32641.05
670.76	32482.86
671.109	32654.83
671.459	32555.4
671.808	32634.04
672.157	32468.85
672.507	32407.83
672.856	32482.41
673.205	32409.42
673.554	32514.27
673.904	32423.2
674.253	32692.35
674.602	32361.73
674.951	32037.45
675.3	31805.59
675.649	32202.19
675.998	32452.35
676.346	32406.7
676.695	32386.37
677.044	32180.27
677.393	32317.44
677.741	32188.86
678.09	32083.78
678.438	32086.49
678.787	32253.49
679.135	32224.11
679.484	31980.5
679.832	32112.02
680.181	31986.38
680.529	31982.76
680.877	31845.36
681.225	31746.38
681.573	32125.36
681.922	31860.96
682.27	31752.26
682.618	31862.09
682.966	31616.89
683.314	31723.56
683.661	31713.16
684.009	31379.61
684.357	31354.53
684.705	31355.21
685.053	31412.38
685.4	31095.78
685.748	31128.09
686.095	31075.44
686.443	30939.4
686.79	30911.15
687.138	30943.69
687.485	30862.56
687.832	30644.72
688.18	30711.61
688.527	30570.59
688.874	30573.31
689.221	30560.43
689.568	30394.1
689.915	30220.32
690.262	30322.24
690.609	30175.12
690.956	30064.17
691.303	30161.34
691.65	29917.96
691.997	29931.29
692.344	29783.72
692.69	29660.11
693.037	29675.93
693.383	29379.89
693.73	29496.95
694.077	29306.45
694.423	29112.1
694.769	29024.19
695.116	29091.76
695.462	28785.1
695.808	28826.23
696.155	28787.14
696.501	28539.91
696.847	28672.11
697.193	28315.51
697.539	28441.38
697.885	28298.11
698.231	28107.61
698.577	28023.54
698.923	27949.65
699.269	27813.6
699.614	27686.15
699.96	27537.68
700.306	27609.99
700.651	27381.98
700.997	27351.92
701.342	27270.34
701.688	27263.79
702.033	27163.9
702.379	27150.12
702.724	26949.45
703.069	26927.98
703.415	26652.05
703.76	26715.78
704.105	26700.64
704.45	26612.73
704.795	26444.38
705.14	26337.49
705.485	26437.6
705.83	26196.92
706.175	26282.57
706.52	26168.9
706.865	26027.66
707.209	25990.15
707.554	25925.97
707.899	25864.05
708.243	25720.1
708.588	25733.66
708.932	25658.41
709.277	25679.2
709.621	25548.35
709.966	25381.58
710.31	25342.94
710.654	25217.06
710.998	25157.4
711.342	25233.33
711.687	25249.6
712.031	25076.95
712.375	24949.73
712.719	24958.31
713.063	24954.24
713.407	25127.35
713.75	24821.82
714.094	24790.18
714.438	24662.28
714.782	24738.88
715.125	24576.4
715.469	24792.67
715.812	24545.22
716.156	24537.53
716.499	24497.08
716.843	24514.48
717.186	24393.13
717.53	24579.57
717.873	24510.64
718.216	24497.53
718.559	24442.39
718.902	24232.46
719.246	24338.44
719.589	24192.46
719.932	24182.29
720.275	24119.01
720.617	24139.8
720.96	24013.48
721.303	23994.95
721.646	24122.85
721.989	23899.13
722.331	24049.41
722.674	23918.11
723.016	23951.79
723.359	23897.55
723.701	23963.76
724.044	23866.59
724.386	23762.64
724.729	23886.7
725.071	23839.25
725.413	23721.74
725.755	23739.14
726.097	23630.44
726.439	23568.07
726.782	23556.99
727.124	23669.98
727.465	23666.37
727.807	23631.79
728.149	23801.73
728.491	23562.64
728.833	23621.85
729.175	23599.25
729.516	23557.45
729.858	23634.96
730.199	23586.82
730.541	23444.23
730.882	23531.68
731.224	23571.91
731.565	23517.9
731.906	23454.62
732.248	23481.29
732.589	23304.57
732.93	23443.32
733.271	23475.41
733.612	23377.56
733.953	23649.19
734.294	23425.47
734.635	23506.15
734.976	23532.36
735.317	23439.26
735.658	23376.89
735.999	23386.38
736.339	23456.66
736.68	23606.71
737.021	23484.91
737.361	23553.83
737.702	23671.11
738.042	23516.54
738.383	23572.59
738.723	23557.45
739.063	23553.38
739.404	23620.49
739.744	23525.13
740.084	23530.33
740.424	23680.83
740.764	23561.97
741.104	23752.02
741.444	23659.82
741.784	23685.13
742.124	23800.83
742.464	23740.27
742.804	23828.85
743.143	23720.61
743.483	23884.67
743.823	23821.17
744.162	23917.89
744.502	24036.53
744.841	23896.42
745.181	24095.51
745.52	23968.73
745.86	24133.02
746.199	24116.3
746.538	24064.78
746.877	24304.09
747.216	24319.69
747.556	24306.35
747.895	24429.06
748.234	24340.48
748.573	24496.86
748.911	24510.41
749.25	24613.91
749.589	24522.39
749.928	24719
750.267	24751.54
750.605	24848.03
750.944	24995.83
751.283	24999.22
751.621	25191.53
751.96	24998.76
752.298	25156.73
752.636	25258.19
752.975	25319.66
753.313	25237.63
753.651	25307.91
753.989	25338.42
754.327	25510.61
754.666	25452.99
755.004	25706.32
755.342	25694.56
755.679	25839.87
756.017	25764.17
756.355	26000.77
756.693	25910.83
757.031	26071.05
757.368	26015.46
757.706	26118.96
758.044	26137.94
758.381	26257.71
758.719	26189.24
759.056	26281.44
759.394	26312.4
759.731	26198.51
760.068	26332.74
760.405	26391.27
760.743	26283.7
761.08	26405.73
761.417	26492.74
761.754	26409.8
762.091	26569.8
762.428	26342.46
762.765	26474.43
763.102	26501.1
763.438	26492.96
763.775	26395.56
764.112	26479.85
764.449	26494.77
764.785	26427.65
765.122	26369.8
765.458	26413.87
765.795	26431.49
766.131	26385.17
766.467	26363.47
766.804	26247.54
767.14	26159.19
767.476	26240.99
767.812	26234.66
768.148	26313.31
768.485	26235.57
768.821	26166.87
769.157	26133.65
769.492	26211.39
769.828	26129.36
770.164	25819.53
770.5	25893.66
770.836	25951.96
771.171	25737.05
771.507	25767.56
771.842	25565.98
772.178	25656.83
772.513	25650.27
772.849	25467
773.184	25460.45
773.519	25477.85
773.855	25403.05
774.19	25384.29
774.525	25321.92
774.86	25332.31
775.195	25239.89
775.53	25105.43
775.865	24940.91
776.2	24869.05
776.535	24785.66
776.87	24670.41
777.205	24624.08
777.539	24504.77
777.874	24537.31
778.209	24391.55
778.543	24421.83
778.878	24238.11
779.212	24242.63
779.547	24091.44
779.881	24146.13
780.215	24033.37
780.55	24026.36
780.884	23778.23
781.218	23738.46
781.552	23923.31
781.886	23647.39
782.22	23514.73
782.554	23543.21
782.888	23231.13
783.222	23266.83
783.556	23122.88
783.889	23065.93
784.223	22959.72
784.557	22993.84
784.89	22948.42
785.224	22811.93
785.557	22741.87
785.891	22750.01
786.224	22676.11
786.558	22676.34
786.891	22559.96
787.224	22326.07
787.557	22296.91
787.891	22212.4
788.224	22108.9
788.557	22122.23
788.89	22072.74
789.223	22005.62
789.556	21895.57
789.888	21769.47
790.221	21803.82
790.554	21601.11
790.887	21588.68
791.219	21549.14
791.552	21522.92
791.884	21383.72
792.217	21331.52
792.549	21259.2
792.882	21078.64
793.214	21012.43
793.546	21042.48
793.879	20928.36
794.211	20834.13
794.543	21005.42
794.875	20865.31
795.207	20829.83
795.539	20718.42
795.871	20769.95
796.203	20561.82
796.535	20504.19
796.867	20458.09
797.198	20400.92
797.53	20393.91
797.862	20162.51
798.193	20197.99
798.525	20106.46
798.856	20251.32
799.188	19909.86
799.519	19914.83
799.85	19855.17
800.182	19846.36
800.513	19950.76
800.844	19603.43
801.175	19714.61
801.506	19726.36
801.837	19579.25
802.168	19514.84
802.499	19508.96
802.83	19412.02
803.161	19312.59
803.491	19228.97
803.822	19392.13
804.153	19136.32
804.483	19099.71
804.814	18964.57
805.145	19002.09
805.475	19041.41
805.805	18912.6
806.136	18867.63
806.466	18805.71
806.796	18866.5
807.126	18517.35
807.457	18663.79
807.787	18604.58
808.117	18447.52
808.447	18478.94
808.777	18553.96
809.107	18344.7
809.436	18241.88
809.766	18352.61
810.096	18302.44
810.426	18194.65
810.755	18193.74
811.085	18138.83
811.414	18084.14
811.744	17961.21
812.073	18024.94
812.403	18014.54
812.732	17767.77
813.061	18006.86
813.39	17750.82
813.719	17725.06
814.049	17756.47
814.378	17783.59
814.707	17614.55
815.036	17757.15
815.365	17602.57
815.693	17471.28
816.022	17464.95
816.351	17525.74
816.68	17454.78
817.008	17532.97
817.337	17291.62
817.665	17280.32
817.994	17337.72
818.322	17309.93
818.651	17198.06
818.979	17135.24
819.307	17091.17
819.636	17141.34
819.964	16994.91
820.292	17193.32
820.62	17065.19
820.948	17049.82
821.276	17184.28
821.604	17098.63
821.932	17147.44
822.259	17070.61
822.587	17076.49
822.915	16981.35
823.243	17108.58
823.57	16874.23
823.898	17111.74
824.225	17026.32
824.553	16968.69
824.88	17014.34
825.207	17149.93
825.535	17063.38
825.862	17085.3
826.189	17092.98
826.516	17139.99
826.843	17265.86
827.17	17082.36
827.497	17192.42
827.824	17161
828.151	17130.72
828.478	17133.66
828.805	17233.09
829.131	17193.77
829.458	17094.56
829.785	16947.45
830.111	17042.59
830.438	17186.54
830.764	17150.16
831.09	17099.99
831.417	17139.08
831.743	17112.42
832.069	17054.79
832.395	17013.66
832.722	17071.06
833.048	16957.85
833.374	17099.31
833.7	16993.32
834.026	16943.16
834.351	17027.67
834.677	17012.53
835.003	16969.14
835.329	16995.81
835.654	16933.44
835.98	16878.53
836.306	16919.65
836.631	16785.87
836.956	16899.54
837.282	16940.44
837.607	16805.31
837.932	16798.08
838.258	16815.93
838.583	16730.96
838.908	16658.87
839.233	16729.15
839.558	16660.23
839.883	16539.1
840.208	16505.65
840.533	16587.91
840.858	16546.56
841.182	16572.54
841.507	16530.96
841.832	16431.98
842.156	16441.02
842.481	16463.62
842.805	16415.94
843.13	16386.33
843.454	16356.5
843.778	16247.58
844.103	16323.96
844.427	16289.39
844.751	16282.16
845.075	16192.89
845.399	16067.25
845.723	16053.24
846.047	16127.13
846.371	15954.48
846.695	15950.64
847.019	15790.42
847.343	15714.26
847.666	15687.37
847.99	15642.85
848.313	15591.1
848.637	15483.99
848.96	15562.4
849.284	15536.41
849.607	15348.4
849.931	15431.33
850.254	15214.16
850.577	15100.72
850.9	15050.32
851.223	15008.97
851.546	15049.87
851.869	15009.2
852.192	15051.45
852.515	14817.11
852.838	14693.72
853.161	14651.24
853.483	14672.93
853.806	14601.3
854.129	14554.74
854.451	14557.68
854.774	14498.93
855.096	14454.18
855.419	14395.88
855.741	14300.29
856.063	14270.46
856.385	14194.98
856.708	14291.7
857.03	14204.02
857.352	14125.83
857.674	14091.48
857.996	14025.49
858.318	13952.73
858.64	14028.43
858.961	13937.81
859.283	13841.99
859.605	13752.05
859.926	13806.29
860.248	13839.96
860.57	13723.13
860.891	13778.95
861.212	13657.82
861.534	13555
861.855	13668.21
862.176	13608.1
862.498	13600.19
862.819	13637.93
863.14	13454.43
863.461	13452.17
863.782	13419.86
864.103	13468.67
864.424	13428.9
864.745	13374.21
865.065	13390.93
865.386	13190.71
865.707	13347.77
866.027	13357.94
866.348	13258.96
866.668	13232.52
866.989	13215.12
867.309	13147.1
867.63	13155.91
867.95	13201.79
868.27	13007.67
868.59	13146.42
868.91	13041.11
869.23	13042.02
869.55	12966.99
869.87	13059.64
870.19	12940.78
870.51	12932.41
870.83	12907.56
871.15	12899.87
871.469	12904.39
871.789	12977.38
872.109	12885.18
872.428	12843.15
872.748	12823.49
873.067	12742.81
873.386	12843.6
873.706	12724.28
874.025	12748.69
874.344	12655.36
874.663	12726.32
874.982	12599.32
875.301	12726.32
875.62	12666.88
875.939	12657.62
876.258	12574.23
876.577	12512.76
876.896	12593.67
877.214	12599.54
877.533	12618.75
877.852	12586.66
878.17	12605.64
878.489	12477.06
878.807	12507.11
879.125	12461.01
879.444	12458.3
879.762	12408.13
880.08	12440.45
880.398	12395.25
880.716	12381.47
881.034	12307.57
881.352	12281.58
881.67	12231.42
881.988	12202.94
882.306	12147.58
882.624	12206.56
882.941	12147.58
883.259	12202.49
883.577	12129.05
883.894	12006.79
884.212	12012.89
884.529	12001.37
884.846	11920.46
885.164	11871.2
885.481	11911.88
885.798	11911.2
886.115	11865.1
886.432	11847.7
886.75	11809.05
887.067	11815.61
887.383	11788.94
887.7	11706.46
888.017	11639.57
888.334	11652
888.651	11597.08
888.967	11581.94
889.284	11593.69
889.6	11566.35
889.917	11548.04
890.233	11493.81
890.55	11487.93
890.866	11429.18
891.182	11418.33
891.498	11406.58
891.815	11300.14
892.131	11233.02
892.447	11242.74
892.763	11299.91
893.079	11186.47
893.395	11213.82
893.71	11135.17
894.026	11079.81
894.342	11072.35
894.657	11042.07
894.973	10979.02
895.289	10920.49
895.604	10926.37
895.92	10851.56
896.235	10844.56
896.55	10914.61
896.865	10791.68
897.181	10741.51
897.496	10785.13
897.811	10687.28
898.126	10589.65
898.441	10620.38
898.756	10616.09
899.071	10571.57
899.386	10617.45
899.7	10525.25
900.015	10427.85
900.33	10324.8
900.644	10282.09
900.959	10319.83
901.273	10261.07
901.588	10245.25
901.902	10211.81
902.216	10133.62
902.531	10152.6
902.845	10111.02
903.159	10003.45
903.473	10032.83
903.787	9971.14
904.101	9941.53
904.415	9872.61
904.729	9867.41
905.042	9819.05
905.356	9818.82
905.67	9807.07
905.984	9762.55
906.297	9710.8
906.611	9626.51
906.924	9671.26
907.237	9615.44
907.551	9579.96
907.864	9478.27
908.177	9516.68
908.491	9490.24
908.804	9436.69
909.117	9340.42
909.43	9390.59
909.743	9280.31
910.056	9221.1
910.368	9263.13
910.681	9215.9
910.994	9260.87
911.307	9167.09
911.619	9019.75
911.932	9118.5
912.244	8990.14
912.557	9031.95
912.869	8946.3
913.181	8885.29
913.494	8877.83
913.806	8868.11
914.118	8770.04
914.43	8764.16
914.742	8824.73
915.054	8697.95
915.366	8656.82
915.678	8630.38
915.99	8624.05
916.302	8529.37
916.613	8505.64
916.925	8538.63
917.236	8480.33
917.548	8461.57
917.859	8426.09
918.171	8345.87
918.482	8299.09
918.794	8266.1
919.105	8286.66
919.416	8238.53
919.727	8166.21
920.038	8180.22
920.349	8130.96
920.66	8067.68
920.971	8043.73
921.282	8072.88
921.593	7975.03
921.903	7889.38
922.214	7935.03
922.525	7900.46
922.835	7871.76
923.146	7805.09
923.456	7749.95
923.767	7719.67
924.077	7751.53
924.387	7706.79
924.697	7589.96
925.008	7580.69
925.318	7561.26
925.628	7636.51
925.938	7493.24
926.248	7504.08
926.558	7425.44
926.867	7411.66
927.177	7433.12
927.487	7323.3
927.796	7376.63
928.106	7341.6
928.416	7322.84
928.725	7228.16
929.034	7256.41
929.344	7255.05
929.653	7184.99
929.962	7154.49
930.271	7130.76
930.581	7102.96
930.89	7042.4
931.199	6960.14
931.508	6934.61
931.817	6982.97
932.125	6945
932.434	6959.92
932.743	6808.28
933.051	6829.07
933.36	6847.83
933.669	6827.26
933.977	6766.47
934.286	6834.72
934.594	6703.88
934.902	6702.07
935.21	6612.81
935.519	6632.01
935.827	6559.7
936.135	6579.81
936.443	6525.35
936.751	6484.67
937.059	6506.59
937.367	6405.58
937.674	6414.39
937.982	6398.35
938.29	6373.04
938.597	6320.16
938.905	6274.96
939.213	6244
939.52	6222.53
939.827	6204.91
940.135	6196.09
940.442	6156.32
940.749	6171.91
941.056	6168.98
941.363	6103.89
941.67	6067.96
941.977	6067.28
942.284	5992.71
942.591	5987.74
942.898	5990.9
943.205	5952.03
943.511	5891.92
943.818	5886.95
944.125	5836.33
944.431	5876.78
944.738	5843.34
945.044	5782.55
945.35	5758.82
945.657	5750
945.963	5782.32
946.269	5711.59
946.575	5682.66
946.881	5641.53
947.187	5594.3
947.493	5598.6
947.799	5560.18
948.105	5580.52
948.41	5505.49
948.716	5481.08
949.022	5442.22
949.327	5422.56
949.633	5376.23
949.938	5446.74
950.244	5444.48
950.549	5427.75
950.854	5359.05
951.16	5342.56
951.465	5309.11
951.77	5284.03
952.075	5256.91
952.38	5227.76
952.685	5209.23
952.99	5172.17
953.294	5137.59
953.599	5158.61
953.904	5089.46
954.209	5054.88
954.513	5106.41
954.818	5044.26
955.122	5067.54
955.426	5077.93
955.731	4998.39
956.035	4985.05
956.339	4948.22
956.643	5021.44
956.948	4930.82
957.252	4885.39
957.556	4888.56
957.86	4873.42
958.163	4849.91
958.467	4801.33
958.771	4819.63
959.075	4780.99
959.378	4758.17
959.682	4730.6
959.985	4754.1
960.289	4700.54
960.592	4655.34
960.896	4658.51
961.199	4639.3
961.502	4578.96
961.805	4599.75
962.108	4493.99
962.411	4517.72
962.714	4533.99
963.017	4492.64
963.32	4518.85
963.623	4426.65
963.926	4469.59
964.228	4429.81
964.531	4415.8
964.833	4463.03
965.136	4374.67
965.438	4362.92
965.741	4319.76
966.043	4355.92
966.345	4300.1
966.648	4292.64
966.95	4277.27
967.252	4262.36
967.554	4210.84
967.856	4211.74
968.158	4214.23
968.46	4152.76
968.761	4152.98
969.063	4136.26
969.365	4164.74
969.666	4027.11
969.968	4021.91
970.269	4079.31
970.571	4072.31
970.872	4049.71
971.174	4042.93
971.475	4016.04
971.776	3994.57
972.077	3956.15
972.378	3920.9
972.679	3945.98
972.98	3914.57
973.281	3868.02
973.582	3867.57
973.883	3848.36
974.183	3855.36
974.484	3865.76
974.785	3803.61
975.085	3772.43
975.386	3781.24
975.686	3797.29
975.986	3774.24
976.287	3756.61
976.587	3703.96
976.887	3715.71
977.187	3712.09
977.487	3675.26
977.787	3647.69
978.087	3675.26
978.387	3616.27
978.687	3589.16
978.987	3605.2
979.286	3549.16
979.586	3564.3
979.885	3573.34
980.185	3511.19
980.484	3487.24
980.784	3506.45
981.083	3480.69
981.382	3484.3
981.682	3441.59
981.981	3429.61
982.28	3451.76
982.579	3410.18
982.878	3400.46
983.177	3367.47
983.475	3367.47
983.774	3350.75
984.073	3326.34
984.372	3341.71
984.67	3296.96
984.969	3287.02
985.267	3274.82
985.566	3247.92
985.864	3235.95
986.162	3188.72
986.461	3212.44
986.759	3173.8
987.057	3170.86
987.355	3181.94
987.653	3130.64
987.951	3108.49
988.249	3145.1
988.547	3112.33
988.844	3128.6
989.142	3069.62
989.44	3070.07
989.737	3043.41
990.035	3048.38
990.332	3042.73
990.63	3015.61
990.927	3007.93
991.224	2980.81
991.521	2955.05
991.819	2936.07
992.116	2959.34
992.413	2960.47
992.71	2917.31
993.006	2892.9
993.303	2896.07
993.6	2871.21
993.897	2862.17
994.193	2821.95
994.49	2816.3
994.787	2832.34
995.083	2791.66
995.379	2769.97
995.676	2819.46
995.972	2765.45
996.268	2756.86
996.565	2732.68
996.861	2759.12
997.157	2703.53
997.453	2686.36
997.749	2711.44
998.044	2664.44
998.34	2640.93
998.636	2656.98
998.932	2640.03
999.227	2628.05
999.523	2608.39
999.818	2592.35
1000.114	2550.99
1000.409	2555.06
1000.704	2535.17
1001	2528.62
1001.295	2515.74
1001.59	2524.78
1001.885	2495.17
1002.18	2504.67
1002.475	2470.99
1002.77	2469.19
1003.065	2463.76
1003.359	2448.4
1003.654	2412.69
1003.949	2401.17
1004.243	2410.66
1004.538	2367.72
1004.832	2361.84
1005.127	2360.49
1005.421	2361.62
1005.715	2349.64
1006.009	2310.77
1006.304	2297.21
1006.598	2284.11
1006.892	2245.46
1007.186	2277.33
1007.48	2279.13
1007.773	2239.59
1008.067	2198.91
1008.361	2173.6
1008.655	2192.36
1008.948	2146.94
1009.242	2142.19
1009.535	2122.75
1009.829	2148.74
1010.122	2144.68
1010.415	2102.87
1010.708	2116.43
1011.001	2096.54
1011.295	2077.33
1011.588	2078.69
1011.881	2041.85
1012.173	2043.43
1012.466	2027.62
1012.759	2031.01
1013.052	2027.62
1013.344	2011.12
1013.637	2008.18
1013.93	1964.34
1014.222	1954.4
1014.514	1952.82
1014.807	1979.48
1015.099	1925.7
1015.391	1901.52
1015.683	1890.44
1015.976	1871.24
1016.268	1883.44
1016.56	1888.18
1016.851	1865.36
1017.143	1850.22
1017.435	1866.04
1017.727	1843.89
1018.018	1816.32
1018.31	1814.74
1018.602	1766.83
1018.893	1776.78
1019.185	1773.16
1019.476	1772.26
1019.767	1758.47
1020.058	1726.38
1020.35	1698.59
1020.641	1729.09
1020.932	1680.73
1021.223	1713.27
1021.514	1702.43
1021.804	1677.57
1022.095	1635.76
1022.386	1633.73
1022.677	1632.6
1022.967	1637.57
1023.258	1635.31
1023.548	1611.58
1023.839	1590.57
1024.129	1586.27
1024.419	1583.79
1024.709	1539.72
1025	1543.79
1025.29	1551.47
1025.58	1556.22
1025.87	1530.91
1026.16	1497.23
1026.449	1499.49
1026.739	1524.13
1027.029	1501.53
1027.319	1481.19
1027.608	1459.72
1027.898	1451.81
1028.187	1450.46
1028.477	1451.13
1028.766	1406.16
1029.055	1386.96
1029.344	1401.19
1029.634	1405.49
1029.923	1393.73
1030.212	1399.38
1030.501	1367.07
1030.79	1353.96
1031.078	1359.39
1031.367	1333.85
1031.656	1324.58
1031.945	1321.87
1032.233	1329.1
1032.522	1324.36
1032.81	1299.73
1033.099	1301.76
1033.387	1282.1
1033.675	1278.03
1033.963	1281.2
1034.251	1262.44
1034.54	1256.56
1034.828	1235.32
1035.116	1245.72
1035.403	1229.22
1035.691	1207.98
1035.979	1188.54
1036.267	1201.42
1036.554	1163.01
1036.842	1178.37
1037.129	1190.58
1037.417	1160.52
1037.704	1172.72
1037.992	1142.22
1038.279	1163.91
1038.566	1174.08
1038.853	1174.08
1039.14	1174.08
