Data from 19-3935_FLMS001491_003.txt Node
Date: Thu Apr 19 16:38:58 BST 2018
User: hsy
Spectrometer: FLMS00149
Trigger mode: 0
Integration Time (sec): 1.000000E-2
Scans to average: 10
Electric dark correction enabled: true
Nonlinearity correction enabled: false
Boxcar width: 0
XAxis mode: Wavelengths
Number of Pixels in Spectrum: 2048
>>>>>Begin Spectral Data<<<<<
341.393	2.33
341.776	2.33
342.16	2.33
342.543	-56.2
342.927	-84.45
343.31	-60.72
343.693	-82.41
344.077	-70.21
344.46	-64.11
344.843	-65.24
345.226	-50.1
345.61	-36.09
345.993	-13.49
346.376	2.56
346.759	23.57
347.142	18.83
347.525	35.78
347.908	52.72
348.291	106.28
348.674	80.52
349.057	122.1
349.44	119.16
349.823	138.82
350.206	164.81
350.588	239.39
350.971	252.95
351.354	252.27
351.737	293.62
352.119	283
352.502	280.06
352.884	305.37
353.267	306.05
353.65	325.71
354.032	326.39
354.414	332.49
354.797	349.67
355.179	338.59
355.562	364.58
355.944	373.17
356.326	380.4
356.709	350.57
357.091	377.91
357.473	376.78
357.855	376.78
358.238	384.24
358.62	390.34
359.002	377.91
359.384	381.3
359.766	371.36
360.148	369.78
360.53	373.17
360.912	388.08
361.294	373.39
361.676	382.43
362.057	382.43
362.439	396.22
362.821	355.99
363.203	399.61
363.584	387.86
363.966	365.26
364.348	382.43
364.729	371.36
365.111	373.85
365.493	372.72
365.874	374.75
366.256	361.19
366.637	367.97
367.019	355.77
367.4	387.18
367.781	364.58
368.163	370.23
368.544	375.2
368.925	367.52
369.306	388.76
369.688	349.89
370.069	366.39
370.45	381.76
370.831	375.88
371.212	369.55
371.593	380.17
371.974	361.42
372.355	395.77
372.736	392.38
373.117	385.37
373.498	386.5
373.879	378.59
374.26	376.33
374.641	391.02
375.021	361.87
375.402	378.37
375.783	401.64
376.163	410.23
376.544	394.18
376.925	402.09
377.305	397.12
377.686	414.97
378.066	395.09
378.447	415.2
378.827	378.14
379.208	414.3
379.588	436.67
379.968	412.94
380.349	399.16
380.729	447.06
381.109	420.4
381.489	417.23
381.87	406.16
382.25	423.34
382.63	425.37
383.01	426.27
383.39	460.62
383.77	440.51
384.15	458.59
384.53	441.64
384.91	455.65
385.29	466.95
385.67	461.08
386.049	472.37
386.429	464.92
386.809	473.73
387.189	484.8
387.568	459.95
387.948	474.86
388.328	457.91
388.707	457.69
389.087	499.49
389.466	488.87
389.846	487.74
390.225	489.32
390.605	518.7
390.984	496.33
391.363	494.29
391.743	506.05
392.122	530
392.501	511.02
392.881	518.48
393.26	522.77
393.639	531.36
394.018	548.76
394.397	547.85
394.776	534.52
395.155	546.5
395.534	556.21
395.913	565.93
396.292	558.02
396.671	557.12
397.05	570.9
397.429	576.1
397.808	546.27
398.186	591.02
398.565	573.84
398.944	583.56
399.323	596.21
399.701	589.89
400.08	609.77
400.458	608.64
400.837	616.1
401.215	632.14
401.594	620.17
401.972	630.11
402.351	610.68
402.729	619.49
403.107	635.53
403.486	662.2
403.864	631.24
404.242	659.71
404.62	657.45
404.999	670.34
405.377	667.17
405.755	679.37
406.133	681.18
406.511	717.57
406.889	692.93
407.267	718.02
407.645	712.59
408.023	713.5
408.401	725.93
408.779	730.67
409.156	734.06
409.534	746.04
409.912	745.59
410.29	803.67
410.667	776.32
411.045	763.67
411.422	800.95
411.8	805.47
412.178	808.64
412.555	821.52
412.933	826.94
413.31	868.97
413.687	868.97
414.065	866.71
414.442	870.56
414.819	913.72
415.197	910.33
415.574	913.72
415.951	928.86
416.328	898.35
416.705	943.55
417.082	932.93
417.46	922.31
417.837	967.95
418.214	968.63
418.591	978.12
418.967	979.48
419.344	993.04
419.721	1004.79
420.098	999.59
420.475	1013.6
420.852	1020.38
421.228	1025.35
421.605	1033.04
421.982	1033.72
422.358	1049.08
422.735	1080.49
423.111	1078.46
423.488	1099.02
423.864	1085.47
424.241	1131.11
424.617	1152.81
424.994	1131.34
425.37	1131.79
425.746	1155.75
426.123	1155.75
426.499	1153.94
426.875	1191.23
427.251	1197.1
427.627	1209.53
428.003	1264.67
428.379	1240.49
428.756	1270.77
429.132	1308.74
429.507	1301.73
429.883	1316.19
430.259	1328.17
430.635	1367.04
431.011	1336.53
431.387	1376.31
431.763	1401.84
432.138	1460.37
432.514	1435.74
432.89	1459.92
433.265	1474.16
433.641	1500.37
434.016	1492.69
434.392	1532.69
434.767	1529.97
435.143	1558.67
435.518	1602.97
435.894	1593.7
436.269	1623.3
436.644	1675.51
437.02	1671.67
437.395	1660.37
437.77	1710.53
438.145	1702.4
438.52	1710.76
438.895	1706.92
439.271	1749.18
439.646	1769.74
440.021	1797.99
440.395	1810.64
440.77	1794.6
441.145	1794.6
441.52	1849.74
441.895	1851.77
442.27	1865.11
442.645	1860.59
443.019	1918.89
443.394	1917.76
443.769	1915.27
444.143	1932.22
444.518	1926.35
444.892	1913.01
445.267	1950.08
445.641	1966.12
446.016	1960.92
446.39	1973.8
446.764	2010.64
447.139	2002.73
447.513	2026.01
447.887	2020.58
448.262	2015.16
448.636	2045.67
449.01	2096.29
449.384	2091.54
449.758	2117.76
450.132	2129.96
450.506	2177.19
450.88	2147.36
451.254	2184.19
451.628	2175.15
452.002	2221.93
452.376	2229.39
452.75	2273.01
453.123	2282.04
453.497	2312.1
453.871	2319.11
454.244	2387.35
454.618	2392.1
454.992	2434.58
455.365	2418.76
455.739	2484.3
456.112	2498.99
456.486	2530.4
456.859	2551.19
457.232	2573.34
457.606	2594.8
457.979	2611.75
458.352	2680.9
458.725	2724.29
459.099	2726.55
459.472	2773.33
459.845	2814.69
460.218	2818.53
460.591	2832.09
460.964	2892.88
461.337	2927
461.71	2974
462.083	3015.58
462.456	3040.44
462.829	3034.12
463.201	3099.88
463.574	3093.55
463.947	3123.6
464.32	3169.48
464.692	3189.14
465.065	3241.57
465.438	3247.67
465.81	3270.27
466.183	3332.86
466.555	3376.25
466.928	3397.72
467.3	3407.89
467.672	3465.52
468.045	3485.63
468.417	3522.46
468.789	3512.75
469.161	3580.09
469.534	3635.68
469.906	3677.71
470.278	3733.53
470.65	3728.33
471.022	3839.52
471.394	3913.41
471.766	3896.69
472.138	3994.09
472.51	4041.09
472.882	4059.4
473.253	4076.8
473.625	4196.12
473.997	4249.22
474.369	4243.57
474.74	4279.05
475.112	4377.81
475.484	4432.04
475.855	4541.65
476.227	4533.51
476.598	4640.63
476.97	4702.09
477.341	4772.83
477.713	4815.99
478.084	4839.72
478.455	5018.92
478.827	5031.8
479.198	5157.9
479.569	5141.18
479.94	5288.29
480.311	5350.44
480.682	5466.37
481.053	5620.71
481.424	5651.45
481.795	5702.07
482.166	5730.09
482.537	5854.38
482.908	5981.16
483.279	6041.27
483.65	6166.24
484.021	6248.04
484.391	6357.64
484.762	6392.44
485.133	6431.99
485.503	6507.24
485.874	6700.46
486.244	6723.74
486.615	6885.09
486.985	6958.76
487.356	7115.36
487.726	7101.58
488.097	7310.39
488.467	7330.95
488.837	7459.99
489.207	7521.91
489.578	7686.65
489.948	7742.92
490.318	7846.64
490.688	7824.95
491.058	8022.23
491.428	8100.42
491.798	8134.55
492.168	8307.42
492.538	8445.05
492.908	8412.28
493.278	8559.39
493.648	8599.17
494.017	8661.31
494.387	8772.5
494.757	8859.5
495.126	8858.82
495.496	8950.57
495.866	9044.35
496.235	9152.82
496.605	9286.15
496.974	9254.97
497.344	9424
497.713	9414.06
498.082	9433.49
498.452	9570.67
498.821	9578.12
499.19	9600.72
499.559	9707.16
499.928	9776.99
500.298	9892.69
500.667	9946.7
501.036	9976.98
501.405	10012.24
501.774	10081.61
502.143	10096.08
502.512	10171.33
502.88	10308.05
503.249	10336.52
503.618	10393.02
503.987	10346.92
504.356	10481.83
504.724	10534.71
505.093	10568.38
505.462	10628.94
505.83	10669.17
506.199	10764.08
506.567	10930.18
506.936	10825.1
507.304	10956.17
507.672	10996.84
508.041	11081.81
508.409	11206.56
508.777	11272.09
509.145	11350.05
509.514	11374.01
509.882	11407.91
510.25	11523.16
510.618	11532.42
510.986	11593.89
511.354	11675.7
511.722	11727.9
512.09	11957.27
512.458	11881.57
512.826	11995.46
513.193	11983.48
513.561	12104.84
513.929	12135.12
514.297	12245.62
514.664	12289.69
515.032	12348.67
515.4	12389.35
515.767	12463.25
516.135	12609.46
516.502	12624.37
516.869	12789.79
517.237	12825.72
517.604	12819.85
517.972	13052.16
518.339	13053.29
518.706	13176
519.073	13224.81
519.44	13312.49
519.808	13496.89
520.175	13483.56
520.542	13674.97
520.909	13711.8
521.276	13869.99
521.643	13943.21
522.009	14080.15
522.376	14114.5
522.743	14233.82
523.11	14443.31
523.477	14519.01
523.843	14585.9
524.21	14752.68
524.577	14924.42
524.943	14988.38
525.31	15088.71
525.676	15261.36
526.043	15370.29
526.409	15518.53
526.776	15686.89
527.142	15692.77
527.508	15800.11
527.874	15948.58
528.241	16073.09
528.607	16129.82
528.973	16307.66
529.339	16200.77
529.705	16500.2
530.071	16621.1
530.437	16685.28
530.803	16916.24
531.169	16892.51
531.535	17002.11
531.901	17125.04
532.267	17193.52
532.632	17405.26
532.998	17350.8
533.364	17514.86
533.73	17496.79
534.095	17774.07
534.461	17742.88
534.826	17824.01
535.192	17959.15
535.557	18070.1
535.923	18126.6
536.288	18121.85
536.653	18342.87
537.019	18357.78
537.384	18486.14
537.749	18498.34
538.114	18511.9
538.479	18518.45
538.845	18680.48
539.21	18645.23
539.575	18749.41
539.94	18888.16
540.305	18927.48
540.67	18956.41
541.034	19041.6
541.399	19120.92
541.764	19136.52
542.129	19186.23
542.494	19243.63
542.858	19296.29
543.223	19287.47
543.587	19296.29
543.952	19376.51
544.316	19492.44
544.681	19492.21
545.045	19696.5
545.41	19604.07
545.774	19710.74
546.138	19749.61
546.503	19748.93
546.867	19790.74
547.231	19987.79
547.595	20004.52
547.959	20073.44
548.324	20068.02
548.688	20085.42
549.052	20130.84
549.416	20033.44
549.779	20202.25
550.143	20352.08
550.507	20377.61
550.871	20539.87
551.235	20595.69
551.599	20726.08
551.962	20766.76
552.326	20820.54
552.689	20812.86
553.053	20833.87
553.417	20932.4
553.78	21096.69
554.143	21093.08
554.507	21226.41
554.87	21265.5
555.234	21467.53
555.597	21382.33
555.96	21475.44
556.323	21524.7
556.686	21657.35
557.05	21750.46
557.413	21812.6
557.776	21947.29
558.139	22119.94
558.502	22256.43
558.865	22332.59
559.228	22415.3
559.59	22567.16
559.953	22611.45
560.316	22856.64
560.679	22803.99
561.041	23050.54
561.404	23280.59
561.767	23452.56
562.129	23348.84
562.492	23573.91
562.854	23684.19
563.217	23896.62
563.579	23984.98
563.941	24131.19
564.304	24337.74
564.666	24624.28
565.028	24609.37
565.39	24834.22
565.753	25024.72
566.115	25115.12
566.477	25361.21
566.839	25519.17
567.201	25803.46
567.563	25921.42
567.925	26159.83
568.287	26363.9
568.648	26601.86
569.01	26810.89
569.372	27233.7
569.734	27235.96
570.095	27616.07
570.457	27767.48
570.819	27838.66
571.18	27995.27
571.542	28390.06
571.903	28446.33
572.265	28747.79
572.626	28915.69
572.987	29105.29
573.349	29369.02
573.71	29702.79
574.071	29838.83
574.432	30084.7
574.794	30438.59
575.155	30526.73
575.516	30559.49
575.877	30644.46
576.238	30927.62
576.599	31163.77
576.96	31363.54
577.32	31453.03
577.681	31589.75
578.042	31796.52
578.403	31881.72
578.763	32009.85
579.124	32126.68
579.485	32465.88
579.845	32596.95
580.206	32561.47
580.566	32713.79
580.927	32574.13
581.287	32900.22
581.648	32780
582.008	33004.4
582.368	33082.36
582.728	33103.38
583.089	33134.11
583.449	33255.92
583.809	33337.27
584.169	33509.7
584.529	33316.26
584.889	33618.17
585.249	33273.55
585.609	33428.57
585.969	33633.08
586.329	33481
586.688	33665.85
587.048	33532.07
587.408	33680.31
587.768	33514.67
588.127	33609.13
588.487	33513.99
588.846	33872.4
589.206	33435.8
589.565	33618.4
589.925	33922.34
590.284	33811.16
590.643	33776.13
591.003	33733.42
591.362	34112.17
591.721	33883.25
592.08	33968.44
592.44	34111.94
592.799	34017.93
593.158	33851.16
593.517	33960.53
593.876	33958.5
594.235	34004.15
594.593	34026.75
594.952	34206.4
595.311	33989.69
595.67	34117.82
596.029	34273.75
596.387	34335.44
596.746	34499.73
597.104	34284.59
597.463	34252.73
597.822	34508.77
598.18	34382.22
598.538	34294.31
598.897	34680.29
599.255	34335.89
599.613	34603.45
599.972	34565.94
600.33	34492.5
600.688	34507.19
601.046	34507.41
601.404	34809.1
601.762	34795.77
602.12	34832.38
602.478	34842.77
602.836	34953.05
603.194	34640.06
603.552	34773.17
603.91	34805.48
604.268	35042.31
604.625	34938.81
604.983	35152.14
605.341	34894.97
605.698	35138.58
606.056	35416.09
606.413	35118.24
606.771	35339.03
607.128	35301.97
607.485	35260.61
607.843	35161.63
608.2	35475.07
608.557	35551.23
608.914	35307.39
609.272	35607.5
609.629	35681.17
609.986	35786.7
610.343	35731.33
610.7	35939.01
611.057	35905.34
611.414	35682.75
611.771	36027.37
612.127	36031.21
612.484	36066.69
612.841	36187.14
613.198	36039.35
613.554	36061.04
613.911	36197.99
614.267	36303.3
614.624	36293.13
614.98	36453.58
615.337	36592.55
615.693	36458.55
616.05	36333.13
616.406	36591.65
616.762	36455.38
617.118	36461.03
617.475	36505.1
617.831	36738.31
618.187	36810.4
618.543	36672.78
618.899	36889.27
619.255	36737.86
619.611	36929.5
619.967	36954.35
620.323	37058.31
620.678	36748.71
621.034	36856.05
621.39	36933.56
621.746	36913.9
622.101	37255.59
622.457	36921.81
622.812	37200.67
623.168	37210.84
623.523	37164.29
623.879	37275.7
624.234	36976.73
624.589	37242.93
624.945	37279.54
625.3	37361.12
625.655	37293.55
626.01	37376.26
626.365	37333.78
626.72	37148.47
627.075	37038.87
627.43	37250.62
627.785	37181.92
628.14	37235.7
628.495	37157.96
628.85	37325.87
629.205	37132.65
629.559	37191.64
629.914	37057.18
630.269	36992.09
630.623	36906.44
630.978	36692.44
631.332	36968.82
631.687	36992.54
632.041	36856.5
632.396	36934.24
632.75	36762.72
633.104	36826.45
633.459	36638.2
633.813	36496.74
634.167	36499.22
634.521	36553.23
634.875	36544.42
635.229	36484.99
635.583	36385.55
635.937	36155.73
636.291	36291.09
636.645	36280.02
636.999	36204.32
637.352	36129.06
637.706	36056.75
638.06	36270.76
638.413	36115.28
638.767	35924.55
639.121	35964.1
639.474	35969.97
639.828	35833.7
640.181	35825.34
640.534	35770.66
640.888	35729.07
641.241	35617.67
641.594	35561.85
641.947	35753.25
642.301	35613.6
642.654	35587.61
643.007	35480.49
643.36	35540.83
643.713	35523.2
644.066	35604.11
644.419	35240.05
644.771	34955.31
645.124	34564.36
645.477	34698.37
645.83	34621.53
646.182	34500.18
646.535	34502.89
646.888	34596.45
647.24	34676
647.593	34724.58
647.945	34500.86
648.298	34510.8
648.65	34205.5
649.002	34028.78
649.355	33922.79
649.707	33674.89
650.059	33750.14
650.411	34272.16
650.763	34404.82
651.115	35079.83
651.467	34885.71
651.819	34873.05
652.171	34654.3
652.523	34735.65
652.875	34642.1
653.227	34659.27
653.578	34920.06
653.93	34838.48
654.282	34608.2
654.633	34725.26
654.985	34797.35
655.337	34697.24
655.688	34632.61
656.039	34748.31
656.391	34508.77
656.742	34511.03
657.094	34697.01
657.445	34556.9
657.796	34712.15
658.147	34573.17
658.498	34690.23
658.849	34751.7
659.2	34661.53
659.551	34622.89
659.902	34703.56
660.253	34643.68
660.604	34748.54
660.955	34493.17
661.306	34817.69
661.656	34710.8
662.007	34703.79
662.358	34759.83
662.708	34668.09
663.059	34766.16
663.409	34574.53
663.76	34760.06
664.11	34734.07
664.461	34753.96
664.811	34659.72
665.161	34774.52
665.511	34668.09
665.862	34774.3
666.212	34748.08
666.562	34885.26
666.912	34761.87
667.262	34730.91
667.612	34714.41
667.962	34655.2
668.312	34627.86
668.662	34830.12
669.011	34765.26
669.361	34619.05
669.711	34772.94
670.06	34633.28
670.41	34674.64
670.76	34595.32
671.109	34716.45
671.459	34582.89
671.808	34551.93
672.157	34654.07
672.507	34308.32
672.856	34364.14
673.205	34434.87
673.554	34563
673.904	34332.05
674.253	34578.82
674.602	34326.17
674.951	33909.24
675.3	33820.65
675.649	34331.82
675.998	34214.31
676.346	34381.99
676.695	34363.69
677.044	34158.95
677.393	34126.86
677.741	34221.09
678.09	34148.78
678.438	34002.79
678.787	34158.27
679.135	34096.35
679.484	33950.82
679.832	33894.32
680.181	33874.66
680.529	33949.69
680.877	33775
681.225	33607.1
681.573	33966.64
681.922	33822.23
682.27	33630.37
682.618	33594.89
682.966	33459.3
683.314	33570.49
683.661	33451.85
684.009	33460.89
684.357	33288.01
684.705	33236.94
685.053	33329.14
685.4	33049.82
685.748	32939.09
686.095	33039.43
686.443	32798.76
686.79	32637.4
687.138	32628.82
687.485	32725.54
687.832	32478.09
688.18	32487.58
688.527	32339.11
688.874	32293.46
689.221	32303.18
689.568	32149.96
689.915	32026.12
690.262	32020.25
690.609	31941.83
690.956	31831.32
691.303	31674.04
691.65	31654.15
691.997	31594.72
692.344	31463.88
692.69	31211.68
693.037	31392.24
693.383	30990.44
693.73	31152.7
694.077	30959.48
694.423	30921.07
694.769	30683.33
695.116	30758.58
695.462	30330.35
695.808	30457.8
696.155	30454.86
696.501	30153.18
696.847	30207.64
697.193	29963.35
697.539	30032.05
697.885	29815.78
698.231	29648.33
698.577	29644.04
698.923	29508
699.269	29294.44
699.614	29119.08
699.96	29035.69
700.306	29101.68
700.651	29039.76
700.997	28784.17
701.342	28779.65
701.688	28705.08
702.033	28618.3
702.379	28519.32
702.724	28291.98
703.069	28289.95
703.415	28099.67
703.76	28097.86
704.105	28037.75
704.45	27863.97
704.795	27740.58
705.14	27689.74
705.485	27626.91
705.83	27405.45
706.175	27647.93
706.52	27362.97
706.865	27360.26
707.209	27269.64
707.554	27118.45
707.899	27097.89
708.243	26999.36
708.588	26990.32
708.932	26935.18
709.277	26889.53
709.621	26833.72
709.966	26600.5
710.31	26636.21
710.654	26517.11
710.998	26652.25
711.342	26438.47
711.687	26360.96
712.031	26270.34
712.375	26214.3
712.719	26139.5
713.063	26180.85
713.407	26235.54
713.75	26067.41
714.094	26018.37
714.438	25916.68
714.782	25885.94
715.125	25756.23
715.469	25875.32
715.812	25696.12
716.156	25766.4
716.499	25740.86
716.843	25785.61
717.186	25586.97
717.53	25776.79
717.873	25764.59
718.216	25667.87
718.559	25561.66
718.902	25416.13
719.246	25517.37
719.589	25476.91
719.932	25254.55
720.275	25270.82
720.617	25241.44
720.96	25294.32
721.303	25440.98
721.646	25397.59
721.989	25254.32
722.331	25243.47
722.674	25148.79
723.016	25073.08
723.359	25039.86
723.701	25109.69
724.044	25100.65
724.386	25093.65
724.729	25203.48
725.071	25201.44
725.413	25068.56
725.755	25119.41
726.097	24935.01
726.439	24923.71
726.782	24956.25
727.124	24965.52
727.465	25065.4
727.807	24897.27
728.149	25028.11
728.491	24906.53
728.833	24981.79
729.175	25029.24
729.516	24956.93
729.858	24873.09
730.199	24961.45
730.541	24963.48
730.882	24873.31
731.224	24983.59
731.565	24918.74
731.906	25003.71
732.248	25021.56
732.589	24881.22
732.93	24918.51
733.271	24972.07
733.612	24906.76
733.953	25022.01
734.294	24950.83
734.635	24819.98
734.976	25126.87
735.317	24890.94
735.658	24946.99
735.999	24995.35
736.339	25049.81
736.68	25131.39
737.021	25112.4
737.361	25020.66
737.702	25234.66
738.042	25212.29
738.383	25344.26
738.723	25228.79
739.063	25218.84
739.404	25441.44
739.744	25445.28
740.084	25348.56
740.424	25436.92
740.764	25487.08
741.104	25607.76
741.444	25513.52
741.784	25593.52
742.124	25772.05
742.464	25867.41
742.804	25812.05
743.143	25766.62
743.483	26133.62
743.823	25862.22
744.162	26027.86
744.502	26218.14
744.841	26173.17
745.181	26342.2
745.52	26327.06
745.86	26532.25
746.199	26600.05
746.538	26656.77
746.877	26877.1
747.216	26900.61
747.556	27070.09
747.895	27158.68
748.234	27150.32
748.573	27288.62
748.911	27449.97
749.25	27450.42
749.589	27574.26
749.928	27812.67
750.267	27897.87
750.605	28046.79
750.944	28209.5
751.283	28378.99
751.621	28534.01
751.96	28330.17
752.298	28708.02
752.636	28872.76
752.975	28929.48
753.313	29059.87
753.651	29494.66
753.989	29234.78
754.327	29546.41
754.666	29513.87
755.004	29909.11
755.342	29961.77
755.679	30188.88
756.017	30165.38
756.355	30502.55
756.693	30604.01
757.031	30904.57
757.368	30869.99
757.706	31008.97
758.044	31079.71
758.381	31319.02
758.719	31276.76
759.056	31676.07
759.394	31767.82
759.731	31728.05
760.068	31736.41
760.405	32088.27
760.743	31952
761.08	32314.25
761.417	32204.2
761.754	32381.82
762.091	32629.5
762.428	32596.73
762.765	32576.39
763.102	32812.99
763.438	32935.25
763.775	32884.4
764.112	32981.58
764.449	33120.33
764.785	33168.92
765.122	33033.33
765.458	33065.64
765.795	33325.07
766.131	33359.87
766.467	33425.41
766.804	33401.68
767.14	33353.54
767.476	33375.24
767.812	33446.87
768.148	33587.66
768.485	33539.3
768.821	33456.14
769.157	33550.83
769.492	33500.43
769.828	33534.33
770.164	33376.59
770.5	33477.61
770.836	33501.56
771.171	33490.04
771.507	33451.85
771.842	33234.68
772.178	33242.36
772.513	33365.3
772.849	33412.98
773.184	33345.41
773.519	33231.51
773.855	33219.08
774.19	33235.58
774.525	33048.24
774.86	33083.49
775.195	33058.64
775.53	32846.21
775.865	32754.92
776.2	32793.56
776.535	32557.18
776.87	32468.82
777.205	32589.95
777.539	32426.11
777.874	32426.11
778.209	32211.88
778.543	32327.36
778.878	32135.27
779.212	32240.35
779.547	32037.19
779.881	31917.2
780.215	31820.48
780.55	31962.62
780.884	31601.5
781.218	31609.18
781.552	31539.13
781.886	31519.47
782.22	31391.34
782.554	31322.41
782.888	31040.16
783.222	31092.59
783.556	30823.44
783.889	30749.77
784.223	30586.84
784.557	30727.17
784.89	30821.41
785.224	30548.19
785.557	30437.01
785.891	30304.58
786.224	30355.66
786.558	30258.71
786.891	30081.99
787.224	29985.04
787.557	29815.78
787.891	30001.54
788.224	29720.65
788.557	29819.63
788.89	29705.5
789.223	29705.28
789.556	29453.76
789.888	29541.67
790.221	29215.8
790.554	29263.03
790.887	29331.73
791.219	29091.51
791.552	28961.57
791.884	28935.81
792.217	28851.06
792.549	28947.33
792.882	28484.75
793.214	28528.36
793.546	28467.57
793.879	28395.93
794.211	28199.33
794.543	28312.09
794.875	28156.62
795.207	28110.97
795.539	28099.22
795.871	28065.1
796.203	27924.76
796.535	27727.7
796.867	27834.59
797.198	27645.67
797.53	27520.25
797.862	27379.24
798.193	27489.29
798.525	27240.48
798.856	27407.26
799.188	26967.05
799.519	26947.61
799.85	26840.72
800.182	26957.55
800.513	27005.01
800.844	26668.52
801.175	26830.33
801.506	26766.37
801.837	26644.34
802.168	26543.33
802.499	26595.76
802.83	26229.89
803.161	26347.63
803.491	26305.82
803.822	26327.97
804.153	26054.07
804.483	25876.68
804.814	25697.93
805.145	25903.8
805.475	25785.16
805.805	25734.99
806.136	25693.86
806.466	25621.32
806.796	25630.13
807.126	25411.61
807.457	25397.82
807.787	25413.64
808.117	25326.86
808.447	25126.87
808.777	25223.81
809.107	25062.69
809.436	25021.79
809.766	25018.4
810.096	24987.44
810.426	24850.04
810.755	24897.72
811.085	24770.94
811.414	24876.48
811.744	24761.23
812.073	24598.75
812.403	24519.88
812.732	24377.51
813.061	24626.32
813.39	24339.54
813.719	24308.81
814.049	24597.84
814.378	24522.59
814.707	24312.43
815.036	24323.5
815.365	24108.14
815.693	24002.38
816.022	23884.19
816.351	23870.86
816.68	23827.47
817.008	23902.94
817.337	23689.62
817.665	23748.15
817.994	23655.04
818.322	23727.81
818.651	23667.02
818.979	23504.54
819.307	23584.54
819.636	23454.37
819.964	23432.22
820.292	23455.27
820.62	23462.96
820.948	23609.85
821.276	23579.11
821.604	23484.65
821.932	23567.36
822.259	23491.88
822.587	23452.11
822.915	23411.88
823.243	23500.47
823.57	23313.36
823.898	23509.96
824.225	23383.18
824.553	23401.94
824.88	23443.75
825.207	23522.84
825.535	23351.55
825.862	23535.95
826.189	23412.34
826.516	23688.04
826.843	23536.4
827.17	23678.09
827.497	23612.56
827.824	23571.43
828.151	23507.7
828.478	23422.73
828.805	23596.74
829.131	23598.09
829.458	23554.71
829.785	23459.79
830.111	23482.84
830.438	23605.78
830.764	23507.25
831.09	23584.99
831.417	23540.02
831.743	23584.54
832.069	23528.72
832.395	23374.82
832.722	23576.17
833.048	23572.78
833.374	23507.93
833.7	23376.86
834.026	23387.48
834.351	23418.66
834.677	23466.57
835.003	23363.75
835.329	23361.26
835.654	23285.79
835.98	23177.77
836.306	23439
836.631	23201.72
836.956	23422.73
837.282	23278.55
837.607	23171.89
837.932	23121.72
838.258	23210.76
838.583	23050.99
838.908	23074.72
839.233	23149.52
839.558	22963.76
839.883	22986.36
840.208	22839.92
840.533	22941.61
840.858	22883.99
841.182	22954.95
841.507	22841.28
841.832	22785.23
842.156	22679.47
842.481	22644.45
842.805	22601.96
843.13	22512.25
843.454	22632.7
843.778	22490.78
844.103	22464.56
844.427	22410.33
844.751	22421.63
845.075	22382.31
845.399	22356.54
845.723	22122.2
846.047	22197.91
846.371	22039.04
846.695	21996.33
847.019	21958.14
847.343	21791.59
847.666	21785.26
847.99	21642.67
848.313	21559.05
848.637	21525.83
848.96	21459.62
849.284	21567.64
849.607	21311.83
849.931	21266.18
850.254	21087.43
850.577	20954.1
850.9	20798.62
851.223	20909.58
851.546	20800.88
851.869	20719.98
852.192	20838.39
852.515	20577.16
852.838	20383.49
853.161	20517.95
853.483	20310.27
853.806	20285.86
854.129	20252.42
854.451	20266.88
854.774	20095.36
855.096	19978.3
855.419	20009.26
855.741	19842.26
856.063	19800.23
856.385	19755.94
856.708	19642.27
857.03	19656.5
857.352	19675.71
857.674	19553.68
857.996	19513
858.318	19353.46
858.64	19432.78
858.961	19258.32
859.283	19257.19
859.605	19112.79
859.926	19204.76
860.248	19087.03
860.57	19079.12
860.891	19035.05
861.212	18982.4
861.534	19004.77
861.855	18846.35
862.176	18823.76
862.498	18861.5
862.819	18856.98
863.14	18729.97
863.461	18754.61
863.782	18643.42
864.103	18674.38
864.424	18546.25
864.745	18551.9
865.065	18514.61
865.386	18488.17
865.707	18428.74
866.027	18394.39
866.348	18377.44
866.668	18342.19
866.989	18300.38
867.309	18182.87
867.63	18224.45
867.95	18245.69
868.27	18060.84
868.59	18257.9
868.91	18073.49
869.23	17979.26
869.55	18051.57
869.87	18091.12
870.19	17885.93
870.51	17935.64
870.83	17908.07
871.15	17794.4
871.469	17780.39
871.789	17866.49
872.109	17861.52
872.428	17737.68
872.748	17869.21
873.067	17706.27
873.386	17739.27
873.706	17651.81
874.025	17593.28
874.344	17651.36
874.663	17605.26
874.982	17456.33
875.301	17572.04
875.62	17429.67
875.939	17476.22
876.258	17445.71
876.577	17292.05
876.896	17351.93
877.214	17307.86
877.533	17376.11
877.852	17288.66
878.17	17280.29
878.489	17343.57
878.807	17149.9
879.125	17248.66
879.444	17208.88
879.762	17099.73
880.08	17174.99
880.398	17136.12
880.716	17059.51
881.034	17075.78
881.352	16979.74
881.67	16906.29
881.988	16878.27
882.306	16865.39
882.624	16831.94
882.941	16704.72
883.259	16808.44
883.577	16803.92
883.894	16734.55
884.212	16595.34
884.529	16610.71
884.846	16557.83
885.164	16422.24
885.481	16467.43
885.798	16499.07
886.115	16391.5
886.432	16444.84
886.75	16423.14
887.067	16362.13
887.383	16377.95
887.7	16184.05
888.017	16051.85
888.334	16082.81
888.651	16071.51
888.967	16048.46
889.284	15958.52
889.6	15990.84
889.917	15920.56
890.233	15912.87
890.55	15831.52
890.866	15792.65
891.182	15747.23
891.498	15727.34
891.815	15630.85
892.131	15541.81
892.447	15582.94
892.763	15483.51
893.079	15463.62
893.395	15459.55
893.71	15442.38
894.026	15373.68
894.342	15284.64
894.657	15290.06
894.973	15311.08
895.289	15188.82
895.604	15163.06
895.92	15038.09
896.235	15061.37
896.55	14977.08
896.865	14909.51
897.181	14908.15
897.496	14955.38
897.811	14775.73
898.126	14709.06
898.441	14680.59
898.756	14759.91
899.071	14601.04
899.386	14650.31
899.7	14494.6
900.015	14358.11
900.33	14340.03
900.644	14209.41
900.959	14229.3
901.273	14189.08
901.588	14171
901.902	14068.63
902.216	14029.53
902.531	13954.05
902.845	13875.41
903.159	13865.47
903.473	13748.18
903.787	13761.29
904.101	13640.84
904.415	13712.25
904.729	13646.72
905.042	13612.14
905.356	13511.13
905.67	13534.63
905.984	13455.08
906.297	13379.15
906.611	13209.21
906.924	13253.73
907.237	13163.79
907.551	13183.9
907.864	13128.76
908.177	13104.81
908.491	13114.3
908.804	12928.32
909.117	12924.48
909.43	12886.96
909.743	12759.74
910.056	12793.41
910.368	12697.36
910.681	12715.89
910.994	12620.76
911.307	12538.27
911.619	12517.48
911.932	12478.61
912.244	12360.88
912.557	12380.76
912.869	12231.84
913.181	12242.01
913.494	12265.96
913.806	12065.52
914.118	12074.56
914.43	12041.34
914.742	12127.44
915.054	11861.23
915.366	11893.54
915.678	11846.76
915.99	11757.95
916.302	11710.95
916.613	11671.18
916.925	11710.05
917.236	11661.01
917.548	11602.03
917.859	11510.28
918.171	11445.19
918.482	11364.29
918.794	11419.21
919.105	11375.36
919.416	11221.7
919.727	11330.85
920.038	11253.11
920.349	11125.65
920.66	11145.99
920.971	11052.21
921.282	11068.71
921.593	10966.11
921.903	10865.77
922.214	10911.42
922.525	10875.72
922.835	10812.67
923.146	10698.55
923.456	10707.36
923.767	10661.94
924.077	10654.93
924.387	10581.94
924.697	10502.39
925.008	10502.62
925.318	10432.79
925.628	10409.97
925.938	10445.67
926.248	10336.75
926.558	10228.73
926.867	10240.93
927.177	10148.28
927.487	10095.17
927.796	10009.07
928.106	10056.76
928.416	9964.55
928.725	9946.25
929.034	9877.33
929.344	9892.24
929.653	9876.2
929.962	9793.71
930.271	9702.64
930.581	9745.13
930.89	9626.71
931.199	9671
931.508	9557.79
931.817	9592.13
932.125	9480.5
932.434	9418.81
932.743	9409.09
933.051	9378.58
933.36	9329.54
933.669	9267.17
933.977	9232.37
934.286	9124.12
934.594	9214.74
934.902	9117.8
935.21	9061.53
935.519	9054.75
935.827	9013.62
936.135	8943.11
936.443	8935.43
936.751	8945.37
937.059	8832.15
937.367	8785.83
937.674	8828.54
937.982	8752.83
938.29	8749.9
938.597	8741.76
938.905	8626.06
939.213	8563.69
939.52	8581.09
939.827	8553.74
940.135	8457.48
940.442	8437.36
940.749	8439.4
941.056	8480.07
941.363	8331.6
941.67	8334.54
941.977	8247.31
942.284	8170.25
942.591	8170.93
942.898	8206.86
943.205	8122.34
943.511	8059.07
943.818	8120.31
944.125	7970.03
944.431	7950.37
944.738	7951.73
945.044	7983.36
945.35	7889.13
945.657	7761.45
945.963	7749.47
946.269	7746.08
946.575	7783.37
946.881	7662.24
947.187	7725.97
947.493	7648.23
947.799	7593.09
948.105	7592.19
948.41	7517.16
948.716	7503.6
949.022	7446.2
949.327	7450.27
949.633	7365.53
949.938	7393.32
950.244	7338.86
950.549	7309.48
950.854	7221.58
951.16	7220.9
951.465	7195.81
951.77	7128.7
952.075	7148.58
952.38	7073.78
952.685	7072.2
952.99	7013.45
953.294	7008.02
953.599	6988.36
953.904	6907.23
954.209	6878.53
954.513	6902.49
954.818	6822.94
955.122	6816.16
955.426	6736.16
955.731	6756.5
956.035	6715.37
956.339	6668.14
956.643	6668.82
956.948	6658.65
957.252	6586.11
957.556	6575.72
957.86	6534.59
958.163	6551.54
958.467	6530.75
958.771	6488.94
959.075	6491.2
959.378	6417.08
959.682	6410.75
959.985	6309.74
960.289	6333.69
960.592	6330.3
960.896	6260.02
961.199	6222.73
961.502	6217.08
961.805	6215.5
962.108	6148.16
962.411	6111.55
962.714	6051.44
963.017	6103.64
963.32	6032.91
963.623	6025.45
963.926	6008.73
964.228	5951.55
964.531	5997.43
964.833	5909.75
965.136	5898.45
965.438	5896.86
965.741	5798.56
966.043	5791.33
966.345	5780.26
966.648	5741.61
966.95	5751.56
967.252	5682.63
967.554	5721.05
967.856	5676.98
968.158	5630.43
968.46	5653.03
968.761	5586.36
969.063	5545.46
969.365	5535.29
969.666	5495.75
969.968	5500.94
970.269	5505.24
970.571	5484.22
970.872	5444.9
971.174	5401.51
971.475	5427.27
971.776	5398.12
972.077	5345.69
972.378	5317.9
972.679	5300.72
972.98	5265.47
973.281	5219.37
973.582	5177.79
973.883	5175.98
974.183	5173.95
974.484	5167.84
974.785	5052.82
975.085	5106.6
975.386	5067.73
975.686	5119.94
975.986	5032.48
976.287	5021.63
976.587	4978.7
976.887	4959.26
977.187	4947.06
977.487	4936.44
977.787	4881.98
978.087	4870.9
978.387	4837.68
978.687	4826.84
978.987	4772.37
979.286	4795.2
979.586	4735.54
979.885	4776.44
980.185	4752.04
980.484	4681.08
980.784	4683.11
981.083	4645.82
981.382	4644.69
981.682	4640.4
981.981	4634.75
982.28	4608.09
982.579	4556.79
982.878	4553.17
983.177	4519.5
983.475	4456
983.774	4506.17
984.073	4461.65
984.372	4414.42
984.67	4406.96
984.969	4355.44
985.267	4380.07
985.566	4385.04
985.864	4337.58
986.162	4312.73
986.461	4266.17
986.759	4221.65
987.057	4220.3
987.355	4202.67
987.653	4185.27
987.951	4138.04
988.249	4176.01
988.547	4181.43
988.844	4115.67
989.142	4096.69
989.44	4077.93
989.737	4103.47
990.035	4037.03
990.332	4045.16
990.63	4001.77
990.927	3993.64
991.224	3961.77
991.521	3933.98
991.819	3935.79
992.116	3901.21
992.413	3902.11
992.71	3869.8
993.006	3875.22
993.303	3830.25
993.6	3831.16
993.897	3815.79
994.193	3753.87
994.49	3790.25
994.787	3772.63
995.083	3682.01
995.379	3727.2
995.676	3677.49
995.972	3676.81
996.268	3670.03
996.565	3633.87
996.861	3574.89
997.157	3569.24
997.453	3550.71
997.749	3517.49
998.044	3479.75
998.34	3536.25
998.636	3515.46
998.932	3462.8
999.227	3459.41
999.523	3448.79
999.818	3423.71
1000.114	3395.01
1000.409	3366.54
1000.704	3331.51
1001	3335.35
1001.295	3299.19
1001.59	3317.05
1001.885	3296.48
1002.18	3267.56
1002.475	3245.41
1002.77	3264.84
1003.065	3234.56
1003.359	3200.66
1003.654	3183.26
1003.949	3154.79
1004.243	3129.48
1004.538	3138.97
1004.832	3156.6
1005.127	3084.96
1005.421	3048.8
1005.715	3035.02
1006.009	3026.21
1006.304	3003.61
1006.598	3006.77
1006.892	2996.15
1007.186	2954.57
1007.48	2953.67
1007.773	2921.12
1008.067	2853.78
1008.361	2896.27
1008.655	2832.99
1008.948	2816.95
1009.242	2841.13
1009.535	2794.57
1009.829	2791.41
1010.122	2809.26
1010.415	2758.19
1010.708	2744.63
1011.001	2730.85
1011.295	2699.66
1011.588	2698.08
1011.881	2712.09
1012.173	2656.27
1012.466	2655.37
1012.759	2630.51
1013.052	2643.39
1013.344	2628.02
1013.637	2597.74
1013.93	2546.67
1014.222	2548.7
1014.514	2549.61
1014.807	2537.86
1015.099	2490.85
1015.391	2473
1015.683	2481.36
1015.976	2430.74
1016.268	2426.9
1016.56	2407.01
1016.851	2423.28
1017.143	2374.92
1017.435	2373.12
1017.727	2364.53
1018.018	2364.3
1018.31	2332.44
1018.602	2313.68
1018.893	2294.93
1019.185	2267.81
1019.476	2282.72
1019.767	2211.76
1020.058	2246.57
1020.35	2222.84
1020.641	2219.45
1020.932	2198.2
1021.223	2200.92
1021.514	2178.09
1021.804	2149.84
1022.095	2131.54
1022.386	2139.68
1022.677	2075.95
1022.967	2096.06
1023.258	2072.11
1023.548	2059.23
1023.839	2051.99
1024.129	2067.81
1024.419	2007.93
1024.709	1982.84
1025	2002.96
1025.29	1990.75
1025.58	1959.34
1025.87	1936.97
1026.16	1943.52
1026.449	1952.11
1026.739	1887.25
1027.029	1910.53
1027.319	1881.6
1027.608	1850.19
1027.898	1856.07
1028.187	1846.35
1028.477	1851.1
1028.766	1828.27
1029.055	1814.94
1029.344	1779.23
1029.634	1764.32
1029.923	1776.75
1030.212	1757.54
1030.501	1753.92
1030.79	1713.7
1031.078	1694.94
1031.367	1735.39
1031.656	1702.62
1031.945	1696.75
1032.233	1664.66
1032.522	1689.29
1032.81	1660.59
1033.099	1661.5
1033.387	1629.41
1033.675	1617.2
1033.963	1591.44
1034.251	1579.92
1034.54	1582.85
1034.828	1534.49
1035.116	1560.93
1035.403	1537.43
1035.691	1528.62
1035.979	1523.42
1036.267	1511.22
1036.554	1504.21
1036.842	1482.52
1037.129	1483.65
1037.417	1485.91
1037.704	1455.85
1037.992	1464.21
1038.279	1438.22
1038.566	1420.82
1038.853	1420.82
1039.14	1420.82
