Data from 19-3935_FLMS001491_010.txt Node
Date: Thu Apr 19 16:40:25 BST 2018
User: hsy
Spectrometer: FLMS00149
Trigger mode: 0
Integration Time (sec): 1.000000E-2
Scans to average: 10
Electric dark correction enabled: true
Nonlinearity correction enabled: false
Boxcar width: 0
XAxis mode: Wavelengths
Number of Pixels in Spectrum: 2048
>>>>>Begin Spectral Data<<<<<
341.393	-6.67
341.776	-6.67
342.16	-6.67
342.543	-45.99
342.927	-66.1
343.31	-68.13
343.693	-84.4
344.077	-69.49
344.46	-61.13
344.843	-37.85
345.226	-60.9
345.61	-17.97
345.993	-22.49
346.376	-2.15
346.759	-4.41
347.142	25.42
347.525	59.77
347.908	64.74
348.291	68.81
348.674	100.45
349.057	109.71
349.44	124.4
349.823	132.31
350.206	172.09
350.588	210.05
350.971	237.85
351.354	252.54
351.737	274
352.119	280.78
352.502	290.05
352.884	325.3
353.267	316.04
353.65	292.99
354.032	316.26
354.414	344.96
354.797	360.78
355.179	358.52
355.562	361.69
355.944	348.58
356.326	366.66
356.709	370.27
357.091	389.26
357.473	379.99
357.855	391.06
358.238	384.06
358.62	405.53
359.002	394.9
359.384	385.41
359.766	393.32
360.148	376.37
360.53	390.16
360.912	361.69
361.294	375.02
361.676	370.72
362.057	378.63
362.439	395.58
362.821	375.7
363.203	372.53
363.584	392.19
363.966	383.38
364.348	383.83
364.729	361.69
365.111	358.52
365.493	348.58
365.874	359.2
366.256	363.04
366.637	358.75
367.019	382.25
367.4	384.51
367.781	389.71
368.163	388.8
368.544	363.04
368.925	356.04
369.306	384.74
369.688	378.86
370.069	368.46
370.45	374.57
370.831	368.69
371.212	378.86
371.593	369.59
371.974	379.09
372.355	382.48
372.736	384.74
373.117	406.2
373.498	368.92
373.879	400.1
374.26	384.96
374.641	393.77
375.021	387.67
375.402	392.87
375.783	393.1
376.163	400.78
376.544	412.98
376.925	394
377.305	399.42
377.686	419.09
378.066	405.53
378.447	387.22
378.827	416.15
379.208	390.84
379.588	421.8
379.968	412.76
380.349	419.99
380.729	419.09
381.109	436.94
381.489	405.98
381.87	437.62
382.25	415.02
382.63	412.31
383.01	448.01
383.39	452.3
383.77	431.06
384.15	440.55
384.53	452.08
384.91	445.53
385.29	456.6
385.67	447.56
386.049	469.03
386.429	459.99
386.809	459.31
387.189	469.93
387.568	470.84
387.948	507.9
388.328	478.07
388.707	499.31
389.087	489.59
389.466	494.79
389.846	492.3
390.225	509.48
390.605	483.94
390.984	497.28
391.363	510.83
391.743	507.44
392.122	503.83
392.501	506.99
392.881	535.92
393.26	536.14
393.639	533.66
394.018	547.9
394.397	508.57
394.776	537.73
395.155	550.16
395.534	543.38
395.913	553.32
396.292	576.6
396.671	561
397.05	584.5
397.429	555.35
397.808	588.57
398.186	586.09
398.565	581.34
398.944	603.03
399.323	596.26
399.701	607.55
400.08	611.62
400.458	604.62
400.837	591.06
401.215	606.2
401.594	623.6
401.972	609.81
402.351	622.7
402.729	643.71
403.107	649.14
403.486	636.48
403.864	641.45
404.242	641.68
404.62	657.04
404.999	656.37
405.377	679.42
405.755	662.69
406.133	679.42
406.511	680.1
406.889	713.99
407.267	704.73
407.645	733.88
408.023	707.89
408.401	704.28
408.779	719.42
409.156	762.8
409.534	752.18
409.912	760.77
410.29	781.79
410.667	779.08
411.045	802.13
411.422	836.7
411.8	828.34
412.178	810.94
412.555	861.79
412.933	824.27
413.31	848
413.687	885.29
414.065	879.41
414.442	876.93
414.819	892.97
415.197	901.11
415.574	926.19
415.951	938.39
416.328	933.65
416.705	926.64
417.082	932.97
417.46	940.43
417.837	934.78
418.214	960.31
418.591	972.29
418.967	973.42
419.344	989.69
419.721	991.5
420.098	984.04
420.475	1006.87
420.852	1041.67
421.228	1016.58
421.605	1037.37
421.982	1062.23
422.358	1075.79
422.735	1072.63
423.111	1064.49
423.488	1102.91
423.864	1092.97
424.241	1113.53
424.617	1131.83
424.994	1123.7
425.37	1116.47
425.746	1157.6
426.123	1150.82
426.499	1186.3
426.875	1191.72
427.251	1195.34
427.627	1236.69
428.003	1233.3
428.379	1238.72
428.756	1269.23
429.132	1268.33
429.507	1307.65
429.883	1317.37
430.259	1344.03
430.635	1321.66
431.011	1370.92
431.387	1381.32
431.763	1407.53
432.138	1416.12
432.514	1437.14
432.89	1431.94
433.265	1480.75
433.641	1523.46
434.016	1510.13
434.392	1518.72
434.767	1612.05
435.143	1550.58
435.518	1569.56
435.894	1583.57
436.269	1624.03
436.644	1648.88
437.02	1662.89
437.395	1677.58
437.77	1688.88
438.145	1734.98
438.52	1718.71
438.895	1728.43
439.271	1720.07
439.646	1753.51
440.021	1786.73
440.395	1784.47
440.77	1751.71
441.145	1795.32
441.52	1852.72
441.895	1824.7
442.27	1874.41
442.645	1815.66
443.019	1849.56
443.394	1870.57
443.769	1883.68
444.143	1879.84
444.518	1907.63
444.892	1921.19
445.267	1926.16
445.641	1965.03
446.016	1956.9
446.39	1986.28
446.764	2001.42
447.139	1975.88
447.513	1985.15
447.887	2014.07
448.262	2014.07
448.636	2033.73
449.01	2094.97
449.384	2076.44
449.758	2095.43
450.132	2126.84
450.506	2135.2
450.88	2150.56
451.254	2155.08
451.628	2194.18
452.002	2225.37
452.376	2226.95
452.75	2245.93
453.123	2230.56
453.497	2292.26
453.871	2303.78
454.244	2368.41
454.618	2370.22
454.992	2430.11
455.365	2421.29
455.739	2458.13
456.112	2533.83
456.486	2517.33
456.859	2535.87
457.232	2589.88
457.606	2629.2
457.979	2643.89
458.352	2674.17
458.725	2713.71
459.099	2677.1
459.472	2751
459.845	2790.32
460.218	2770.44
460.591	2826.25
460.964	2883.43
461.337	2905.57
461.71	2953.48
462.083	2993.48
462.456	2968.62
462.829	3005.46
463.201	3059.69
463.574	3052.24
463.947	3127.49
464.32	3161.84
464.692	3148.73
465.065	3190.09
465.438	3205.9
465.81	3280.25
466.183	3289.97
466.555	3408.61
466.928	3415.62
467.3	3395.96
467.672	3392.57
468.045	3479.57
468.417	3534.71
468.789	3493.58
469.161	3607.7
469.534	3607.25
469.906	3705.55
470.278	3684.31
470.65	3738.09
471.022	3790.3
471.394	3832.1
471.766	3899.22
472.138	3889.28
472.51	3980.12
472.882	3991.65
473.253	4094.69
473.625	4147.57
473.997	4215.6
474.369	4221.02
474.74	4301.24
475.112	4330.62
475.484	4414.23
475.855	4475.7
476.227	4500.11
476.598	4610.16
476.97	4654.23
477.341	4736.49
477.713	4829.14
478.084	4839.76
478.455	4963.82
478.827	4992.75
479.198	5161.33
479.569	5119.07
479.94	5206.08
480.311	5280.43
480.682	5431.61
481.053	5521.1
481.424	5598.84
481.795	5678.38
482.166	5775.1
482.537	5758.38
482.908	5913.18
483.279	5980.29
483.65	6109.1
484.021	6205.15
484.391	6243.56
484.762	6345.03
485.133	6365.14
485.503	6451.02
485.874	6653.72
486.244	6661.86
486.615	6818.01
486.985	6878.12
487.356	7001.74
487.726	7031.11
488.097	7215.74
488.467	7236.31
488.837	7419.35
489.207	7462.52
489.578	7517.43
489.948	7661.83
490.318	7732.79
490.688	7828.61
491.058	7978.43
491.428	8031.54
491.798	8154.02
492.168	8277.41
492.538	8287.58
492.908	8435.15
493.278	8487.57
493.648	8482.6
494.017	8610.06
494.387	8634.24
494.757	8794.46
495.126	8857.51
495.496	8930.5
495.866	8989.48
496.235	9107.67
496.605	9185.86
496.974	9200.78
497.344	9251.85
497.713	9337.27
498.082	9404.39
498.452	9469.24
498.821	9563.93
499.19	9542.69
499.559	9648.67
499.928	9659.07
500.298	9699.97
500.667	9769.12
501.036	9869.23
501.405	9855.22
501.774	9946.74
502.143	10101.54
502.512	10060.19
502.88	10172.95
503.249	10203.01
503.618	10261.76
503.987	10337.69
504.356	10366.17
504.724	10352.38
505.093	10470.12
505.462	10499.72
505.83	10543.11
506.199	10565.03
506.567	10695.42
506.936	10777.46
507.304	10790.34
507.672	10939.94
508.041	10934.29
508.409	11047.96
508.777	11074.4
509.145	11126.15
509.514	11234.85
509.882	11254.51
510.25	11278.91
510.618	11409.3
510.986	11434.61
511.354	11510.54
511.722	11635.06
512.09	11722.06
512.458	11668.51
512.826	11733.36
513.193	11855.17
513.561	11879.35
513.929	12045.45
514.297	12159.79
514.664	12181.94
515.032	12301.48
515.4	12353.01
515.767	12380.35
516.135	12463.51
516.502	12467.13
516.869	12598.88
517.237	12653.11
517.604	12684.75
517.972	12878.64
518.339	12921.81
518.706	13000
519.073	13054.91
519.44	13202.7
519.808	13328.8
520.175	13361.12
520.542	13542.58
520.909	13552.53
521.276	13603.6
521.643	13789.35
522.009	13901.89
522.376	14036.81
522.743	14180.76
523.11	14331.71
523.477	14449.22
523.843	14558.37
524.21	14610.58
524.577	14818.03
524.943	14840.63
525.31	14999.72
525.676	15173.27
526.043	15307.73
526.409	15414.17
526.776	15528.97
527.142	15567.16
527.508	15667.27
527.874	15870.66
528.241	16020.26
528.607	16015.96
528.973	16266.35
529.339	16178.44
529.705	16454.82
530.071	16621.6
530.437	16740.24
530.803	16845.32
531.169	16941.14
531.535	17034.47
531.901	17090.96
532.267	17235.82
532.632	17333.89
532.998	17408.24
533.364	17525.08
533.73	17505.19
534.095	17721
534.461	17803.94
534.826	17896.59
535.192	18014.1
535.557	18139.3
535.923	18102.24
536.288	18170.26
536.653	18368.67
537.019	18445.05
537.384	18365.73
537.749	18518.04
538.114	18596.23
538.479	18561.88
538.845	18655.44
539.21	18697.93
539.575	18851.59
539.94	18891.59
540.305	18970.01
540.67	18961.2
541.034	19007.52
541.399	19104.7
541.764	19141.76
542.129	19300.4
542.494	19342.43
542.858	19373.61
543.223	19436.21
543.587	19498.36
543.952	19574.29
544.316	19551.01
544.681	19636.43
545.045	19702.42
545.41	19867.39
545.774	19796.43
546.138	19827.16
546.503	19899.25
546.867	19919.14
547.231	20034.84
547.595	20092.69
547.959	20222.18
548.324	20157.78
548.688	20293.14
549.052	20312.12
549.416	20260.37
549.779	20373.14
550.143	20493.59
550.507	20580.36
550.871	20732.22
551.235	20715.27
551.599	20906.68
551.962	20743.97
552.326	20910.3
552.689	20996.85
553.053	20864.42
553.417	21038.66
553.78	21308.03
554.143	21346.9
554.507	21424.41
554.87	21520.23
555.234	21644.52
555.597	21507.34
555.96	21730.84
556.323	21730.62
556.686	21850.61
557.05	22103.94
557.413	22202.02
557.776	22276.59
558.139	22369.47
558.502	22395
558.865	22568.33
559.228	22802.45
559.59	22827.54
559.953	22909.79
560.316	23206.51
560.679	23220.52
561.041	23490.79
561.404	23598.59
561.767	23803.1
562.129	23867.28
562.492	24079.71
562.854	24141.63
563.217	24116.32
563.579	24444.89
563.941	24606.92
564.304	24844.88
564.666	25015.27
565.028	25102.96
565.39	25252.33
565.753	25620.46
566.115	25658.42
566.477	26132.31
566.839	26192.19
567.201	26557.15
567.563	26663.37
567.925	26898.16
568.287	27180.42
568.648	27280.07
569.01	27625.83
569.372	28075.53
569.734	28056.32
570.095	28431
570.457	28693.82
570.819	28861.73
571.18	29028.05
571.542	29534.25
571.903	29493.8
572.265	29927.91
572.626	30126.78
572.987	30300.11
573.349	30507.56
573.71	30717.95
574.071	31117.94
574.432	31413.52
574.794	31710.01
575.155	31845.38
575.516	32121.3
575.877	32308.42
576.238	32293.5
576.599	32774.62
576.96	32760.38
577.32	32957.21
577.681	33252.35
578.042	33451.66
578.403	33538.21
578.763	33675.61
579.124	33922.38
579.485	34106.56
579.845	34258.87
580.206	34191.3
580.566	34243.73
580.927	34433.11
581.287	34771.85
581.648	34578.19
582.008	34808.46
582.368	34890.72
582.728	34908.12
583.089	35014.56
583.449	35172.97
583.809	35178.85
584.169	35167.78
584.529	35183.14
584.889	35547.65
585.249	35276.7
585.609	35038.74
585.969	35534.77
586.329	35352.63
586.688	35627.88
587.048	35392.4
587.408	35443.93
587.768	35382.46
588.127	35478.95
588.487	35462.01
588.846	35789.68
589.206	35418.62
589.565	35487.54
589.925	35595.79
590.284	35686.41
590.643	35633.07
591.003	35839.62
591.362	35784.71
591.721	35671.49
592.08	35702.23
592.44	35816.8
592.799	35706.74
593.158	35736.57
593.517	35744.03
593.876	35820.87
594.235	35671.04
594.593	35824.48
594.952	35817.48
595.311	35816.12
595.67	35857.25
596.029	36024.7
596.387	35967.53
596.746	36156.9
597.104	35936.12
597.463	35904.03
597.822	36184.02
598.18	36198.71
598.538	36031.71
598.897	36238.03
599.255	36007.98
599.613	36537.46
599.972	36138.37
600.33	36243.68
600.688	36044.81
601.046	36141.08
601.404	36438.93
601.762	36313.96
602.12	36454.75
602.478	36487.29
602.836	36548.98
603.194	36251.36
603.552	36422.88
603.91	36339.72
604.268	36488.65
604.625	36550.11
604.983	36756.66
605.341	36397.57
605.698	36580.39
606.056	36868.3
606.413	36613.16
606.771	36927.73
607.128	36762.08
607.485	36589.89
607.843	36666.04
608.2	36829.65
608.557	37005.24
608.914	36911.23
609.272	37076.2
609.629	37163.66
609.986	37249.3
610.343	37139.02
610.7	37450.43
611.057	37325.69
611.414	37159.59
611.771	37414.72
612.127	37419.69
612.484	37377.89
612.841	37578.56
613.198	37479.13
613.554	37482.52
613.911	37571.1
614.267	37722.96
614.624	37608.84
614.98	37785.79
615.337	37918.44
615.693	37878.89
616.05	37988.94
616.406	37948.49
616.762	37763.41
617.118	37987.59
617.475	37934.26
617.831	38083.63
618.187	38194.81
618.543	38181.03
618.899	38367.92
619.255	38279.11
619.611	38277.52
619.967	38365.66
620.323	38417.63
620.678	38255.15
621.034	38284.53
621.39	38322.04
621.746	38247.47
622.101	38651.98
622.457	38228.03
622.812	38546.9
623.168	38555.71
623.523	38529.04
623.879	38524.52
624.234	38367.24
624.589	38502.83
624.945	38583.51
625.3	38596.84
625.655	38517.29
626.01	38532.21
626.365	38596.16
626.72	38520.68
627.075	38300.35
627.43	38546.22
627.785	38489.95
628.14	38486.11
628.495	38596.84
628.85	38559.78
629.205	38325.66
629.559	38723.16
629.914	38256.28
630.269	38473.23
630.623	38216.74
630.978	38103.97
631.332	38232.33
631.687	38373.12
632.041	38150.07
632.396	38247.69
632.75	38036.85
633.104	38160.47
633.459	37906.91
633.813	37934.26
634.167	37751.21
634.521	37867.37
634.875	37883.86
635.229	37805.45
635.583	37588.73
635.937	37630.31
636.291	37588.28
636.645	37565
636.999	37348.28
637.352	37539.24
637.706	37413.14
638.06	37433.93
638.413	37213.37
638.767	37240.72
639.121	37273.26
639.474	37124.56
639.828	37135.41
640.181	37102.87
640.534	37134.5
640.888	36887.28
641.241	36781.97
641.594	36879.14
641.947	37036.2
642.301	36702.2
642.654	36772.25
643.007	36658.58
643.36	36880.73
643.713	36612.48
644.066	36694.97
644.419	36563.45
644.771	36195.77
645.124	35869.68
645.477	35803.01
645.83	35758.95
646.182	35681.89
646.535	35689.34
646.888	35861.54
647.24	35740.87
647.593	35817.02
647.945	35649.35
648.298	35497.48
648.65	35386.75
649.002	35125.97
649.355	34993.09
649.707	34759.2
650.059	34898.86
650.411	35372.97
650.763	35602.57
651.115	36250.91
651.467	36051.37
651.819	36159.84
652.171	35951.71
652.523	35904.25
652.875	36011.37
653.227	35743.13
653.578	36141.31
653.93	36047.75
654.282	35816.8
654.633	35776.8
654.985	35938.83
655.337	35970.01
655.688	35752.17
656.039	35986.74
656.391	35562.57
656.742	35759.17
657.094	35808.89
657.445	35791.04
657.796	35848.89
658.147	35717.82
658.498	35688.67
658.849	35925.27
659.2	35736.57
659.551	35618.16
659.902	35908.32
660.253	35852.5
660.604	35892.73
660.955	35699.74
661.306	35982.22
661.656	35921.65
662.007	35909.68
662.358	35960.07
662.708	35852.73
663.059	35948.09
663.409	35678.5
663.76	36000.97
664.11	35999.39
664.461	35970.47
664.811	36017.02
665.161	35838.94
665.511	35764.37
665.862	35878.72
666.212	35834.43
666.562	35940.41
666.912	35880.07
667.262	35793.97
667.612	35885.95
667.962	35911.26
668.312	35866.51
668.662	35967.75
669.011	35921.88
669.361	35855.44
669.711	35902.22
670.06	35713.07
670.41	35664.49
670.76	35648.89
671.109	35752.39
671.459	35733.41
671.808	35753.98
672.157	35719.85
672.507	35617.03
672.856	35629.01
673.205	35677.82
673.554	35656.12
673.904	35638.05
674.253	35955.1
674.602	35615
674.951	35259.52
675.3	35100.88
675.649	35593.3
675.998	35648.22
676.346	35532.29
676.695	35561.89
677.044	35428.11
677.393	35486.19
677.741	35519.63
678.09	35278.96
678.438	35264.04
678.787	35412.52
679.135	35225.18
679.484	34943.6
679.832	35234.44
680.181	34962.13
680.529	35109.92
680.877	35049.59
681.225	35028.12
681.573	35223.14
681.922	34959.87
682.27	34773.89
682.618	34897.5
682.966	34729.14
683.314	34857.05
683.661	34664.51
684.009	34529.15
684.357	34340.68
684.705	34363.05
685.053	34417.74
685.4	34199.21
685.748	34177.29
686.095	34279.21
686.443	33996.06
686.79	33970.29
687.138	33972.55
687.485	33938.2
687.832	33944.98
688.18	33745.67
688.527	33642.62
688.874	33575.28
689.221	33501.83
689.568	33347.26
689.915	33266.36
690.262	33273.59
690.609	33035.4
690.956	32985.01
691.303	32954.5
691.65	32743.88
691.997	32633.61
692.344	32569.65
692.69	32429.77
693.037	32446.72
693.383	32134.86
693.73	32196.55
694.077	32002.66
694.423	31924.25
694.769	31741.43
695.116	31796.34
695.462	31596.12
695.808	31449.23
696.155	31382.34
696.501	31119.75
696.847	31439.51
697.193	31098.73
697.539	30979.86
697.885	30811.51
698.231	30602.7
698.577	30638.18
698.923	30514.56
699.269	30263.72
699.614	30298.3
699.96	30094.01
700.306	30076.16
700.651	30103.05
700.997	29834.81
701.342	29845.2
701.688	29672.33
702.033	29578.09
702.379	29571.31
702.724	29393.92
703.069	29433.46
703.415	29015.17
703.76	29207.48
704.105	29107.14
704.45	29011.1
704.795	28857.43
705.14	28673.03
705.485	28612.02
705.83	28529.76
706.175	28648.85
706.52	28524.11
706.865	28321.18
707.209	28422.87
707.554	28244.12
707.899	28176.55
708.243	28055.42
708.588	27966.16
708.932	27776.11
709.277	27849.32
709.621	27705.6
709.966	27519.84
710.31	27634.64
710.654	27330.02
710.998	27454.98
711.342	27469.45
711.687	27288.44
712.031	27169.57
712.375	27163.92
712.719	27210.47
713.063	27118.04
713.407	27228.32
713.75	27102.9
714.094	27112.39
714.438	26993.08
714.782	27041.21
715.125	26786.98
715.469	26995.11
715.812	26704.5
716.156	26709.02
716.499	26644.84
716.843	26871.27
717.186	26660.43
717.53	26731.61
717.873	26674.67
718.216	26647.1
718.559	26584.05
718.902	26288.01
719.246	26453.2
719.589	26311.96
719.932	26201.46
720.275	26293.88
720.617	26329.82
720.96	26203.94
721.303	26283.72
721.646	26205.3
721.989	26109.03
722.331	26169.14
722.674	26127.79
723.016	26208.92
723.359	26084.4
723.701	26199.42
724.044	26088.92
724.386	25882.37
724.729	25957.62
725.071	25955.14
725.413	26036.49
725.755	25931.41
726.097	25901.13
726.439	25882.14
726.782	25804.18
727.124	25874.23
727.465	25901.13
727.807	25902.93
728.149	25881.69
728.491	25864.52
728.833	25951.75
729.175	26015.02
729.516	25811.41
729.858	25839.66
730.199	25934.12
730.541	25909.49
730.882	25932.31
731.224	25948.13
731.565	25747.01
731.906	25876.49
732.248	26018.41
732.589	25859.32
732.93	25940.67
733.271	25960.11
733.612	26024.97
733.953	25969.37
734.294	25940.9
734.635	25739.78
734.976	26021.58
735.317	26019.09
735.658	26090.05
735.999	25977.28
736.339	25998.98
736.68	26037.85
737.021	26229.71
737.361	26107.9
737.702	26341.57
738.042	26219.08
738.383	26329.36
738.723	26269.25
739.063	26202.14
739.404	26445.29
739.744	26420.89
740.084	26374.33
740.424	26535.01
740.764	26404.84
741.104	26671.73
741.444	26533.88
741.784	26491.39
742.124	26797.15
742.464	26782.91
742.804	26809.8
743.143	26904.72
743.483	26986.52
743.823	26876.47
744.162	27102
744.502	27193.3
744.841	27187.19
745.181	27276.23
745.52	27319.85
745.86	27479.16
746.199	27599.39
746.538	27689.55
746.877	27784.47
747.216	27928.64
747.556	28012.48
747.895	28086.38
748.234	28071.47
748.573	28371.8
748.911	28306.04
749.25	28419.48
749.589	28498.57
749.928	28605.46
750.267	28988.05
750.605	28914.15
750.944	29040.03
751.283	29136.3
751.621	29307.14
751.96	29236.18
752.298	29615.38
752.636	29704.87
752.975	29822.61
753.313	29952.32
753.651	30228.47
753.989	30273.22
754.327	30456.94
754.666	30480.44
755.004	30694.22
755.342	30978.73
755.679	31110.71
756.017	31093.98
756.355	31456.91
756.693	31470.47
757.031	31796.11
757.368	31723.8
757.706	31959.5
758.044	31839.05
758.381	32060.06
758.719	32207.18
759.056	32492.59
759.394	32462.54
759.731	32439.49
760.068	32529.88
760.405	32816.2
760.743	32853.26
761.08	33002.86
761.417	33102.07
761.754	33186.36
762.091	33264.55
762.428	33296.19
762.765	33345.45
763.102	33553.81
763.438	33598.1
763.775	33478.1
764.112	33731.2
764.449	33718.77
764.785	33833.57
765.122	33771.88
765.458	33700.92
765.795	33837.87
766.131	33897.98
766.467	33901.14
766.804	33989.5
767.14	34061.14
767.476	34002.16
767.812	33975.94
768.148	34034.25
768.485	34187.46
768.821	33901.82
769.157	33822.95
769.492	34007.81
769.828	34031.08
770.164	33775.95
770.5	33789.51
770.836	33925.1
771.171	33878.32
771.507	33843.52
771.842	33911.09
772.178	33884.19
772.513	33850.97
772.849	33689.4
773.184	33647.36
773.519	33603.3
773.855	33475.84
774.19	33558.33
774.525	33370.53
774.86	33489.63
775.195	33403.53
775.53	33335.96
775.865	33185.23
776.2	33012.58
776.535	32912.92
776.87	33068.85
777.205	32916.76
777.539	32796.99
777.874	32889.64
778.209	32535.08
778.543	32624.57
778.878	32481.29
779.212	32469.32
779.547	32147.06
779.881	32296.89
780.215	32215.09
780.55	32211.7
780.884	32151.58
781.218	32036.11
781.552	32018.71
781.886	31764.7
782.22	31702.56
782.554	31647.42
782.888	31326.97
783.222	31446.29
783.556	31233.64
783.889	31071.84
784.223	30997.49
784.557	31027.09
784.89	31073.87
785.224	30887.66
785.557	30592.98
785.891	30737.16
786.224	30640.44
786.558	30407.22
786.891	30389.6
787.224	30249.71
787.557	30079.55
787.891	30099.21
788.224	29983.73
788.557	30080.68
788.89	29927.91
789.223	29911.19
789.556	29712.33
789.888	29655.6
790.221	29559.34
790.554	29492.67
790.887	29440.02
791.219	29235.73
791.552	29172.23
791.884	29246.8
792.217	29035.51
792.549	28963.42
792.882	28804.55
793.214	28612.69
793.546	28730.21
793.879	28681.39
794.211	28366.37
794.543	28502.64
794.875	28355.98
795.207	28324.57
795.539	28313.72
795.871	28235.98
796.203	28060.39
796.535	27904.69
796.867	27919.38
797.198	27697.24
797.53	27779.5
797.862	27565.94
798.193	27660.4
798.525	27551.93
798.856	27573.63
799.188	27198.27
799.519	27181.77
799.85	27076.92
800.182	27100.64
800.513	27179.29
800.844	26792.63
801.175	26930.25
801.506	26853.64
801.837	26756.25
802.168	26749.69
802.499	26651.39
802.83	26468.57
803.161	26499.08
803.491	26472.41
803.822	26551.28
804.153	26226.09
804.483	26145.19
804.814	25967.34
805.145	26023.38
805.475	26062.03
805.805	25942.26
806.136	25956.94
806.466	25725.31
806.796	25838.98
807.126	25453.46
807.457	25475.15
807.787	25471.76
808.117	25412.78
808.447	25556.05
808.777	25431.53
809.107	25166.68
809.436	25245.78
809.766	25106.12
810.096	25224.99
810.426	24973.24
810.755	25081.49
811.085	24916.07
811.414	25056.18
811.744	24728.95
812.073	24812.12
812.403	24750.42
812.732	24667.49
813.061	24758.56
813.39	24500.71
813.719	24391.79
814.049	24666.36
814.378	24472.69
814.707	24367.61
815.036	24375.29
815.365	24201.51
815.693	24164.45
816.022	24153.6
816.351	24031.8
816.68	23969.43
817.008	24040.61
817.337	23757.68
817.665	23871.58
817.994	23842.88
818.322	23869.09
818.651	23776.89
818.979	23668.64
819.307	23657.8
819.636	23658.93
819.964	23609.44
820.292	23677
820.62	23527.86
820.948	23616.67
821.276	23682.2
821.604	23561.53
821.932	23738.02
822.259	23593.62
822.587	23677.68
822.915	23584.8
823.243	23531.47
823.57	23493.96
823.898	23576.67
824.225	23597.23
824.553	23485.82
824.88	23528.31
825.207	23710
825.535	23551.81
825.862	23606.95
826.189	23513.39
826.516	23772.82
826.843	23760.39
827.17	23804.23
827.497	23625.03
827.824	23684.91
828.151	23651.92
828.478	23514.3
828.805	23728.98
829.131	23684.24
829.458	23792.93
829.785	23528.53
830.111	23642.88
830.438	23723.11
830.764	23664.8
831.09	23670.9
831.417	23542.32
831.743	23716.55
832.069	23640.62
832.395	23551.81
832.722	23634.29
833.048	23601.75
833.374	23629.77
833.7	23596.33
834.026	23501.19
834.351	23571.24
834.677	23604.01
835.003	23551.13
835.329	23543.45
835.654	23384.36
835.98	23364.24
836.306	23553.17
836.631	23346.17
836.956	23601.98
837.282	23401.76
837.607	23390.01
837.932	23297.35
838.258	23303
838.583	23299.84
838.908	23149.11
839.233	23166.96
839.558	23126.28
839.883	23103.69
840.208	22948.21
840.533	23045.61
840.858	23021.43
841.182	23011.26
841.507	23102.1
841.832	22852.39
842.156	22789.34
842.481	22819.17
842.805	22717.26
843.13	22709.35
843.454	22749.57
843.778	22462.57
844.103	22512.52
844.427	22493.98
844.751	22545.96
845.075	22509.8
845.399	22370.37
845.723	22283.59
846.047	22321.79
846.371	22192.07
846.695	22088.57
847.019	22047.22
847.343	21856.71
847.666	21832.99
847.99	21769.94
848.313	21680.67
848.637	21661.01
848.96	21633.89
849.284	21562.94
849.607	21323.39
849.931	21353.22
850.254	21223.06
850.577	21053.12
850.9	20846.8
851.223	20894.7
851.546	20816.06
851.869	20688.16
852.192	20882.28
852.515	20614.49
852.838	20597.31
853.161	20521.16
853.483	20423.3
853.806	20361.39
854.129	20280.03
854.451	20246.81
854.774	20150.77
855.096	20052.24
855.419	19901.74
855.741	19892.7
856.063	19853.6
856.385	19781.06
856.708	19688.18
857.03	19677.79
857.352	19729.31
857.674	19601.86
857.996	19484.12
858.318	19384.24
858.64	19464.69
858.961	19354.63
859.283	19250
859.605	19235.77
859.926	19212.26
860.248	19100.63
860.57	19035.09
860.891	19127.75
861.212	19014.53
861.534	18934.98
861.855	18871.48
862.176	18892.27
862.498	18868.54
862.819	18816.34
863.14	18769.56
863.461	18732.73
863.782	18665.61
864.103	18749.9
864.424	18478.05
864.745	18615.22
865.065	18479.4
865.386	18403.92
865.707	18526.86
866.027	18514.2
866.348	18404.15
866.668	18257.03
866.989	18225.17
867.309	18297.26
867.63	18237.37
867.95	18321.44
868.27	18170.26
868.59	18262.46
868.91	18121.67
869.23	18200.54
869.55	17977.04
869.87	18086.87
870.19	17979.08
870.51	18039.64
870.83	17907.21
871.15	17760.78
871.469	17893.65
871.789	17916.25
872.109	17896.82
872.428	17835.58
872.748	17801.9
873.067	17771.85
873.386	17841.68
873.706	17728.01
874.025	17674.9
874.344	17676.71
874.663	17697.95
874.982	17648.46
875.301	17631.29
875.62	17683.04
875.939	17507.9
876.258	17601.91
876.577	17417.73
876.896	17555.81
877.214	17499.31
877.533	17477.85
877.852	17491.4
878.17	17352.88
878.489	17426.1
878.807	17226.33
879.125	17339.77
879.444	17299.32
879.762	17197.4
880.08	17274.46
880.398	17195.82
880.716	17054.81
881.034	17077.86
881.352	17025.65
881.67	16986.11
881.988	16953.57
882.306	17007.35
882.624	16929.39
882.941	16851.2
883.259	16777.98
883.577	16757.19
883.894	16780.69
884.212	16663.63
884.529	16676.28
884.846	16631.31
885.164	16579.56
885.481	16582.95
885.798	16571.65
886.115	16523.07
886.432	16503.41
886.75	16456.18
887.067	16445.1
887.383	16379.34
887.7	16304.09
888.017	16155.62
888.334	16107.94
888.651	16292.11
888.967	16166.47
889.284	16094.83
889.6	16044.21
889.917	16046.47
890.233	16018
890.55	15949.98
890.866	15840.15
891.182	15856.87
891.498	15887.6
891.815	15724.67
892.131	15583.43
892.447	15648.29
892.763	15567.16
893.079	15662.98
893.395	15556.77
893.71	15521.74
894.026	15467.5
894.342	15500.95
894.657	15275.87
894.973	15223.89
895.289	15215.76
895.604	15195.42
895.92	15144.57
896.235	15085.82
896.55	14985.26
896.865	14972.15
897.181	14978.7
897.496	14978.48
897.811	14893.51
898.126	14764.7
898.441	14733.74
898.756	14690.57
899.071	14674.98
899.386	14684.7
899.7	14536.91
900.015	14474.31
900.33	14311.38
900.644	14322.22
900.959	14412.16
901.273	14270.25
901.588	14300.3
901.902	14185.05
902.216	14119.97
902.531	14034.55
902.845	14062.34
903.159	13940.76
903.473	13935.11
903.787	13826.87
904.101	13769.24
904.415	13831.16
904.729	13698.28
905.042	13669.13
905.356	13609.02
905.67	13545.52
905.984	13590.94
906.297	13463.94
906.611	13344.85
906.924	13355.24
907.237	13240.89
907.551	13319.54
907.864	13129.49
908.177	13192.53
908.491	13171.52
908.804	13093.78
909.117	13041.8
909.43	12874.35
909.743	12831.19
910.056	12798.19
910.368	12802.04
910.681	12794.35
910.994	12771.98
911.307	12613.57
911.619	12508.03
911.932	12584.87
912.244	12487.69
912.557	12445.89
912.869	12368.15
913.181	12250.19
913.494	12237.53
913.806	12210.19
914.118	12177.65
914.43	12029.18
914.742	12074.6
915.054	11912.12
915.366	11919.12
915.678	11873.25
915.99	11857.65
916.302	11763.65
916.613	11647.26
916.925	11735.85
917.236	11703.31
917.548	11602.29
917.859	11560.94
918.171	11534.72
918.482	11529.53
918.794	11389.64
919.105	11449.08
919.416	11311.23
919.727	11348.74
920.038	11251.57
920.349	11130.22
920.66	11138.13
920.971	11134.51
921.282	11127.96
921.593	10994.17
921.903	10852.93
922.214	10881.41
922.525	10884.12
922.835	10777.46
923.146	10761.41
923.456	10721.19
923.767	10685.26
924.077	10753.05
924.387	10576.78
924.697	10597.8
925.008	10492.94
925.318	10473.06
925.628	10464.02
925.938	10412.72
926.248	10303.57
926.558	10244.14
926.867	10295.44
927.177	10206.62
927.487	10153.97
927.796	10104.71
928.106	10096.12
928.416	9991.94
928.725	10022.45
929.034	10008.66
929.344	9977.93
929.653	9980.42
929.962	9804.37
930.271	9762.34
930.581	9652.29
930.89	9714.43
931.199	9604.15
931.508	9570.71
931.817	9553.99
932.125	9473.08
932.434	9518.96
932.743	9389.02
933.051	9356.7
933.36	9390.83
933.669	9327.1
933.977	9262.02
934.286	9227.22
934.594	9202.58
934.902	9127.33
935.21	9138.63
935.519	9076.03
935.827	9026.99
936.135	8978.86
936.443	8910.61
936.751	8921.91
937.059	8900.67
937.367	8828.81
937.674	8837.39
937.982	8759.2
938.29	8714.69
938.597	8660.22
938.905	8596.5
939.213	8621.58
939.52	8590.17
939.827	8556.05
940.135	8464.75
940.442	8469.49
940.749	8495.03
941.056	8404.86
941.363	8355.83
941.67	8314.92
941.977	8286.45
942.284	8220.91
942.591	8221.37
942.898	8223.85
943.205	8135.49
943.511	8073.8
943.818	8136.85
944.125	8063.18
944.431	7999.45
944.738	7976.85
945.044	7935.05
945.35	7806.46
945.657	7872.9
945.963	7908.15
946.269	7749.97
946.575	7700.02
946.881	7670.87
947.187	7732.79
947.493	7613.47
947.799	7671.55
948.105	7575.28
948.41	7594.26
948.716	7520.37
949.022	7501.61
949.327	7486.02
949.633	7454.61
949.938	7384.33
950.244	7447.37
950.549	7285.57
950.854	7259.58
951.16	7321.73
951.465	7268.62
951.77	7210.09
952.075	7145.69
952.38	7147.95
952.685	7063.2
952.99	7073.37
953.294	7008.06
953.599	6984.34
953.904	6959.48
954.209	6919.93
954.513	6915.86
954.818	6924
955.122	6871.12
955.426	6850.78
955.731	6749.31
956.035	6765.81
956.339	6722.42
956.643	6737.79
956.948	6631.13
957.252	6653.5
957.556	6620.05
957.86	6566.27
958.163	6526.27
958.467	6550.68
958.771	6507.74
959.075	6492.6
959.378	6425.71
959.682	6419.83
959.985	6390.68
960.289	6358.14
960.592	6342.09
960.896	6334.86
961.199	6263.68
961.502	6288.54
961.805	6211.02
962.108	6174.41
962.411	6161.98
962.714	6114.3
963.017	6082.21
963.32	6069.33
963.623	6037.92
963.926	6025.49
964.228	6015.1
964.531	5997.47
964.833	5972.16
965.136	5903.91
965.438	5953.18
965.741	5859.62
966.043	5827.53
966.345	5845.61
966.648	5802.67
966.95	5733.97
967.252	5728.32
967.554	5696.46
967.856	5705.73
968.158	5640.87
968.46	5636.57
968.761	5646.29
969.063	5580.98
969.365	5550.25
969.666	5529.91
969.968	5478.84
970.269	5497.37
970.571	5428.44
970.872	5435.9
971.174	5468.22
971.475	5424.6
971.776	5405.62
972.077	5292.18
972.378	5329.69
972.679	5319.75
972.98	5283.59
973.281	5238.85
973.582	5267.32
973.883	5238.17
974.183	5171.05
974.484	5231.84
974.785	5159.07
975.085	5130.15
975.386	5116.59
975.686	5072.3
975.986	5069.36
976.287	5056.48
976.587	4974.45
976.887	5005.18
977.187	4993.2
977.487	4949.14
977.787	4944.39
978.087	4873.43
978.387	4865.52
978.687	4854.9
978.987	4818.52
979.286	4810.83
979.586	4747.11
979.885	4787.33
980.185	4717.73
980.484	4698.97
980.784	4700.55
981.083	4680.44
981.382	4713.21
981.682	4647
981.981	4674.34
982.28	4595.25
982.579	4557.06
982.878	4575.36
983.177	4531.29
983.475	4512.08
983.774	4487.23
984.073	4447
984.372	4435.93
984.67	4423.95
984.969	4410.39
985.267	4388.7
985.566	4360.45
985.864	4377.85
986.162	4339.66
986.461	4303.73
986.759	4264.41
987.057	4221.24
987.355	4195.26
987.653	4193.68
987.951	4157.97
988.249	4185.54
988.547	4180.12
988.844	4110.29
989.142	4123.85
989.44	4070.51
989.737	4087.46
990.035	4050.85
990.332	4046.56
990.63	4018.76
990.927	4010.18
991.224	4015.83
991.521	3960.23
991.819	3970.4
992.116	3948.26
992.413	3881.14
992.71	3884.08
993.006	3896.28
993.303	3878.88
993.6	3839.56
993.897	3858.09
994.193	3806.34
994.49	3796.62
994.787	3757.53
995.083	3796.17
995.379	3691.54
995.676	3720.92
995.972	3642.73
996.268	3640.47
996.565	3659.45
996.861	3623.52
997.157	3602.28
997.453	3606.8
997.749	3625.33
998.044	3564.99
998.34	3534.03
998.636	3521.6
998.932	3506.91
999.227	3476.63
999.523	3427.82
999.818	3473.47
1000.114	3399.12
1000.409	3416.29
1000.704	3384.2
1001	3343.3
1001.295	3382.85
1001.59	3362.51
1001.885	3345.34
1002.18	3295.39
1002.475	3255.85
1002.77	3251.1
1003.065	3209.07
1003.359	3241.38
1003.654	3185.34
1003.949	3184.44
1004.243	3173.36
1004.538	3145.57
1004.832	3133.14
1005.127	3083.65
1005.421	3124.32
1005.715	3055.85
1006.009	3057.43
1006.304	3061.73
1006.598	3007.27
1006.892	3000.94
1007.186	2994.61
1007.48	2976.53
1007.773	2941.5
1008.067	2933.37
1008.361	2902.41
1008.655	2883.43
1008.948	2897.21
1009.242	2896.08
1009.535	2864.22
1009.829	2795.97
1010.122	2854.5
1010.415	2791.23
1010.708	2781.73
1011.001	2759.36
1011.295	2746.03
1011.588	2721.17
1011.881	2707.39
1012.173	2729.08
1012.466	2669.87
1012.759	2646.6
1013.052	2664.68
1013.344	2609.76
1013.637	2624.9
1013.93	2606.15
1014.222	2562.98
1014.514	2555.3
1014.807	2541.97
1015.099	2534.96
1015.391	2513.95
1015.683	2512.59
1015.976	2486.15
1016.268	2466.04
1016.56	2463.78
1016.851	2425.59
1017.143	2414.74
1017.435	2404.34
1017.727	2399.6
1018.018	2392.82
1018.31	2352.14
1018.602	2351.46
1018.893	2282.31
1019.185	2294.97
1019.476	2267.85
1019.767	2259.94
1020.058	2280.28
1020.35	2192.82
1020.641	2226.27
1020.932	2193.05
1021.223	2216.1
1021.514	2186.72
1021.804	2129.55
1022.095	2155.99
1022.386	2113.05
1022.677	2125.25
1022.967	2090.45
1023.258	2061.98
1023.548	2104.69
1023.839	2051.81
1024.129	2038.7
1024.419	2057.69
1024.709	2017.01
1025	1973.17
1025.29	1998.93
1025.58	1966.84
1025.87	1944.47
1026.16	1963.68
1026.449	1936.11
1026.739	1912.83
1027.029	1898.59
1027.319	1868.09
1027.608	1884.13
1027.898	1866.05
1028.187	1847.97
1028.477	1836.9
1028.766	1808.88
1029.055	1831.25
1029.344	1839.16
1029.634	1783.57
1029.923	1778.82
1030.212	1772.5
1030.501	1747.19
1030.79	1740.63
1031.078	1711.71
1031.367	1707.64
1031.656	1725.72
1031.945	1678.71
1032.233	1687.98
1032.522	1648.88
1032.81	1638.94
1033.099	1643.01
1033.387	1667.87
1033.675	1631.48
1033.963	1605.72
1034.251	1617.25
1034.54	1581.77
1034.828	1574.08
1035.116	1569.56
1035.403	1544.03
1035.691	1557.59
1035.979	1530.92
1036.267	1538.6
1036.554	1542.45
1036.842	1501.77
1037.129	1504.93
1037.417	1476.01
1037.704	1476.91
1037.992	1478.94
1038.279	1424.71
1038.566	1455.67
1038.853	1455.67
1039.14	1455.67
