Data from 19-3921_FLMS001491_003.txt Node
Date: Thu Apr 19 16:41:56 BST 2018
User: hsy
Spectrometer: FLMS00149
Trigger mode: 0
Integration Time (sec): 1.000000E-2
Scans to average: 10
Electric dark correction enabled: true
Nonlinearity correction enabled: false
Boxcar width: 0
XAxis mode: Wavelengths
Number of Pixels in Spectrum: 2048
>>>>>Begin Spectral Data<<<<<
341.393	-10.3
341.776	-10.3
342.16	-10.3
342.543	-66.11
342.927	-57.53
343.31	-52.33
343.693	-80.13
344.077	-63.85
344.46	-65.89
344.843	-67.92
345.226	-30.41
345.61	-31.54
345.993	-11.88
346.376	-12.33
346.759	1.91
347.142	9.14
347.525	31.51
347.908	81.23
348.291	70.83
348.674	101.79
349.057	119.87
349.44	122.58
349.823	128.91
350.206	178.63
350.588	229.7
350.971	235.12
351.354	235.57
351.737	264.05
352.119	278.28
352.502	302.24
352.884	300.88
353.267	324.84
353.65	309.47
354.032	347.43
354.414	352.86
354.797	329.81
355.179	346.98
355.562	357.15
355.944	358.28
356.326	369.35
356.709	368.45
357.091	352.63
357.473	358.51
357.855	370.26
358.238	370.94
358.62	368.22
359.002	382.24
359.384	370.03
359.766	386.76
360.148	373.2
360.53	375.68
360.912	376.13
361.294	382.46
361.676	391.28
362.057	356.47
362.439	373.2
362.821	374.1
363.203	376.81
363.584	373.2
363.966	357.15
364.348	364.61
364.729	385.17
365.111	360.99
365.493	358.06
365.874	363.71
366.256	365.96
366.637	372.97
367.019	368.45
367.4	366.19
367.781	380.43
368.163	365.96
368.544	358.28
368.925	374.33
369.306	364.38
369.688	370.71
370.069	353.08
370.45	372.97
370.831	382.91
371.212	381.78
371.593	360.54
371.974	355.57
372.355	359.41
372.736	388.11
373.117	359.41
373.498	385.63
373.879	357.6
374.26	366.19
374.641	363.71
375.021	380.43
375.402	394.21
375.783	395.12
376.163	404.61
376.544	408.22
376.925	396.47
377.305	380.2
377.686	433.99
378.066	415
378.447	389.92
378.827	398.96
379.208	409.35
379.588	398.28
379.968	409.58
380.349	405.96
380.729	419.97
381.109	408.45
381.489	418.17
381.87	387.66
382.25	418.17
382.63	428.79
383.01	436.7
383.39	426.75
383.77	422.01
384.15	426.3
384.53	448.45
384.91	423.82
385.29	446.41
385.67	436.02
386.049	454.1
386.429	450.03
386.809	465.62
387.189	463.82
387.568	460.65
387.948	455.23
388.328	473.31
388.707	454.78
389.087	477.15
389.466	464.27
389.846	471.72
390.225	482.8
390.605	484.15
390.984	489.13
391.363	481.44
391.743	506.07
392.122	473.53
392.501	503.81
392.881	515.11
393.26	540.42
393.639	521.22
394.018	505.4
394.397	525.51
394.776	545.85
395.155	537.94
395.534	548.33
395.913	556.02
396.292	542.68
396.671	549.46
397.05	531.84
397.429	546.07
397.808	542.68
398.186	542.01
398.565	545.62
398.944	549.91
399.323	579.07
399.701	577.48
400.08	579.07
400.458	581.78
400.837	569.58
401.215	588.33
401.594	577.48
401.972	612.51
402.351	596.24
402.729	580.65
403.107	602.12
403.486	627.2
403.864	600.31
404.242	593.08
404.62	631.04
404.999	636.92
405.377	628.33
405.755	628.33
406.133	645.73
406.511	654.09
406.889	661.1
407.267	657.03
407.645	669.69
408.023	665.84
408.401	689.35
408.779	695.9
409.156	729.12
409.534	703.81
409.912	720.08
410.29	725.28
410.667	729.12
411.045	731.15
411.422	754.66
411.8	760.76
412.178	782.9
412.555	775.9
412.933	767.99
413.31	792.17
413.687	783.58
414.065	807.54
414.442	834.43
414.819	836.01
415.197	830.81
415.574	852.73
415.951	827.65
416.328	840.3
416.705	855.67
417.082	871.71
417.46	878.95
417.837	888.44
418.214	886.86
418.591	871.94
418.967	902
419.344	903.13
419.721	922.33
420.098	913.3
420.475	927.53
420.852	951.71
421.228	944.48
421.605	945.61
421.982	977.47
422.358	970.02
422.735	1003.46
423.111	988.32
423.488	1007.53
423.864	1020.19
424.241	1003.01
424.617	998.26
424.994	1050.01
425.37	1048.21
425.746	1035.55
426.123	1061.31
426.499	1080.3
426.875	1071.26
427.251	1092.73
427.627	1100.86
428.003	1129.11
428.379	1125.27
428.756	1144.25
429.132	1156.9
429.507	1182.21
429.883	1178.15
430.259	1204.81
430.635	1224.93
431.011	1222.89
431.387	1244.59
431.763	1256.79
432.138	1264.47
432.514	1265.6
432.89	1308.09
433.265	1344.92
433.641	1372.94
434.016	1357.8
434.392	1371.59
434.767	1397.8
435.143	1385.15
435.518	1414.3
435.894	1411.59
436.269	1410.46
436.644	1458.82
437.02	1450.23
437.395	1487.52
437.77	1490.91
438.145	1509.89
438.52	1541.08
438.895	1547.18
439.271	1518.03
439.646	1595.31
440.021	1565.26
440.395	1579.94
440.77	1577.01
441.145	1612.71
441.52	1628.3
441.895	1608.64
442.27	1645.03
442.645	1656.78
443.019	1676.66
443.394	1681.86
443.769	1676.89
444.143	1673.73
444.518	1717.34
444.892	1685.48
445.267	1735.19
445.641	1728.42
446.016	1738.58
446.39	1759.37
446.764	1768.19
447.139	1771.8
447.513	1777.91
447.887	1772.48
448.262	1797.34
448.636	1828.53
449.01	1838.24
449.384	1846.15
449.758	1868.3
450.132	1882.31
450.506	1873.5
450.88	1915.3
451.254	1924.12
451.628	1952.59
452.002	1937.22
452.376	1962.99
452.75	2010.89
453.123	1986.26
453.497	2036.88
453.871	2046.15
454.244	2065.13
454.618	2096.31
454.992	2120.5
455.365	2115.75
455.739	2196.43
456.112	2202.98
456.486	2225.13
456.859	2219.93
457.232	2299.25
457.606	2284.11
457.979	2340.6
458.352	2357.1
458.725	2378.34
459.099	2394.84
459.472	2422.18
459.845	2446.36
460.218	2470.99
460.591	2549.41
460.964	2525
461.337	2535.17
461.71	2588.96
462.083	2625.34
462.456	2638.67
462.829	2622.85
463.201	2694.27
463.574	2691.33
463.947	2720.93
464.32	2787.82
464.692	2774.04
465.065	2809.29
465.438	2848.61
465.81	2902.17
466.183	2888.84
466.555	2914.15
466.928	2934.26
467.3	2976.97
467.672	3034.82
468.045	3133.12
468.417	3053.13
468.789	3117.76
469.161	3148.72
469.534	3167.7
469.906	3222.16
470.278	3243.63
470.65	3312.78
471.022	3339.45
471.394	3393
471.766	3416.51
472.138	3450.63
472.51	3529.72
472.882	3559.55
473.253	3607.24
473.625	3658.76
473.997	3710.28
474.369	3715.48
474.74	3770.62
475.112	3837.06
475.484	3835.25
475.855	3921.58
476.227	3952.31
476.598	4055.13
476.97	4106.66
477.341	4221
477.713	4211.06
478.084	4257.39
478.455	4372.19
478.827	4415.58
479.198	4518.4
479.569	4589.81
479.94	4635.01
480.311	4731.05
480.682	4783.7
481.053	4870.03
481.424	4959.97
481.795	5032.73
482.166	5068.44
482.537	5126.29
482.908	5250.13
483.279	5312.95
483.65	5366.96
484.021	5481.31
484.391	5558.6
484.762	5652.83
485.133	5661.42
485.503	5766.27
485.874	5834.75
486.244	5942.09
486.615	6037.91
486.985	6114.29
487.356	6115.64
487.726	6244
488.097	6385.47
488.467	6465.92
488.837	6503.2
489.207	6632.01
489.578	6682.86
489.948	6740.94
490.318	6853.48
490.688	6979.12
491.058	7001.72
491.428	7121.49
491.798	7145.22
492.168	7263.64
492.538	7334.6
492.908	7415.5
493.278	7580.46
493.648	7472.44
494.017	7624.31
494.387	7757.41
494.757	7754.25
495.126	7799.22
495.496	7891.64
495.866	7985.65
496.235	8064.75
496.605	8129.38
496.974	8151.75
497.344	8215.93
497.713	8301.12
498.082	8303.38
498.452	8431.74
498.821	8509.25
499.19	8470.16
499.559	8602.13
499.928	8570.72
500.298	8683.71
500.667	8734.78
501.036	8782.47
501.405	8781.11
501.774	8873.76
502.143	8872.86
502.512	8990.6
502.88	9106.3
503.249	9053.65
503.618	9092.97
503.987	9162.12
504.356	9192.17
504.724	9268.78
505.093	9366.18
505.462	9400.08
505.83	9398.95
506.199	9532.96
506.567	9589.9
506.936	9582.67
507.304	9688.21
507.672	9727.07
508.041	9733.85
508.409	9909.44
508.777	9899.95
509.145	10004.81
509.514	10050.91
509.882	10104.69
510.25	10179.94
510.618	10241.64
510.986	10208.64
511.354	10353.95
511.722	10445.02
512.09	10544.45
512.458	10505.13
512.826	10662.64
513.193	10612.25
513.561	10699.7
513.929	10856.08
514.297	10862.86
514.664	10861.51
515.032	10982.86
515.4	11106.7
515.767	11178.11
516.135	11249.52
516.502	11178.56
516.869	11367.48
517.237	11517.08
517.604	11458.1
517.972	11603.18
518.339	11694.25
518.706	11725.21
519.073	11764.08
519.44	11896.96
519.808	12024.42
520.175	12062.38
520.542	12209.04
520.909	12291.75
521.276	12361.58
521.643	12561.58
522.009	12610.61
522.376	12729.26
522.743	12732.65
523.11	12887.9
523.477	13061.9
523.843	13100.32
524.21	13358.62
524.577	13388.9
524.943	13454.43
525.31	13519.07
525.676	13660.3
526.043	13798.61
526.409	13868.43
526.776	14074.98
527.142	14123.8
527.508	14133.51
527.874	14378.7
528.241	14490.79
528.607	14537.57
528.973	14685.81
529.339	14749.77
529.705	14916.99
530.071	15022.98
530.437	15135.97
530.803	15181.17
531.169	15221.85
531.535	15367.6
531.901	15400.82
532.267	15526.47
532.632	15672.46
532.998	15699.57
533.364	15865.22
533.73	15947.7
534.095	16051.2
534.461	16083.07
534.826	16214.36
535.192	16302.5
535.557	16393.79
535.923	16356.05
536.288	16495.26
536.653	16540.45
537.019	16542.94
537.384	16667.01
537.749	16751.3
538.114	16853.22
538.479	16787.91
538.845	16869.71
539.21	16927.34
539.575	17034.23
539.94	17087.33
540.305	17211.62
540.67	17222.7
541.034	17268.57
541.399	17324.84
541.764	17456.59
542.129	17477.83
542.494	17530.26
542.858	17616.13
543.223	17599.86
543.587	17684.15
543.952	17762.8
544.316	17811.16
544.681	17733.42
545.045	17970.7
545.41	18001.21
545.774	17980.19
546.138	18053.41
546.503	18104.03
546.867	18051.38
547.231	18304.48
547.595	18234.42
547.959	18321.88
548.324	18344.25
548.688	18407.98
549.052	18462.66
549.416	18492.72
549.779	18538.37
550.143	18599.61
550.507	18721.87
550.871	18776.33
551.235	18798.02
551.599	19035.98
551.962	18977.68
552.326	19087.96
552.689	19083.21
553.053	19026.27
553.417	19223.55
553.78	19434.39
554.143	19408.18
554.507	19480.26
554.87	19576.99
555.234	19799.35
555.597	19632.13
555.96	19824.21
556.323	19878.67
556.686	19901.27
557.05	20128.84
557.413	20295.16
557.776	20267.59
558.139	20351.88
558.502	20474.36
558.865	20545.1
559.228	20625.32
559.59	20744.19
559.953	20868.25
560.316	21124.52
560.679	21094.69
561.041	21257.85
561.404	21337.16
561.767	21499.42
562.129	21590.72
562.492	21843.37
562.854	21804.27
563.217	21902.8
563.579	22051.27
563.941	22216.69
564.304	22465.5
564.666	22708.65
565.028	22711.59
565.39	22813.06
565.753	23069.32
566.115	23092.37
566.477	23312.48
566.839	23457.34
567.201	23684.22
567.563	23831.11
567.925	24034.04
568.287	24167.6
568.648	24330.76
569.01	24639.68
569.372	24845.1
569.734	24765.55
570.095	25082.38
570.457	25313.11
570.819	25507.22
571.18	25501.35
571.542	25769.59
571.903	25937.95
572.265	26115.34
572.626	26311.72
572.987	26583.58
573.349	26692.5
573.71	26928.88
574.071	27055.21
574.432	27359.61
574.794	27563.22
575.155	27633.72
575.516	27770.67
575.877	27882.08
576.238	28053.15
576.599	28290.43
576.96	28251.33
577.32	28370.2
577.681	28596.18
578.042	28851.77
578.403	28873.92
578.763	29062.16
579.124	29016.06
579.485	29243.85
579.845	29341.02
580.206	29559.55
580.566	29448.82
580.927	29663.5
581.287	29696.72
581.648	29666.21
582.008	29881.8
582.368	29882.93
582.728	29912.53
583.089	30037.5
583.449	30057.61
583.809	30150.27
584.169	30146.42
584.529	29992.3
584.889	30340.32
585.249	30193.2
585.609	30100.55
585.969	30262.81
586.329	30082.47
586.688	30280.66
587.048	30340.54
587.408	30236.14
587.768	30394.55
588.127	30237.5
588.487	30350.49
588.846	30591.38
589.206	30199.08
589.565	30343.93
589.925	30545.06
590.284	30418.96
590.643	30412.63
591.003	30264.61
591.362	30646.52
591.721	30519.75
592.08	30499.41
592.44	30681.78
592.799	30529.92
593.158	30580.54
593.517	30481.11
593.876	30576.02
594.235	30482.24
594.593	30516.36
594.952	30622.34
595.311	30618.73
595.67	30555
596.029	30715.9
596.387	30729.46
596.746	30864.82
597.104	30635
597.463	30621.67
597.822	30736.47
598.18	30616.24
598.538	30695.56
598.897	30808.78
599.255	30690.37
599.613	31055.33
599.972	30824.6
600.33	30764.26
600.688	30670.48
601.046	30705.28
601.404	31009.68
601.762	30851.49
602.12	30952.96
602.478	30987.98
602.836	31004.93
603.194	30860.98
603.552	30887.87
603.91	30950.47
604.268	31133.52
604.625	30929.46
604.983	31159.73
605.341	31021.2
605.698	31138.94
606.056	31327.64
606.413	31042.45
606.771	31288.54
607.128	31157.47
607.485	31149.79
607.843	31113.18
608.2	31286.06
608.557	31423.45
608.914	31278.6
609.272	31422.78
609.629	31626.84
609.986	31604.92
610.343	31495.99
610.7	31629.1
611.057	31586.16
611.414	31469.1
611.771	31711.81
612.127	31735.54
612.484	31788.87
612.841	31794.29
613.198	31801.75
613.554	31653.96
613.911	31841.07
614.267	31916.32
614.624	31905.02
614.98	31991.57
615.337	32082.87
615.693	32078.13
616.05	32166.48
616.406	32177.78
616.762	32182.08
617.118	32143.89
617.475	32056.43
617.831	32293.26
618.187	32268.4
618.543	32278.8
618.899	32419.59
619.255	32423.2
619.611	32373.71
619.967	32630.2
620.323	32514.05
620.678	32475.63
621.034	32392.02
621.39	32363.99
621.746	32434.5
622.101	32704.78
622.457	32573.25
622.812	32644.44
623.168	32678.56
623.523	32641.27
623.879	32745.68
624.234	32606.02
624.589	32684.66
624.945	32726.7
625.3	32738.67
625.655	32799.01
626.01	32711.1
626.365	32825.68
626.72	32575.06
627.075	32568.28
627.43	32668.84
627.785	32636.75
628.14	32626.81
628.495	32628.39
628.85	32742.51
629.205	32639.47
629.559	32560.82
629.914	32480.83
630.269	32570.32
630.623	32431.34
630.978	32450.09
631.332	32536.19
631.687	32525.12
632.041	32427.27
632.396	32380.94
632.75	32397.21
633.104	32316.09
633.459	32071.8
633.813	32310.21
634.167	32198.12
634.521	32067.5
634.875	32140.5
635.229	31900.5
635.583	31873.61
635.937	31868.64
636.291	31713.62
636.645	31858.02
636.999	31561.08
637.352	31867.74
637.706	31613.96
638.06	31694.86
638.413	31588.87
638.767	31467.97
639.121	31577.57
639.474	31337.13
639.828	31395.43
640.181	31417.13
640.534	31411.02
640.888	31225.27
641.241	31131.26
641.594	31181.2
641.947	31306.62
642.301	31083.58
642.654	31093.52
643.007	31113.41
643.36	31033.18
643.713	31136.91
644.066	31088.1
644.419	30982.79
644.771	30602.23
645.124	30282.01
645.477	30428.45
645.83	30285.63
646.182	30168.12
646.535	30109.82
646.888	30181.9
647.24	30145.97
647.593	30261
647.945	30064.62
648.298	30080.66
648.65	29761.58
649.002	29677.96
649.355	29538.31
649.707	29416.5
650.059	29502.6
650.411	29839.09
650.763	30100.1
651.115	30465.29
651.467	30413.08
651.819	30348.91
652.171	30300.32
652.523	30267.55
652.875	30259.19
653.227	30176.03
653.578	30351.84
653.93	30279.3
654.282	30170.38
654.633	30129.02
654.985	30171.28
655.337	30125.41
655.688	30202.24
656.039	30238.4
656.391	30021.68
656.742	30053.55
657.094	30051.06
657.445	30135.8
657.796	30137.84
658.147	29932.42
658.498	30119.53
658.849	30179.87
659.2	30123.37
659.551	30089.7
659.902	30234.56
660.253	30238.17
660.604	30283.6
660.955	30036.6
661.306	30250.15
661.656	30119.08
662.007	30301.22
662.358	30220.1
662.708	30249.92
663.059	30233.43
663.409	30022.13
663.76	30188.23
664.11	30209.02
664.461	30331.28
664.811	30213.99
665.161	30255.12
665.511	30205.41
665.862	30230.26
666.212	30258.06
666.562	30326.76
666.912	30204.05
667.262	30082.7
667.612	29968.8
667.962	30150.49
668.312	30070.95
668.662	30227.33
669.011	30200.43
669.361	30119.76
669.711	30057.61
670.06	30067.1
670.41	30043.15
670.76	30026.2
671.109	30180.77
671.459	30106.43
671.808	29978.75
672.157	30002.25
672.507	29839.54
672.856	29962.02
673.205	29920.22
673.554	29974.23
673.904	29870.95
674.253	29927
674.602	29926.32
674.951	29554.35
675.3	29384.86
675.649	29766.1
675.998	29762.25
676.346	29804.29
676.695	29830.73
677.044	29646.55
677.393	29784.17
677.741	29777.62
678.09	29671.18
678.438	29579.43
678.787	29736.72
679.135	29623.5
679.484	29463.96
679.832	29560.23
680.181	29469.15
680.529	29460.79
680.877	29287.46
681.225	29364.98
681.573	29654.91
681.922	29319.33
682.27	29204.08
682.618	29201.59
682.966	29153.23
683.314	29069.62
683.661	29087.02
684.009	28988.94
684.357	28879.57
684.705	28842.96
685.053	28968.83
685.4	28703.07
685.748	28600.93
686.095	28668.05
686.443	28504.21
686.79	28505.56
687.138	28516.41
687.485	28419.24
687.832	28338.79
688.18	28296.53
688.527	28265.12
688.874	28140.38
689.221	28060.38
689.568	27929.76
689.915	27858.58
690.262	27859.48
690.609	27723.21
690.956	27758.47
691.303	27672.14
691.65	27412.26
691.997	27439.38
692.344	27277.35
692.69	27336.78
693.037	27279.83
693.383	26932.27
693.73	27144.24
694.077	27082.1
694.423	26903.12
694.769	26810.24
695.116	26706.97
695.462	26640.98
695.808	26498.39
696.155	26470.14
696.501	26253.65
696.847	26450.93
697.193	26089.58
697.539	26195.12
697.885	26015.69
698.231	25954.44
698.577	25827.67
698.923	25747.67
699.269	25669.25
699.614	25528.69
699.96	25500.45
700.306	25474.01
700.651	25278.3
700.997	25260.45
701.342	25187.91
701.688	25264.52
702.033	24928.26
702.379	25015.26
702.724	24877.86
703.069	24793.35
703.415	24547.93
703.76	24443.52
704.105	24636.97
704.45	24435.39
704.795	24369.85
705.14	24208.73
705.485	24257.77
705.83	24111.33
706.175	24275.39
706.52	24129.86
706.865	23969.41
707.209	23964.21
707.554	23892.13
707.899	23749.3
708.243	23693.71
708.588	23597.9
708.932	23557.67
709.277	23580.5
709.621	23553.6
709.966	23326.72
710.31	23438.58
710.654	23188.64
710.998	23341.18
711.342	23221.86
711.687	23100.73
712.031	23126.04
712.375	23113.84
712.719	23006.05
713.063	22954.3
713.407	23242.65
713.75	22999.27
714.094	22927.18
714.438	22757.69
714.782	22706.39
715.125	22637.92
715.469	22699.39
715.812	22655.77
716.156	22439.96
716.499	22571.93
716.843	22601.99
717.186	22369.45
717.53	22647.41
717.873	22505.5
718.216	22418.94
718.559	22392.05
718.902	22224.15
719.246	22289.68
719.589	22325.16
719.932	22123.58
720.275	22180.31
720.617	22164.26
720.96	22208.1
721.303	22047.2
721.646	22179.18
721.989	22007.88
722.331	22053.08
722.674	22050.37
723.016	22015.57
723.359	22030.48
723.701	22102.79
724.044	21866.87
724.386	21950.93
724.729	21861.9
725.071	21940.99
725.413	21895.57
725.755	21772.18
726.097	21769.7
726.439	21752.75
726.782	21724.5
727.124	21824.38
727.465	21692.64
727.807	21687.89
728.149	21724.95
728.491	21776.93
728.833	21619.87
729.175	21780.09
729.516	21705.52
729.858	21634.56
730.199	21798.17
730.541	21744.84
730.882	21651.28
731.224	21621.9
731.565	21566.31
731.906	21669.36
732.248	21662.13
732.589	21557.27
732.93	21538.97
733.271	21636.14
733.612	21665.74
733.953	21767.89
734.294	21673.2
734.635	21653.99
734.976	21622.81
735.317	21616.48
735.658	21633.2
735.999	21585.97
736.339	21697.61
736.68	21669.36
737.021	21676.14
737.361	21596.82
737.702	21856.47
738.042	21691.51
738.383	21742.13
738.723	21764.72
739.063	21806.76
739.404	21924.27
739.744	21777.38
740.084	21800.88
740.424	21899.18
740.764	21943.48
741.104	21998.84
741.444	21980.99
741.784	21893.99
742.124	22024.6
742.464	22053.08
742.804	22053.3
743.143	22027.32
743.483	22135.56
743.823	22126.07
744.162	22146.64
744.502	22203.36
744.841	22287.2
745.181	22422.79
745.52	22326.97
745.86	22411.26
746.199	22437.7
746.538	22560.18
746.877	22693.06
747.216	22641.54
747.556	22664.14
747.895	22683.34
748.234	22742.1
748.573	22871.59
748.911	22805.15
749.25	23043.56
749.589	22981.42
749.928	23122.65
750.267	23151.13
750.605	23203.33
750.944	23347.73
751.283	23319.49
751.621	23498.92
751.96	23458.24
752.298	23580.95
752.636	23666.14
752.975	23662.3
753.313	23762.19
753.651	23818.91
753.989	23866.36
754.327	23934.38
754.666	23821.17
755.004	24110.88
755.342	24084.44
755.679	24168.05
756.017	24158.33
756.355	24219.58
756.693	24361.27
757.031	24548.83
757.368	24494.82
757.706	24602.16
758.044	24456.63
758.381	24650.52
758.719	24643.97
759.056	24708.38
759.394	24736.62
759.731	24703.63
760.068	24763.52
760.405	24901.59
760.743	24922.16
761.08	24883.29
761.417	24951.76
761.754	24967.35
762.091	25095.26
762.428	24892.78
762.765	24948.37
763.102	25204.86
763.438	25140.91
763.775	25076.73
764.112	25004.64
764.449	25084.41
764.785	25017.52
765.122	24985.43
765.458	24978.65
765.795	24956.28
766.131	25035.37
766.467	24940.69
766.804	24800.35
767.14	24909.95
767.476	24876.51
767.812	24896.85
768.148	24917.86
768.485	24941.59
768.821	24674.03
769.157	24700.24
769.492	24718.32
769.828	24764.19
770.164	24422.28
770.5	24468.61
770.836	24572.33
771.171	24613.01
771.507	24494.6
771.842	24281.72
772.178	24231.1
772.513	24255.73
772.849	24236.52
773.184	24283.75
773.519	24086.25
773.855	24025.91
774.19	24134.38
774.525	24027.94
774.86	23992.01
775.195	23983.65
775.53	23900.94
775.865	23786.82
776.2	23540.95
776.535	23429.09
776.87	23494.85
777.205	23351.35
777.539	23241.3
777.874	23415.98
778.209	23243.33
778.543	23133.28
778.878	23014.18
779.212	23081.75
779.547	22887.41
779.881	22968.53
780.215	22718.37
780.55	22735.77
780.884	22623.46
781.218	22643.8
781.552	22754.3
781.886	22416.91
782.22	22396.57
782.554	22378.27
782.888	22097.37
783.222	22229.8
783.556	22051.04
783.889	21931.05
784.223	21743.48
784.557	21867.55
784.89	21811.05
785.224	21637.5
785.557	21458.29
785.891	21606.08
786.224	21473.66
786.558	21462.13
786.891	21232.31
787.224	21281.12
787.557	21193.89
787.891	21249.26
788.224	21122.71
788.557	21002.26
788.89	21047.46
789.223	20971.07
789.556	20695.37
789.888	20757.75
790.221	20661.48
790.554	20633.91
790.887	20596.39
791.219	20408.38
791.552	20364.99
791.884	20410.18
792.217	20297.42
792.549	20262.16
792.882	20118.44
793.214	19995.05
793.546	20135.16
793.879	19850.88
794.211	19866.47
794.543	19865.57
794.875	19785.79
795.207	19744.66
795.539	19749.64
795.871	19570.43
796.203	19696.76
796.535	19401.62
796.867	19471
797.198	19417.22
797.53	19376.09
797.862	19139.71
798.193	19287.05
798.525	19097.22
798.856	19126.6
799.188	18994.18
799.519	18946.95
799.85	18795.99
800.182	18872.37
800.513	18836.89
800.844	18575.66
801.175	18757.8
801.506	18607.07
801.837	18610.68
802.168	18515.54
802.499	18568.2
802.83	18296.11
803.161	18214.31
803.491	18326.62
803.822	18332.95
804.153	18120.07
804.483	18143.35
804.814	17984.26
805.145	18002.11
805.475	18113.29
805.805	17994.43
806.136	18066.29
806.466	17903.13
806.796	17807.99
807.126	17745.62
807.457	17695
807.787	17653.42
808.117	17637.6
808.447	17582.91
808.777	17626.75
809.107	17497.04
809.436	17466.53
809.766	17480.54
810.096	17408.68
810.426	17354.67
810.755	17417.95
811.085	17347.44
811.414	17362.81
811.744	17290.04
812.073	17191.96
812.403	17253.66
812.732	17115.58
813.061	17143.15
813.39	16883.95
813.719	16924.17
814.049	17065.41
814.378	16967.34
814.707	16763.95
815.036	16913.78
815.365	16722.6
815.693	16674.24
816.022	16676.04
816.351	16610.51
816.68	16551.08
817.008	16633.79
817.337	16465.65
817.665	16527.12
817.994	16486.9
818.322	16467.01
818.651	16367.35
818.979	16315.38
819.307	16427.01
819.636	16340.46
819.964	16281.93
820.292	16268.82
820.62	16260.24
820.948	16286.68
821.276	16367.35
821.604	16210.29
821.932	16419.55
822.259	16217.98
822.587	16219.79
822.915	16175.49
823.243	16234.47
823.57	16225.89
823.898	16279.44
824.225	16212.1
824.553	16194.93
824.88	16256.17
825.207	16335.26
825.535	16154.02
825.862	16368.93
826.189	16283.06
826.516	16363.06
826.843	16365.32
827.17	16380.01
827.497	16309.05
827.824	16294.81
828.151	16456.16
828.478	16193.35
828.805	16406.9
829.131	16289.16
829.458	16212.1
829.785	16242.16
830.111	16214.59
830.438	16364.41
830.764	16287.13
831.09	16279.22
831.417	16289.39
831.743	16348.6
832.069	16261.37
832.395	16244.64
832.722	16290.74
833.048	16187.24
833.374	16292.1
833.7	16228.37
834.026	16300.46
834.351	16158.77
834.677	16235.6
835.003	16233.57
835.329	16195.83
835.654	16093.91
835.98	16017.98
836.306	16164.65
836.631	15980.7
836.956	16155.61
837.282	16031.54
837.607	15973.69
837.932	15983.41
838.258	15978.66
838.583	16008.49
838.908	15867.03
839.233	15926.01
839.558	15814.6
839.883	15833.58
840.208	15808.72
840.533	15835.39
840.858	15850.76
841.182	15819.34
841.507	15775.28
841.832	15684.43
842.156	15696.18
842.481	15691.66
842.805	15543.64
843.13	15549.29
843.454	15507.26
843.778	15435.63
844.103	15520.14
844.427	15488.96
844.751	15487.6
845.075	15434.95
845.399	15432.69
845.723	15323.31
846.047	15300.04
846.371	15208.74
846.695	15143.43
847.019	15123.54
847.343	15017.56
847.666	15026.37
847.99	14959.93
848.313	14799.71
848.637	14943.21
848.96	14964.9
849.284	14848.07
849.607	14629.54
849.931	14785.7
850.254	14616.44
850.577	14493.96
850.9	14455.99
851.223	14430
851.546	14317.46
851.869	14227.3
852.192	14322.89
852.515	14246.96
852.838	14045.38
853.161	14133.96
853.483	14028.66
853.806	13984.59
854.129	13904.37
854.451	13935.78
854.774	13841.77
855.096	13814.2
855.419	13778.95
855.741	13698.04
856.063	13627.54
856.385	13632.51
856.708	13630.25
857.03	13585.28
857.352	13522
857.674	13523.13
857.996	13423.02
858.318	13333.53
858.64	13422.12
858.961	13303.48
859.283	13302.57
859.605	13198.17
859.926	13191.62
860.248	13153.43
860.57	13097.38
860.891	13105.74
861.212	13070.26
861.534	13109.81
861.855	13018.29
862.176	13023.94
862.498	13008.8
862.819	13034.56
863.14	12875.47
863.461	12879.99
863.782	12880.44
864.103	12835.92
864.424	12836.82
864.745	12904.84
865.065	12801.34
865.386	12639.09
865.707	12683.61
866.027	12691.74
866.348	12685.42
866.668	12711.63
866.989	12621.69
867.309	12546.89
867.63	12550.96
867.95	12607.45
868.27	12402.26
868.59	12465.76
868.91	12437.29
869.23	12496.95
869.55	12318.42
869.87	12415.82
870.19	12356.38
870.51	12295.59
870.83	12277.06
871.15	12206.78
871.469	12261.02
871.789	12265.77
872.109	12233.45
872.428	12229.38
872.748	12206.78
873.067	12235.26
873.386	12154.36
873.706	12212.43
874.025	12176.73
874.344	12059.89
874.663	12120.46
874.982	12054.02
875.301	12080.46
875.62	12020.12
875.939	12065.77
876.258	12035.04
876.577	11961.14
876.896	11994.81
877.214	11971.08
877.533	11900.8
877.852	11910.97
878.17	11890.18
878.489	11912.1
878.807	11821.48
879.125	11816.96
879.444	11858.09
879.762	11871.43
880.08	11831.43
880.398	11735.61
880.716	11765.67
881.034	11729.96
881.352	11723.41
881.67	11768.38
881.988	11622.84
882.306	11682.96
882.624	11634.82
882.941	11515.05
883.259	11502.17
883.577	11554.15
883.894	11496.07
884.212	11477.76
884.529	11409.52
884.846	11359.35
885.164	11341.95
885.481	11373.13
885.798	11356.41
886.115	11270.54
886.432	11319.58
886.75	11228.28
887.067	11220.82
887.383	11186.47
887.7	11178.34
888.017	11158.68
888.334	11118.68
888.651	11085.68
888.967	11058.11
889.284	10984.22
889.6	10978.34
889.917	10937.21
890.233	10951.45
890.55	10910.09
890.866	10908.96
891.182	10842.07
891.498	10873.26
891.815	10788.52
892.131	10780.83
892.447	10730.21
892.763	10677.33
893.079	10721.85
893.395	10685.02
893.71	10657.9
894.026	10633.27
894.342	10625.81
894.657	10535.87
894.973	10502.87
895.289	10557.79
895.604	10435.76
895.92	10421.52
896.235	10320.73
896.55	10323.44
896.865	10360.96
897.181	10238.93
897.496	10308.75
897.811	10217.23
898.126	10178.59
898.441	10224.91
898.756	10180.62
899.071	10096.1
899.386	10114.64
899.7	9988.76
900.015	9958.26
900.33	9851.37
900.644	9877.58
900.959	9882.1
901.273	9837.35
901.588	9827.86
901.902	9749.9
902.216	9725.94
902.531	9704.7
902.845	9671.93
903.159	9572.73
903.473	9579.06
903.787	9510.58
904.101	9567.98
904.415	9513.52
904.729	9478.04
905.042	9403.69
905.356	9453.86
905.67	9356.91
905.984	9373.41
906.297	9322.57
906.611	9225.17
906.924	9246.64
907.237	9217.48
907.551	9130.48
907.864	9143.36
908.177	9126.86
908.491	9071.27
908.804	8956.25
909.117	9005.51
909.43	8937.72
909.743	8928.23
910.056	8902.69
910.368	8891.84
910.681	8828.57
910.994	8779.08
911.307	8749.02
911.619	8643.26
911.932	8650.72
912.244	8610.27
912.557	8589.48
912.869	8576.37
913.181	8487.56
913.494	8480.33
913.806	8486.66
914.118	8418.86
914.43	8416.6
914.742	8409.82
915.054	8283.27
915.366	8277.17
915.678	8262.25
915.99	8182.93
916.302	8082.15
916.613	8128.02
916.925	8102.03
917.236	8124.18
917.548	8059.55
917.859	8063.62
918.171	7978.42
918.482	7925.09
918.794	7956.27
919.105	7889.38
919.416	7902.94
919.727	7869.72
920.038	7833.11
920.349	7782.49
920.66	7687.13
920.971	7744.3
921.282	7702.27
921.593	7679.22
921.903	7542.73
922.214	7623.4
922.525	7485.1
922.835	7511.99
923.146	7495.95
923.456	7496.17
923.767	7430.64
924.077	7438.77
924.387	7356.74
924.697	7295.05
925.008	7273.13
925.318	7276.74
925.628	7208.04
925.938	7173.47
926.248	7160.36
926.558	7121.72
926.867	7102.74
927.177	7064.32
927.487	7031.55
927.796	7029.97
928.106	7001.04
928.416	7002.85
928.725	6980.03
929.034	6883.99
929.344	6925.57
929.653	6897.77
929.962	6857.55
930.271	6793.59
930.581	6770.77
930.89	6732.58
931.199	6728.06
931.508	6603.09
931.817	6700.49
932.125	6622.98
932.434	6586.14
932.743	6588.85
933.051	6568.97
933.36	6506.82
933.669	6546.82
933.977	6480.38
934.286	6466.82
934.594	6395.64
934.902	6390.67
935.21	6316.32
935.519	6261.63
935.827	6313.38
936.135	6266.37
936.443	6201.74
936.751	6196.09
937.059	6175.53
937.367	6190.44
937.674	6151.35
937.982	6122.65
938.29	6075.19
938.597	6051.24
938.905	5983.67
939.213	5974.63
939.52	5943.67
939.827	6006.72
940.135	5953.39
940.442	5928.76
940.749	5886.72
941.056	5852.6
941.363	5765.37
941.67	5772.15
941.977	5780.51
942.284	5732.83
942.591	5732.15
942.898	5754.98
943.205	5712.49
943.511	5668.2
943.818	5623.68
944.125	5589.33
944.431	5537.81
944.738	5609.67
945.044	5561.31
945.35	5507.75
945.657	5493.29
945.963	5503.68
946.269	5480.41
946.575	5411.26
946.881	5377.81
947.187	5422.1
947.493	5372.16
947.799	5302.78
948.105	5337.36
948.41	5288.55
948.716	5311.15
949.022	5208.32
949.327	5176.46
949.633	5176.46
949.938	5167.65
950.244	5132.17
950.549	5097.37
950.854	5116.35
951.16	5136.24
951.465	5094.43
951.77	5034.77
952.075	5039.51
952.38	5023.7
952.685	5005.62
952.99	4955.45
953.294	4949.57
953.599	4924.26
953.904	4881.1
954.209	4849.69
954.513	4874.32
954.818	4823.47
955.122	4822.8
955.426	4805.4
955.731	4795.9
956.035	4743.25
956.339	4720.2
956.643	4697.6
956.948	4693.08
957.252	4696.25
957.556	4710.94
957.86	4650.15
958.163	4660.32
958.467	4588.45
958.771	4588.23
959.075	4570.37
959.378	4551.84
959.682	4553.88
959.985	4522.24
960.289	4491.51
960.592	4456.48
960.896	4445.41
961.199	4428.91
961.502	4376.93
961.805	4385.07
962.108	4433.43
962.411	4336.03
962.714	4361.79
963.017	4305.97
963.32	4310.49
963.623	4237.5
963.926	4270.95
964.228	4254.45
964.531	4213.55
964.833	4230.95
965.136	4216.71
965.438	4167.9
965.741	4129.48
966.043	4168.35
966.345	4123.15
966.648	4130.61
966.95	4082.7
967.252	4039.31
967.554	4109.6
967.856	4028.47
968.158	4034.57
968.46	4008.58
968.761	4011.52
969.063	4000.9
969.365	3965.64
969.666	3932.42
969.968	3926.78
970.269	3910.28
970.571	3947.11
970.872	3879.09
971.174	3832.99
971.475	3870.28
971.776	3838.19
972.077	3772.43
972.378	3777.17
972.679	3762.49
972.98	3759.77
973.281	3744.18
973.582	3698.08
973.883	3703.05
974.183	3650.62
974.484	3656.27
974.785	3627.12
975.085	3614.02
975.386	3618.53
975.686	3595.94
975.986	3580.34
976.287	3578.54
976.587	3569.95
976.887	3557.52
977.187	3512.32
977.487	3506.45
977.787	3536.05
978.087	3489.95
978.387	3450.4
978.687	3465.54
978.987	3433.91
979.286	3402.5
979.586	3445.66
979.885	3418.09
980.185	3369.5
980.484	3345.1
980.784	3372.44
981.083	3359.56
981.382	3327.69
981.682	3318.66
981.981	3342.38
982.28	3278.88
982.579	3275.49
982.878	3258.77
983.177	3223.52
983.475	3225.32
983.774	3208.6
984.073	3224.42
984.372	3198.66
984.67	3147.13
984.969	3151.43
985.267	3153.24
985.566	3134.71
985.864	3110.3
986.162	3114.37
986.461	3146
986.759	3074.59
987.057	3068.04
987.355	3022.62
987.653	3026.69
987.951	3013.35
988.249	2998.66
988.547	3024.43
988.844	2980.13
989.142	2946.01
989.44	2936.74
989.737	2932.9
990.035	2911.43
990.332	2937.65
990.63	2898.33
990.927	2918.21
991.224	2887.48
991.521	2859.23
991.819	2836.18
992.116	2828.95
992.413	2851.32
992.71	2791.66
993.006	2835.5
993.303	2755.05
993.6	2767.94
993.897	2784.43
994.193	2746.47
994.49	2747.37
994.787	2736.52
995.083	2702.17
995.379	2668.5
995.676	2673.93
995.972	2676.86
996.268	2651.33
996.565	2598.9
996.861	2630.76
997.157	2587.15
997.453	2586.02
997.749	2579.69
998.044	2539.69
998.34	2576.3
998.636	2543.31
998.932	2565.46
999.227	2518.45
999.523	2514.38
999.818	2491.11
1000.114	2474.61
1000.409	2457.66
1000.704	2447.27
1001	2454.72
1001.295	2415.18
1001.59	2391.67
1001.885	2422.63
1002.18	2389.19
1002.475	2364.56
1002.77	2364.1
1003.065	2355.07
1003.359	2338.79
1003.654	2363.65
1003.949	2345.8
1004.243	2303.54
1004.538	2294.05
1004.832	2289.3
1005.127	2292.02
1005.421	2283.65
1005.715	2246.14
1006.009	2237.1
1006.304	2202.98
1006.598	2194.17
1006.892	2186.71
1007.186	2175.63
1007.48	2166.14
1007.773	2168.86
1008.067	2143.09
1008.361	2145.81
1008.655	2122.08
1008.948	2088.86
1009.242	2092.25
1009.535	2117.11
1009.829	2080.27
1010.122	2052.25
1010.415	2053.38
1010.708	2021.97
1011.001	2052.7
1011.295	2034.17
1011.588	2003.21
1011.881	1970.44
1012.173	1987.39
1012.466	1955.3
1012.759	2002.31
1013.052	1938.35
1013.344	1966.15
1013.637	1924.57
1013.93	1913.49
1014.222	1895.19
1014.514	1877.79
1014.807	1880.95
1015.099	1879.82
1015.391	1882.31
1015.683	1852.71
1015.976	1821.29
1016.268	1819.49
1016.56	1824.68
1016.851	1839.37
1017.143	1798.7
1017.435	1766.15
1017.727	1770.9
1018.018	1771.35
1018.31	1758.47
1018.602	1727.51
1018.893	1712.82
1019.185	1707.17
1019.476	1702.2
1019.767	1704.23
1020.058	1695.2
1020.35	1676.66
1020.641	1667.17
1020.932	1629.89
1021.223	1622.88
1021.514	1635.99
1021.804	1608.42
1022.095	1614.07
1022.386	1626.72
1022.677	1595.76
1022.967	1581.3
1023.258	1555.99
1023.548	1544.24
1023.839	1547.18
1024.129	1553.5
1024.419	1535.88
1024.709	1536.1
1025	1529.32
1025.29	1476.67
1025.58	1481.19
1025.87	1468.76
1026.16	1468.31
1026.449	1454.98
1026.739	1463.11
1027.029	1441.64
1027.319	1432.38
1027.608	1435.77
1027.898	1413.17
1028.187	1405.26
1028.477	1398.48
1028.766	1387.63
1029.055	1382.89
1029.344	1384.92
1029.634	1359.61
1029.923	1330.01
1030.212	1327.07
1030.501	1344.24
1030.79	1321.65
1031.078	1298.6
1031.367	1299.5
1031.656	1283.45
1031.945	1285.94
1032.233	1306.51
1032.522	1296.34
1032.81	1247.3
1033.099	1257.92
1033.387	1242.78
1033.675	1252.72
1033.963	1243.46
1034.251	1223.34
1034.54	1245.94
1034.828	1210.46
1035.116	1185.6
1035.403	1225.83
1035.691	1188.09
1035.979	1194.42
1036.267	1186.28
1036.554	1178.15
1036.842	1162.78
1037.129	1136.79
1037.417	1158.71
1037.704	1110.8
1037.992	1113.74
1038.279	1151.03
1038.566	1116
1038.853	1116
1039.14	1116
