Data from 19-3921_FLMS001491_002.txt Node
Date: Thu Apr 19 16:41:53 BST 2018
User: hsy
Spectrometer: FLMS00149
Trigger mode: 0
Integration Time (sec): 1.000000E-2
Scans to average: 10
Electric dark correction enabled: true
Nonlinearity correction enabled: false
Boxcar width: 0
XAxis mode: Wavelengths
Number of Pixels in Spectrum: 2048
>>>>>Begin Spectral Data<<<<<
341.393	3.69
341.776	3.69
342.16	3.69
342.543	-46.48
342.927	-65.24
343.31	-67.27
343.693	-73.37
344.077	-71.57
344.46	-59.59
344.843	-50.1
345.226	-54.62
345.61	-48.74
345.993	-19.36
346.376	-15.97
346.759	11.37
347.142	55.44
347.525	42.78
347.908	56.57
348.291	102.89
348.674	78.71
349.057	112.84
349.44	118.71
349.823	141.99
350.206	167.07
350.588	203
350.971	233.06
351.354	248.2
351.737	266.28
352.119	271.7
352.502	267.86
352.884	304.92
353.267	310.12
353.65	319.61
354.032	330.68
354.414	331.14
354.797	368.87
355.179	338.82
355.562	345.82
355.944	349.67
356.326	384.02
356.709	350.12
357.091	368.42
357.473	376.56
357.855	392.15
358.238	405.26
358.62	378.14
359.002	381.53
359.384	374.3
359.766	365.26
360.148	368.2
360.53	346.28
360.912	368.42
361.294	344.47
361.676	365.94
362.057	374.75
362.439	356.9
362.821	375.2
363.203	362.77
363.584	360.06
363.966	375.65
364.348	388.31
364.729	370.46
365.111	383.34
365.493	363.9
365.874	353.06
366.256	363.68
366.637	346.73
367.019	358.48
367.4	357.58
367.781	344.02
368.163	363
368.544	351.25
368.925	372.26
369.306	355.09
369.688	370.68
370.069	351.25
370.45	355.54
370.831	366.16
371.212	362.55
371.593	374.3
371.974	351.93
372.355	352.83
372.736	380.17
373.117	383.56
373.498	379.04
373.879	361.87
374.26	388.31
374.641	357.58
375.021	385.82
375.402	391.7
375.783	399.61
376.163	395.31
376.544	409.78
376.925	396.22
377.305	410.46
377.686	398.25
378.066	388.08
378.447	407.29
378.827	412.49
379.208	407.97
379.588	394.41
379.968	401.87
380.349	417.23
380.729	426.27
381.109	419.72
381.489	405.71
381.87	424.24
382.25	386.95
382.63	430.79
383.01	421.3
383.39	441.87
383.77	426.27
384.15	441.41
384.53	432.83
384.91	455.88
385.29	441.64
385.67	425.82
386.049	442.09
386.429	421.08
386.809	463.11
387.189	468.76
387.568	469.89
387.948	462.88
388.328	456.56
388.707	457.46
389.087	474.18
389.466	466.05
389.846	478.25
390.225	493.16
390.605	492.26
390.984	503.56
391.363	510.34
391.743	506.72
392.122	512.37
392.501	513.05
392.881	528.64
393.26	530.68
393.639	525.71
394.018	538.81
394.397	518.02
394.776	529.77
395.155	533.39
395.534	546.72
395.913	546.27
396.292	553.73
396.671	558.02
397.05	550.56
397.429	536.33
397.808	542.66
398.186	552.15
398.565	539.94
398.944	569.32
399.323	559.83
399.701	593.28
400.08	582.88
400.458	597.12
400.837	587.4
401.215	593.5
401.594	598.02
401.972	602.31
402.351	596.67
402.729	607.29
403.107	625.82
403.486	620.85
403.864	631.92
404.242	626.49
404.62	623.11
404.999	652.03
405.377	655.87
405.755	664.91
406.133	660.17
406.511	666.27
406.889	667.85
407.267	705.36
407.645	682.31
408.023	702.65
408.401	706.27
408.779	697
409.156	740.16
409.534	725.93
409.912	723.44
410.29	730.67
410.667	754.18
411.045	758.92
411.422	776.32
411.8	775.64
412.178	797.34
412.555	797.79
412.933	801.18
413.31	822.2
413.687	828.3
414.065	853.38
414.442	831.91
414.819	854.51
415.197	857
415.574	879.37
415.951	867.39
416.328	872.14
416.705	896.09
417.082	886.37
417.46	918.69
417.837	894.96
418.214	920.27
418.591	885.25
418.967	907.17
419.344	944.23
419.721	953.49
420.098	941.51
420.475	954.4
420.852	942.42
421.228	975.41
421.605	996.88
421.982	988.52
422.358	1005.69
422.735	993.49
423.111	1022.19
423.488	1036.65
423.864	1017.67
424.241	1046.82
424.617	1059.93
424.994	1058.8
425.37	1093.15
425.746	1085.01
426.123	1092.02
426.499	1132.02
426.875	1123.88
427.251	1124.79
427.627	1144.67
428.003	1172.24
428.379	1186.71
428.756	1185.58
429.132	1200.04
429.507	1200.72
429.883	1234.61
430.259	1234.61
430.635	1258.12
431.011	1226.71
431.387	1311.67
431.763	1299.02
432.138	1327.95
432.514	1319.36
432.89	1337.44
433.265	1378.34
433.641	1379.47
434.016	1392.12
434.392	1406.14
434.767	1443.42
435.143	1397.77
435.518	1459.02
435.894	1449.75
436.269	1506.7
436.644	1505.79
437.02	1539.47
437.395	1530.43
437.77	1567.71
438.145	1555.28
438.52	1600.48
438.895	1618.33
439.271	1603.64
439.646	1627.6
440.021	1661.04
440.395	1655.39
440.77	1616.53
441.145	1661.72
441.52	1673.25
441.895	1698.33
442.27	1721.38
442.645	1725.22
443.019	1724.77
443.394	1702.17
443.769	1735.84
444.143	1729.97
444.518	1768.39
444.892	1796.18
445.267	1768.16
445.641	1784.43
446.016	1781.49
446.39	1815.39
446.764	1837.08
447.139	1819.46
447.513	1880.47
447.887	1865.11
448.262	1882.96
448.636	1906.01
449.01	1900.59
449.384	1950.75
449.758	1943.07
450.132	1960.02
450.506	1941.49
450.88	1962.73
451.254	2007.25
451.628	2020.36
452.002	2037.08
452.376	2029.85
452.75	2073.69
453.123	2066
453.497	2120.24
453.871	2122.05
454.244	2184.42
454.618	2169.51
454.992	2219.67
455.365	2201.82
455.739	2277.75
456.112	2283.63
456.486	2296.06
456.859	2354.36
457.232	2367.47
457.606	2364.08
457.979	2395.26
458.352	2447.46
458.725	2479.1
459.099	2475.03
459.472	2519.33
459.845	2553.68
460.218	2595.26
460.591	2585.54
460.964	2596.84
461.337	2665.09
461.71	2702.6
462.083	2758.19
462.456	2742.37
462.829	2742.82
463.201	2818.75
463.574	2785.53
463.947	2861.46
464.32	2880.45
464.692	2927.45
465.065	2948.24
465.438	2967.22
465.81	3018.3
466.183	3025.08
466.555	3087.67
466.928	3077.5
467.3	3104.17
467.672	3135.13
468.045	3220.1
468.417	3259.42
468.789	3247.44
469.161	3286.31
469.534	3318.85
469.906	3412.18
470.278	3402.24
470.65	3446.99
471.022	3488.57
471.394	3552.75
471.766	3571.5
472.138	3642.91
472.51	3655.57
472.882	3684.72
473.253	3757.49
473.625	3827.99
473.997	3870.03
474.369	3898.95
474.74	3991.38
475.112	4023.69
475.484	4082.45
475.855	4154.76
476.227	4153.18
476.598	4298.71
476.97	4329.9
477.341	4393.18
477.713	4452.83
478.084	4460.52
478.455	4639.04
478.827	4582.55
479.198	4753.62
479.569	4773.05
479.94	4887.63
480.311	4915.2
480.682	5020.5
481.053	5107.28
481.424	5236.09
481.795	5262.76
482.166	5352.92
482.537	5413.94
482.908	5574.61
483.279	5565.8
483.65	5662.07
484.021	5714.27
484.391	5851.67
484.762	5917.2
485.133	5925.34
485.503	6003.75
485.874	6186.35
486.244	6250.53
486.615	6337.31
486.985	6374.82
487.356	6514.7
487.726	6568.94
488.097	6682.61
488.467	6735.71
488.837	6905.65
489.207	6994.01
489.578	7036.5
489.948	7133.22
490.318	7203.5
490.688	7287.11
491.058	7412.98
491.428	7482.13
491.798	7572.98
492.168	7716.7
492.538	7800.54
492.908	7880.09
493.278	7982.91
493.648	7958.28
494.017	8139.97
494.387	8153.98
494.757	8207.09
495.126	8360.3
495.496	8360.98
495.866	8412.96
496.235	8485.5
496.605	8594.87
496.974	8685.27
497.344	8747.19
497.713	8821.99
498.082	8868.99
498.452	8906.96
498.821	8955.32
499.19	9043.22
499.559	9100.4
499.928	9233.27
500.298	9219.04
500.667	9305.14
501.036	9328.64
501.405	9375.87
501.774	9443.21
502.143	9509.65
502.512	9513.49
502.88	9625.58
503.249	9630.55
503.618	9684.11
503.987	9744.45
504.356	9811.11
504.724	9889.98
505.093	9962.75
505.462	9984.21
505.83	10071.22
506.199	10099.69
506.567	10264.21
506.936	10229.63
507.304	10371.78
507.672	10412.23
508.041	10470.53
508.409	10514.37
508.777	10593.92
509.145	10654.48
509.514	10764.76
509.882	10841.82
510.25	10809.28
510.618	10948.48
510.986	10946.68
511.354	11081.81
511.722	11204.3
512.09	11270.96
512.458	11227.8
512.826	11367
513.193	11467.57
513.561	11475.25
513.929	11571.52
514.297	11714.34
514.664	11799.99
515.032	11937.38
515.4	11842.7
515.767	11934.67
516.135	12061.45
516.502	12060.77
516.869	12252.63
517.237	12389.12
517.604	12340.76
517.972	12489.69
518.339	12603.13
518.706	12672.28
519.073	12693.3
519.44	12743.46
519.808	12951.37
520.175	12988.66
520.542	13182.77
520.909	13321.53
521.276	13279.04
521.643	13502.54
522.009	13594.74
522.376	13725.59
522.743	13739.82
523.11	14016.43
523.477	14133.71
523.843	14137.78
524.21	14396.53
524.577	14547.03
524.943	14545.68
525.31	14628.61
525.676	14807.36
526.043	14950.19
526.409	15036.96
526.776	15265.66
527.142	15317.63
527.508	15337.07
527.874	15494.8
528.241	15582.03
528.607	15722.82
528.973	15884.62
529.339	15991.06
529.705	16178.18
530.071	16215.24
530.437	16317.61
530.803	16444.16
531.169	16676.47
531.535	16687.32
531.901	16812.28
532.267	16883.02
532.632	17010.7
532.998	17114.2
533.364	17205.49
533.73	17275.77
534.095	17446.17
534.461	17507.86
534.826	17595.31
535.192	17580.85
535.557	17849.32
535.923	17868.3
536.288	17905.81
536.653	18075.98
537.019	18049.77
537.384	18099.71
537.749	18213.83
538.114	18315.52
538.479	18302.87
538.845	18331.79
539.21	18438
539.575	18529.98
539.94	18568.62
540.305	18736.53
540.67	18701.95
541.034	18807.94
541.399	18814.04
541.764	18899.46
542.129	18950.08
542.494	19144.65
542.858	19122.51
543.223	19166.8
543.587	19252.45
543.952	19311.43
544.316	19453.34
544.681	19354.59
545.045	19483.4
545.41	19578.54
545.774	19659.89
546.138	19663.96
546.503	19710.29
546.867	19863.73
547.231	19949.15
547.595	19971.52
547.959	20002.48
548.324	20015.82
548.688	20170.39
549.052	20279.76
549.416	20305.98
549.779	20315.24
550.143	20478.18
550.507	20564.05
550.871	20610.6
551.235	20520.21
551.599	20822.57
551.962	20796.13
552.326	20961.55
552.689	20918.62
553.053	20830.26
553.417	20964.72
553.78	21277.25
554.143	21304.82
554.507	21354.99
554.87	21564.48
555.234	21697.35
555.597	21555.44
555.96	21752.49
556.323	21815.99
556.686	21895.31
557.05	22145.48
557.413	22058.47
557.776	22196.1
558.139	22424.11
558.502	22443.55
558.865	22403.55
559.228	22805.57
559.59	22791.11
559.953	22829.3
560.316	23106.81
560.679	23205.79
561.041	23289.4
561.404	23559
561.767	23622.95
562.129	23693.23
562.492	23810.07
562.854	23833.57
563.217	24131.41
563.579	24197.85
563.941	24415.02
564.304	24535.02
564.666	24869.7
565.028	24860.43
565.39	24970.71
565.753	25334.09
566.115	25279.41
566.477	25561.21
566.839	25826.96
567.201	26063.79
567.563	26129.78
567.925	26279.38
568.287	26631.69
568.648	26540.84
569.01	26964.11
569.372	27287.49
569.734	27281.39
570.095	27612
570.457	27924.76
570.819	27948.94
571.18	28055.38
571.542	28312.32
571.903	28526.78
572.265	28724.06
572.626	29011.29
572.987	29108.46
573.349	29359.07
573.71	29685.17
574.071	29830.47
574.432	30089.22
574.794	30302.1
575.155	30290.35
575.516	30433.85
575.877	30739.83
576.238	30871.58
576.599	30986.37
576.96	31096.43
577.32	31351.34
577.681	31422.52
578.042	31708.16
578.403	31801.49
578.763	31796.97
579.124	31998.55
579.485	32148.83
579.845	32365.77
580.206	32309.28
580.566	32374.81
580.927	32489.39
581.287	32688.25
581.648	32696.39
582.008	32869.71
582.368	32974.57
582.728	32982.03
583.089	32921.69
583.449	33035.13
583.809	33048.24
584.169	33110.84
584.529	33049.6
584.889	33342.24
585.249	33185.19
585.609	32982.48
585.969	33372.75
586.329	33262.7
586.688	33291.4
587.048	33303.6
587.408	33314
587.768	33196.94
588.127	33269.7
588.487	33159.65
588.846	33527.32
589.206	33199.65
589.565	33202.81
589.925	33441.45
590.284	33269.25
590.643	33332.75
591.003	33386.09
591.362	33524.39
591.721	33432.86
592.08	33447.78
592.44	33493.65
592.799	33384.96
593.158	33456.37
593.517	33247.56
593.876	33511.96
594.235	33290.95
594.593	33424.73
594.952	33497.72
595.311	33372.3
595.67	33415.01
596.029	33526.65
596.387	33563.93
596.746	33645.51
597.104	33434.9
597.463	33462.24
597.822	33690.71
598.18	33496.37
598.538	33539.08
598.897	33676.02
599.255	33465.86
599.613	33893.87
599.972	33624.95
600.33	33631.05
600.688	33414.11
601.046	33695.23
601.404	33936.35
601.762	33725.96
602.12	33857.49
602.478	33821.78
602.836	33903.81
603.194	33609.81
603.552	33737.94
603.91	33622.01
604.268	33848.45
604.625	33735.91
604.983	33923.47
605.341	33714.21
605.698	33845.28
606.056	34050.93
606.413	33796.02
606.771	34074.2
607.128	33935
607.485	33822.68
607.843	33969.57
608.2	34070.14
608.557	34169.12
608.914	34070.59
609.272	34159.62
609.629	34355.55
609.986	34466.28
610.343	34237.81
610.7	34534.3
611.057	34377.7
611.414	34443.46
611.771	34476.45
612.127	34599.16
612.484	34571.36
612.841	34616.79
613.198	34465.38
613.554	34608.65
613.911	34873.5
614.267	34834.63
614.624	34805.48
614.98	34837.12
615.337	34932.71
615.693	34878.7
616.05	35024.01
616.406	35097
616.762	34997.57
617.118	34992.37
617.475	34961.41
617.831	34994.86
618.187	35226.94
618.543	35212.25
618.899	35359.82
619.255	35242.31
619.611	35258.13
619.967	35461.06
620.323	35452.92
620.678	35269.65
621.034	35315.07
621.39	35327.05
621.746	35325.92
622.101	35686.59
622.457	35299.48
622.812	35568.85
623.168	35603.88
623.523	35412.7
623.879	35613.6
624.234	35451.34
624.589	35509.87
624.945	35539.7
625.3	35505.35
625.655	35591.68
626.01	35619.25
626.365	35652.69
626.72	35499.7
627.075	35362.08
627.43	35411.57
627.785	35463.77
628.14	35414.51
628.495	35523.66
628.85	35414.96
629.205	35376.77
629.559	35598.23
629.914	35324.57
630.269	35309.65
630.623	35140.39
630.978	35075.53
631.332	35402.08
631.687	35282.08
632.041	35139.49
632.396	35209.31
632.75	35109.66
633.104	35200.05
633.459	34962.09
633.813	34985.14
634.167	35037.12
634.521	35004.8
634.875	34934.97
635.229	34811.81
635.583	34717.8
635.937	34621.31
636.291	34602.32
636.645	34486.62
636.999	34441.65
637.352	34645.71
637.706	34365.04
638.06	34527.07
638.413	34434.65
638.767	34143.13
639.121	34283.91
639.474	34131.15
639.828	34117.59
640.181	34141.09
640.534	34176.35
640.888	33971.83
641.241	33834.89
641.594	33840.99
641.947	33933.19
642.301	33815.68
642.654	33828.56
643.007	33741.56
643.36	33889.12
643.713	33688
644.066	33861.33
644.419	33634.89
644.771	33360.55
645.124	33010.5
645.477	33019.54
645.83	32931.86
646.182	32878.53
646.535	32867.23
646.888	32893.89
647.24	32754.46
647.593	33072.2
647.945	32842.82
648.298	32709.04
648.65	32550.18
649.002	32211.2
649.355	32124.2
649.707	32001.04
650.059	31961.72
650.411	32438.09
650.763	32732.09
651.115	33236.71
651.467	33174.57
651.819	33127.56
652.171	33006.66
652.523	32941.13
652.875	32900
653.227	32760.79
653.578	33097.05
653.93	33055.25
654.282	32884.86
654.633	32812.09
654.985	32904.06
655.337	32749.04
655.688	32762.37
656.039	32909.49
656.391	32663.84
656.742	32635.14
657.094	32719.44
657.445	32784.97
657.796	32810.73
658.147	32695.26
658.498	32848.02
658.849	32731.64
659.2	32650.06
659.551	32549.05
659.902	32895.7
660.253	32707.01
660.604	32880.11
660.955	32634.47
661.306	32909.26
661.656	32734.13
662.007	32696.16
662.358	32784.29
662.708	32820.9
663.059	32710.17
663.409	32573
663.76	32730.74
664.11	32951.97
664.461	32809.15
664.811	32791.07
665.161	32805.76
665.511	32600.34
665.862	32689.83
666.212	32712.88
666.562	32812.09
666.912	32684.63
667.262	32617.52
667.612	32592.43
667.962	32731.64
668.312	32676.27
668.662	32798.53
669.011	32680.34
669.361	32657.52
669.711	32747.23
670.06	32602.15
670.41	32548.14
670.76	32551.31
671.109	32596.28
671.459	32662.71
671.808	32514.24
672.157	32599.89
672.507	32410.07
672.856	32391.99
673.205	32484.87
673.554	32494.36
673.904	32529.84
674.253	32756.72
674.602	32307.02
674.951	31945.22
675.3	31834.94
675.649	32324.87
675.998	32221.37
676.346	32307.7
676.695	32377.52
677.044	32092.33
677.393	32296.17
677.741	32313.57
678.09	32260.69
678.438	32147.47
678.787	32257.98
679.135	32134.37
679.484	31970.98
679.832	32091.2
680.181	32022.96
680.529	32067.93
680.877	31758.33
681.225	31762.4
681.573	32076.29
681.922	31804.88
682.27	31782.29
682.618	31745.22
682.966	31630.88
683.314	31605.12
683.661	31552.46
684.009	31544.33
684.357	31435.63
684.705	31415.29
685.053	31408.06
685.4	31197.89
685.748	31176.2
686.095	31158.35
686.443	31036.77
686.79	30942.53
687.138	30971.46
687.485	30945.92
687.832	30773.05
688.18	30885.59
688.527	30698.02
688.874	30621.64
689.221	30478.82
689.568	30381.42
689.915	30345.71
690.262	30248.31
690.609	30253.51
690.956	30034.76
691.303	30076.57
691.65	30028.66
691.997	29897.36
692.344	29705.05
692.69	29666.64
693.037	29721.55
693.383	29370.82
693.73	29631.83
694.077	29245.86
694.423	29328.34
694.769	29255.8
695.116	29181
695.462	29004.73
695.808	28907.56
696.155	28877.5
696.501	28646.32
696.847	28713.67
697.193	28436.39
697.539	28375.37
697.885	28226.45
698.231	28169.95
698.577	28150.06
698.923	28119.78
699.269	27925.21
699.614	27669.63
699.96	27737.42
700.306	27658.33
700.651	27532.68
700.997	27531.55
701.342	27452.23
701.688	27400.48
702.033	27369.07
702.379	27171.11
702.724	27130.2
703.069	27093.82
703.415	26790.33
703.76	26740.16
704.105	26908.52
704.45	26687.05
704.795	26549.66
705.14	26425.59
705.485	26441.18
705.83	26250.23
706.175	26435.53
706.52	26212.94
706.865	26183.34
707.209	25982.44
707.554	25919.62
707.899	25988.54
708.243	25786.29
708.588	25763.46
708.932	25621.32
709.277	25711.94
709.621	25681.66
709.966	25362.34
710.31	25523.69
710.654	25271.5
710.998	25494.99
711.342	25259.29
711.687	25211.39
712.031	25246.86
712.375	25164.15
712.719	25130.71
713.063	25047.77
713.407	25055.23
713.75	24960.54
714.094	24948.79
714.438	24828.57
714.782	24908.34
715.125	24666.31
715.469	24897.27
715.812	24597.16
716.156	24564.4
716.499	24685.52
716.843	24515.58
717.186	24457.96
717.53	24618.86
717.873	24664.73
718.216	24549.48
718.559	24449.6
718.902	24353.1
719.246	24377.96
719.589	24148.36
719.932	24189.27
720.275	24180.23
720.617	24133.22
720.96	24134.8
721.303	24238.53
721.646	24139.32
721.989	24136.39
722.331	24099.32
722.674	24041.7
723.016	24012.77
723.359	23970.97
723.701	24028.82
724.044	23858.88
724.386	23777.98
724.729	23912.21
725.071	23916.28
725.413	23942.27
725.755	23884.64
726.097	23850.74
726.439	23859.78
726.782	23740.01
727.124	23862.49
727.465	23833.57
727.807	23676.28
728.149	23823.17
728.491	23606.23
728.833	23769.62
729.175	23688.49
729.516	23669.5
729.858	23653.46
730.199	23718.09
730.541	23654.59
730.882	23658.88
731.224	23599.9
731.565	23565.55
731.906	23593.35
732.248	23659.34
732.589	23471.32
732.93	23519.45
733.271	23623.18
733.612	23528.72
733.953	23729.16
734.294	23530.53
734.635	23598.32
734.976	23622.73
735.317	23501.15
735.658	23650.75
735.999	23599.68
736.339	23645.1
736.68	23730.75
737.021	23635.83
737.361	23488.04
737.702	23797.86
738.042	23569.39
738.383	23645.78
738.723	23704.31
739.063	23638.09
739.404	23787.69
739.744	23679.9
740.084	23649.62
740.424	23796.96
740.764	23826.56
741.104	23870.86
741.444	23765.55
741.784	23751.54
742.124	23798.09
742.464	23839.9
742.804	23868.6
743.143	23891.65
743.483	23880.8
743.823	23950.63
744.162	24026.33
744.502	24013.68
744.841	23910.85
745.181	24206.44
745.52	24071.53
745.86	24269.94
746.199	24248.25
746.538	24316.95
746.877	24485.08
747.216	24479.65
747.556	24432.42
747.895	24535.47
748.234	24481.69
748.573	24667.44
748.911	24695.47
749.25	24663.6
749.589	24688.46
749.928	24797.16
750.267	24983.59
750.605	24895.01
750.944	25024.5
751.283	25071.05
751.621	25188.79
751.96	25088
752.298	25202.35
752.636	25377.93
752.975	25291.83
753.313	25259.07
753.651	25649.57
753.989	25533.18
754.327	25629.91
754.666	25422.9
755.004	25633.75
755.342	25869.67
755.679	25860.63
756.017	25712.16
756.355	25980.63
756.693	25988.99
757.031	26173.39
757.368	26079.61
757.706	26233.73
758.044	26079.61
758.381	26283
758.719	26247.97
759.056	26381.52
759.394	26398.47
759.731	26332.94
760.068	26387.17
760.405	26539.26
760.743	26426.95
761.08	26526.15
761.417	26464.69
761.754	26600.05
762.091	26531.35
762.428	26557.11
762.765	26546.27
763.102	26549.88
763.438	26651.12
763.775	26529.54
764.112	26621.97
764.449	26516.44
764.785	26626.04
765.122	26518.24
765.458	26477.57
765.795	26475.08
766.131	26651.12
766.467	26485.48
766.804	26357.8
767.14	26454.29
767.476	26364.12
767.812	26362.77
768.148	26379.26
768.485	26422.88
768.821	26125.71
769.157	26236.89
769.492	26144.47
769.828	26149.44
770.164	25948.99
770.5	25916.9
770.836	25943.12
771.171	25840.97
771.507	25853.85
771.842	25585.16
772.178	25785.16
772.513	25735.44
772.849	25550.81
773.184	25694.08
773.519	25587.42
773.855	25442.11
774.19	25396.92
774.525	25391.04
774.86	25335.9
775.195	25295.9
775.53	25241.21
775.865	25102.91
776.2	25012.75
776.535	24755.35
776.87	24822.24
777.205	24633.1
777.539	24626.54
777.874	24667.9
778.209	24620.44
778.543	24456.6
778.878	24396.72
779.212	24478.75
779.547	24189.72
779.881	24175.03
780.215	23981.59
780.55	24107.91
780.884	23902.72
781.218	23891.42
781.552	23972.77
781.886	23735.04
782.22	23638.09
782.554	23584.08
782.888	23469.28
783.222	23448.95
783.556	23370.76
783.889	23128.73
784.223	23055.96
784.557	23157.65
784.89	23137.32
785.224	22855.51
785.557	22785.69
785.891	22770.32
786.224	22800.15
786.558	22722.64
786.891	22609.65
787.224	22531
787.557	22387.5
787.891	22417.33
788.224	22230.45
788.557	22308.18
788.89	22202.65
789.223	22147.96
789.556	21957.91
789.888	21808.54
790.221	21865.03
790.554	21692.61
790.887	21794.98
791.219	21563.8
791.552	21641.99
791.884	21527.19
792.217	21430.24
792.549	21327.87
792.882	21164.03
793.214	21114.32
793.546	21203.13
793.879	21072.06
794.211	20865.96
794.543	21037.26
794.875	20925.62
795.207	20892.18
795.539	20863.02
795.871	20772.86
796.203	20640.21
796.535	20517.05
796.867	20527.21
797.198	20430.04
797.53	20424.62
797.862	20259.65
798.193	20369.93
798.525	20284.73
798.856	20202.7
799.188	19981.01
799.519	19981.47
799.85	19899.43
800.182	19919.09
800.513	19846.1
800.844	19528.37
801.175	19698.99
801.506	19675.49
801.837	19511.2
802.168	19599.33
802.499	19509.84
802.83	19477.52
803.161	19342.61
803.491	19360.47
803.822	19358.66
804.153	19218.55
804.483	19099.91
804.814	19053.13
805.145	19000.47
805.475	19012.23
805.805	18932.91
806.136	18874.38
806.466	18819.91
806.796	18861.27
807.126	18717.54
807.457	18633.48
807.787	18704.66
808.117	18598.68
808.447	18543.54
808.777	18640.48
809.107	18406.59
809.436	18376.99
809.766	18313.71
810.096	18387.84
810.426	18221.29
810.755	18260.83
811.085	18153.04
811.414	18231.46
811.744	18156.43
812.073	18047.28
812.403	18100.84
812.732	17923.44
813.061	17984.91
813.39	17913.5
813.719	17858.13
814.049	17961.18
814.378	17816.33
814.707	17722.54
815.036	17745.59
815.365	17631.92
815.693	17529.33
816.022	17538.37
816.351	17538.37
816.68	17360.07
817.008	17496.33
817.337	17296.34
817.665	17300.41
817.994	17283.91
818.322	17274.19
818.651	17171.14
818.979	17176.34
819.307	17251.37
819.636	17136.12
819.964	17042.79
820.292	17143.8
820.62	17080.75
820.948	17219.96
821.276	17182.9
821.604	17086.4
821.932	17246.4
822.259	17146.06
822.587	17131.15
822.915	17125.5
823.243	17181.54
823.57	17078.27
823.898	17137.7
824.225	17094.08
824.553	17030.13
824.88	17067.42
825.207	17112.62
825.535	16951.72
825.862	17074.2
826.189	16960.75
826.516	17166.17
826.843	17175.66
827.17	17143.57
827.497	17130.24
827.824	17209.56
828.151	17164.59
828.478	17193.74
828.805	17307.64
829.131	17202.33
829.458	17139.51
829.785	17148.77
830.111	17105.16
830.438	17230.8
830.764	17294.31
831.09	17173.18
831.417	17092.05
831.743	17164.37
832.069	17105.61
832.395	16977.93
832.722	17165.72
833.048	17010.92
833.374	17222.89
833.7	17145.83
834.026	17100.64
834.351	17115.55
834.677	17076.23
835.003	17105.38
835.329	17045.5
835.654	17019.74
835.98	16881.21
836.306	17074.42
836.631	16920.98
836.956	17048.66
837.282	17052.96
837.607	16854.54
837.932	16850.48
838.258	16809.57
838.583	16762.79
838.908	16779.74
839.233	16683.47
839.558	16700.2
839.883	16653.42
840.208	16593.53
840.533	16596.47
840.858	16620.42
841.182	16617.03
841.507	16578.62
841.832	16546.75
842.156	16452.97
842.481	16475.8
842.805	16398.51
843.13	16345.18
843.454	16379.07
843.778	16308.34
844.103	16287.55
844.427	16228.34
844.751	16222.24
845.075	16252.3
845.399	16123.94
845.723	16072.19
846.047	16036.71
846.371	15955.58
846.695	15972.98
847.019	15851.86
847.343	15823.61
847.666	15705.87
847.99	15602.15
848.313	15634.69
848.637	15556.72
848.96	15525.76
849.284	15589.94
849.607	15423.39
849.931	15323.28
850.254	15282.38
850.577	15226.11
850.9	15081.71
851.223	15122.84
851.546	14947.93
851.869	14887.81
852.192	15029.05
852.515	14853.69
852.838	14777.76
853.161	14767.37
853.483	14670.42
853.806	14620.7
854.129	14631.32
854.451	14588.39
854.774	14489.41
855.096	14393.82
855.419	14398.56
855.741	14418
856.063	14441.5
856.385	14281.05
856.708	14291.9
857.03	14204.67
857.352	14234.27
857.674	14192.69
857.996	14077.89
858.318	13995.41
858.64	14000.15
858.961	13962.87
859.283	13891.68
859.605	13866.82
859.926	13907.05
860.248	13822.31
860.57	13725.36
860.891	13764.68
861.212	13698.02
861.534	13656.66
861.855	13688.75
862.176	13671.12
862.498	13727.39
862.819	13621.18
863.14	13580.73
863.461	13475.65
863.782	13538.02
864.103	13495.08
864.424	13460.06
864.745	13539.15
865.065	13418.93
865.386	13325.37
865.707	13358.14
866.027	13368.31
866.348	13338.48
866.668	13242.43
866.989	13215.09
867.309	13116.56
867.63	13192.72
867.95	13227.97
868.27	13083.34
868.59	13132.15
868.91	13064.81
869.23	13130.12
869.55	12986.85
869.87	13061.42
870.19	13024.59
870.51	13020.97
870.83	13004.25
871.15	12868.88
871.469	12902.33
871.789	12975.1
872.109	12906.4
872.428	12899.39
872.748	12926.74
873.067	12891.26
873.386	12874.08
873.706	12835.21
874.025	12776.01
874.344	12694.2
874.663	12761.99
874.982	12777.14
875.301	12756.8
875.62	12640.87
875.939	12645.84
876.258	12676.8
876.577	12714.31
876.896	12585.5
877.214	12590.93
877.533	12599.51
877.852	12551.6
878.17	12576.46
878.489	12529.01
878.807	12514.09
879.125	12588.44
879.444	12433.64
879.762	12394.55
880.08	12487.43
880.398	12357.49
880.716	12393.42
881.034	12409.91
881.352	12346.19
881.67	12323.59
881.988	12222.57
882.306	12237.94
882.624	12245.85
882.941	12190.94
883.259	12160.43
883.577	12097.38
883.894	12104.16
884.212	12104.84
884.529	12102.58
884.846	12029.36
885.164	11925.41
885.481	11901
885.798	11948.91
886.115	11851.06
886.432	11965.18
886.75	11821.68
887.067	11869.59
887.383	11784.17
887.7	11762.93
888.017	11639.54
888.334	11667.79
888.651	11616.94
888.967	11651.29
889.284	11580.33
889.6	11557.96
889.917	11516.38
890.233	11574.91
890.55	11499.88
890.866	11505.08
891.182	11464.85
891.498	11435.25
891.815	11320.9
892.131	11349.15
892.447	11373.56
892.763	11289.49
893.079	11235.93
893.395	11261.47
893.71	11214.69
894.026	11210.85
894.342	11123.85
894.657	11123.62
894.973	11013.34
895.289	11104.41
895.604	11061.25
895.92	10972.66
896.235	10929.05
896.55	10928.6
896.865	10845.89
897.181	10821.71
897.496	10839.11
897.811	10852.89
898.126	10670.98
898.441	10724.99
898.756	10692.22
899.071	10687.93
899.386	10642.05
899.7	10597.76
900.015	10497.87
900.33	10440.7
900.644	10434.15
900.959	10464.88
901.273	10337.88
901.588	10296.3
901.902	10273.92
902.216	10223.3
902.531	10241.38
902.845	10158.22
903.159	10118.9
903.473	10183.31
903.787	10095.17
904.101	10012.46
904.415	10019.02
904.729	9912.13
905.042	9880.04
905.356	9852.47
905.67	9867.83
905.984	9866.48
906.297	9876.87
906.611	9737.44
906.924	9695.18
907.237	9749.87
907.551	9739.25
907.864	9562.98
908.177	9624.22
908.491	9544
908.804	9456.55
909.117	9477.34
909.43	9422.2
909.743	9325.7
910.056	9368.64
910.368	9324.12
910.681	9280.28
910.994	9241.86
911.307	9182.2
911.619	9095.65
911.932	9186.95
912.244	9090.45
912.557	9016.56
912.869	8979.95
913.181	8982.66
913.494	8977.91
913.806	8876.9
914.118	8874.19
914.43	8845.71
914.742	8788.99
915.054	8714.64
915.366	8660.86
915.678	8601.88
915.99	8577.7
916.302	8589.22
916.613	8568.43
916.925	8541.77
917.236	8498.6
917.548	8449.11
917.859	8471.71
918.171	8384.26
918.482	8344.26
918.794	8351.94
919.105	8273.98
919.416	8278.05
919.727	8209.8
920.038	8253.86
920.349	8146.75
920.66	8214.77
920.971	8199.4
921.282	8130.03
921.593	8087.09
921.903	7992.85
922.214	8005.06
922.525	7929.58
922.835	7880.32
923.146	7830.37
923.456	7811.62
923.767	7784.27
924.077	7778.85
924.387	7809.36
924.697	7720.77
925.008	7646.2
925.318	7598.29
925.628	7543.6
925.938	7616.82
926.248	7539.76
926.558	7465.64
926.867	7484.62
927.177	7360.33
927.487	7439.65
927.796	7405.98
928.106	7331.63
928.416	7321.46
928.725	7270.16
929.034	7243.72
929.344	7272.2
929.653	7205.53
929.962	7233.78
930.271	7177.51
930.581	7160.56
930.89	7110.17
931.199	7041.92
931.508	7007.34
931.817	7014.58
932.125	7009.83
932.434	6960.57
932.743	6884.64
933.051	6869.04
933.36	6858.2
933.669	6774.13
933.977	6784.3
934.286	6776.84
934.594	6750.85
934.902	6717.18
935.21	6648.94
935.519	6662.49
935.827	6611.87
936.135	6552.89
936.443	6542.95
936.751	6475.61
937.059	6490.75
937.367	6430.64
937.674	6484.87
937.982	6497.75
938.29	6412.33
938.597	6400.81
938.905	6326.01
939.213	6272.45
939.52	6277.87
939.827	6294.59
940.135	6257.99
940.442	6227.25
940.749	6202.39
941.056	6221.6
941.363	6156.29
941.67	6143.64
941.977	6077.88
942.284	6041.04
942.591	6053.02
942.898	5998.1
943.205	6025.22
943.511	5952.46
943.818	5954.72
944.125	5882.85
944.431	5905
944.738	5822.29
945.044	5839.01
945.35	5794.95
945.657	5765.12
945.963	5763.53
946.269	5723.08
946.575	5717.43
946.881	5658.9
947.187	5682.86
947.493	5632.69
947.799	5581.39
948.105	5593.37
948.41	5494.39
948.716	5542.75
949.022	5461.85
949.327	5447.16
949.633	5433.15
949.938	5416.65
950.244	5438.12
950.549	5406.26
950.854	5339.82
951.16	5374.17
951.465	5274.73
951.77	5256.66
952.075	5308.86
952.38	5263.21
952.685	5295.07
952.99	5226.37
953.294	5255.07
953.599	5237.9
953.904	5136.88
954.209	5159.26
954.513	5126.72
954.818	5064.57
955.122	5093.04
955.426	5030.45
955.731	5050.56
956.035	4993.84
956.339	5020.5
956.643	4947.96
956.948	4938.92
957.252	4928.75
957.556	4939.38
957.86	4927.85
958.163	4904.12
958.467	4849.89
958.771	4812.6
959.075	4747.06
959.378	4744.58
959.682	4771.47
959.985	4772.15
960.289	4694.18
960.592	4696.67
960.896	4688.53
961.199	4702.09
961.502	4660.51
961.805	4621.42
962.108	4557.01
962.411	4566.5
962.714	4526.05
963.017	4515.43
963.32	4531.7
963.623	4520.63
963.926	4482.89
964.228	4456.68
964.531	4459.61
964.833	4394.53
965.136	4389.33
965.438	4382.1
965.741	4401.76
966.043	4375.77
966.345	4338.26
966.648	4296.45
966.95	4307.3
967.252	4228.21
967.554	4284.93
967.856	4256.23
968.158	4213.07
968.46	4203.35
968.761	4205.38
969.063	4124.93
969.365	4158.38
969.666	4114.99
969.968	4158.83
970.269	4105.05
970.571	4074.77
970.872	4076.12
971.174	4030.02
971.475	4044.26
971.776	4022.34
972.077	4028.44
972.378	3997.48
972.679	3969.91
972.98	3888.1
973.281	3904.37
973.582	3922.68
973.883	3882.45
974.183	3870.25
974.484	3875.45
974.785	3859.86
975.085	3825.05
975.386	3801.55
975.686	3783.7
975.986	3787.99
976.287	3827.54
976.587	3734.89
976.887	3726.3
977.187	3736.24
977.487	3683.36
977.787	3717.26
978.087	3653.31
978.387	3629.13
978.687	3655.57
978.987	3563.37
979.286	3598.85
979.586	3591.84
979.885	3507.1
980.185	3552.07
980.484	3553.88
980.784	3501.45
981.083	3487.89
981.382	3537.83
981.682	3452.86
981.981	3491.05
982.28	3426.42
982.579	3373.77
982.878	3451.28
983.177	3388.68
983.475	3376.25
983.774	3351.17
984.073	3369.25
984.372	3332.19
984.67	3333.77
984.969	3275.24
985.267	3300.32
985.566	3289.25
985.864	3249.93
986.162	3225.97
986.461	3236.6
986.759	3199.08
987.057	3159.08
987.355	3179.2
987.653	3192.98
987.951	3153.89
988.249	3112.31
988.547	3144.62
988.844	3104.17
989.142	3123.83
989.44	3081.8
989.737	3109.14
990.035	3056.26
990.332	3057.62
990.63	2995.92
990.927	2981.24
991.224	3033.66
991.521	2996.38
991.819	2974
992.116	2964.96
992.413	2938.98
992.71	2947.79
993.006	2935.13
993.303	2927
993.6	2910.5
993.897	2930.84
994.193	2901.24
994.49	2878.64
994.787	2858.98
995.083	2821.01
995.379	2787.57
995.676	2823.95
995.972	2749.15
996.268	2786.21
996.565	2749.38
996.861	2747.57
997.157	2720.45
997.453	2684.07
997.749	2677.29
998.044	2671.41
998.34	2649.72
998.636	2660.57
998.932	2638.42
999.227	2642.94
999.523	2631.64
999.818	2606.1
1000.114	2569.04
1000.409	2579.44
1000.704	2559.78
1001	2555.03
1001.295	2536.73
1001.59	2528.82
1001.885	2501.7
1002.18	2485.43
1002.475	2466.67
1002.77	2476.16
1003.065	2473
1003.359	2456.05
1003.654	2446.56
1003.949	2395.94
1004.243	2372.89
1004.538	2376.96
1004.832	2380.35
1005.127	2360.46
1005.421	2393.45
1005.715	2323.85
1006.009	2327.47
1006.304	2329.5
1006.598	2331.31
1006.892	2324.98
1007.186	2266.68
1007.48	2254.7
1007.773	2235.94
1008.067	2247.7
1008.361	2211.76
1008.655	2203.4
1008.948	2165.44
1009.242	2195.27
1009.535	2179.45
1009.829	2198.43
1010.122	2145.55
1010.415	2142.39
1010.708	2115.5
1011.001	2116.85
1011.295	2122.05
1011.588	2121.6
1011.881	2089.96
1012.173	2072.56
1012.466	2059
1012.759	2055.16
1013.052	2055.16
1013.344	2020.36
1013.637	2024.65
1013.93	2014.48
1014.222	1998.89
1014.514	1980.36
1014.807	1960.02
1015.099	1951.88
1015.391	1955.05
1015.683	1911.88
1015.976	1927.03
1016.268	1911.21
1016.56	1866.46
1016.851	1863.3
1017.143	1864.43
1017.435	1838.21
1017.727	1847.48
1018.018	1826.92
1018.31	1852.23
1018.602	1825.56
1018.893	1807.93
1019.185	1772.45
1019.476	1779.46
1019.767	1793.92
1020.058	1749.18
1020.35	1734.04
1020.641	1726.13
1020.932	1740.36
1021.223	1701.72
1021.514	1700.59
1021.804	1710.53
1022.095	1676.86
1022.386	1675.73
1022.677	1698.33
1022.967	1662.4
1023.258	1642.74
1023.548	1637.99
1023.839	1594.6
1024.129	1616.53
1024.419	1562.74
1024.709	1525.68
1025	1571.1
1025.29	1566.36
1025.58	1565.68
1025.87	1523.42
1026.16	1515.29
1026.449	1542.63
1026.739	1492.46
1027.029	1472.35
1027.319	1472.12
1027.608	1497.43
1027.898	1478.45
1028.187	1454.27
1028.477	1473.7
1028.766	1410.88
1029.055	1436.64
1029.344	1430.32
1029.634	1419.02
1029.923	1395.74
1030.212	1382.86
1030.501	1373.37
1030.79	1362.75
1031.078	1367.27
1031.367	1353.26
1031.656	1355.29
1031.945	1340.6
1032.233	1336.98
1032.522	1318.23
1032.81	1287.49
1033.099	1306.25
1033.387	1297.89
1033.675	1325.46
1033.963	1259.02
1034.251	1245.69
1034.54	1259.25
1034.828	1256.99
1035.116	1243.43
1035.403	1226.03
1035.691	1219.25
1035.979	1238.23
1036.267	1213.6
1036.554	1211.56
1036.842	1211.11
1037.129	1201.17
1037.417	1199.14
1037.704	1167.5
1037.992	1159.81
1038.279	1173.6
1038.566	1151.9
1038.853	1151.9
1039.14	1151.9
