Data from 19-3935_FLMS001491_002.txt Node
Date: Thu Apr 19 16:38:55 BST 2018
User: hsy
Spectrometer: FLMS00149
Trigger mode: 0
Integration Time (sec): 1.000000E-2
Scans to average: 10
Electric dark correction enabled: true
Nonlinearity correction enabled: false
Boxcar width: 0
XAxis mode: Wavelengths
Number of Pixels in Spectrum: 2048
>>>>>Begin Spectral Data<<<<<
341.393	-17.27
341.776	-17.27
342.16	-17.27
342.543	-53.2
342.927	-59.31
343.31	-79.64
343.693	-82.13
344.077	-44.17
344.46	-74
344.843	-73.09
345.226	-18.18
345.61	-30.15
345.993	-18.63
346.376	13.91
346.759	11.88
347.142	15.95
347.525	39.45
347.908	63.85
348.291	71.99
348.674	97.07
349.057	105.89
349.44	132.1
349.823	162.38
350.206	194.7
350.588	231.53
350.971	253.45
351.354	241.48
351.737	284.19
352.119	281.7
352.502	300.01
352.884	304.53
353.267	322.38
353.65	336.16
354.032	327.8
354.414	347.01
354.797	346.78
355.179	349.95
355.562	361.93
355.944	358.76
356.326	373.9
356.709	383.85
357.091	347.46
357.473	360.8
357.855	387.91
358.238	377.74
358.62	373.68
359.002	380.23
359.384	403.05
359.766	404.41
360.148	388.59
360.53	381.81
360.912	385.88
361.294	398.31
361.676	379.33
362.057	389.72
362.439	378.65
362.821	361.93
363.203	368.25
363.584	372.09
363.966	375.26
364.348	375.48
364.729	373.45
365.111	385.88
365.493	376.61
365.874	371.19
366.256	365.32
366.637	386.56
367.019	367.35
367.4	375.26
367.781	369.38
368.163	367.12
368.544	361.47
368.925	348.59
369.306	362.15
369.688	379.1
370.069	370.06
370.45	376.84
370.831	369.61
371.212	397.63
371.593	380.46
371.974	368.7
372.355	416.61
372.736	377.52
373.117	378.87
373.498	397.18
373.879	359.21
374.26	363.96
374.641	379.1
375.021	392.43
375.402	380.46
375.783	391.98
376.163	404.64
376.544	404.86
376.925	396.27
377.305	391.53
377.686	409.61
378.066	410.06
378.447	408.03
378.827	407.57
379.208	401.92
379.588	384.3
379.968	386.56
380.349	412.32
380.729	413.22
381.109	426.56
381.489	438.76
381.87	422.26
382.25	430.17
382.63	423.17
383.01	446.22
383.39	429.72
383.77	427.46
384.15	432.88
384.53	415.94
384.91	445.77
385.29	438.76
385.67	423.62
386.049	471.75
386.429	465.88
386.809	460.45
387.189	468.59
387.568	472.43
387.948	460.91
388.328	466.33
388.707	467.91
389.087	502.71
389.466	476.27
389.846	487.12
390.225	493.22
390.605	518.98
390.984	505.65
391.363	501.36
391.743	507.23
392.122	518.31
392.501	523.28
392.881	518.31
393.26	534.12
393.639	528.93
394.018	558.76
394.397	526.89
394.776	512.66
395.155	545.88
395.534	547.46
395.913	551.75
396.292	555.14
396.671	551.98
397.05	545.65
397.429	572.54
397.808	560.56
398.186	566.21
398.565	557.85
398.944	571.19
399.323	574.12
399.701	561.92
400.08	597.63
400.458	602.6
400.837	603.73
401.215	593.33
401.594	628.36
401.972	609.6
402.351	610.51
402.729	611.18
403.107	614.8
403.486	630.84
403.864	634.91
404.242	644.4
404.62	648.02
404.999	650.51
405.377	662.03
405.755	672.88
406.133	679.88
406.511	680.56
406.889	688.24
407.267	697.74
407.645	686.89
408.023	710.16
408.401	731.63
408.779	726.44
409.156	732.09
409.534	723.95
409.912	752.2
410.29	758.07
410.667	756.72
411.045	755.36
411.422	779.54
411.8	796.49
412.178	805.76
412.555	818.41
412.933	814.57
413.31	831.97
413.687	849.82
414.065	862.93
414.442	849.82
414.819	842.59
415.197	871.06
415.574	897.5
415.951	902.25
416.328	913.32
416.705	909.93
417.082	915.13
417.46	925.98
417.837	934.34
418.214	951.51
418.591	963.04
418.967	954
419.344	951.97
419.721	959.88
420.098	978.63
420.475	994.68
420.852	994.9
421.228	1008.91
421.605	993.1
421.982	1044.85
422.358	1043.26
422.735	1057.5
423.111	1034.68
423.488	1051.4
423.864	1059.31
424.241	1088.91
424.617	1096.37
424.994	1095.47
425.37	1113.54
425.746	1111.06
426.123	1135.01
426.499	1128.46
426.875	1155.8
427.251	1145.18
427.627	1193.77
428.003	1204.62
428.379	1203.03
428.756	1229.7
429.132	1247.78
429.507	1256.59
429.883	1258.17
430.259	1283.03
430.635	1288.68
431.011	1320.09
431.387	1348.11
431.763	1360.54
432.138	1360.54
432.514	1382.69
432.89	1391.5
433.265	1403.03
433.641	1457.04
434.016	1454.33
434.392	1445.29
434.767	1501.56
435.143	1489.35
435.518	1516.7
435.894	1526.19
436.269	1552.63
436.644	1558.5
437.02	1591.72
437.395	1584.04
437.77	1633.3
438.145	1638.5
438.52	1645.73
438.895	1673.3
439.271	1685.51
439.646	1728.9
440.021	1727.54
440.395	1721.89
440.77	1702.91
441.145	1735.45
441.52	1770.93
441.895	1785.62
442.27	1798.05
442.645	1794.66
443.019	1771.61
443.394	1793.75
443.769	1823.36
444.143	1857.48
444.518	1861.32
444.892	1845.28
445.267	1864.48
445.641	1884.6
446.016	1889.12
446.39	1920.75
446.764	1949.68
447.139	1916.23
447.513	1975.67
447.887	1945.39
448.262	1969.79
448.636	1973.18
449.01	2006.18
449.384	2035.55
449.758	2037.81
450.132	2059.73
450.506	2044.59
450.88	2075.33
451.254	2043.01
451.628	2107.42
452.002	2147.19
452.376	2145.61
452.75	2163.91
453.123	2189.22
453.497	2204.14
453.871	2257.92
454.244	2270.8
454.618	2280.07
454.992	2320.97
455.365	2329.56
455.739	2403.45
456.112	2381.31
456.486	2379.05
456.859	2478.03
457.232	2487.52
457.606	2533.17
457.979	2532.49
458.352	2560.74
458.725	2583.56
459.099	2635.09
459.472	2637.35
459.845	2645.48
460.218	2704.24
460.591	2703.78
460.964	2762.09
461.337	2797.79
461.71	2822.88
462.083	2867.4
462.456	2871.69
462.829	2878.24
463.201	2929.99
463.574	2963.67
463.947	2933.38
464.32	3000.95
464.692	3050.22
465.065	3007.05
465.438	3091.57
465.81	3087.05
466.183	3169.08
466.555	3201.4
466.928	3230.1
467.3	3226.26
467.672	3242.3
468.045	3322.07
468.417	3324.79
468.789	3318.91
469.161	3412.92
469.534	3447.27
469.906	3494.5
470.278	3509.64
470.65	3576.3
471.022	3633.7
471.394	3681.61
471.766	3661.73
472.138	3729.75
472.51	3809.29
472.882	3855.62
473.253	3897.43
473.625	3913.92
473.997	4018.78
474.369	4042.28
474.74	4071.43
475.112	4118.21
475.484	4176.06
475.855	4215.84
476.227	4318.88
476.598	4423.51
476.97	4416.96
477.341	4495.83
477.713	4593.45
478.084	4559.78
478.455	4712.77
478.827	4760.91
479.198	4868.7
479.569	4887.91
479.94	4950.96
480.311	5033.44
480.682	5128.35
481.053	5278.18
481.424	5320.67
481.795	5321.34
482.166	5435.46
482.537	5483.6
482.908	5630.49
483.279	5654.22
483.65	5743.25
484.021	5863.25
484.391	5919.52
484.762	6002
485.133	6068.22
485.503	6170.13
485.874	6249
486.244	6308.21
486.615	6456.91
486.985	6539.39
487.356	6625.72
487.726	6657.81
488.097	6829.55
488.467	6905.48
488.837	7012.82
489.207	7086.04
489.578	7192.03
489.948	7205.81
490.318	7367.17
490.688	7442.42
491.058	7465.69
491.428	7603.54
491.798	7683.77
492.168	7847.6
492.538	7865.23
492.908	7968.05
493.278	8039.46
493.648	8090.08
494.017	8188.16
494.387	8250.76
494.757	8312.45
495.126	8398.32
495.496	8406.46
495.866	8464.31
496.235	8569.39
496.605	8662.05
496.974	8690.75
497.344	8744.08
497.713	8811.19
498.082	8921.47
498.452	9000.57
498.821	8977.07
499.19	9045.76
499.559	9087.8
499.928	9163.73
500.298	9209.83
500.667	9325.98
501.036	9290.28
501.405	9356.94
501.774	9382.71
502.143	9439.88
502.512	9470.84
502.88	9561.91
503.249	9539.76
503.618	9652.98
503.987	9707.44
504.356	9805.29
504.724	9816.59
505.093	9824.95
505.462	9922.35
505.83	9954.22
506.199	10002.8
506.567	10122.57
506.936	10156.24
507.304	10205.96
507.672	10237.6
508.041	10313.53
508.409	10366.41
508.777	10416.58
509.145	10502.45
509.514	10565.95
509.882	10567.31
510.25	10632.16
510.618	10728.88
510.986	10785.61
511.354	10814.31
511.722	10969.78
512.09	11008.2
512.458	11102.89
512.826	11155.54
513.193	11099.95
513.561	11207.52
513.929	11262.88
514.297	11340.17
514.664	11488.64
515.032	11539.26
515.4	11618.13
515.767	11710.78
516.135	11761.17
516.502	11688.86
516.869	11880.49
517.237	11947.84
517.604	11886.59
517.972	12170.43
518.339	12159.81
518.706	12296.07
519.073	12334.27
519.44	12402.96
519.808	12505.56
520.175	12570.42
520.542	12700.58
520.909	12737.42
521.276	12865.78
521.643	12992.1
522.009	13164.75
522.376	13192.77
522.743	13290.63
523.11	13449.04
523.477	13541.47
523.843	13589.15
524.21	13773.78
524.577	13892.42
524.943	13952.53
525.31	13973.55
525.676	14290.6
526.043	14299.64
526.409	14415.57
526.776	14525.39
527.142	14603.36
527.508	14739.17
527.874	14889.91
528.241	14994.76
528.607	15011.94
528.973	15219.16
529.339	15281.31
529.705	15444.69
530.071	15557.91
530.437	15640.62
530.803	15729.21
531.169	15859.15
531.535	15815.08
531.901	15975.07
532.267	16085.81
532.632	16233.6
532.998	16309.75
533.364	16345.46
533.73	16399.24
534.095	16593.14
534.461	16660.93
534.826	16726.69
535.192	16866.58
535.557	16821.38
535.923	16957.2
536.288	16966.91
536.653	17062.05
537.019	17099.56
537.384	17217.75
537.749	17278.99
538.114	17293.46
538.479	17357.86
538.845	17453
539.21	17361.7
539.575	17555.37
539.94	17663.84
540.305	17646.44
540.67	17775.03
541.034	17809.15
541.399	17881.46
541.764	17852.54
542.129	18090.5
542.494	18010.95
542.858	18163.04
543.223	18042.14
543.587	18244.17
543.952	18200.78
544.316	18287.56
544.681	18292.3
545.045	18418.63
545.41	18462.92
545.774	18493.65
546.138	18558.74
546.503	18634.67
546.867	18595.34
547.231	18730.48
547.595	18835.79
547.959	18883.02
548.324	18915.34
548.688	18870.14
549.052	19071.49
549.416	18969.12
549.779	18995.56
550.143	19123.01
550.507	19338.6
550.871	19300.86
551.235	19264.25
551.599	19411.14
551.962	19423.12
552.326	19468.09
552.689	19615.2
553.053	19491.59
553.417	19606.84
553.78	19774.3
554.143	19883.45
554.507	20089.54
554.87	20082.31
555.234	20320.95
555.597	20070.11
555.96	20235.3
556.323	20350.78
556.686	20440.27
557.05	20559.13
557.413	20478.23
557.776	20708.06
558.139	20785.12
558.502	20849.52
558.865	20938.11
559.228	21087.26
559.59	21265.33
559.953	21197.54
560.316	21475.27
560.679	21560.92
561.041	21806.79
561.404	21869.83
561.767	22012.66
562.129	22124.74
562.492	22290.61
562.854	22355.47
563.217	22475.47
563.579	22629.14
563.941	22900.09
564.304	22990.26
564.666	23263.7
565.028	23272.51
565.39	23502.79
565.753	23678.83
566.115	23857.13
566.477	24094.63
566.839	24196.55
567.201	24569.65
567.563	24632.25
567.925	24940.04
568.287	24990.88
568.648	25351.78
569.01	25490.98
569.372	25679
569.734	25924.19
570.095	26204.86
570.457	26482.14
570.819	26612.99
571.18	26720.78
571.542	27071.51
571.903	27285.29
572.265	27566.86
572.626	27697.93
572.987	27885.5
573.349	28038.71
573.71	28435.76
574.071	28745.81
574.432	28807.73
574.794	29219.02
575.155	29257.89
575.516	29426.47
575.877	29676.63
576.238	29743.07
576.599	30042.73
576.96	30111.88
577.32	30373.79
577.681	30506.22
578.042	30789.15
578.403	30779.88
578.763	31021.23
579.124	31143.94
579.485	31392.3
579.845	31441.79
580.206	31467.32
580.566	31566.75
580.927	31735.34
581.287	31788.67
581.648	31854.43
582.008	32004.03
582.368	32117.47
582.728	32119.51
583.089	32067.08
583.449	32213.97
583.809	32265.27
584.169	32372.84
584.529	32233.63
584.889	32621.64
585.249	32424.81
585.609	32317.7
585.969	32543.23
586.329	32658.48
586.688	32713.62
587.048	32596.33
587.408	32642.88
587.768	32601.08
588.127	32587.52
588.487	32699.38
588.846	32902.54
589.206	32655.54
589.565	32748.42
589.925	32851.01
590.284	32797.68
590.643	32823.9
591.003	32878.13
591.362	33096.43
591.721	32936.44
592.08	32884.91
592.44	33190.44
592.799	33010.11
593.158	33067.73
593.517	33038.35
593.876	33192.7
594.235	32994.06
594.593	33082.2
594.952	33215.3
595.311	33141.18
595.67	33162.64
596.029	33475.18
596.387	33442.41
596.746	33591.11
597.104	33310.21
597.463	33359.02
597.822	33526.48
598.18	33399.7
598.538	33478.57
598.897	33771.89
599.255	33402.19
599.613	33650.32
599.972	33549.08
600.33	33675.17
600.688	33530.09
601.046	33816.87
601.404	33886.02
601.762	33707.72
602.12	33928.27
602.478	33951.78
602.836	34037.65
603.194	33587.72
603.552	33848.28
603.91	33774.15
604.268	34067.25
604.625	33987.03
604.983	34131.21
605.341	33959.69
605.698	34163.3
606.056	34336.85
606.413	34160.81
606.771	34415.49
607.128	34280.58
607.485	34135.27
607.843	34232.9
608.2	34380.24
608.557	34536.62
608.914	34411.2
609.272	34544.98
609.629	34799.21
609.986	34765.54
610.343	34708.59
610.7	35013.9
611.057	34815.26
611.414	34800.57
611.771	34896.84
612.127	34920.79
612.484	35078.98
612.841	35172.54
613.198	34985.42
613.554	34956.04
613.911	35292.76
614.267	35182.48
614.624	35291.4
614.98	35266.32
615.337	35596.71
615.693	35571.62
616.05	35465.18
616.406	35646.2
616.762	35520.32
617.118	35649.59
617.475	35586.08
617.831	35683.26
618.187	35683.71
618.543	35733.42
618.899	35824.72
619.255	35807.32
619.611	35790.37
619.967	35901.33
620.323	35992.4
620.678	35948.56
621.034	35867.66
621.39	35772.75
621.746	35826.53
622.101	36272.17
622.457	35856.81
622.812	36153.98
623.168	36106.07
623.523	36066.52
623.879	36156.01
624.234	35967.32
624.589	36118.73
624.945	36099.97
625.3	36131.61
625.655	36060.42
626.01	36276.46
626.365	36290.7
626.72	36206.18
627.075	36055
627.43	36080.53
627.785	36020.2
628.14	36003.93
628.495	36043.02
628.85	36056.35
629.205	35864.04
629.559	36170.93
629.914	35991.5
630.269	35846.42
630.623	35715.12
630.978	35659.53
631.332	35840.09
631.687	35778.4
632.041	35716.7
632.396	35843.48
632.75	35705.85
633.104	35526.65
633.459	35535.92
633.813	35427.22
634.167	35422.02
634.521	35451.62
634.875	35484.84
635.229	35367.33
635.583	35146.1
635.937	35162.59
636.291	35118.75
636.645	34966.44
636.999	34918.31
637.352	35076.72
637.706	34864.52
638.06	35048.25
638.413	34983.39
638.767	34813.9
639.121	34919.89
639.474	34829.49
639.828	34776.39
640.181	34620.91
640.534	34746.56
640.888	34651.19
641.241	34570.74
641.594	34602.38
641.947	34715.82
642.301	34467.7
642.654	34556.73
643.007	34453.46
643.36	34449.84
643.713	34363.52
644.066	34439.9
644.419	34320.81
644.771	33916.3
645.124	33649.86
645.477	33651.45
645.83	33622.07
646.182	33490.55
646.535	33587.49
646.888	33506.59
647.24	33439.02
647.593	33680.15
647.945	33547.49
648.298	33295.75
648.65	33119.26
649.002	33020.73
649.355	32950.67
649.707	32697.57
650.059	32734.63
650.411	33261.63
650.763	33447.61
651.115	33971.44
651.467	33937.99
651.819	33916.98
652.171	33821.84
652.523	33660.94
652.875	33746.13
653.227	33735.74
653.578	33969.86
653.93	33763.53
654.282	33660.03
654.633	33531.22
654.985	33733.03
655.337	33694.16
655.688	33613.03
656.039	33752.01
656.391	33512.01
656.742	33494.61
657.094	33493.71
657.445	33526.93
657.796	33719.01
658.147	33517.44
658.498	33629.3
658.849	33751.33
659.2	33635.17
659.551	33543.88
659.902	33766.47
660.253	33532.35
660.604	33736.19
660.955	33668.17
661.306	33681.73
661.656	33585.46
662.007	33639.69
662.358	33772.12
662.708	33714.72
663.059	33694.83
663.409	33568.96
663.76	33709.07
664.11	33702.74
664.461	33899.35
664.811	33810.09
665.161	33601.96
665.511	33799.69
665.862	33681.28
666.212	33773.93
666.562	33863.42
666.912	33726.02
667.262	33671.11
667.612	33698
667.962	33798.33
668.312	33761.73
668.662	34049.63
669.011	33791.1
669.361	33814.15
669.711	33875.85
670.06	33638.56
670.41	33683.31
670.76	33618.23
671.109	33862.97
671.459	33756.3
671.808	33792.01
672.157	33728.05
672.507	33542.97
672.856	33477.66
673.205	33585.91
673.554	33663.87
673.904	33733.25
674.253	33637.21
674.602	33441.96
674.951	33082.42
675.3	32915.42
675.649	33272.02
675.998	33400.6
676.346	33431.11
676.695	33562.63
677.044	33300.49
677.393	33320.61
677.741	33489.64
678.09	33443.09
678.438	33274.73
678.787	33258.69
679.135	33153.83
679.484	33062.99
679.832	33085.13
680.181	32918.58
680.529	32987.96
680.877	32937.34
681.225	32934.63
681.573	33073.38
681.922	32773.28
682.27	32736.44
682.618	32657.35
682.966	32643.79
683.314	32587.74
683.661	32532.15
684.009	32428.65
684.357	32327.41
684.705	32331.25
685.053	32264.82
685.4	32241.77
685.748	32142.78
686.095	32144.59
686.443	31868.67
686.79	31830.25
687.138	31900.08
687.485	31860.98
687.832	31744.6
688.18	31686.98
688.527	31639.07
688.874	31491.05
689.221	31663.02
689.568	31349.36
689.915	31241.11
690.262	31330.6
690.609	31166.54
690.956	30921.35
691.303	31022.14
691.65	30857.62
691.997	30746.44
692.344	30619.21
692.69	30527.01
693.037	30520.68
693.383	30184.64
693.73	30259.22
694.077	30057.87
694.423	30002.28
694.769	29823.07
695.116	29752.11
695.462	29801.15
695.808	29633.47
696.155	29633.7
696.501	29330.43
696.847	29201.62
697.193	29180.83
697.539	29170.89
697.885	28995.3
698.231	28986.71
698.577	28855.19
698.923	28749.88
699.269	28500.85
699.614	28423.79
699.96	28238.71
700.306	28318.7
700.651	28019.05
700.997	27947.19
701.342	28008.66
701.688	27937.47
702.033	27788.1
702.379	27767.53
702.724	27544.04
703.069	27493.19
703.415	27210.94
703.76	27120.32
704.105	27226.76
704.45	27148.57
704.795	26910.15
705.14	26855.01
705.485	26786.99
705.83	26518.07
706.175	26752.19
706.52	26680.56
706.865	26459.09
707.209	26453.44
707.554	26334.35
707.899	26307.23
708.243	26247.8
708.588	26235.37
708.932	26029.27
709.277	25982.95
709.621	25868.37
709.966	25820.24
710.31	25797.64
710.654	25668.38
710.998	25680.13
711.342	25686.01
711.687	25577.53
712.031	25485.56
712.375	25399.69
712.719	25474.03
713.063	25256.86
713.407	25399.91
713.75	25307.71
714.094	25294.6
714.438	25027.04
714.782	25144.78
715.125	25053.03
715.469	25091.44
715.812	24918.79
716.156	24994.27
716.499	25006.02
716.843	24979.81
717.186	24792.24
717.53	24896.42
717.873	25048.96
718.216	24871.11
718.559	24717.67
718.902	24670.21
719.246	24699.14
719.589	24741.4
719.932	24558.8
720.275	24523.78
720.617	24573.04
720.96	24558.35
721.303	24527.39
721.646	24636.99
721.989	24519.71
722.331	24473.38
722.674	24488.75
723.016	24484.68
723.359	24421.18
723.701	24420.73
724.044	24342.09
724.386	24246.27
724.729	24545.47
725.071	24383.89
725.413	24354.29
725.755	24390.67
726.097	24230.22
726.439	24296.89
726.782	24197.23
727.124	24389.32
727.465	24305.7
727.807	24282.43
728.149	24272.71
728.491	24222.77
728.833	24284.23
729.175	24329.2
729.516	24174.18
729.858	24165.59
730.199	24386.38
730.541	24317.45
730.882	24271.35
731.224	24412.82
731.565	24267.29
731.906	24283.33
732.248	24387.73
732.589	24289.88
732.93	24277.45
733.271	24350.45
733.612	24421.18
733.953	24534.17
734.294	24330.79
734.635	24366.04
734.976	24515.87
735.317	24216.67
735.658	24417.11
735.999	24474.74
736.339	24368.75
736.68	24549.54
737.021	24556.54
737.361	24458.92
737.702	24740.04
738.042	24644.9
738.383	24668.41
738.723	24900.49
739.063	24730.78
739.404	24798.35
739.744	24869.3
740.084	24825.69
740.424	25024.1
740.764	24951.11
741.104	25069.98
741.444	24971.22
741.784	25019.81
742.124	25097.77
742.464	25201.05
742.804	25128.73
743.143	25245.11
743.483	25423.19
743.823	25363.3
744.162	25573.24
744.502	25709.73
744.841	25677.42
745.181	25860.92
745.52	25841.48
745.86	26006
746.199	26027.47
746.538	26178.87
746.877	26293.9
747.216	26426.1
747.556	26463.61
747.895	26638.3
748.234	26690.05
748.573	26753.1
748.911	26884.84
749.25	27043.94
749.589	27069.02
749.928	27329.8
750.267	27362.57
750.605	27479.63
750.944	27555.79
751.283	27666.29
751.621	28054.08
751.96	27947.87
752.298	28244.81
752.636	28406.39
752.975	28467.85
753.313	28571.13
753.651	28885.47
753.989	28786.94
754.327	29047.95
754.666	28962.08
755.004	29461.05
755.342	29512.57
755.679	29591.67
756.017	29532.68
756.355	29991.88
756.693	29954.59
757.031	30404.3
757.368	30290.63
757.706	30430.06
758.044	30433
758.381	30818.3
758.719	30761.8
759.056	31046.09
759.394	31101
759.731	31155.01
760.068	31289.02
760.405	31488.79
760.743	31392.3
761.08	31709.12
761.417	31678.84
761.754	31808.1
762.091	31891.04
762.428	31980.08
762.765	32010.13
763.102	32166.96
763.438	32234.53
763.775	32239.96
764.112	32477.01
764.449	32535.09
764.785	32432.27
765.122	32494.19
765.458	32403.57
765.795	32612.83
766.131	32802.43
766.467	32684.24
766.804	32673.39
767.14	32678.14
767.476	32740.28
767.812	32681.75
768.148	32856.66
768.485	32792.26
768.821	32786.84
769.157	32834.97
769.492	32657.57
769.828	32895.76
770.164	32665.48
770.5	32567.63
770.836	32768.08
771.171	32641.3
771.507	32659.61
771.842	32513.62
772.178	32614.64
772.513	32555.66
772.849	32615.77
773.184	32598.37
773.519	32593.17
773.855	32381.65
774.19	32573.73
774.525	32382.55
774.86	32312.95
775.195	32330.35
775.53	32124.48
775.865	32066.63
776.2	31879.29
776.535	31740.76
776.87	31845.62
777.205	31596.13
777.539	31671.16
777.874	31747.99
778.209	31449.02
778.543	31513.2
778.878	31363.6
779.212	31442.46
779.547	31244.05
779.881	31216.93
780.215	31069.59
780.55	31137.84
780.884	30863.04
781.218	30895.59
781.552	30906.21
781.886	30795.25
782.22	30674.12
782.554	30463.73
782.888	30335.6
783.222	30290.86
783.556	30078.88
783.889	30106.45
784.223	30011.99
784.557	29928.15
784.89	30026
785.224	29706.46
785.557	29645.22
785.891	29660.14
786.224	29672.79
786.558	29591.89
786.891	29431.9
787.224	29265.12
787.557	29038.01
787.891	29122.98
788.224	28940.38
788.557	29124.33
788.89	28977.22
789.223	28853.15
789.556	28715.76
789.888	28648.41
790.221	28532.26
790.554	28443.67
790.887	28379.72
791.219	28272.38
791.552	28266.05
791.884	28197.58
792.217	27991.26
792.549	27976.79
792.882	27843.91
793.214	27831.94
793.546	27629.01
793.879	27636.01
794.211	27470.14
794.543	27581.32
794.875	27486.18
795.207	27493.42
795.539	27379.07
795.871	27390.14
796.203	27350.14
796.535	27063.82
796.867	27037.16
797.198	26811.85
797.53	26916.03
797.862	26764.17
798.193	26826.77
798.525	26587
798.856	26742.47
799.188	26317.63
799.519	26259.78
799.85	26253.45
800.182	26221.13
800.513	26259.1
800.844	25869.5
801.175	26158.08
801.506	26001.48
801.837	25846
802.168	25894.81
802.499	25881.71
802.83	25639
803.161	25630.87
803.491	25542.05
803.822	25522.85
804.153	25380.25
804.483	25349.97
804.814	25126.25
805.145	25261.38
805.475	25135.74
805.805	25139.35
806.136	25092.8
806.466	24930.32
806.796	24956.76
807.126	24823.43
807.457	24821.85
807.787	24761.74
808.117	24742.3
808.447	24636.54
808.777	24686.03
809.107	24449.65
809.436	24273.61
809.766	24322.2
810.096	24375.08
810.426	24094.86
810.755	24266.83
811.085	24093.5
811.414	24161.53
811.744	23994.07
812.073	23962.21
812.403	23797.92
812.732	23863.91
813.061	23903.23
813.39	23739.16
813.719	23672.05
814.049	23855.77
814.378	23673.18
814.707	23551.15
815.036	23582.11
815.365	23357.93
815.693	23380.3
816.022	23320.42
816.351	23313.19
816.68	23163.81
817.008	23248.33
817.337	23111.38
817.665	23002.23
817.994	23072.29
818.322	23203.58
818.651	23122.46
818.979	23020.31
819.307	22934.44
819.636	23012.18
819.964	22741.68
820.292	22819.19
820.62	22830.71
820.948	22864.38
821.276	22961.33
821.604	22788.68
821.932	22943.03
822.259	22802.01
822.587	22797.49
822.915	22798.17
823.243	22748.91
823.57	22746.65
823.898	22892.63
824.225	22734.22
824.553	22801.56
824.88	22776.25
825.207	22840.88
825.535	22738.51
825.862	22941.9
826.189	22735.35
826.516	22895.12
826.843	22880.88
827.17	22933.08
827.497	22936.93
827.824	22945.29
828.151	23023.93
828.478	22851.28
828.805	22989.81
829.131	22899.86
829.458	22858.96
829.785	22822.35
830.111	22984.16
830.438	22969.24
830.764	22929.47
831.09	23021.44
831.417	22775.8
831.743	22932.18
832.069	22783.03
832.395	22790.94
832.722	22899.19
833.048	22818.28
833.374	22890.15
833.7	22798.4
834.026	22810.37
834.351	22766.76
834.677	22898.73
835.003	22847.66
835.329	22782.8
835.654	22642.92
835.98	22515.47
836.306	22738.29
836.631	22587.1
836.956	22726.54
837.282	22694.45
837.607	22562.25
837.932	22441.12
838.258	22458.52
838.583	22396.83
838.908	22437.05
839.233	22347.34
839.558	22308.47
839.883	22355.25
840.208	22247.68
840.533	22234.34
840.858	22214.68
841.182	22276.83
841.507	22316.83
841.832	22100.79
842.156	22121.81
842.481	22043.16
842.805	22005.42
843.13	21891.08
843.454	21858.31
843.778	21832.1
844.103	21807.92
844.427	21785.32
844.751	21716.17
845.075	21693.34
845.399	21672.78
845.723	21612.67
846.047	21577.86
846.371	21466.68
846.695	21392.33
847.019	21253.81
847.343	21219.68
847.666	21036.86
847.99	21020.59
848.313	20835.96
848.637	20923.19
848.96	20838.9
849.284	20837.09
849.607	20522.75
849.931	20715.06
850.254	20524.11
850.577	20425.35
850.9	20238.47
851.223	20262.65
851.546	20005.7
851.869	20066.72
852.192	20099.26
852.515	19883.45
852.838	19692.26
853.161	19817.23
853.483	19593.28
853.806	19638.25
854.129	19602.78
854.451	19486.85
854.774	19328.66
855.096	19363.23
855.419	19289.11
855.741	19200.3
856.063	19191.94
856.385	19182.67
856.708	19057.71
857.03	19071.26
857.352	18942.68
857.674	18874.43
857.996	18793.08
858.318	18747.43
858.64	18767.32
858.961	18689.35
859.283	18620.88
859.605	18508.34
859.926	18581.56
860.248	18478.29
860.57	18405.52
860.891	18472.64
861.212	18398.06
861.534	18326.65
861.855	18270.38
862.176	18360.77
862.498	18240.33
862.819	18226.54
863.14	18119.88
863.461	18125.53
863.782	18121.91
864.103	18021.35
864.424	17934.57
864.745	18095.7
865.065	18041.01
865.386	17909.71
865.707	17908.81
866.027	17887.34
866.348	17829.26
866.668	17855.48
866.989	17841.24
867.309	17617.97
867.63	17844.86
867.95	17803.05
868.27	17611.19
868.59	17691.64
868.91	17542.94
869.23	17605.31
869.55	17551.3
869.87	17559.44
870.19	17420.69
870.51	17457.3
870.83	17503.62
871.15	17324.87
871.469	17298.43
871.789	17395.83
872.109	17280.8
872.428	17285.55
872.748	17271.76
873.067	17196.51
873.386	17330.74
873.706	17283.29
874.025	17126.46
874.344	17085.1
874.663	17175.95
874.982	17125.78
875.301	16997.65
875.62	16936.63
875.939	16899.34
876.258	16972.34
876.577	16896.18
876.896	16911.09
877.214	16874.49
877.533	16823.19
877.852	16876.29
878.17	16792.45
878.489	16773.7
878.807	16789.97
879.125	16638.11
879.444	16633.59
879.762	16567.6
880.08	16711.33
880.398	16570.99
880.716	16604.66
881.034	16521.73
881.352	16543.65
881.67	16458.68
881.988	16379.58
882.306	16371
882.624	16391.79
882.941	16269.98
883.259	16311.56
883.577	16281.96
883.894	16194.96
884.212	16248.51
884.529	16079.93
884.846	16131.68
885.164	16038.35
885.481	15872.03
885.798	15902.08
886.115	15902.31
886.432	15983.89
886.75	15949.09
887.067	15820.28
887.383	15804.23
887.7	15762.88
888.017	15644.24
888.334	15691.24
888.651	15629.55
888.967	15584.58
889.284	15531.92
889.6	15522.43
889.917	15453.05
890.233	15491.47
890.55	15420.29
890.866	15430.23
891.182	15264.13
891.498	15292.38
891.815	15078.6
892.131	15085.38
892.447	14999.51
892.763	15004.93
893.079	15020.75
893.395	14923.35
893.71	14999.05
894.026	14886.29
894.342	14970.81
894.657	14767.2
894.973	14842
895.289	14697.59
895.604	14736.01
895.92	14575.56
896.235	14626.41
896.55	14540.76
896.865	14546.64
897.181	14482.23
897.496	14522.23
897.811	14376.47
898.126	14298.96
898.441	14345.06
898.756	14291.28
899.071	14198.85
899.386	14163.82
899.7	14035.46
900.015	13986.65
900.33	13831.85
900.644	13872.76
900.959	13973.32
901.273	13759.31
901.588	13762.93
901.902	13715.47
902.216	13678.64
902.531	13646.77
902.845	13550.28
903.159	13481.58
903.473	13392.77
903.787	13386.89
904.101	13328.14
904.415	13273.45
904.729	13294.01
905.042	13247.46
905.356	13193
905.67	13157.97
905.984	13138.09
906.297	13103.51
906.611	12910.52
906.924	12877.3
907.237	12837.98
907.551	12871.65
907.864	12748.94
908.177	12789.17
908.491	12755.5
908.804	12606.58
909.117	12643.64
909.43	12471.21
909.743	12451.1
910.056	12415.62
910.368	12363.19
910.681	12304.21
910.994	12177.21
911.307	12186.02
911.619	12122.07
911.932	12146.93
912.244	11894.05
912.557	11953.71
912.869	11906.71
913.181	11909.42
913.494	11864.45
913.806	11820.38
914.118	11741.97
914.43	11797.33
914.742	11635.98
915.054	11580.39
915.366	11630.56
915.678	11505.36
915.99	11471.46
916.302	11431.24
916.613	11356.21
916.925	11315.76
917.236	11262.66
917.548	11226.95
917.859	11240.74
918.171	11190.79
918.482	11166.39
918.794	11062.89
919.105	11000.52
919.416	10914.42
919.727	10966.39
920.038	10875.32
920.349	10839.84
920.66	10802.1
920.971	10753.06
921.282	10697.02
921.593	10653.41
921.903	10553.75
922.214	10569.34
922.525	10508.33
922.835	10440.53
923.146	10450.47
923.456	10384.49
923.767	10292.51
924.077	10265.62
924.387	10277.37
924.697	10299.07
925.008	10124.15
925.318	10118.28
925.628	10157.83
925.938	10036.47
926.248	10025.4
926.558	9953.09
926.867	9920.32
927.177	9862.92
927.487	9788.57
927.796	9828.34
928.106	9804.16
928.416	9708.8
928.725	9698.4
929.034	9689.14
929.344	9628.35
929.653	9619.54
929.962	9465.64
930.271	9449.82
930.581	9480.33
930.89	9436.72
931.199	9338.64
931.508	9335.7
931.817	9256.38
932.125	9320.11
932.434	9239.88
932.743	9137.97
933.051	9123.28
933.36	9085.54
933.669	8996.5
933.977	8992.66
934.286	8986.11
934.594	8927.58
934.902	8912.89
935.21	8833.57
935.519	8803.74
935.827	8758.99
936.135	8756.51
936.443	8596.29
936.751	8629.73
937.059	8630.86
937.367	8540.02
937.674	8584.76
937.982	8533.69
938.29	8507.47
938.597	8529.17
938.905	8366.91
939.213	8324.43
939.52	8342.05
939.827	8317.87
940.135	8276.75
940.442	8232.23
940.749	8224.54
941.056	8219.57
941.363	8134.83
941.67	8089.63
941.977	8043.98
942.284	8030.2
942.591	8009.18
942.898	7944.55
943.205	7946.58
943.511	7890.99
943.818	7840.37
944.125	7805.35
944.431	7751.56
944.738	7822.29
945.044	7753.14
945.35	7639.25
945.657	7598.57
945.963	7636.08
946.269	7525.8
946.575	7560.38
946.881	7519.25
947.187	7472.47
947.493	7436.99
947.799	7399.48
948.105	7331.23
948.41	7348.41
948.716	7319.48
949.022	7225.93
949.327	7243.33
949.633	7177.79
949.938	7135.31
950.244	7164.01
950.549	7108.87
950.854	7066.83
951.16	7055.53
951.465	6934.18
951.77	6975.99
952.075	6951.58
952.38	6884.92
952.685	6869.1
952.99	6875.43
953.294	6831.36
953.599	6821.87
953.904	6781.87
954.209	6747.97
954.513	6724.92
954.818	6669.56
955.122	6690.12
955.426	6701.87
955.731	6590.69
956.035	6522.67
956.339	6475.21
956.643	6533.51
956.948	6426.85
957.252	6458.04
957.556	6450.8
957.86	6418.49
958.163	6396.12
958.467	6358.83
958.771	6249.45
959.075	6301.43
959.378	6189.57
959.682	6266.4
959.985	6177.82
960.289	6161.55
960.592	6085.39
960.896	6113.19
961.199	6058.05
961.502	6053.53
961.805	6037.93
962.108	5990.93
962.411	5971.27
962.714	5961.78
963.017	5901.21
963.32	5924.27
963.623	5882.46
963.926	5885.62
964.228	5810.6
964.531	5830.26
964.833	5832.74
965.136	5700.54
965.438	5727.43
965.741	5670.71
966.043	5662.58
966.345	5629.13
966.648	5574.44
966.95	5592.3
967.252	5554.11
967.554	5553.88
967.856	5533.09
968.158	5467.78
968.46	5461
968.761	5408.57
969.063	5428.68
969.365	5389.59
969.666	5376.93
969.968	5370.38
970.269	5283.83
970.571	5291.06
970.872	5309.59
971.174	5262.59
971.475	5257.39
971.776	5194.34
972.077	5192.08
972.378	5150.95
972.679	5113.66
972.98	5089.48
973.281	5103.72
973.582	5107.56
973.883	5071.18
974.183	5042.93
974.484	5045.42
974.785	4939.21
975.085	4962.48
975.386	4932.2
975.686	4916.83
975.986	4906.21
976.287	4903.05
976.587	4851.52
976.887	4850.17
977.187	4827.57
977.487	4782.15
977.787	4734.92
978.087	4779.44
978.387	4719.55
978.687	4705.54
978.987	4695.37
979.286	4667.35
979.586	4605.66
979.885	4619.44
980.185	4557.07
980.484	4518.65
980.784	4524.08
981.083	4540.35
981.382	4515.71
981.682	4528.82
981.981	4505.09
982.28	4439.11
982.579	4404.31
982.878	4423.74
983.177	4368.6
983.475	4365.21
983.774	4333.57
984.073	4335.61
984.372	4240.02
984.67	4255.61
984.969	4275.95
985.267	4273.01
985.566	4226
985.864	4220.36
986.162	4166.35
986.461	4163.63
986.759	4097.19
987.057	4080.7
987.355	4100.36
987.653	4088.16
987.951	4055.39
988.249	4077.53
988.547	4085.44
988.844	4012.45
989.142	4024.2
989.44	3967.48
989.737	3984.66
990.035	3954.6
990.332	3946.92
990.63	3909.63
990.927	3871.21
991.224	3903.53
991.521	3831.89
991.819	3858.1
992.116	3828.95
992.413	3793.93
992.71	3777.2
993.006	3761.38
993.303	3733.14
993.6	3709.18
993.897	3734.72
994.193	3678.67
994.49	3684.1
994.787	3628.73
995.083	3623.08
995.379	3618.11
995.676	3619.92
995.972	3588.28
996.268	3584.89
996.565	3526.81
996.861	3509.87
997.157	3495.18
997.453	3492.24
997.749	3460.38
998.044	3459.92
998.34	3442.3
998.636	3413.37
998.932	3436.42
999.227	3336.54
999.523	3401.85
999.818	3354.39
1000.114	3328.63
1000.409	3296.31
1000.704	3328.18
1001	3277.56
1001.295	3216.54
1001.59	3235.75
1001.885	3197.78
1002.18	3168.63
1002.475	3173.83
1002.77	3136.99
1003.065	3114.17
1003.359	3124.34
1003.654	3098.12
1003.949	3052.93
1004.243	3048.41
1004.538	3043.66
1004.832	2991.01
1005.127	3024.68
1005.421	2997.11
1005.715	2979.94
1006.009	2940.39
1006.304	2946.26
1006.598	2911.91
1006.892	2877.57
1007.186	2870.56
1007.48	2885.93
1007.773	2831.01
1008.067	2830.11
1008.361	2854.06
1008.655	2779.26
1008.948	2798.7
1009.242	2792.6
1009.535	2753.28
1009.829	2718.47
1010.122	2716.44
1010.415	2706.72
1010.708	2701.53
1011.001	2694.52
1011.295	2667.63
1011.588	2627.18
1011.881	2592.15
1012.173	2616.78
1012.466	2590.12
1012.759	2604.13
1013.052	2567.97
1013.344	2572.26
1013.637	2500.17
1013.93	2546.27
1014.222	2516.67
1014.514	2455.88
1014.807	2464.47
1015.099	2442.32
1015.391	2445.03
1015.683	2405.04
1015.976	2445.49
1016.268	2382.21
1016.56	2390.35
1016.851	2351.25
1017.143	2343.34
1017.435	2337.92
1017.727	2307.64
1018.018	2300.86
1018.31	2331.14
1018.602	2289.56
1018.893	2227.87
1019.185	2196
1019.476	2198.94
1019.767	2222.22
1020.058	2177.7
1020.35	2160.97
1020.641	2141.99
1020.932	2161.88
1021.223	2132.95
1021.514	2131.37
1021.804	2103.57
1022.095	2086.17
1022.386	2063.8
1022.677	2061.99
1022.967	2044.59
1023.258	2026.97
1023.548	2058.38
1023.839	1988.78
1024.129	1989.91
1024.419	1971.6
1024.709	1946.29
1025	1964.37
1025.29	1935.22
1025.58	1942.22
1025.87	1904.48
1026.16	1863.35
1026.449	1892.73
1026.739	1841.43
1027.029	1837.14
1027.319	1848.67
1027.608	1863.13
1027.898	1813.19
1028.187	1794.43
1028.477	1795.11
1028.766	1767.99
1029.055	1752.85
1029.344	1762.79
1029.634	1762.57
1029.923	1713.98
1030.212	1727.31
1030.501	1714.43
1030.79	1710.36
1031.078	1680.53
1031.367	1679.4
1031.656	1673.53
1031.945	1622.68
1032.233	1647.32
1032.522	1620.88
1032.81	1612.06
1033.099	1591.72
1033.387	1581.1
1033.675	1584.49
1033.963	1556.24
1034.251	1582.91
1034.54	1522.35
1034.828	1506.75
1035.116	1512.86
1035.403	1521.44
1035.691	1505.85
1035.979	1508.34
1036.267	1466.3
1036.554	1491.39
1036.842	1453.42
1037.129	1450.03
1037.417	1443.93
1037.704	1443.48
1037.992	1428.56
1038.279	1393.08
1038.566	1389.02
1038.853	1389.02
1039.14	1389.02
