Data from 199_FLMS001491_009.txt Node
Date: Thu Apr 19 16:33:11 BST 2018
User: hsy
Spectrometer: FLMS00149
Trigger mode: 0
Integration Time (sec): 1.000000E-2
Scans to average: 10
Electric dark correction enabled: true
Nonlinearity correction enabled: false
Boxcar width: 0
XAxis mode: Wavelengths
Number of Pixels in Spectrum: 2048
>>>>>Begin Spectral Data<<<<<
341.393	-12.49
341.776	-12.49
342.16	-12.49
342.543	-42.54
342.927	-70.56
343.31	-74.18
343.693	-68.76
344.077	-73.27
344.46	-68.3
344.843	-56.78
345.226	-57.46
345.61	-13.84
345.993	-34.86
346.376	-15.42
346.759	28.19
347.142	42.65
347.525	59.6
347.908	80.17
348.291	62.31
348.674	89.66
349.057	100.28
349.44	107.74
349.823	146.61
350.206	194.06
350.588	247.62
350.971	246.26
351.354	273.16
351.737	283.33
352.119	293.95
352.502	292.59
352.884	340.5
353.267	315.87
353.65	364.45
354.032	369.65
354.414	360.61
354.797	393.83
355.179	360.39
355.562	363.78
355.944	387.96
356.326	366.26
356.709	394.96
357.091	403.55
357.473	393.15
357.855	395.41
358.238	389.76
358.62	383.21
359.002	389.54
359.384	411.68
359.766	379.37
360.148	425.02
360.53	415.3
360.912	391.12
361.294	411.23
361.676	401.74
362.057	379.37
362.439	373.27
362.821	393.38
363.203	399.71
363.584	375.53
363.966	386.15
364.348	404.23
364.729	416.43
365.111	406.94
365.493	381.85
365.874	408.07
366.256	396.54
366.637	395.41
367.019	382.08
367.4	394.74
367.781	379.59
368.163	379.14
368.544	394.06
368.925	374.4
369.306	394.28
369.688	378.69
370.069	397.9
370.45	402.87
370.831	371.69
371.212	394.06
371.593	406.03
371.974	370.78
372.355	400.61
372.736	411.91
373.117	416.66
373.498	412.36
373.879	412.59
374.26	403.55
374.641	396.09
375.021	405.58
375.402	393.61
375.783	401.97
376.163	432.25
376.544	417.56
376.925	430.67
377.305	420.27
377.686	431.12
378.066	415.98
378.447	415.98
378.827	426.82
379.208	445.58
379.588	427.5
379.968	411.46
380.349	436.77
380.729	445.13
381.109	426.37
381.489	443.32
381.87	447.62
382.25	446.03
382.63	429.08
383.01	444
383.39	440.61
383.77	460.72
384.15	465.24
384.53	465.69
384.91	453.94
385.29	480.83
385.67	474.06
386.049	469.76
386.429	475.41
386.809	477.67
387.189	474.06
387.568	488.97
387.948	455.98
388.328	495.52
388.707	505.69
389.087	485.58
389.466	488.74
389.846	484.9
390.225	524.68
390.605	512.92
390.984	515.64
391.363	508.63
391.743	508.18
392.122	517.67
392.501	526.26
392.881	527.39
393.26	524.45
393.639	540.95
394.018	549.08
394.397	558.8
394.776	555.18
395.155	544.34
395.534	533.71
395.913	561.96
396.292	548.86
396.671	540.49
397.05	540.72
397.429	561.28
397.808	561.06
398.186	559.7
398.565	586.59
398.944	566.26
399.323	565.58
399.701	555.86
400.08	604.22
400.458	549.53
400.837	612.13
401.215	598.8
401.594	595.41
401.972	586.14
402.351	611.68
402.729	613.49
403.107	620.49
403.486	632.7
403.864	618.23
404.242	641.06
404.62	647.84
404.999	640.6
405.377	656.88
405.755	658.91
406.133	662.52
406.511	664.11
406.889	651
407.267	676.54
407.645	674.95
408.023	674.05
408.401	699.36
408.779	713.15
409.156	738
409.534	699.81
409.912	715.4
410.29	724.9
410.667	741.62
411.045	753.14
411.422	736.42
411.8	741.17
412.178	772.35
412.555	794.5
412.933	768.74
413.31	777.32
413.687	792.01
414.065	806.7
414.442	818.45
414.819	844.44
415.197	810.77
415.574	853.48
415.951	852.12
416.328	853.48
416.705	844.22
417.082	852.35
417.46	871.78
417.837	867.94
418.214	873.82
418.591	872.46
418.967	889.41
419.344	891.22
419.721	910.65
420.098	910.88
420.475	891.22
420.852	898.45
421.228	927.6
421.605	927.6
421.982	939.58
422.358	950.2
422.735	983.65
423.111	956.08
423.488	952.01
423.864	969.41
424.241	970.99
424.617	971.67
424.994	1009.63
425.37	1016.41
425.746	1023.65
426.123	1033.14
426.499	1035.85
426.875	1036.75
427.251	1051.22
427.627	1055.73
428.003	1077.43
428.379	1095.06
428.756	1120.14
429.132	1098.9
429.507	1120.59
429.883	1108.61
430.259	1149.52
430.635	1166.24
431.011	1148.16
431.387	1201.27
431.763	1214.15
432.138	1216.63
432.514	1242.62
432.89	1253.7
433.265	1257.09
433.641	1270.87
434.016	1302.73
434.392	1319
434.767	1307.71
435.143	1342.51
435.518	1320.81
435.894	1355.16
436.269	1406.69
436.644	1352.9
437.02	1390.19
437.395	1406.01
437.77	1437.19
438.145	1428.61
438.52	1450.98
438.895	1455.95
439.271	1475.61
439.646	1455.27
440.021	1493.46
440.395	1485.1
440.77	1497.31
441.145	1506.8
441.52	1555.16
441.895	1521.71
442.27	1560.13
442.645	1513.8
443.019	1561.03
443.394	1578.43
443.769	1605.55
444.143	1559
444.518	1606.45
444.892	1590.18
445.267	1621.14
445.641	1623.4
446.016	1617.53
446.39	1647.58
446.764	1646
447.139	1650.97
447.513	1690.97
447.887	1698.88
448.262	1688.26
448.636	1701.37
449.01	1720.35
449.384	1717.86
449.758	1729.39
450.132	1763.74
450.506	1749.28
450.88	1780.69
451.254	1781.82
451.628	1802.38
452.002	1803.06
452.376	1848.93
452.75	1836.05
453.123	1842.83
453.497	1918.09
453.871	1908.14
454.244	1942.04
454.618	1962.38
454.992	1982.94
455.365	2011.87
455.739	2009.16
456.112	2008.25
456.486	2039.21
456.859	2078.31
457.232	2124.18
457.606	2112.88
457.979	2150.62
458.352	2188.59
458.725	2203.73
459.099	2217.29
459.472	2259.55
459.845	2291.86
460.218	2316.27
460.591	2304.52
460.964	2332.09
461.337	2360.33
461.71	2387.45
462.083	2459.99
462.456	2502.93
462.829	2476.49
463.201	2498.86
463.574	2476.71
463.947	2541.8
464.32	2548.35
464.692	2587.45
465.065	2653.21
465.438	2665.64
465.81	2653.66
466.183	2693.88
466.555	2760.55
466.928	2803.71
467.3	2765.07
467.672	2798.29
468.045	2907.21
468.417	2835.35
468.789	2905.18
469.161	2918.96
469.534	2992.41
469.906	2997.38
470.278	3033.31
470.65	3086.42
471.022	3096.13
471.394	3135.91
471.766	3216.36
472.138	3264.94
472.51	3256.81
472.882	3322.12
473.253	3326.86
473.625	3409.12
473.997	3473.3
474.369	3517.82
474.74	3503.81
475.112	3606.85
475.484	3605.72
475.855	3739.96
476.227	3714.42
476.598	3801.43
476.97	3851.14
477.341	3925.94
477.713	3987.64
478.084	4008.65
478.455	4167.29
478.827	4136.11
479.198	4270.57
479.569	4292.49
479.94	4374.52
480.311	4445.48
480.682	4540.39
481.053	4598.47
481.424	4678.46
481.795	4752.13
482.166	4809.76
482.537	4866.71
482.908	4982.86
483.279	5059.25
483.65	5147.38
484.021	5231.9
484.391	5289.97
484.762	5341.05
485.133	5360.93
485.503	5469.86
485.874	5556.63
486.244	5634.6
486.615	5789.4
486.985	5867.81
487.356	5980.8
487.726	6040.69
488.097	6123.17
488.467	6146
488.837	6342.83
489.207	6320.23
489.578	6423.28
489.948	6557.51
490.318	6624.4
490.688	6695.81
491.058	6769.48
491.428	6913.89
491.798	6927.9
492.168	7110.94
492.538	7106.2
492.908	7210.15
493.278	7376.47
493.648	7358.62
494.017	7435
494.387	7530.14
494.757	7634.77
495.126	7659.86
495.496	7755.45
495.866	7836.8
496.235	7834.99
496.605	7901.2
496.974	7962.67
497.344	8087.19
497.713	8156.11
498.082	8192.95
498.452	8234.08
498.821	8311.36
499.19	8324.47
499.559	8418.25
499.928	8535.76
500.298	8574.18
500.667	8669.09
501.036	8570.11
501.405	8804.68
501.774	8775.31
502.143	8872.48
502.512	8904.34
502.88	8974.85
503.249	8991.8
503.618	9053.26
503.987	9095.52
504.356	9197.44
504.724	9253.03
505.093	9277.89
505.462	9286.25
505.83	9338.23
506.199	9463.65
506.567	9542.07
506.936	9530.54
507.304	9667.71
507.672	9686.47
508.041	9829.29
508.409	9816.18
508.777	9931.66
509.145	10005.33
509.514	9982.28
509.882	10081.26
510.25	10131.43
510.618	10187.25
510.986	10177.75
511.354	10303.63
511.722	10445.32
512.09	10479.89
512.458	10493
512.826	10667.46
513.193	10586.78
513.561	10712.43
513.929	10794.24
514.297	10850.96
514.664	10904.74
515.032	10969.6
515.4	11080.78
515.767	11119.2
516.135	11113.1
516.502	11137.73
516.869	11384.5
517.237	11499.3
517.604	11422.92
517.972	11667.21
518.339	11699.3
518.706	11694.1
519.073	11854.55
519.44	11895
519.808	12032.85
520.175	12056.58
520.542	12219.51
520.909	12325.04
521.276	12371.14
521.643	12552.83
522.009	12576.34
522.376	12760.29
522.743	12865.14
523.11	12987.4
523.477	13062.65
523.843	13134.06
524.21	13363.21
524.577	13318.24
524.943	13565.91
525.31	13584.22
525.676	13806.36
526.043	13865.34
526.409	13905.11
526.776	14102.4
527.142	14233.24
527.508	14379.45
527.874	14501.26
528.241	14580.58
528.607	14677.3
528.973	14768.82
529.339	14847.24
529.705	15081.13
530.071	15074.12
530.437	15156.83
530.803	15410.84
531.169	15478.41
531.535	15590.72
531.901	15583.94
532.267	15679.98
532.632	15891.05
532.998	15942.12
533.364	15973.08
533.73	16145.73
534.095	16303.7
534.461	16396.12
534.826	16444.93
535.192	16506.4
535.557	16706.85
535.923	16749.79
536.288	16897.58
536.653	16944.36
537.019	16903.23
537.384	17024.81
537.749	17034.98
538.114	17171.47
538.479	17157.68
538.845	17365.36
539.21	17338.24
539.575	17511.57
539.94	17527.84
540.305	17649.87
540.67	17610.33
541.034	17821.4
541.399	17734.62
541.764	17923.99
542.129	17993.37
542.494	18014.61
542.858	18076.08
543.223	18210.99
543.587	18324.43
543.952	18233.14
544.316	18404.88
544.681	18292.34
545.045	18590.19
545.41	18624.99
545.774	18516.52
546.138	18603.75
546.503	18740.47
546.867	18862.5
547.231	18919.45
547.595	18973.68
547.959	19017.3
548.324	19129.84
548.688	19213.45
549.052	19296.16
549.416	19311.98
549.779	19328.02
550.143	19420.9
550.507	19569.15
550.871	19683.49
551.235	19675.36
551.599	19869.25
551.962	19886.88
552.326	19895.24
552.689	20055.24
553.053	19996.48
553.417	20157.38
553.78	20412.74
554.143	20387.88
554.507	20436.92
554.87	20483.92
555.234	20696.8
555.597	20689.79
555.96	20818.83
556.323	20980.63
556.686	20989.67
557.05	21163
557.413	21117.35
557.776	21278.48
558.139	21557.12
558.502	21612.71
558.865	21593.5
559.228	21898.8
559.59	21850.44
559.953	21937.67
560.316	22284.56
560.679	22266.02
561.041	22524.1
561.404	22509.86
561.767	22780.59
562.129	22817.65
562.492	23089.96
562.854	23049.28
563.217	23192.1
563.579	23479.1
563.941	23426.9
564.304	23681.35
564.666	23989.82
565.028	23961.8
565.39	24067.56
565.753	24398.17
566.115	24493.54
566.477	24690.59
566.839	24864.15
567.201	25010.59
567.563	25046.74
567.925	25449.22
568.287	25385.94
568.648	25604.24
569.01	25857.79
569.372	26134.85
569.734	26091.01
570.095	26414.16
570.457	26657.77
570.819	26830.42
571.18	26814.61
571.542	27240.58
571.903	27195.16
572.265	27553.12
572.626	27717.41
572.987	27791.3
573.349	27966.67
573.71	28238.75
574.071	28307
574.432	28676.25
574.794	28837.38
575.155	28934.1
575.516	28883.93
575.877	29083.92
576.238	29205.96
576.599	29388.1
576.96	29567.3
577.32	29686.62
577.681	29786.5
578.042	30101.07
578.403	30106.5
578.763	30151.69
579.124	30331.58
579.485	30616.99
579.845	30544
580.206	30625.35
580.566	30755.07
580.927	30723.43
581.287	31005
581.648	30995.74
582.008	31395.5
582.368	31440.7
582.728	31642.5
583.089	31604.54
583.449	31769.05
583.809	31867.13
584.169	32063.73
584.529	32123.84
584.889	32466.43
585.249	32425.31
585.609	32481.35
585.969	32811.51
586.329	32810.61
586.688	33109.81
587.048	33470.02
587.408	33510.47
587.768	33657.59
588.127	33907.53
588.487	34098.93
588.846	34662.31
589.206	34644.23
589.565	34976.65
589.925	35528.73
590.284	35780.92
590.643	36082.38
591.003	36353.79
591.362	36957.16
591.721	37259.75
592.08	37581.1
592.44	37893.41
592.799	38346.73
593.158	38622.88
593.517	38967.73
593.876	39662.63
594.235	39937.42
594.593	40387.13
594.952	40894.91
595.311	41341.23
595.67	41752.29
596.029	42491.26
596.387	42969.89
596.746	43533.94
597.104	43650.1
597.463	44137.31
597.822	44808.48
598.18	45104.52
598.538	45683.26
598.897	46098.17
599.255	46355.79
599.613	47329.55
599.972	47470.79
600.33	48040.71
600.688	48420.14
601.046	48867.13
601.404	49507.12
601.762	49821.01
602.12	50249.02
602.478	50611.95
602.836	51110.92
603.194	51202.89
603.552	51782.08
603.91	51976.66
604.268	52496.64
604.625	52696.19
604.983	53134.14
605.341	53232.67
605.698	53830.62
606.056	54168.24
606.413	54281.45
606.771	54790.82
607.128	55019.06
607.485	55106.29
607.843	55434.64
608.2	55826.05
608.557	56158.24
608.914	56307.62
609.272	56638
609.629	56885.23
609.986	57194.82
610.343	57279.34
610.7	57630.29
611.057	57773.79
611.414	57936.27
611.771	58271.41
612.127	58467.56
612.484	58619.42
612.841	58909.36
613.198	58956.13
613.554	59091.95
613.911	59448.55
614.267	59651.71
614.624	59742.55
614.98	59921.08
615.337	60197.46
615.693	60256.44
616.05	60383.44
616.406	60632.93
616.762	60636.09
617.118	60781.62
617.475	60879.25
617.831	61112.69
618.187	61278.56
618.543	61357.43
618.899	61575.05
619.255	61604.65
619.611	61675.16
619.967	61911.76
620.323	61991.08
620.678	62027.24
621.034	62010.29
621.39	62175.94
621.746	62246.22
622.101	62571.63
622.457	62399.21
622.812	62590.39
623.168	62656.83
623.523	62722.14
623.879	62870.83
624.234	62801.46
624.589	62930.04
624.945	63002.35
625.3	63079.19
625.655	63155.8
626.01	63188.34
626.365	63245.06
626.72	63285.74
627.075	63295.91
627.43	63359.63
627.785	63391.95
628.14	63423.36
628.495	63487.99
628.85	63511.04
629.205	63478.5
629.559	63527.09
629.914	63526.86
630.269	63522.57
630.623	63488.9
630.978	63506.3
631.332	63515.11
631.687	63527.09
632.041	63525.73
632.396	63527.09
632.75	63522.34
633.104	63527.09
633.459	63518.27
633.813	63521.44
634.167	63523.02
634.521	63527.09
634.875	63527.09
635.229	63527.09
635.583	63517.82
635.937	63523.02
636.291	63520.31
636.645	63527.09
636.999	63491.16
637.352	63524.6
637.706	63503.13
638.06	63519.4
638.413	63504.71
638.767	63478.95
639.121	63507.65
639.474	63450.25
639.828	63476.92
640.181	63478.95
640.534	63507.88
640.888	63420.65
641.241	63313.53
641.594	63447.31
641.947	63437.37
642.301	63346.3
642.654	63389.01
643.007	63348.33
643.36	63419.97
643.713	63363.02
644.066	63461.33
644.419	63290.26
644.771	63034.67
645.124	62838.52
645.477	62840.55
645.83	62728.01
646.182	62739.08
646.535	62685.3
646.888	62735.47
647.24	62676.94
647.593	62777.28
647.945	62636.71
648.298	62621.12
648.65	62470.84
649.002	62380.9
649.355	62345.65
649.707	62276.5
650.059	62290.28
650.411	62584.29
650.763	62736.37
651.115	63081.67
651.467	62981.56
651.819	62921
652.171	62936.14
652.523	62892.53
652.875	62951.06
653.227	62803.49
653.578	63015.69
653.93	62860.89
654.282	62770.27
654.633	62758.07
654.985	62802.36
655.337	62832.19
655.688	62783.83
656.039	62877.39
656.391	62637.17
656.742	62690.95
657.094	62643.72
657.445	62700.44
657.796	62700.67
658.147	62598.3
658.498	62690.72
658.849	62689.59
659.2	62620.9
659.551	62571.41
659.902	62792.19
660.253	62568.92
660.604	62675.81
660.955	62558.3
661.306	62699.76
661.656	62619.31
662.007	62592.2
662.358	62570.73
662.708	62641.46
663.059	62624.51
663.409	62436.04
663.76	62602.82
664.11	62645.98
664.461	62634.68
664.811	62596.49
665.161	62641.69
665.511	62542.48
665.862	62580.9
666.212	62678.07
666.562	62654.57
666.912	62564.4
667.262	62558.07
667.612	62600.11
667.962	62604.63
668.312	62528.24
668.662	62635.58
669.011	62615.7
669.361	62594.68
669.711	62574.8
670.06	62517.17
670.41	62475.36
670.76	62488.7
671.109	62632.19
671.459	62506.32
671.808	62542.48
672.157	62548.81
672.507	62452.31
672.856	62390.17
673.205	62469.04
673.554	62503.61
673.904	62435.36
674.253	62625.42
674.602	62462.03
674.951	62152.43
675.3	62048.48
675.649	62361.47
675.998	62446.89
676.346	62438.53
676.695	62445.31
677.044	62317.63
677.393	62286.67
677.741	62415.7
678.09	62375.93
678.438	62299.77
678.787	62277.63
679.135	62349.04
679.484	62214.13
679.832	62237.4
680.181	62122.15
680.529	62189.27
680.877	62087.8
681.225	62077.86
681.573	62253
681.922	62131.42
682.27	61995.83
682.618	61999.44
682.966	61950.4
683.314	61922.38
683.661	61953.57
684.009	61843.97
684.357	61810.75
684.705	61732.33
685.053	61784.76
685.4	61656.18
685.748	61608.04
686.095	61583.18
686.443	61487.14
686.79	61493.47
687.138	61519.68
687.485	61496.41
687.832	61410.98
688.18	61389.74
688.527	61278.11
688.874	61269.97
689.221	61249.18
689.568	61162.63
689.915	61087.6
690.262	61173.25
690.609	61066.36
690.956	60975.52
691.303	60975.06
691.65	60855.74
691.997	60786.37
692.344	60683.55
692.69	60624.11
693.037	60642.19
693.383	60431.12
693.73	60494.85
694.077	60371.46
694.423	60348.64
694.769	60300.28
695.116	60294.4
695.462	60153.39
695.808	60058.48
696.155	60076.78
696.501	59933.06
696.847	59960.17
697.193	59810.35
697.539	59804.02
697.885	59618.49
698.231	59554.31
698.577	59568.77
698.923	59554.99
699.269	59355.44
699.614	59324.03
699.96	59265.96
700.306	59240.42
700.651	59149.35
700.997	58998.62
701.342	59004.72
701.688	58901.67
702.033	58904.16
702.379	58890.6
702.724	58728.79
703.069	58764.73
703.415	58544.17
703.76	58561.12
704.105	58569.25
704.45	58478.86
704.795	58324.29
705.14	58249.26
705.485	58320.9
705.83	58101.47
706.175	58215.81
706.52	58091.98
706.865	57936.27
707.209	57921.58
707.554	57869.16
707.899	57853.34
708.243	57759.78
708.588	57768.82
708.932	57644.98
709.277	57649.28
709.621	57512.78
709.966	57363.41
710.31	57381.03
710.654	57277.08
710.998	57235.5
711.342	57293.13
711.687	57197.99
712.031	57149.63
712.375	57054.94
712.719	56955.96
713.063	56931.78
713.407	57119.12
713.75	56867.37
714.094	56892.01
714.438	56700.37
714.782	56729.07
715.125	56546.03
715.469	56724.78
715.812	56433.94
716.156	56433.49
716.499	56388.74
716.843	56436.88
717.186	56219.03
717.53	56415.86
717.873	56328.86
718.216	56267.39
718.559	56155.08
718.902	55937.46
719.246	56071.92
719.589	55892.03
719.932	55874.86
720.275	55852.03
720.617	55911.47
720.96	55843.67
721.303	55780.85
721.646	55837.35
721.989	55592.15
722.331	55708.54
722.674	55590.35
723.016	55669.67
723.359	55539.95
723.701	55624.02
724.044	55421.31
724.386	55265.38
724.729	55403.23
725.071	55370.92
725.413	55359.62
725.755	55254.76
726.097	55130.92
726.439	55043.24
726.782	55006.41
727.124	55175.22
727.465	55079.63
727.807	54886.18
728.149	54979.51
728.491	54870.59
728.833	54942.23
729.175	54868.33
729.516	54724.83
729.858	54690.26
730.199	54812.97
730.541	54648.9
730.882	54583.14
731.224	54595.57
731.565	54525.52
731.906	54477.16
732.248	54580.2
732.589	54379.08
732.93	54277.84
733.271	54336.59
733.612	54313.32
733.953	54306.99
734.294	54296.37
734.635	54128.46
734.976	54264.73
735.317	54133.44
735.658	54061.12
735.999	54048.69
736.339	54005.53
736.68	54049.82
737.021	53995.36
737.361	53871.07
737.702	54044.62
738.042	53799.88
738.383	53948.13
738.723	53878.07
739.063	53749.26
739.404	53835.82
739.744	53754.69
740.084	53630.4
740.424	53670.62
740.764	53586.11
741.104	53750.39
741.444	53521.25
741.784	53513.79
742.124	53602.83
742.464	53471.98
742.804	53453.91
743.143	53428.37
743.483	53405.32
743.823	53248.94
744.162	53282.38
744.502	53325.32
744.841	53157.87
745.181	53314.25
745.52	53230.63
745.86	53304.3
746.199	53184.99
746.538	53046.01
746.877	53187.25
747.216	53068.15
747.556	52993.58
747.895	53074.71
748.234	52981.38
748.573	52916.52
748.911	52883.52
749.25	52848.5
749.589	52648.05
749.928	52843.07
750.267	52770.99
750.605	52652.34
750.944	52607.37
751.283	52594.72
751.621	52612.12
751.96	52505.91
752.298	52356.08
752.636	52436.53
752.975	52325.35
753.313	52281.28
753.651	52448.51
753.989	52159.48
754.327	52058.46
754.666	51916.32
755.004	52000.61
755.342	51955.87
755.679	51990.67
756.017	51754.06
756.355	51818.92
756.693	51662.54
757.031	51737.57
757.368	51589.1
757.706	51444.92
758.044	51355.43
758.381	51411.02
758.719	51183.91
759.056	51310.46
759.394	51165.15
759.731	50818.72
760.068	50960.86
760.405	50850.58
760.743	50652.17
761.08	50758.83
761.417	50469.35
761.754	50542.12
762.091	50457.37
762.428	50234.1
762.765	50201.34
763.102	50221.45
763.438	50010.38
763.775	49821.68
764.112	49987.1
764.449	49894.68
764.785	49819.65
765.122	49528.58
765.458	49395.25
765.795	49240.46
766.131	49302.15
766.467	49165.2
766.804	48981.93
767.14	48857.19
767.476	48710.98
767.812	48750.07
768.148	48715.95
768.485	48414.26
768.821	48251.33
769.157	48067.83
769.492	47998
769.828	47944.9
770.164	47649.54
770.5	47485.47
770.836	47524.8
771.171	47361.18
771.507	47229.89
771.842	46867.19
772.178	46948.77
772.513	46822.67
772.849	46626.29
773.184	46738.15
773.519	46505.61
773.855	46191.05
774.19	46154.89
774.525	45873.54
774.86	45882.8
775.195	45565.07
775.53	45479.88
775.865	45334.34
776.2	45181.13
776.535	44906.56
776.87	44951.76
777.205	44725.77
777.539	44647.36
777.874	44584.31
778.209	44203.98
778.543	44212.79
778.878	43940.94
779.212	43965.57
779.547	43646.71
779.881	43663.65
780.215	43329.65
780.55	43312.93
780.884	43004.91
781.218	43106.83
781.552	43036.1
781.886	42670.46
782.22	42570.8
782.554	42439.73
782.888	42081.32
783.222	41942.8
783.556	41691.05
783.889	41616.93
784.223	41326.31
784.557	41391.4
784.89	41397.73
785.224	41134.91
785.557	40991.41
785.891	40999.54
786.224	40808.36
786.558	40791.19
786.891	40387.58
787.224	40186.46
787.557	40080.02
787.891	40123.18
788.224	39767.94
788.557	39906.01
788.89	39764.32
789.223	39574.27
789.556	39263.77
789.888	39323.2
790.221	39047.05
790.554	38988.3
790.887	38923.21
791.219	38601.87
791.552	38607.06
791.884	38476.9
792.217	38451.14
792.549	38266.06
792.882	37851.83
793.214	37829.23
793.546	37855.22
793.879	37819.74
794.211	37401.67
794.543	37562.12
794.875	37372.07
795.207	37218.17
795.539	37225.41
795.871	37153.99
796.203	36861.57
796.535	36616.83
796.867	36747.23
797.198	36508.14
797.53	36407.57
797.862	36125.1
798.193	36260.01
798.525	35922.84
798.856	36025.21
799.188	35636.97
799.519	35522.17
799.85	35390.2
800.182	35400.37
800.513	35512
800.844	35014.84
801.175	35223.2
801.506	35088.06
801.837	34823.43
802.168	34792.25
802.499	34770.33
802.83	34604.46
803.161	34427.96
803.491	34386.61
803.822	34425.7
804.153	34140.29
804.483	34009.67
804.814	33737.59
805.145	33927.64
805.475	33930.12
805.805	33673.63
806.136	33726.74
806.466	33551.15
806.796	33476.58
807.126	33236.36
807.457	33305.73
807.787	33259.63
808.117	33061.22
808.447	32993.65
808.777	33077.27
809.107	32752.53
809.436	32613.32
809.766	32784.84
810.096	32785.97
810.426	32490.61
810.755	32465.76
811.085	32528.81
811.414	32244.97
811.744	32115.94
812.073	32133.79
812.403	32063.28
812.732	31866
813.061	32032.55
813.39	31703.52
813.719	31734.25
814.049	31900.35
814.378	31749.84
814.707	31587.14
815.036	31528.38
815.365	31454.48
815.693	31194.15
816.022	31209.97
816.351	31060.6
816.68	30999.35
817.008	31006.36
817.337	30717.55
817.665	30775.18
817.994	30733.37
818.322	30730.21
818.651	30599.36
818.979	30507.84
819.307	30536.77
819.636	30505.58
819.964	30357.79
820.292	30465.81
820.62	30291.8
820.948	30391.01
821.276	30447.96
821.604	30235.08
821.932	30490.44
822.259	30343.78
822.587	30347.62
822.915	30336.77
823.243	30291.58
823.57	30151.92
823.898	30365.47
824.225	30182.65
824.553	30051.81
824.88	30161.64
825.207	30342.42
825.535	30153.95
825.862	30314.4
826.189	30086.16
826.516	30528.63
826.843	30324.57
827.17	30379.48
827.497	30306.72
827.824	30283.67
828.151	30399.14
828.478	30180.84
828.805	30304.68
829.131	30347.85
829.458	30398.24
829.785	30159.38
830.111	30232.59
830.438	30366.6
830.764	30226.27
831.09	30315.08
831.417	30078.93
831.743	30277.11
832.069	30190.11
832.395	29973.84
832.722	30209.54
833.048	30111.47
833.374	30213.61
833.7	30068.53
834.026	30174.52
834.351	30054.52
834.677	30040.51
835.003	30007.29
835.329	29959.38
835.654	29847.29
835.98	29886.62
836.306	29994.64
836.631	29828.09
836.956	29864.92
837.282	29870.12
837.607	29643.68
837.932	29656.34
838.258	29716.22
838.583	29732.95
838.908	29489.34
839.233	29556.68
839.558	29412.05
839.883	29454.54
840.208	29134.32
840.533	29393.97
840.858	29296.12
841.182	29328.44
841.507	29232.85
841.832	29073.76
842.156	29203.92
842.481	29078.5
842.805	28892.29
843.13	29029.46
843.454	28789.47
843.778	28750.37
844.103	28827.89
844.427	28616.59
844.751	28627.67
845.075	28537.05
845.399	28559.64
845.723	28357.62
846.047	28348.58
846.371	28153.55
846.695	28093.44
847.019	28007.12
847.343	27888.02
847.666	27745.43
847.99	27586.11
848.313	27563.96
848.637	27469.05
848.96	27318.32
849.284	27347.92
849.607	27102.06
849.931	27043.3
850.254	26862.29
850.577	26605.35
850.9	26506.59
851.223	26522.41
851.546	26412.81
851.869	26346.82
852.192	26417.33
852.515	26008.07
852.838	25985.7
853.161	25945.25
853.483	25813.95
853.806	25834.74
854.129	25611.93
854.451	25602.43
854.774	25474.75
855.096	25397.24
855.419	25316.57
855.741	25295.1
856.063	25169.9
856.385	25081.09
856.708	25033.18
857.03	24903.24
857.352	24911.38
857.674	24804.04
857.996	24729.69
858.318	24562.24
858.64	24565.85
858.961	24533.54
859.283	24501.45
859.605	24326.99
859.926	24373.31
860.248	24251.51
860.57	24138.52
860.891	24283.37
861.212	24061.68
861.534	24015.81
861.855	23936.04
862.176	23953.44
862.498	23941.46
862.819	23830.28
863.14	23841.35
863.461	23739.66
863.782	23698.76
864.103	23645.65
864.424	23625.09
864.745	23546.22
865.065	23528.59
865.386	23405.43
865.707	23365.88
866.027	23435.03
866.348	23480
866.668	23382.38
866.989	23324.08
867.309	23246.11
867.63	23139.45
867.95	23247.92
868.27	23003.41
868.59	23048.83
868.91	23053.8
869.23	22956.18
869.55	22926.8
869.87	22888.16
870.19	22894.03
870.51	22759.12
870.83	22864.2
871.15	22602.97
871.469	22557.09
871.789	22748.27
872.109	22642.74
872.428	22517.09
872.748	22599.8
873.067	22576.75
873.386	22546.47
873.706	22496.08
874.025	22353.71
874.344	22294.05
874.663	22382.18
874.982	22256.99
875.301	22301.5
875.62	22078.01
875.939	22097.44
876.258	22090.21
876.577	21899.71
876.896	21987.61
877.214	22034.17
877.533	21918.24
877.852	22015.86
878.17	22037.56
878.489	21960.27
878.807	21885.92
879.125	21764.57
879.444	21790.56
879.762	21648.64
880.08	21787.17
880.398	21551.69
880.716	21565.03
881.034	21518.93
881.352	21455.2
881.67	21482.99
881.988	21447.74
882.306	21342.21
882.624	21490.23
882.941	21243.45
883.259	21226.96
883.577	21161.42
883.894	21117.35
884.212	21091.59
884.529	20982.22
884.846	20981.09
885.164	20939.05
885.481	20888.66
885.798	20868.55
886.115	20645.5
886.432	20738.38
886.75	20751.71
887.067	20599.4
887.383	20585.62
887.7	20583.13
888.017	20383.59
888.334	20525.05
888.651	20389.46
888.967	20337.94
889.284	20126.65
889.6	20151.05
889.917	20105.86
890.233	20090.49
890.55	20103.82
890.866	20037.16
891.182	19989.47
891.498	20009.81
891.815	19917.16
892.131	19763.94
892.447	19796.26
892.763	19670.16
893.079	19566.89
893.395	19511.29
893.71	19457.06
894.026	19403.95
894.342	19455.48
894.657	19194.24
894.973	19325.99
895.289	19296.39
895.604	19107.24
895.92	19036.05
896.235	19033.57
896.55	18953.12
896.865	18841.48
897.181	18866.11
897.496	18744.31
897.811	18806.45
898.126	18610.98
898.441	18742.73
898.756	18605.56
899.071	18436.29
899.386	18365.11
899.7	18315.85
900.015	18145.68
900.33	18168.05
900.644	18108.39
900.959	18072.24
901.273	17940.26
901.588	17836.31
901.902	17864.33
902.216	17813.94
902.531	17777.1
902.845	17619.82
903.159	17526.26
903.473	17501.18
903.787	17468.86
904.101	17338.24
904.415	17485.81
904.729	17268.19
905.042	17105.48
905.356	17103.22
905.67	17119.04
905.984	17156.55
906.297	17000.17
906.611	16872.04
906.924	16861.2
907.237	16848.54
907.551	16747.75
907.864	16616.46
908.177	16677.25
908.491	16594.54
908.804	16474.76
909.117	16381.89
909.43	16306.63
909.743	16260.53
910.056	16190.25
910.368	16127.43
910.681	16077.94
910.994	15950.03
911.307	15936.93
911.619	15743.94
911.932	15843.82
912.244	15734.22
912.557	15668.01
912.869	15537.84
913.181	15427.11
913.494	15548.91
913.806	15374
914.118	15247
914.43	15258.53
914.742	15168.81
915.054	15131.98
915.366	15070.96
915.678	15048.59
915.99	14928.82
916.302	14854.47
916.613	14770.4
916.925	14763.17
917.236	14741.7
917.548	14683.17
917.859	14637.3
918.171	14599.79
918.482	14507.36
918.794	14386.23
919.105	14359.79
919.416	14280.92
919.727	14250.19
920.038	14205.22
920.349	14075.51
920.66	13989.63
920.971	13980.59
921.282	13943.53
921.593	13824.44
921.903	13832.8
922.214	13794.61
922.525	13690.66
922.835	13552.58
923.146	13504.9
923.456	13479.36
923.767	13399.37
924.077	13427.39
924.387	13378.35
924.697	13241.63
925.008	13247.73
925.318	13230.1
925.628	13165.7
925.938	13062.88
926.248	12943.11
926.558	12883.45
926.867	12892.94
927.177	12883.22
927.487	12730.91
927.796	12681.42
928.106	12644.81
928.416	12623.34
928.725	12614.98
929.034	12461.54
929.344	12478.03
929.653	12409.79
929.962	12374.53
930.271	12251.37
930.581	12184.71
930.89	12238.27
931.199	12098.61
931.508	12032.85
931.817	12027.2
932.125	11984.04
932.434	11934.32
932.743	11891.38
933.051	11763.02
933.36	11751.5
933.669	11675.79
933.977	11618.17
934.286	11588.34
934.594	11553.76
934.902	11494.78
935.21	11451.62
935.519	11349.48
935.827	11299.99
936.135	11253.43
936.443	11159.65
936.751	11154.9
937.059	11176.15
937.367	11089.14
937.674	11033.33
937.982	10972.54
938.29	10920.56
938.597	10892.99
938.905	10759.43
939.213	10751.07
939.52	10656.39
939.827	10671.98
940.135	10676.72
940.442	10609.16
940.749	10540.68
941.056	10585.65
941.363	10527.35
941.67	10427.92
941.977	10372.1
942.284	10334.36
942.591	10408.48
942.898	10319.67
943.205	10279.22
943.511	10139.56
943.818	10161.26
944.125	9950.19
944.431	9993.58
944.738	10009.17
945.044	9899.57
945.35	9840.14
945.657	9864.54
945.963	9871.55
946.269	9748.84
946.575	9788.61
946.881	9655.73
947.187	9651.22
947.493	9576.64
947.799	9478.11
948.105	9437.66
948.41	9403.09
948.716	9348.4
949.022	9348.62
949.327	9314.73
949.633	9288.96
949.938	9245.12
950.244	9214.84
950.549	9132.36
950.854	9036.77
951.16	9099.59
951.465	8956.09
951.77	8973.94
952.075	8930.78
952.38	8928.75
952.685	8909.77
952.99	8814.4
953.294	8765.14
953.599	8816.89
953.904	8686.95
954.209	8655.31
954.513	8639.94
954.818	8616.67
955.122	8568.08
955.426	8544.13
955.731	8483.11
956.035	8445.82
956.339	8438.14
956.643	8382.32
956.948	8327.18
957.252	8318.82
957.556	8347.52
957.86	8210.58
958.163	8227.3
958.467	8170.35
958.771	8133.06
959.075	8085.15
959.378	8039.28
959.682	8072.95
959.985	7958.83
960.289	7903.92
960.592	7873.41
960.896	7872.96
961.199	7901.2
961.502	7752.51
961.805	7710.7
962.108	7629.8
962.411	7658.05
962.714	7634.09
963.017	7563.13
963.32	7601.78
963.623	7559.97
963.926	7533.53
964.228	7433.65
964.531	7443.59
964.833	7432.52
965.136	7326.53
965.438	7277.94
965.741	7275.23
966.043	7281.79
966.345	7213.09
966.648	7186.65
966.95	7138.29
967.252	7082.24
967.554	7127.21
967.856	7139.87
968.158	7007.67
968.46	7060.32
968.761	6944.85
969.063	6960.89
969.365	6960.21
969.666	6890.61
969.968	6772.19
970.269	6835.7
970.571	6815.13
970.872	6721.35
971.174	6710.28
971.475	6715.7
971.776	6642.71
972.077	6633.89
972.378	6604.29
972.679	6611.07
972.98	6546.66
973.281	6455.59
973.582	6507.34
973.883	6461.24
974.183	6384.41
974.484	6395.26
974.785	6325.88
975.085	6359.32
975.386	6285.43
975.686	6224.86
975.986	6250.17
976.287	6242.27
976.587	6164.75
976.887	6181.93
977.187	6130.63
977.487	6098.77
977.787	6045.89
978.087	6029.39
978.387	5998.2
978.687	5941.71
978.987	5873.24
979.286	5936.74
979.586	5877.98
979.885	5872.56
980.185	5835.72
980.484	5796.18
980.784	5769.28
981.083	5775.38
981.382	5742.17
981.682	5675.27
981.981	5703.07
982.28	5665.33
982.579	5594.37
982.878	5620.13
983.177	5603.19
983.475	5520.93
983.774	5543.07
984.073	5490.65
984.372	5416.98
984.67	5440.93
984.969	5406.81
985.267	5384.21
985.566	5342.63
985.864	5297.66
986.162	5320.71
986.461	5273.93
986.759	5254.95
987.057	5186.02
987.355	5190.32
987.653	5156.42
987.951	5149.64
988.249	5099.7
988.547	5128.17
988.844	5101.5
989.142	5053.14
989.44	5030.77
989.737	5025.35
990.035	4953.94
990.332	4934.5
990.63	4889.98
990.927	4930.21
991.224	4891.79
991.521	4866.26
991.819	4855.86
992.116	4826.03
992.413	4792.13
992.71	4751.46
993.006	4759.82
993.303	4707.62
993.6	4716.43
993.897	4670.33
994.193	4683.89
994.49	4630.78
994.787	4593.72
995.083	4601.86
995.379	4528.64
995.676	4488.64
995.972	4500.16
996.268	4489.77
996.565	4442.76
996.861	4487.28
997.157	4434.18
997.453	4355.54
997.749	4378.59
998.044	4327.06
998.34	4335.65
998.636	4317.57
998.932	4258.14
999.227	4284.8
999.523	4238.02
999.818	4225.14
1000.114	4172.49
1000.409	4130.23
1000.704	4125.94
1001	4086.62
1001.295	4075.32
1001.59	4064.92
1001.885	4035.77
1002.18	4005.26
1002.475	3979.73
1002.77	3968.88
1003.065	3936.11
1003.359	3947.41
1003.654	3919.16
1003.949	3908.32
1004.243	3835.77
1004.538	3846.85
1004.832	3843.23
1005.127	3802.56
1005.421	3764.36
1005.715	3781.99
1006.009	3734.31
1006.304	3689.11
1006.598	3650.92
1006.892	3683.91
1007.186	3654.99
1007.48	3628.55
1007.773	3590.81
1008.067	3574.76
1008.361	3537.93
1008.655	3527.76
1008.948	3491.83
1009.242	3506.97
1009.535	3485.28
1009.829	3422.23
1010.122	3414.77
1010.415	3400.98
1010.708	3390.36
1011.001	3363.24
1011.295	3336.58
1011.588	3283.92
1011.881	3303.81
1012.173	3277.15
1012.466	3263.81
1012.759	3230.59
1013.052	3226.75
1013.344	3212.51
1013.637	3183.14
1013.93	3123.03
1014.222	3116.02
1014.514	3101.33
1014.807	3109.92
1015.099	3080.54
1015.391	3027.21
1015.683	3043.48
1015.976	2976.36
1016.268	2992.18
1016.56	2976.36
1016.851	2912.41
1017.143	2936.36
1017.435	2898.62
1017.727	2900.21
1018.018	2867.21
1018.31	2846.87
1018.602	2855.91
1018.893	2786.76
1019.185	2817.72
1019.476	2760.1
1019.767	2748.35
1020.058	2699.31
1020.35	2675.58
1020.641	2693.21
1020.932	2626.99
1021.223	2682.13
1021.514	2614.56
1021.804	2606.2
1022.095	2579.54
1022.386	2587.9
1022.677	2562.59
1022.967	2520.56
1023.258	2500.67
1023.548	2514.23
1023.839	2514
1024.129	2475.58
1024.419	2473.32
1024.709	2418.86
1025	2415.02
1025.29	2382.03
1025.58	2383.16
1025.87	2373.44
1026.16	2340.45
1026.449	2318.75
1026.739	2307.91
1027.029	2306.55
1027.319	2267.23
1027.608	2261.58
1027.898	2230.17
1028.187	2206.21
1028.477	2219.77
1028.766	2229.72
1029.055	2151.3
1029.344	2167.57
1029.634	2147.91
1029.923	2153.33
1030.212	2097.06
1030.501	2102.04
1030.79	2056.84
1031.078	2086.22
1031.367	2048.48
1031.656	2024.98
1031.945	2016.39
1032.233	2008.7
1032.522	1972.55
1032.81	1953.34
1033.099	1972.55
1033.387	1963.96
1033.675	1925.09
1033.963	1893.23
1034.251	1894.81
1034.54	1871.76
1034.828	1879.67
1035.116	1871.31
1035.403	1849.39
1035.691	1850.29
1035.979	1809.39
1036.267	1795.15
1036.554	1803.06
1036.842	1784.3
1037.129	1777.07
1037.417	1760.12
1037.704	1746.34
1037.992	1744.08
1038.279	1711.08
1038.566	1704.53
1038.853	1704.53
1039.14	1704.53
