Data from 199_FLMS001491_007.txt Node
Date: Thu Apr 19 16:33:05 BST 2018
User: hsy
Spectrometer: FLMS00149
Trigger mode: 0
Integration Time (sec): 1.000000E-2
Scans to average: 10
Electric dark correction enabled: true
Nonlinearity correction enabled: false
Boxcar width: 0
XAxis mode: Wavelengths
Number of Pixels in Spectrum: 2048
>>>>>Begin Spectral Data<<<<<
341.393	-8.71
341.776	-8.71
342.16	-8.71
342.543	-45.32
342.927	-60.24
343.31	-42.84
343.693	-63.85
344.077	-62.72
344.46	-67.24
344.843	-52.1
345.226	-67.47
345.61	-27.02
345.993	-20.92
346.376	-7.13
346.759	0.32
347.142	25.63
347.525	42.58
347.908	47.1
348.291	82.81
348.674	99.76
349.057	113.09
349.44	125.52
349.823	127.55
350.206	165.74
350.588	251.62
350.971	258.85
351.354	288.9
351.737	282.58
352.119	317.15
352.502	326.87
352.884	335.23
353.267	350.6
353.65	358.51
354.032	356.02
354.414	371.84
354.797	359.41
355.179	377.49
355.562	368.68
355.944	404.38
356.326	390.15
356.709	375.23
357.091	392.86
357.473	412.07
357.855	392.86
358.238	401.44
358.62	410.03
359.002	392.18
359.384	417.72
359.766	415.91
360.148	393.76
360.53	419.75
360.912	389.02
361.294	396.92
361.676	391.28
362.057	403.48
362.439	411.16
362.821	383.14
363.203	379.98
363.584	392.86
363.966	385.4
364.348	400.54
364.729	397.15
365.111	401.44
365.493	403.7
365.874	370.26
366.256	400.77
366.637	387.66
367.019	416.36
367.4	400.54
367.781	378.62
368.163	402.57
368.544	411.39
368.925	387.43
369.306	384.27
369.688	395.34
370.069	395.34
370.45	391.73
370.831	394.21
371.212	386.76
371.593	407.55
371.974	397.83
372.355	403.03
372.736	412.74
373.117	406.42
373.498	408.68
373.879	409.81
374.26	399.18
374.641	400.54
375.021	433.08
375.402	423.82
375.783	435.34
376.163	442.35
376.544	440.77
376.925	402.57
377.305	427.21
377.686	414.55
378.066	409.13
378.447	458.39
378.827	458.84
379.208	428.56
379.588	434.21
379.968	440.99
380.349	437.38
380.729	465.4
381.109	445.28
381.489	438.28
381.87	429.47
382.25	459.3
382.63	473.53
383.01	457.26
383.39	476.47
383.77	451.16
384.15	468.56
384.53	473.31
384.91	496.36
385.29	470.59
385.67	475.11
386.049	498.84
386.429	475.11
386.809	494.78
387.189	479.41
387.568	487.54
387.948	492.29
388.328	511.27
388.707	514.89
389.087	517.37
389.466	521.22
389.846	521.44
390.225	528.9
390.605	500.65
390.984	534.1
391.363	532.06
391.743	544.49
392.122	563.7
392.501	558.95
392.881	565.73
393.26	532.74
393.639	551.95
394.018	544.94
394.397	546.98
394.776	570.71
395.155	558.73
395.534	579.29
395.913	570.48
396.292	581.33
396.671	591.27
397.05	598.05
397.429	589.01
397.808	591.5
398.186	588.56
398.565	593.08
398.944	603.47
399.323	595.56
399.701	622.68
400.08	619.07
400.458	613.42
400.837	626.07
401.215	631.27
401.594	629.23
401.972	611.16
402.351	655.22
402.729	645.05
403.107	660.42
403.486	652.74
403.864	672.62
404.242	660.87
404.62	686.41
404.999	669.46
405.377	654.77
405.755	683.24
406.133	696.58
406.511	693.64
406.889	742
407.267	707.88
407.645	711.94
408.023	726.41
408.401	745.39
408.779	735.45
409.156	758.05
409.534	747.42
409.912	773.19
410.29	818.83
410.667	794.43
411.045	830.59
411.422	788.55
411.8	810.93
412.178	812.51
412.555	833.75
412.933	847.53
413.31	867.65
413.687	838.04
414.065	866.29
414.442	871.26
414.819	884.37
415.197	891.15
415.574	913.3
415.951	885.05
416.328	916.68
416.705	891.15
417.082	932.28
417.46	914.2
417.837	939.28
418.214	951.49
418.591	954.2
418.967	948.1
419.344	946.74
419.721	954.42
420.098	977.7
420.475	997.81
420.852	986.97
421.228	997.81
421.605	1004.59
421.982	995.33
422.358	1019.73
422.735	1032.16
423.111	1051.82
423.488	1048.43
423.864	1073.74
424.241	1076.68
424.617	1087.08
424.994	1060.64
425.37	1098.38
425.746	1106.51
426.123	1100.18
426.499	1136.79
426.875	1120.97
427.251	1156.23
427.627	1138.6
428.003	1152.16
428.379	1200.52
428.756	1176.79
429.132	1203.01
429.507	1211.37
429.883	1245.94
430.259	1260.63
430.635	1246.62
431.011	1289.33
431.387	1303.34
431.763	1315.32
432.138	1323.23
432.514	1331.36
432.89	1353.28
433.265	1401.87
433.641	1404.58
434.016	1394.19
434.392	1430.12
434.767	1470.12
435.143	1457.01
435.518	1493.62
435.894	1486.84
436.269	1496.33
436.644	1524.8
437.02	1544.01
437.395	1529.55
437.77	1564.13
438.145	1606.61
438.52	1583.33
438.895	1594.86
439.271	1622.43
439.646	1662.43
440.021	1655.42
440.395	1647.74
440.77	1637.34
441.145	1650.9
441.52	1683.44
441.895	1672.6
442.27	1709.88
442.645	1715.76
443.019	1749.43
443.394	1745.36
443.769	1741.52
444.143	1765.25
444.518	1749.43
444.892	1786.94
445.267	1793.95
445.641	1785.81
446.016	1796.89
446.39	1811.12
446.764	1817.68
447.139	1835.76
447.513	1850.67
447.887	1851.58
448.262	1857.45
448.636	1897.68
449.01	1891.12
449.384	1944.68
449.758	1942.87
450.132	1955.98
450.506	1977.45
450.88	1982.42
451.254	1952.82
451.628	2003.21
452.002	2023.77
452.376	2052.25
452.75	2055.41
453.123	2060.61
453.497	2106.26
453.871	2126.6
454.244	2186.93
454.618	2160.72
454.992	2181.74
455.365	2233.49
455.739	2268.06
456.112	2282.75
456.486	2299.93
456.859	2327.04
457.232	2376.99
457.606	2377.21
457.979	2421.05
458.352	2466.93
458.725	2480.94
459.099	2496.3
459.472	2531.33
459.845	2578.79
460.218	2585.34
460.591	2653.36
460.964	2640.03
461.337	2665.79
461.71	2708.73
462.083	2747.15
462.456	2745.79
462.829	2752.12
463.201	2824.21
463.574	2797.99
463.947	2865.56
464.32	2849.29
464.692	2927.25
465.065	2956.86
465.438	2979.91
465.81	2972.9
466.183	3046.57
466.555	3101.71
466.928	3153.91
467.3	3106.01
467.672	3179.68
468.045	3246.12
468.417	3257.19
468.789	3243.63
469.161	3308.49
469.534	3399.56
469.906	3401.14
470.278	3423.06
470.65	3522.94
471.022	3558.65
471.394	3579.67
471.766	3652.88
472.138	3652.66
472.51	3744.18
472.882	3783.73
473.253	3823.05
473.625	3830.73
473.997	3933.78
474.369	3969.26
474.74	4037.51
475.112	4095.81
475.484	4150.5
475.855	4226.43
476.227	4241.57
476.598	4339.87
476.97	4370.15
477.341	4484.27
477.713	4553.88
478.084	4530.15
478.455	4654.44
478.827	4692.18
479.198	4836.13
479.569	4858.28
479.94	5019.18
480.311	5094.43
480.682	5147.31
481.053	5302.56
481.424	5362.9
481.795	5429.56
482.166	5523.34
482.537	5589.56
482.908	5670.46
483.279	5745.48
483.65	5916.55
484.021	5940.51
484.391	5996.33
484.762	6091.46
485.133	6208.98
485.503	6265.47
485.874	6405.35
486.244	6436.31
486.615	6614.16
486.985	6637.44
487.356	6798.79
487.726	6883.76
488.097	7010.99
488.467	7076.07
488.837	7217.08
489.207	7256.63
489.578	7370.53
489.948	7544.31
490.318	7590.41
490.688	7666.34
491.058	7765.09
491.428	7862.04
491.798	7895.94
492.168	8093.9
492.538	8200.79
492.908	8310.61
493.278	8401.91
493.648	8377.28
494.017	8544.51
494.387	8631.06
494.757	8687.33
495.126	8785.86
495.496	8882.8
495.866	8946.3
496.235	8977.94
496.605	9138.84
496.974	9170.03
497.344	9206.18
497.713	9319.63
498.082	9359.63
498.452	9485.05
498.821	9497.25
499.19	9606.17
499.559	9671.93
499.928	9739.28
500.298	9815.43
500.667	9866.51
501.036	9806.85
501.405	10000.74
501.774	9984.02
502.143	10111.92
502.512	10185.82
502.88	10288.87
503.249	10325.03
503.618	10358.02
503.987	10323.67
504.356	10458.81
504.724	10576.09
505.093	10600.72
505.462	10628.29
505.83	10688.86
506.199	10775.86
506.567	10880.94
506.936	10910.32
507.304	11003.2
507.672	11027.15
508.041	11123.87
508.409	11224.44
508.777	11323.64
509.145	11335.85
509.514	11412.91
509.882	11459.91
510.25	11507.82
510.618	11586.23
510.986	11690.64
511.354	11770.18
511.722	11837.75
512.09	11925.89
512.458	11986
512.826	12121.81
513.193	12138.31
513.561	12195.26
513.929	12312.54
514.297	12363.62
514.664	12476.83
515.032	12584.85
515.4	12761.57
515.767	12717.05
516.135	12816.03
516.502	12764.51
516.869	13020.55
517.237	13091.05
517.604	13078.85
517.972	13299.64
518.339	13302.8
518.706	13402.68
519.073	13420.76
519.44	13561.78
519.808	13682.9
520.175	13789.57
520.542	13922.9
520.909	14010.13
521.276	14168.09
521.643	14317.24
522.009	14433.84
522.376	14538.47
522.743	14602.43
523.11	14707.51
523.477	14946.15
523.843	14950.21
524.21	15228.63
524.577	15381.84
524.943	15402.63
525.31	15496.19
525.676	15713.58
526.043	15847.37
526.409	15935.05
526.776	16177.3
527.142	16171.2
527.508	16347.01
527.874	16431.08
528.241	16525.54
528.607	16656.61
528.973	16881.69
529.339	16834.46
529.705	17079.42
530.071	17238.52
530.437	17410.26
530.803	17537.04
531.169	17661.1
531.535	17593.08
531.901	17857.26
532.267	18024.71
532.632	18062.22
532.998	18111.04
533.364	18190.13
533.73	18267.42
534.095	18451.82
534.461	18557.58
534.826	18570.68
535.192	18725.93
535.557	18864.24
535.923	18874.63
536.288	19075.98
536.653	19136.09
537.019	19223.32
537.384	19236.66
537.749	19350.1
538.114	19532.69
538.479	19447.95
538.845	19583.76
539.21	19499.47
539.575	19691.33
539.94	19750.99
540.305	19982.4
540.67	19999.8
541.034	20073.24
541.399	20076.18
541.764	20228.49
542.129	20213.13
542.494	20296.29
542.858	20420.58
543.223	20394.59
543.587	20522.5
543.952	20560.91
544.316	20623.74
544.681	20686.11
545.045	20775.6
545.41	20927.46
545.774	20908.93
546.138	20968.14
546.503	21083.84
546.867	21084.97
547.231	21204.51
547.595	21269.6
547.959	21376.49
548.324	21486.54
548.688	21547.55
549.052	21678.85
549.416	21693.09
549.779	21860.09
550.143	21794.33
550.507	22002.91
550.871	21989.35
551.235	22054.21
551.599	22279.74
551.962	22261.66
552.326	22335.56
552.689	22521.77
553.053	22445.84
553.417	22565.16
553.78	22783.45
554.143	22836.33
554.507	22984.13
554.87	23110
555.234	23288.3
555.597	23212.37
555.96	23374.17
556.323	23523.77
556.686	23494.85
557.05	23808.51
557.413	23734.39
557.776	23878.34
558.139	24031.56
558.502	24083.08
558.865	24283.08
559.228	24431.77
559.59	24528.27
559.953	24623.63
560.316	24926
560.679	24792.22
561.041	25028.59
561.404	25161.7
561.767	25518.75
562.129	25347.91
562.492	25663.38
562.854	25835.35
563.217	25906.54
563.579	26097.27
563.941	26266.98
564.304	26348.11
564.666	26614.31
565.028	26781.54
565.39	26822.22
565.753	27199.38
566.115	27334.97
566.477	27518.92
566.839	27690.22
567.201	28158
567.563	27944.45
567.925	28290.88
568.287	28296.76
568.648	28598.44
569.01	28849.74
569.372	29075.04
569.734	29121.59
570.095	29395.03
570.457	29629.38
570.819	29740.33
571.18	29827.79
571.542	30251.28
571.903	30319.98
572.265	30529.69
572.626	30754.32
572.987	30772.17
573.349	31095.55
573.71	31228.66
574.071	31445.15
574.432	31749.77
574.794	32026.15
575.155	32058.69
575.516	32067.5
575.877	32403.09
576.238	32446.48
576.599	32504.78
576.96	32747.71
577.32	32888.5
577.681	32950.19
578.042	33309.96
578.403	33386.79
578.763	33447.58
579.124	33630.4
579.485	33873.33
579.845	33913.78
580.206	33880.56
580.566	34119.65
580.927	34220.22
581.287	34399.42
581.648	34331.4
582.008	34608.68
582.368	34660.43
582.728	34846.19
583.089	34968.67
583.449	35182.22
583.809	35230.13
584.169	35452.05
584.529	35431.03
584.889	35752.38
585.249	35733.62
585.609	35755.54
585.969	36261.97
586.329	36282.53
586.688	36393.72
587.048	36758.23
587.408	36725.46
587.768	36985.79
588.127	37316.63
588.487	37424.88
588.846	37983.05
589.206	37881.36
589.565	38254.01
589.925	38789.14
590.284	38799.53
590.643	39183.93
591.003	39653.29
591.362	40050.12
591.721	40286.05
592.08	40564.46
592.44	41185
592.799	41462.51
593.158	41795.84
593.517	42284.41
593.876	42685.53
594.235	43122.58
594.593	43552.17
594.952	43947.64
595.311	44343.57
595.67	44886.38
596.029	45460.15
596.387	45830.76
596.746	46414.25
597.104	46568.82
597.463	46967
597.822	47574.89
598.18	47724.95
598.538	48298.49
598.897	48849.66
599.255	48984.35
599.613	49841.5
599.972	50013.93
600.33	50513.8
600.688	50644.42
601.046	51146.78
601.404	51624.05
601.762	51941.11
602.12	52358.95
602.478	52662.89
602.836	52947.86
603.194	53163.45
603.552	53524.79
603.91	53820.6
604.268	54147.38
604.625	54436.63
604.983	54819.67
605.341	54925.89
605.698	55481.8
606.056	55762.93
606.413	55814.9
606.771	56149.58
607.128	56399.07
607.485	56620.31
607.843	56794.76
608.2	57192.49
608.557	57457.12
608.914	57598.13
609.272	57899.59
609.629	58143.88
609.986	58447.6
610.343	58536.86
610.7	58903.86
611.057	58990.86
611.414	59131.43
611.771	59413.45
612.127	59562.6
612.484	59771.63
612.841	59939.31
613.198	60029.71
613.554	60139.99
613.911	60467.89
614.267	60623.36
614.624	60720.31
614.98	60933.19
615.337	61196
615.693	61323.68
616.05	61458.82
616.406	61652.26
616.762	61709.21
617.118	61828.08
617.475	61905.36
617.831	62093.38
618.187	62202.53
618.543	62369.08
618.899	62586.25
619.255	62650.65
619.611	62685.91
619.967	62894.04
620.323	63017.65
620.678	62969.29
621.034	63114.37
621.39	63156.63
621.746	63199.34
622.101	63469.39
622.457	63364.53
622.812	63506.68
623.168	63525.43
623.523	63525.43
623.879	63525.43
624.234	63525.43
624.589	63525.43
624.945	63525.43
625.3	63525.43
625.655	63525.43
626.01	63525.43
626.365	63525.43
626.72	63525.43
627.075	63525.43
627.43	63525.43
627.785	63525.43
628.14	63525.43
628.495	63525.43
628.85	63525.43
629.205	63525.43
629.559	63525.43
629.914	63525.43
630.269	63525.43
630.623	63525.43
630.978	63525.43
631.332	63525.43
631.687	63525.43
632.041	63525.43
632.396	63525.43
632.75	63525.43
633.104	63525.43
633.459	63525.43
633.813	63525.43
634.167	63525.43
634.521	63525.43
634.875	63525.43
635.229	63525.43
635.583	63525.43
635.937	63525.43
636.291	63525.43
636.645	63525.43
636.999	63525.43
637.352	63525.43
637.706	63525.43
638.06	63525.43
638.413	63525.43
638.767	63525.43
639.121	63525.43
639.474	63525.43
639.828	63525.43
640.181	63525.43
640.534	63525.43
640.888	63525.43
641.241	63525.43
641.594	63525.43
641.947	63525.43
642.301	63525.43
642.654	63525.43
643.007	63525.43
643.36	63525.43
643.713	63525.43
644.066	63525.43
644.419	63525.43
644.771	63525.43
645.124	63525.43
645.477	63525.43
645.83	63508.03
646.182	63516.62
646.535	63500.35
646.888	63525.43
647.24	63507.58
647.593	63525.43
647.945	63500.35
648.298	63441.37
648.65	63342.39
649.002	63228.94
649.355	63231.2
649.707	63168.61
650.059	63217.42
650.411	63503.06
650.763	63521.82
651.115	63525.43
651.467	63525.43
651.819	63525.43
652.171	63525.43
652.523	63525.43
652.875	63525.43
653.227	63525.43
653.578	63525.43
653.93	63525.43
654.282	63524.08
654.633	63525.43
654.985	63521.14
655.337	63525.43
655.688	63524.3
656.039	63525.43
656.391	63495.15
656.742	63525.43
657.094	63511.88
657.445	63516.62
657.796	63522.04
658.147	63476.17
658.498	63519.33
658.849	63525.43
659.2	63477.07
659.551	63479.79
659.902	63525.43
660.253	63497.41
660.604	63518.65
660.955	63502.16
661.306	63520.69
661.656	63480.01
662.007	63481.37
662.358	63514.36
662.708	63486.79
663.059	63453.8
663.409	63417.64
663.76	63497.64
664.11	63511.42
664.461	63495.83
664.811	63515.26
665.161	63511.2
665.511	63481.82
665.862	63444.08
666.212	63481.82
666.562	63510.97
666.912	63449.96
667.262	63470.07
667.612	63476.62
667.962	63464.87
668.312	63416.74
668.662	63502.16
669.011	63509.84
669.361	63475.04
669.711	63512.33
670.06	63432.33
670.41	63420.35
670.76	63409.73
671.109	63481.82
671.459	63425.78
671.808	63392.33
672.157	63464.87
672.507	63339.9
672.856	63393.91
673.205	63403.86
673.554	63454.48
673.904	63342.61
674.253	63496.06
674.602	63399.56
674.951	63112.79
675.3	62982.62
675.649	63372.44
675.998	63316.17
676.346	63387.13
676.695	63385.55
677.044	63169.96
677.393	63277.98
677.741	63331.54
678.09	63178.1
678.438	63225.1
678.787	63268.94
679.135	63231.2
679.484	63094.26
679.832	63143.52
680.181	63068.5
680.529	63126.12
680.877	63007.26
681.225	62995.73
681.573	63168.16
681.922	63018.33
682.27	62936.3
682.618	62982.85
682.966	62913.47
683.314	62907.37
683.661	62846.13
684.009	62731.33
684.357	62725
684.705	62642.52
685.053	62698.56
685.4	62624.44
685.748	62577.66
686.095	62446.14
686.443	62374.5
686.79	62357.78
687.138	62450.89
687.485	62388.51
687.832	62210.67
688.18	62302.64
688.527	62214.06
688.874	62180.38
689.221	62098.58
689.568	62045.47
689.915	61932.48
690.262	61978.36
690.609	61925.02
690.956	61820.17
691.303	61823.56
691.65	61738.81
691.997	61699.27
692.344	61539.27
692.69	61478.71
693.037	61523.9
693.383	61356.23
693.73	61405.49
694.077	61276.91
694.423	61273.06
694.769	61152.84
695.116	61190.58
695.462	61037.14
695.808	60973.64
696.155	61023.81
696.501	60818.16
696.847	60850.48
697.193	60709.69
697.539	60784.49
697.885	60503.14
698.231	60503.37
698.577	60513.76
698.923	60436.93
699.269	60337.27
699.614	60288.23
699.96	60182.25
700.306	60127.78
700.651	60081.91
700.997	60010.95
701.342	59959.88
701.688	59902.7
702.033	59871.74
702.379	59789.49
702.724	59628.14
703.069	59699.09
703.415	59448.93
703.76	59501.59
704.105	59532.09
704.45	59423.17
704.795	59325.77
705.14	59242.83
705.485	59187.7
705.83	59050.75
706.175	59187.92
706.52	59043.07
706.865	58897.53
707.209	58836.74
707.554	58821.15
707.899	58828.38
708.243	58680.59
708.588	58632
708.932	58546.36
709.277	58524.66
709.621	58420.94
709.966	58249.64
710.31	58349.75
710.654	58134.39
710.998	58159.47
711.342	58157.89
711.687	58070.89
712.031	58009.65
712.375	57881.74
712.719	57879.93
713.063	57851.46
713.407	57933.04
713.75	57816.43
714.094	57761.52
714.438	57697.34
714.782	57670.22
715.125	57556.33
715.469	57667.06
715.812	57425.93
716.156	57425.93
716.499	57391.36
716.843	57448.31
717.186	57232.72
717.53	57414.63
717.873	57401.3
718.216	57250.8
718.559	57210.35
718.902	57002.44
719.246	57027.3
719.589	57025.04
719.932	56974.65
720.275	56957.7
720.617	56899.62
720.96	56794.99
721.303	56829.34
721.646	56822.79
721.989	56666.18
722.331	56696.46
722.674	56727.42
723.016	56709.79
723.359	56605.16
723.701	56589.35
724.044	56463.47
724.386	56328.56
724.729	56532.4
725.071	56514.77
725.413	56366.75
725.755	56345.51
726.097	56217.15
726.439	56074.56
726.782	56115.23
727.124	56287.21
727.465	56133.76
727.807	56047.66
728.149	56034.78
728.491	56000.89
728.833	56015.12
729.175	55946.42
729.516	55808.12
729.858	55837.5
730.199	55955.01
730.541	55840.44
730.882	55718.18
731.224	55718.86
731.565	55670.27
731.906	55650.39
732.248	55626.88
732.589	55517.28
732.93	55422.37
733.271	55478.41
733.612	55401.58
733.953	55482.93
734.294	55307.57
734.635	55277.52
734.976	55414.01
735.317	55310.73
735.658	55274.13
735.999	55203.39
736.339	55108.48
736.68	55235.71
737.021	55153.45
737.361	54993.68
737.702	55211.53
738.042	55062.61
738.383	55047.47
738.723	55079.33
739.063	54911.2
739.404	54966.56
739.744	54937.41
740.084	54814.93
740.424	54843.85
740.764	54696.51
741.104	54795.72
741.444	54750.98
741.784	54603.63
742.124	54715.95
742.464	54610.64
742.804	54628.04
743.143	54489.06
743.483	54563.41
743.823	54443.87
744.162	54415.17
744.502	54442.51
744.841	54385.79
745.181	54555.05
745.52	54322.06
745.86	54383.98
746.199	54283.42
746.538	54237.54
746.877	54342.85
747.216	54287.26
747.556	54152.12
747.895	54231.44
748.234	54129.52
748.573	54056.08
748.911	54002.29
749.25	54047.94
749.589	53769.98
749.928	53986.02
750.267	53944.67
750.605	53819.93
750.944	53838.23
751.283	53758.23
751.621	53702.64
751.96	53564.79
752.298	53615.41
752.636	53623.1
752.975	53442.76
753.313	53404.12
753.651	53524.34
753.989	53345.81
754.327	53415.42
754.666	53172.94
755.004	53324.12
755.342	53243.44
755.679	53170
756.017	52975.43
756.355	53080.96
756.693	52902.66
757.031	53002.77
757.368	52690.92
757.706	52819.05
758.044	52783.8
758.381	52692.72
758.719	52571.37
759.056	52633.29
759.394	52478.04
759.731	52200.53
760.068	52280.98
760.405	52255.22
760.743	52079.63
761.08	52071.05
761.417	52038.05
761.754	51894.1
762.091	51864.5
762.428	51758.96
762.765	51515.13
763.102	51582.47
763.438	51415.24
763.775	51133.67
764.112	51237.17
764.449	51145.87
764.785	50940.91
765.122	50801.25
765.458	50775.26
765.795	50701.36
766.131	50596.96
766.467	50538.21
766.804	50426.57
767.14	50200.36
767.476	50071.1
767.812	50029.29
768.148	50129.85
768.485	49850.54
768.821	49648.51
769.157	49499.36
769.492	49528.06
769.828	49351.12
770.164	49171.24
770.5	48993.39
770.836	48985.48
771.171	48775.09
771.507	48655.32
771.842	48412.16
772.178	48472.5
772.513	48274.08
772.849	48107.99
773.184	48141.88
773.519	48066.41
773.855	47828.9
774.19	47657.38
774.525	47428.46
774.86	47418.06
775.195	47381.68
775.53	47115.02
775.865	46922.93
776.2	46649.27
776.535	46413.57
776.87	46479.78
777.205	46139.22
777.539	46023.52
777.874	46012.22
778.209	45820.59
778.543	45722.29
778.878	45511.44
779.212	45493.59
779.547	44967.5
779.881	45129.76
780.215	44743.56
780.55	44848.19
780.884	44487.97
781.218	44511.92
781.552	44436.22
781.886	44253.4
782.22	44007.3
782.554	43750.13
782.888	43462.91
783.222	43272.63
783.556	43271.73
783.889	43157.61
784.223	42807.56
784.557	42882.59
784.89	42872.87
785.224	42601.46
785.557	42414.12
785.891	42291.87
786.224	42237.41
786.558	42096.17
786.891	41836.51
787.224	41655.05
787.557	41528.95
787.891	41619.12
788.224	41307.26
788.557	41279.92
788.89	41255.96
789.223	41111.11
789.556	40832.92
789.888	40806.03
790.221	40691.23
790.554	40370.11
790.887	40418.92
791.219	40093.06
791.552	40094.19
791.884	39907.07
792.217	39777.81
792.549	39581.66
792.882	39355.45
793.214	39225.28
793.546	39115
793.879	39004.27
794.211	38752.07
794.543	38815.8
794.875	38844.95
795.207	38766.76
795.539	38546.88
795.871	38430.95
796.203	38232.31
796.535	37976.28
796.867	38028.25
797.198	37918.2
797.53	37711.42
797.862	37550.52
798.193	37625.78
798.525	37415.61
798.856	37540.81
799.188	36936.08
799.519	36942.4
799.85	36798
800.182	36826.25
800.513	36897.66
800.844	36420.84
801.175	36628.51
801.506	36468.52
801.837	36305.81
802.168	36096.78
802.499	36298.35
802.83	36032.82
803.161	35923.9
803.491	35902.88
803.822	35958.48
804.153	35551.03
804.483	35433.97
804.814	35212.05
805.145	35355.33
805.475	35334.99
805.805	35137.71
806.136	35067.2
806.466	34978.39
806.796	34857.26
807.126	34688.9
807.457	34690.94
807.787	34614.56
808.117	34527.1
808.447	34334.11
808.777	34523.03
809.107	34185.41
809.436	34001.92
809.766	34048.92
810.096	33950.62
810.426	33704.52
810.755	33772.09
811.085	33635.37
811.414	33722.38
811.744	33467.24
812.073	33479.44
812.403	33280.35
812.732	33189.51
813.061	33369.16
813.39	32935.73
813.719	32904.77
814.049	33121.49
814.378	32986.12
814.707	32787.26
815.036	32777.32
815.365	32637.21
815.693	32422.75
816.022	32479.7
816.351	32371.45
816.68	32233.6
817.008	32368.29
817.337	31931.01
817.665	31983.66
817.994	32064.79
818.322	31924.23
818.651	31786.38
818.979	31727.63
819.307	31816.44
819.636	31660.06
819.964	31598.36
820.292	31556.11
820.62	31396.79
820.948	31562.88
821.276	31629.78
821.604	31503
821.932	31691.69
822.259	31482.21
822.587	31442.21
822.915	31429.78
823.243	31500.29
823.57	31368.54
823.898	31460.97
824.225	31236.79
824.553	31263.01
824.88	31354.08
825.207	31405.37
825.535	31246.51
825.862	31470.91
826.189	31312.04
826.516	31540.06
826.843	31421.19
827.17	31418.26
827.497	31488.76
827.824	31526.05
828.151	31619.15
828.478	31455.32
828.805	31521.76
829.131	31437.69
829.458	31319.95
829.785	31196.57
830.111	31348.43
830.438	31469.33
830.764	31307.07
831.09	31437.69
831.417	31138.04
831.743	31514.75
832.069	31377.35
832.395	31266.4
832.722	31273.4
833.048	31219.62
833.374	31327.64
833.7	31115.66
834.026	31284.93
834.351	31155.21
834.677	31197.47
835.003	31100.98
835.329	31141.88
835.654	31076.57
835.98	30903.24
836.306	31055.1
836.631	30920.87
836.956	31060.53
837.282	31078.15
837.607	30781.66
837.932	30900.08
838.258	30844.49
838.583	30759.29
838.908	30682.23
839.233	30716.13
839.558	30534.66
839.883	30434.78
840.208	30353.43
840.533	30405.63
840.858	30317.72
841.182	30461.22
841.507	30295.8
841.832	30146.42
842.156	30194.79
842.481	30074.79
842.805	29965.86
843.13	29894.91
843.454	30043.38
843.778	29749.37
844.103	29757.28
844.427	29610.85
844.751	29717.96
845.075	29628.02
845.399	29466.22
845.723	29385.99
846.047	29420.57
846.371	29264.64
846.695	29197.3
847.019	29100.35
847.343	28859.45
847.666	28821.04
847.99	28578.56
848.313	28506.02
848.637	28549.18
848.96	28371.56
849.284	28404.78
849.607	28011.34
849.931	28012.02
850.254	27874.17
850.577	27805.02
850.9	27567.96
851.223	27479.6
851.546	27497.91
851.869	27247.74
852.192	27521.41
852.515	27038.71
852.838	27056.56
853.161	26989.9
853.483	26876.91
853.806	26759.62
854.129	26657.93
854.451	26628.55
854.774	26498.39
855.096	26431.04
855.419	26341.78
855.741	26348.33
856.063	26145.63
856.385	26104.5
856.708	26142.01
857.03	26002.13
857.352	25905.63
857.674	25924.39
857.996	25703.38
858.318	25607.79
858.64	25595.36
858.961	25538.86
859.283	25342.26
859.605	25266.1
859.926	25322.6
860.248	25317.17
860.57	25040.57
860.891	25138.65
861.212	25045.77
861.534	24891.2
861.855	24846.68
862.176	24922.61
862.498	24851.87
862.819	24932.55
863.14	24700.47
863.461	24617.98
863.782	24603.75
864.103	24579.34
864.424	24528.95
864.745	24469.51
865.065	24409.63
865.386	24348.16
865.707	24357.2
866.027	24368.05
866.348	24257.54
866.668	24198.33
866.989	24109.3
867.309	24012.12
867.63	24018.22
867.95	24038.11
868.27	23890.09
868.59	23965.57
868.91	23895.74
869.23	23937.1
869.55	23715.41
869.87	23761.51
870.19	23684.9
870.51	23698.91
870.83	23671.79
871.15	23530.55
871.469	23629.99
871.789	23624.11
872.109	23571
872.428	23508.86
872.748	23494.62
873.067	23512.47
873.386	23331.01
873.706	23384.79
874.025	23240.62
874.344	23277.9
874.663	23293.05
874.982	23164.69
875.301	23187.51
875.62	22985.26
875.939	23144.12
876.258	23000.4
876.577	22880.4
876.896	22909.55
877.214	22912.72
877.533	23024.13
877.852	22875.88
878.17	22768.77
878.489	22841.53
878.807	22762.44
879.125	22698.71
879.444	22636.11
879.762	22526.96
880.08	22493.52
880.398	22520.64
880.716	22420.98
881.034	22377.82
881.352	22335.78
881.67	22346.86
881.988	22296.69
882.306	22248.78
882.624	22173.75
882.941	22032.97
883.259	22055.34
883.577	22056.24
883.894	21965.85
884.212	21949.58
884.529	21836.59
884.846	21805.18
885.164	21677.27
885.481	21571.74
885.798	21655.8
886.115	21573.99
886.432	21663.71
886.75	21570.38
887.067	21498.52
887.383	21446.31
887.7	21237.96
888.017	21254.46
888.334	21270.27
888.651	21129.71
888.967	21113.22
889.284	21057.62
889.6	20895.59
889.917	20873.22
890.233	20872.54
890.55	20815.14
890.866	20813.11
891.182	20670.97
891.498	20741.02
891.815	20453.35
892.131	20508.94
892.447	20487.92
892.763	20404.08
893.079	20478.2
893.395	20329.06
893.71	20317.08
894.026	20239.34
894.342	20238.89
894.657	19950.76
894.973	19915.28
895.289	20015.84
895.604	19892.46
895.92	19730.65
896.235	19732.01
896.55	19673.03
896.865	19658.11
897.181	19622.18
897.496	19538.79
897.811	19442.53
898.126	19396.88
898.441	19443.88
898.756	19242.3
899.071	19155.75
899.386	19183.55
899.7	18971.58
900.015	18860.85
900.33	18720.51
900.644	18801.41
900.959	18730
901.273	18771.13
901.588	18684.35
901.902	18511.02
902.216	18560.51
902.531	18508.31
902.845	18357.13
903.159	18177.47
903.473	18190.36
903.787	18160.53
904.101	18034.65
904.415	18146.74
904.729	17993.98
905.042	17875.79
905.356	17852.96
905.67	17841.66
905.984	17807.99
906.297	17726.41
906.611	17602.57
906.924	17537.26
907.237	17480.77
907.551	17304.5
907.864	17314.9
908.177	17263.6
908.491	17247.33
908.804	17056.37
909.117	17030.84
909.43	16903.61
909.743	16778.41
910.056	16817.74
910.368	16785.65
910.681	16652.09
910.994	16605.99
911.307	16480.12
911.619	16395.15
911.932	16440.34
912.244	16340.23
912.557	16318.09
912.869	16179.79
913.181	16117.42
913.494	16131.43
913.806	15952.45
914.118	15960.36
914.43	15858.66
914.742	15822.28
915.054	15712.68
915.366	15692.79
915.678	15588.62
915.99	15503.65
916.302	15501.61
916.613	15410.54
916.925	15366.93
917.236	15243.77
917.548	15219.59
917.859	15232.24
918.171	15119.48
918.482	14882.87
918.794	15001.74
919.105	14938.01
919.416	14759.48
919.727	14764
920.038	14711.8
920.349	14563.11
920.66	14592.94
920.971	14545.25
921.282	14507.74
921.593	14321.76
921.903	14332.15
922.214	14294.64
922.525	14195.21
922.835	14126.28
923.146	14009
923.456	13968.32
923.767	13905.27
924.077	13879.51
924.387	13887.64
924.697	13803.8
925.008	13753.64
925.318	13671.83
925.628	13564.26
925.938	13524.72
926.248	13442.68
926.558	13443.59
926.867	13426.64
927.177	13387.77
927.487	13284.72
927.796	13174.44
928.106	13170.83
928.416	13131.28
928.725	13043.37
929.034	13035.69
929.344	12918.86
929.653	12915.47
929.962	12852.42
930.271	12719.54
930.581	12777.39
930.89	12611.74
931.199	12524.52
931.508	12596.38
931.817	12544.4
932.125	12452.2
932.434	12404.52
932.743	12199.1
933.051	12155.03
933.36	12242.26
933.669	12174.02
933.977	12128.14
934.286	12058.99
934.594	11954.36
934.902	11867.13
935.21	11842.05
935.519	11762.73
935.827	11718.89
936.135	11691.32
936.443	11568.83
936.751	11490.42
937.059	11551.21
937.367	11515.28
937.674	11452.91
937.982	11465.56
938.29	11450.19
938.597	11322.51
938.905	11224.44
939.213	11140.14
939.52	11147.6
939.827	11185.34
940.135	11045.46
940.442	11025.8
940.749	10910.55
941.056	10933.14
941.363	10788.74
941.67	10847.27
941.977	10787.39
942.284	10714.62
942.591	10667.61
942.898	10629.42
943.205	10591.68
943.511	10491.57
943.818	10527.05
944.125	10397.57
944.431	10388.3
944.738	10335.65
945.044	10355.31
945.35	10231.24
945.657	10119.15
945.963	10167.74
946.269	10120.74
946.575	10108.76
946.881	10005.71
947.187	10050.91
947.493	9901.99
947.799	9970.91
948.105	9890.46
948.41	9753.29
948.716	9798.26
949.022	9727.53
949.327	9675.32
949.633	9516.68
949.938	9581.09
950.244	9559.62
950.549	9540.19
950.854	9468.32
951.16	9424.94
951.465	9366.63
951.77	9312.4
952.075	9210.25
952.38	9207.77
952.685	9223.13
952.99	9093.19
953.294	9144.04
953.599	9064.72
953.904	9046.19
954.209	8919.64
954.513	8988.56
954.818	8881.45
955.122	8873.76
955.426	8820.88
955.731	8769.13
956.035	8744.28
956.339	8725.52
956.643	8679.87
956.948	8636.48
957.252	8606.2
957.556	8530.95
957.86	8573.21
958.163	8478.75
958.467	8427.67
958.771	8448.92
959.075	8380.44
959.378	8365.08
959.682	8342.7
959.985	8251.86
960.289	8166.66
960.592	8161.47
960.896	8091.64
961.199	8123.73
961.502	8101.13
961.805	8016.61
962.108	7910.63
962.411	7928.48
962.714	7881.93
963.017	7824.75
963.32	7860.23
963.623	7836.28
963.926	7756.05
964.228	7703.4
964.531	7778.2
964.833	7718.99
965.136	7652.33
965.438	7568.49
965.741	7552.89
966.043	7538.88
966.345	7480.81
966.648	7493.24
966.95	7418.43
967.252	7376.4
967.554	7354.48
967.856	7378.21
968.158	7236.07
968.46	7271.09
968.761	7211.66
969.063	7145.9
969.365	7136.41
969.666	7118.78
969.968	7049.18
970.269	7056.41
970.571	7040.14
970.872	6985.9
971.174	6906.13
971.475	6915.4
971.776	6891.44
972.077	6862.07
972.378	6830.65
972.679	6769.41
972.98	6788.39
973.281	6735.06
973.582	6689.64
973.883	6688.96
974.183	6679.92
974.484	6656.87
974.785	6573.49
975.085	6586.14
975.386	6553.15
975.686	6473.15
975.986	6462.08
976.287	6462.75
976.587	6315.19
976.887	6361.29
977.187	6348.63
977.487	6324.23
977.787	6279.26
978.087	6256.43
978.387	6255.08
978.687	6254.4
978.987	6189.77
979.286	6112.71
979.586	6138.92
979.885	6075.87
980.185	6101.63
980.484	6027.74
980.784	5942.32
981.083	5942.09
981.382	5903.67
981.682	5935.76
981.981	5948.87
982.28	5842.43
982.579	5818.7
982.878	5856.44
983.177	5809.66
983.475	5766.5
983.774	5695.32
984.073	5681.98
984.372	5627.52
984.67	5667.52
984.969	5660.29
985.267	5638.14
985.566	5542.55
985.864	5498.03
986.162	5552.95
986.461	5456
986.759	5410.13
987.057	5397.7
987.355	5389.79
987.653	5395.89
987.951	5333.29
988.249	5308.89
988.547	5244.03
988.844	5274.08
989.142	5243.12
989.44	5223.01
989.737	5170.13
990.035	5194.99
990.332	5180.98
990.63	5083.36
990.927	5121.77
991.224	5064.82
991.521	5062.79
991.819	5051.72
992.116	4977.14
992.413	4976.01
992.71	4962.23
993.006	4913.87
993.303	4881.78
993.6	4892.17
993.897	4830.25
994.193	4792.29
994.49	4777.37
994.787	4799.75
995.083	4774.44
995.379	4683.14
995.676	4664.83
995.972	4685.63
996.268	4624.84
996.565	4644.04
996.861	4531.73
997.157	4585.52
997.453	4529.92
997.749	4499.19
998.044	4454.22
998.34	4444.95
998.636	4444.5
998.932	4421.9
999.227	4336.03
999.523	4389.81
999.818	4350.27
1000.114	4337.84
1000.409	4301.23
1000.704	4285.86
1001	4249.25
1001.295	4224.17
1001.59	4166.32
1001.885	4184.85
1002.18	4147.33
1002.475	4110.27
1002.77	4068.92
1003.065	4110.5
1003.359	4068.24
1003.654	4051.29
1003.949	4000.45
1004.243	3957.28
1004.538	3950.28
1004.832	3952.31
1005.127	3944.63
1005.421	3887.45
1005.715	3856.49
1006.009	3856.49
1006.304	3882.93
1006.598	3813.11
1006.892	3774.69
1007.186	3768.14
1007.48	3744.86
1007.773	3687.69
1008.067	3690.4
1008.361	3656.5
1008.655	3618.76
1008.948	3614.24
1009.242	3595.94
1009.535	3562.94
1009.829	3506.67
1010.122	3514.36
1010.415	3493.79
1010.708	3478.43
1011.001	3459.44
1011.295	3404.3
1011.588	3427.13
1011.881	3379.67
1012.173	3431.65
1012.466	3347.13
1012.759	3355.26
1013.052	3310.52
1013.344	3296.06
1013.637	3300.13
1013.93	3254.48
1014.222	3233.01
1014.514	3184.87
1014.807	3203.18
1015.099	3173.35
1015.391	3129.96
1015.683	3098.55
1015.976	3105.1
1016.268	3052.45
1016.56	3005.22
1016.851	3023.07
1017.143	2983.07
1017.435	3009.29
1017.727	2969.29
1018.018	2972.68
1018.31	2924.77
1018.602	2924.77
1018.893	2898.33
1019.185	2858.55
1019.476	2865.79
1019.767	2834.6
1020.058	2822.85
1020.35	2810.19
1020.641	2728.61
1020.932	2749.63
1021.223	2720.93
1021.514	2696.3
1021.804	2669.41
1022.095	2667.6
1022.386	2653.36
1022.677	2643.19
1022.967	2649.07
1023.258	2602.06
1023.548	2581.73
1023.839	2581.05
1024.129	2527.26
1024.419	2515.51
1024.709	2468.51
1025	2509.41
1025.29	2460.15
1025.58	2423.54
1025.87	2400.04
1026.16	2401.17
1026.449	2390.32
1026.739	2358.23
1027.029	2361.17
1027.319	2354.61
1027.608	2367.04
1027.898	2290.66
1028.187	2304.67
1028.477	2275.07
1028.766	2238.91
1029.055	2233.49
1029.344	2214.05
1029.634	2213.83
1029.923	2199.59
1030.212	2187.61
1030.501	2162.75
1030.79	2151.91
1031.078	2127.73
1031.367	2091.8
1031.656	2067.84
1031.945	2086.82
1032.233	2033.27
1032.522	2039.37
1032.81	2042.53
1033.099	2012.25
1033.387	1990.56
1033.675	1989.43
1033.963	1968.41
1034.251	1937
1034.54	1904.23
1034.828	1916.43
1035.116	1899.26
1035.403	1904.68
1035.691	1905.36
1035.979	1905.13
1036.267	1869.2
1036.554	1849.54
1036.842	1822.65
1037.129	1824.23
1037.417	1810.22
1037.704	1769.32
1037.992	1762.09
1038.279	1784.46
1038.566	1764.12
1038.853	1764.12
1039.14	1764.12
