Data from 199_FLMS001491_004.txt Node
Date: Thu Apr 19 16:32:58 BST 2018
User: hsy
Spectrometer: FLMS00149
Trigger mode: 0
Integration Time (sec): 1.000000E-2
Scans to average: 10
Electric dark correction enabled: true
Nonlinearity correction enabled: false
Boxcar width: 0
XAxis mode: Wavelengths
Number of Pixels in Spectrum: 2048
>>>>>Begin Spectral Data<<<<<
341.393	-28.45
341.776	-28.45
342.16	-28.45
342.543	-57.82
342.927	-80.65
343.31	-63.02
343.693	-65.96
344.077	-62.57
344.46	-57.37
344.843	-45.39
345.226	-51.27
345.61	-25.51
345.993	-15.79
346.376	-17.6
346.759	18.56
347.142	48.61
347.525	28.05
347.908	29.41
348.291	85.45
348.674	82.06
349.057	112.34
349.44	145.56
349.823	143.75
350.206	173.58
350.588	236.41
350.971	275.73
351.354	264.88
351.737	283.41
352.119	318.66
352.502	296.07
352.884	321.15
353.267	332.9
353.65	345.78
354.032	364.09
354.414	371.32
354.797	345.56
355.179	366.8
355.562	381.71
355.944	372
356.326	399.11
356.709	392.56
357.091	397.08
357.473	407.93
357.855	397.31
358.238	393.01
358.62	381.71
359.002	407.25
359.384	397.76
359.766	397.31
360.148	408.61
360.53	397.76
360.912	396.85
361.294	405.67
361.676	403.41
362.057	390.98
362.439	391.43
362.821	396.4
363.203	385.33
363.584	388.72
363.966	373.35
364.348	407.93
364.729	390.75
365.111	393.69
365.493	388.94
365.874	395.27
366.256	378.1
366.637	393.24
367.019	390.98
367.4	395.05
367.781	383.52
368.163	386.68
368.544	386.01
368.925	388.72
369.306	423.97
369.688	393.46
370.069	400.24
370.45	403.63
370.831	399.79
371.212	408.38
371.593	417.42
371.974	389.62
372.355	418.1
372.736	431.66
373.117	397.08
373.498	398.66
373.879	411.32
374.26	390.98
374.641	397.08
375.021	396.63
375.402	410.64
375.783	398.44
376.163	421.49
376.544	423.75
376.925	424.88
377.305	438.21
377.686	416.97
378.066	442.28
378.447	420.58
378.827	440.24
379.208	417.64
379.588	448.38
379.968	427.81
380.349	429.17
380.729	447.25
381.109	465.33
381.489	456.29
381.87	447.47
382.25	473.24
382.63	470.75
383.01	459.45
383.39	462.16
383.77	466.68
384.15	448.83
384.53	474.14
384.91	476.85
385.29	466.68
385.67	483.18
386.049	503.52
386.429	492.44
386.809	493.57
387.189	503.29
387.568	496.51
387.948	496.06
388.328	492.44
388.707	534.93
389.087	497.87
389.466	517.08
389.846	532.44
390.225	522.73
390.605	512.78
390.984	521.6
391.363	543.97
391.743	520.47
392.122	533.8
392.501	552.56
392.881	551.2
393.26	561.14
393.639	553.46
394.018	552.78
394.397	563.63
394.776	581.26
395.155	561.82
395.534	559.34
395.913	553.69
396.292	561.14
396.671	574.48
397.05	576.74
397.429	607.47
397.808	595.49
398.186	576.06
398.565	590.75
398.944	600.01
399.323	598.88
399.701	598.88
400.08	620.12
400.458	626.9
400.837	627.36
401.215	637.3
401.594	650.18
401.972	646.34
402.351	652.44
402.729	637.53
403.107	647.02
403.486	640.01
403.864	661.93
404.242	664.87
404.62	656.51
404.999	669.16
405.377	699.67
405.755	684.98
406.133	690.86
406.511	688.6
406.889	709.16
407.267	715.94
407.645	715.72
408.023	715.94
408.401	743.29
408.779	715.49
409.156	772.44
409.534	747.13
409.912	751.87
410.29	786
410.667	769.95
411.045	786
411.422	787.58
411.8	808.82
412.178	819.89
412.555	798.43
412.933	829.61
413.31	825.32
413.687	837.07
414.065	867.35
414.442	868.25
414.819	884.75
415.197	898.31
415.574	877.97
415.951	892.66
416.328	897.63
416.705	905.54
417.082	897.41
417.46	936.5
417.837	945.31
418.214	915.03
418.591	943.73
418.967	955.71
419.344	959.33
419.721	948.48
420.098	955.48
420.475	994.35
420.852	977.18
421.228	999.32
421.605	1014.69
421.982	1006.78
422.358	1026.67
422.735	1031.41
423.111	1019.44
423.488	1039.77
423.864	1069.6
424.241	1048.36
424.617	1075.93
424.994	1068.47
425.37	1061.02
425.746	1081.13
426.123	1096.5
426.499	1091.52
426.875	1111.86
427.251	1147.12
427.627	1164.29
428.003	1164.07
428.379	1164.52
428.756	1204.74
429.132	1244.06
429.507	1248.36
429.883	1233.44
430.259	1248.13
430.635	1294.68
431.011	1257.85
431.387	1306.21
431.763	1327
432.138	1308.69
432.514	1340.56
432.89	1365.87
433.265	1385.98
433.641	1380.33
434.016	1405.42
434.392	1421.01
434.767	1427.56
435.143	1453.1
435.518	1430.5
435.894	1471.63
436.269	1504.4
436.644	1511.17
437.02	1536.03
437.395	1521.8
437.77	1559.08
438.145	1586.65
438.52	1590.49
438.895	1606.99
439.271	1567.9
439.646	1624.17
440.021	1649.02
440.395	1652.64
440.77	1647.89
441.145	1657.39
441.52	1642.92
441.895	1691.74
442.27	1663.49
442.645	1685.63
443.019	1702.36
443.394	1713.2
443.769	1736.93
444.143	1715.92
444.518	1737.16
444.892	1711.85
445.267	1734.45
445.641	1782.81
446.016	1802.47
446.39	1801.11
446.764	1792.98
447.139	1791.62
447.513	1833.88
447.887	1829.81
448.262	1857.15
448.636	1856.93
449.01	1899.87
449.384	1871.84
449.758	1908.9
450.132	1934.44
450.506	1946.42
450.88	1942.8
451.254	1945.06
451.628	1969.69
452.002	2016.02
452.376	2042.01
452.75	2042.01
453.123	2091.5
453.497	2122.91
453.871	2099.41
454.244	2149.35
454.618	2124.04
454.992	2200.87
455.365	2213.76
455.739	2247.43
456.112	2224.38
456.486	2305.96
456.859	2298.27
457.232	2362
457.606	2357.25
457.979	2358.38
458.352	2428.21
458.725	2444.26
459.099	2460.08
459.472	2509.57
459.845	2533.07
460.218	2554.54
460.591	2585.05
460.964	2623.24
461.337	2630.92
461.71	2705.95
462.083	2681.09
462.456	2709.11
462.829	2727.87
463.201	2807.86
463.574	2813.74
463.947	2851.48
464.32	2852.83
464.692	2893.51
465.065	2899.16
465.438	2939.39
465.81	2944.36
466.183	2985.26
466.555	3068.2
466.928	3087.18
467.3	3054.86
467.672	3100.51
468.045	3192.49
468.417	3203.11
468.789	3199.94
469.161	3262.99
469.534	3305.25
469.906	3361.52
470.278	3398.81
470.65	3416.89
471.022	3518.81
471.394	3524.68
471.766	3591.12
472.138	3642.64
472.51	3686.48
472.882	3724.9
473.253	3763.77
473.625	3808.97
473.997	3835.63
474.369	3897.55
474.74	3970.09
475.112	4066.81
475.484	4082.63
475.855	4129.86
476.227	4246.7
476.598	4246.7
476.97	4320.82
477.341	4403.53
477.713	4466.35
478.084	4541.6
478.455	4641.49
478.827	4662.96
479.198	4759.68
479.569	4812.78
479.94	4939.33
480.311	5005.55
480.682	5113.57
481.053	5149.27
481.424	5243.73
481.795	5344.97
482.166	5411.41
482.537	5481.01
482.908	5665.19
483.279	5646.66
483.65	5799.42
484.021	5814.79
484.391	5950.61
484.762	6044.62
485.133	6091.85
485.503	6195.57
485.874	6370.03
486.244	6400.54
486.615	6537.03
486.985	6561.21
487.356	6719.17
487.726	6804.37
488.097	6903.12
488.467	6966.17
488.837	7062.22
489.207	7202.78
489.578	7294.3
489.948	7364.81
490.318	7547.4
490.688	7562.77
491.058	7708.98
491.428	7837.34
491.798	7872.14
492.168	8027.39
492.538	8066.93
492.908	8180.83
493.278	8313.03
493.648	8326.59
494.017	8467.15
494.387	8550.31
494.757	8612.91
495.126	8672.79
495.496	8781.72
495.866	8849.29
496.235	8939.23
496.605	9044.54
496.974	9056.74
497.344	9179
497.713	9248.15
498.082	9272.78
498.452	9390.74
498.821	9511.64
499.19	9501.02
499.559	9569.27
499.928	9723.39
500.298	9677.74
500.667	9798.64
501.036	9812.65
501.405	9889.49
501.774	9962.93
502.143	10031.18
502.512	10048.13
502.88	10195.69
503.249	10152.53
503.618	10293.09
503.987	10326.99
504.356	10340.32
504.724	10418.96
505.093	10500.54
505.462	10544.61
505.83	10587.55
506.199	10711.61
506.567	10847.88
506.936	10800.65
507.304	10997.25
507.672	11010.36
508.041	11044.94
508.409	11127.42
508.777	11183.24
509.145	11333.74
509.514	11330.58
509.882	11369.9
510.25	11415.55
510.618	11562.21
510.986	11535.54
511.354	11643.34
511.722	11744.35
512.09	11862.99
512.458	11867.96
512.826	11956.1
513.193	12017.34
513.561	12084.68
513.929	12172.82
514.297	12239.71
514.664	12424.11
515.032	12450.1
515.4	12570.55
515.767	12657.1
516.135	12711.78
516.502	12651
516.869	12902.51
517.237	12960.59
517.604	12850.99
517.972	13102.51
518.339	13205.1
518.706	13296.63
519.073	13382.05
519.44	13459.56
519.808	13537.3
520.175	13693
520.542	13876.27
520.909	13876.05
521.276	13961.47
521.643	14214.12
522.009	14223.16
522.376	14287.56
522.743	14519.87
523.11	14752.86
523.477	14827.21
523.843	14922.35
524.21	15061.78
524.577	15136.81
524.943	15240.76
525.31	15363.01
525.676	15497.25
526.043	15601.65
526.409	15766.85
526.776	16005.94
527.142	16133.62
527.508	16099.94
527.874	16269.2
528.241	16408.18
528.607	16484.11
528.973	16755.97
529.339	16727.27
529.705	16894.73
530.071	17032.35
530.437	17202.06
530.803	17415.39
531.169	17466.24
531.535	17515.95
531.901	17545.1
532.267	17729.51
532.632	17796.17
532.998	17915.72
533.364	18006.56
533.73	18189.15
534.095	18312.09
534.461	18364.07
534.826	18485.64
535.192	18492.65
535.557	18722.25
535.923	18694
536.288	18844.96
536.653	19017.83
537.019	18923.37
537.384	19081.56
537.749	19259.86
538.114	19175.34
538.479	19262.12
538.845	19384.83
539.21	19435.9
539.575	19446.07
539.94	19582.79
540.305	19764.25
540.67	19775.78
541.034	19867.08
541.399	19878.83
541.764	20045.38
542.129	20027.98
542.494	20192.04
542.858	20245.82
543.223	20249.21
543.587	20273.62
543.952	20468.64
544.316	20506.38
544.681	20455.99
545.045	20710.22
545.41	20722.42
545.774	20755.87
546.138	20775.3
546.503	20876.09
546.867	20992.24
547.231	21098.91
547.595	21169.19
547.959	21249.19
548.324	21286.02
548.688	21384.55
549.052	21422.74
549.416	21501.61
549.779	21582.96
550.143	21544.77
550.507	21750.87
550.871	21855.95
551.235	21916.51
551.599	22059.34
551.962	22177.98
552.326	22248.93
552.689	22336.39
553.053	22333.68
553.417	22447.35
553.78	22682.14
554.143	22685.99
554.507	22826.09
554.87	22926.88
555.234	23118.06
555.597	23066.31
555.96	23167.1
556.323	23302.47
556.686	23355.12
557.05	23519.86
557.413	23587.2
557.776	23741.78
558.139	23840.76
558.502	23866.75
558.865	23986.29
559.228	24254.53
559.59	24372.95
559.953	24455.66
560.316	24554.18
560.679	24703.11
561.041	24816.32
561.404	25033.49
561.767	25251.34
562.129	25184.22
562.492	25502.18
562.854	25609.52
563.217	25612.01
563.579	25819.24
563.941	25947.59
564.304	26233.01
564.666	26495.15
565.028	26716.84
565.39	26685.88
565.753	26910.73
566.115	27059.66
566.477	27238.86
566.839	27443.37
567.201	27843.14
567.563	27745.74
567.925	28048.33
568.287	28218.5
568.648	28283.8
569.01	28635.21
569.372	28832.49
569.734	28950.68
570.095	29271.57
570.457	29447.84
570.819	29418.24
571.18	29598.12
571.542	29996.3
571.903	30092.8
572.265	30351.77
572.626	30645.78
572.987	30692.55
573.349	30960.57
573.71	31107.68
574.071	31216.16
574.432	31496.83
574.794	31765.75
575.155	31909.02
575.516	31946.53
575.877	32066.76
576.238	32261.1
576.599	32449.57
576.96	32544.48
577.32	32619.06
577.681	32847.75
578.042	33163.9
578.403	33075.99
578.763	33261.75
579.124	33344.46
579.485	33744
579.845	33849.76
580.206	33782.87
580.566	33969.3
580.927	34113.93
581.287	34303.31
581.648	34333.14
582.008	34520.02
582.368	34610.87
582.728	34682.96
583.089	34684.77
583.449	34842.95
583.809	35042.72
584.169	35356.84
584.529	35265.54
584.889	35861.68
585.249	35589.6
585.609	35706.21
585.969	36137.16
586.329	36113.88
586.688	36507.99
587.048	36520.88
587.408	36827.08
587.768	37042.67
588.127	37332.38
588.487	37453.73
588.846	38024.11
589.206	37845.59
589.565	38325.35
589.925	38827.71
590.284	39043.3
590.643	39381.59
591.003	39771.41
591.362	40199.42
591.721	40501.11
592.08	40936.35
592.44	41454.31
592.799	41606.62
593.158	42130.9
593.517	42382.19
593.876	42886.81
594.235	43296.52
594.593	43748.03
594.952	44220.79
595.311	44483.38
595.67	45125.17
596.029	45732.84
596.387	46253.5
596.746	46843.32
597.104	46910.21
597.463	47330.99
597.822	47940.01
598.18	48179.1
598.538	48509.94
598.897	49302.69
599.255	49407.99
599.613	50245.49
599.972	50259.27
600.33	50772.25
600.688	51051.34
601.046	51566.58
601.404	51967.48
601.762	52202.27
602.12	52743.05
602.478	53036.83
602.836	53321.79
603.194	53487.89
603.552	53826.86
603.91	54102.79
604.268	54448.54
604.625	54707.52
604.983	55135.3
605.341	55288.97
605.698	55662.52
606.056	55967.6
606.413	56123.52
606.771	56501.14
607.128	56672.89
607.485	56897.97
607.843	57116.49
608.2	57500.21
608.557	57713.76
608.914	57829.69
609.272	58165.05
609.629	58452.95
609.986	58725.26
610.343	58770.91
610.7	59185.82
611.057	59263.55
611.414	59430.33
611.771	59725.46
612.127	59901.05
612.484	60047.49
612.841	60235.05
613.198	60349.4
613.554	60421.49
613.911	60824.42
614.267	60898.54
614.624	61034.13
614.98	61183.28
615.337	61430.05
615.693	61489.71
616.05	61601.8
616.406	61846.54
616.762	61856.03
617.118	62055.35
617.475	62111.62
617.831	62361.55
618.187	62448.33
618.543	62539.17
618.899	62772.62
619.255	62808.32
619.611	62862.1
619.967	63105.04
620.323	63193.62
620.678	63163.79
621.034	63252.15
621.39	63354.07
621.746	63418.25
622.101	63521.97
622.457	63511.8
622.812	63521.97
623.168	63521.97
623.523	63521.97
623.879	63521.97
624.234	63521.97
624.589	63521.97
624.945	63521.97
625.3	63521.97
625.655	63521.97
626.01	63521.97
626.365	63521.97
626.72	63521.97
627.075	63521.97
627.43	63521.97
627.785	63521.97
628.14	63521.97
628.495	63521.97
628.85	63521.97
629.205	63521.97
629.559	63521.97
629.914	63521.97
630.269	63521.97
630.623	63521.97
630.978	63521.97
631.332	63521.97
631.687	63521.97
632.041	63521.97
632.396	63521.97
632.75	63521.97
633.104	63521.97
633.459	63521.97
633.813	63521.97
634.167	63521.97
634.521	63521.97
634.875	63521.97
635.229	63521.97
635.583	63521.97
635.937	63521.97
636.291	63521.97
636.645	63521.97
636.999	63521.97
637.352	63521.97
637.706	63521.97
638.06	63521.97
638.413	63521.97
638.767	63521.97
639.121	63521.97
639.474	63521.97
639.828	63521.97
640.181	63521.97
640.534	63521.97
640.888	63521.97
641.241	63521.97
641.594	63521.97
641.947	63521.97
642.301	63521.97
642.654	63521.97
643.007	63521.97
643.36	63521.97
643.713	63521.97
644.066	63521.97
644.419	63521.97
644.771	63521.97
645.124	63521.97
645.477	63521.97
645.83	63521.97
646.182	63521.97
646.535	63521.97
646.888	63521.97
647.24	63521.97
647.593	63521.97
647.945	63521.97
648.298	63519.49
648.65	63496.66
649.002	63440.17
649.355	63453.5
649.707	63359.94
650.059	63382.99
650.411	63521.52
650.763	63521.97
651.115	63521.97
651.467	63521.97
651.819	63521.97
652.171	63521.97
652.523	63521.97
652.875	63521.97
653.227	63521.97
653.578	63521.97
653.93	63521.97
654.282	63521.97
654.633	63521.97
654.985	63521.97
655.337	63521.97
655.688	63521.97
656.039	63521.97
656.391	63519.94
656.742	63521.97
657.094	63521.97
657.445	63521.97
657.796	63521.97
658.147	63521.97
658.498	63521.97
658.849	63521.97
659.2	63518.81
659.551	63521.97
659.902	63521.97
660.253	63521.97
660.604	63521.97
660.955	63521.97
661.306	63521.97
661.656	63519.49
662.007	63521.97
662.358	63521.97
662.708	63521.97
663.059	63521.97
663.409	63473.84
663.76	63521.97
664.11	63521.97
664.461	63521.97
664.811	63521.97
665.161	63521.3
665.511	63518.81
665.862	63514.06
666.212	63519.04
666.562	63521.97
666.912	63521.97
667.262	63521.52
667.612	63521.97
667.962	63521.97
668.312	63504.8
668.662	63521.97
669.011	63521.75
669.361	63495.08
669.711	63520.62
670.06	63491.01
670.41	63488.98
670.76	63505.03
671.109	63521.97
671.459	63511.13
671.808	63505.7
672.157	63504.57
672.507	63393.39
672.856	63397.68
673.205	63456.89
673.554	63491.01
673.904	63439.26
674.253	63521.97
674.602	63445.14
674.951	63183.45
675.3	63079.05
675.649	63435.42
675.998	63434.07
676.346	63483.33
676.695	63449.66
677.044	63352.03
677.393	63374.41
677.741	63435.87
678.09	63342.77
678.438	63319.27
678.787	63372.6
679.135	63351.58
679.484	63206.05
679.832	63245.37
680.181	63191.59
680.529	63248.76
680.877	63138.71
681.225	63094.87
681.573	63262.55
681.922	63080.18
682.27	63027.3
682.618	62994.08
682.966	62914.31
683.314	63051.93
683.661	62971.71
684.009	62899.17
684.357	62838.6
684.705	62805.38
685.053	62771.49
685.4	62672.5
685.748	62616.91
686.095	62651.49
686.443	62484.71
686.79	62526.52
687.138	62592.51
687.485	62488.55
687.832	62448.56
688.18	62446.07
688.527	62313.87
688.874	62260.09
689.221	62268.45
689.568	62221.44
689.915	62096.7
690.262	62085.18
690.609	62012.41
690.956	61935.35
691.303	61982.35
691.65	61901.45
691.997	61772.87
692.344	61716.37
692.69	61606.32
693.037	61684.96
693.383	61431.18
693.73	61505.53
694.077	61387.11
694.423	61388.24
694.769	61338.3
695.116	61293.11
695.462	61210.4
695.808	61127.01
696.155	61158.42
696.501	60927.69
696.847	61035.26
697.193	60793.68
697.539	60809.95
697.885	60657.19
698.231	60584.88
698.577	60600.47
698.923	60561.83
699.269	60357.09
699.614	60331.78
699.96	60247.26
700.306	60307.14
700.651	60181.27
700.997	60092.01
701.342	60018.34
701.688	59980.37
702.033	59921.62
702.379	59914.39
702.724	59765.24
703.069	59802.07
703.415	59559.37
703.76	59526.15
704.105	59605.47
704.45	59427.17
704.795	59390.56
705.14	59258.36
705.485	59370.44
705.83	59170.9
706.175	59199.6
706.52	59131.13
706.865	59090.9
707.209	58999.83
707.554	58920.96
707.899	58875.09
708.243	58792.15
708.588	58817.69
708.932	58631.71
709.277	58720.97
709.621	58559.39
709.966	58462.22
710.31	58492.05
710.654	58381.09
710.998	58372.5
711.342	58315.78
711.687	58184.71
712.031	58184.49
712.375	58093.87
712.719	58068.11
713.063	57996.02
713.407	58130.03
713.75	58007.54
714.094	57920.54
714.438	57855.23
714.782	57791.96
715.125	57659.98
715.469	57798.06
715.812	57628.57
716.156	57585.63
716.499	57572.07
716.843	57542.24
717.186	57456.37
717.53	57514.45
717.873	57474.9
718.216	57339.76
718.559	57257.05
718.902	57093.67
719.246	57212.76
719.589	57048.92
719.932	56955.37
720.275	56975.25
720.617	57015.48
720.96	56918.31
721.303	56927.8
721.646	56951.3
721.989	56691.87
722.331	56839.66
722.674	56686.67
723.016	56697.52
723.359	56640.57
723.701	56609.39
724.044	56461.82
724.386	56394.93
724.729	56491.2
725.071	56468.37
725.413	56418.43
725.755	56304.54
726.097	56272.67
726.439	56188.61
726.782	56144.09
727.124	56220.7
727.465	56182.05
727.807	56112.23
728.149	56144.99
728.491	55957.43
728.833	55962.4
729.175	55966.92
729.516	55879.24
729.858	55925.34
730.199	55974.83
730.541	55842.4
730.882	55786.81
731.224	55763.53
731.565	55699.13
731.906	55661.16
732.248	55761.05
732.589	55570.32
732.93	55579.58
733.271	55459.81
733.612	55452.58
733.953	55569.87
734.294	55441.73
734.635	55377.56
734.976	55450.55
735.317	55213.72
735.658	55288.29
735.999	55181.4
736.339	55287.84
736.68	55240.61
737.021	55175.07
737.361	55062.54
737.702	55309.08
738.042	55120.16
738.383	55179.82
738.723	55146.37
739.063	54997.45
739.404	55096.43
739.744	55015.76
740.084	54879.94
740.424	54995.87
740.764	54920.84
741.104	54870.22
741.444	54771.7
741.784	54692.38
742.124	54920.62
742.464	54739.38
742.804	54676.78
743.143	54600.85
743.483	54709.32
743.823	54563.57
744.162	54575.99
744.502	54572.15
744.841	54393.85
745.181	54529.44
745.52	54382.55
745.86	54560.18
746.199	54455.09
746.538	54378.94
746.877	54420.97
747.216	54327.64
747.556	54258.49
747.895	54290.35
748.234	54091.26
748.573	54186.4
748.911	54048.32
749.25	54041.32
749.589	53964.03
749.928	54025.05
750.267	54062.11
750.605	53880.42
750.944	53893.07
751.283	53771.04
751.621	53863.02
751.96	53681.55
752.298	53611.5
752.636	53608.11
752.975	53591.61
753.313	53533.08
753.651	53594.33
753.989	53446.76
754.327	53444.05
754.666	53185.97
755.004	53277.5
755.342	53308.01
755.679	53208.12
756.017	52989.6
756.355	53142.81
756.693	52999.54
757.031	53112.76
757.368	52882.48
757.706	52804.52
758.044	52750.73
758.381	52713.67
758.719	52652.2
759.056	52713.44
759.394	52482.26
759.731	52252.67
760.068	52249.95
760.405	52279.33
760.743	52013.35
761.08	52079.34
761.417	51968.15
761.754	51874.82
762.091	51840.7
762.428	51657.2
762.765	51513.25
763.102	51614.04
763.438	51428.73
763.775	51192.58
764.112	51234.16
764.449	51238.68
764.785	51094.73
765.122	50968.41
765.458	50678.92
765.795	50638.02
766.131	50675.76
766.467	50562.09
766.804	50375.65
767.14	50314.19
767.476	50262.89
767.812	50034.42
768.148	50111.48
768.485	50005.72
768.821	49672.17
769.157	49653.19
769.492	49490.25
769.828	49400.31
770.164	49109.7
770.5	49009.59
770.836	49064.73
771.171	48811.63
771.507	48682.36
771.842	48426.1
772.178	48392.2
772.513	48182.72
772.849	48168.03
773.184	48106.56
773.519	47975.49
773.855	47734.59
774.19	47726
774.525	47574.82
774.86	47475.84
775.195	47257.54
775.53	47137.09
775.865	46995.4
776.2	46705.47
776.535	46451.24
776.87	46418.92
777.205	46236.33
777.539	45982.77
777.874	46149.1
778.209	45687.19
778.543	45808.77
778.878	45442
779.212	45455.56
779.547	45163.59
779.881	45129.01
780.215	44930.37
780.55	45042.91
780.884	44595.69
781.218	44384.85
781.552	44542.13
781.886	44150.96
782.22	44063.28
782.554	43736.51
782.888	43533.57
783.222	43697.41
783.556	43107.37
783.889	43250.64
784.223	42879.13
784.557	42993.7
784.89	43031.44
785.224	42540.38
785.557	42380.38
785.891	42479.82
786.224	42306.94
786.558	42216.09
786.891	41762.77
787.224	41572.49
787.557	41517.13
787.891	41490.01
788.224	41334.99
788.557	41301.09
788.89	41132.51
789.223	41160.08
789.556	40730.48
789.888	40769.35
790.221	40452.3
790.554	40400.55
790.887	40327.1
791.219	40202.36
791.552	40004.63
791.884	39732.99
792.217	39809.15
792.549	39661.58
792.882	39358.99
793.214	39296.85
793.546	39310.41
793.879	38999.45
794.211	38698.9
794.543	38945.9
794.875	38840.36
795.207	38690.76
795.539	38515.4
795.871	38621.39
796.203	38333.94
796.535	38147.27
796.867	38118.57
797.198	37816.21
797.53	37812.82
797.862	37480.62
798.193	37601.07
798.525	37375.32
798.856	37377.58
799.188	36959.28
799.519	36842.9
799.85	36752.06
800.182	36842.68
800.513	36777.59
800.844	36338.51
801.175	36533.98
801.506	36540.99
801.837	36300.77
802.168	36105.75
802.499	36159.98
802.83	36030.49
803.161	35870.95
803.491	35880.44
803.822	35951.4
804.153	35596.61
804.483	35494.91
804.814	35290.4
805.145	35347.57
805.475	35197.29
805.805	35126.79
806.136	35188.26
806.466	34832.56
806.796	34864.65
807.126	34644.09
807.457	34540.14
807.787	34717.53
808.117	34440.25
808.447	34256.75
808.777	34436.86
809.107	34012.02
809.436	34004.78
809.766	33853.15
810.096	34003.2
810.426	33789.65
810.755	33819.93
811.085	33694.06
811.414	33780.83
811.744	33475.31
812.073	33490
812.403	33392.6
812.732	33226.95
813.061	33353.73
813.39	32979.73
813.719	32984.47
814.049	33059.05
814.378	32960.97
814.707	32780.64
815.036	32704.93
815.365	32539.74
815.693	32440.76
816.022	32460.64
816.351	32295.9
816.68	32167.09
817.008	32275.56
817.337	31942.47
817.665	31927.32
817.994	31891.85
818.322	31988.79
818.651	31735.92
818.979	31671.29
819.307	31740.44
819.636	31599.65
819.964	31475.58
820.292	31547
820.62	31448.92
820.948	31528.92
821.276	31695.47
821.604	31537.96
821.932	31585.64
822.259	31394.68
822.587	31506.54
822.915	31449.14
823.243	31410.05
823.57	31258.64
823.898	31446.66
824.225	31497.73
824.553	31392.2
824.88	31369.37
825.207	31416.6
825.535	31169.15
825.862	31399.2
826.189	31365.53
826.516	31463.38
826.843	31600.78
827.17	31449.6
827.497	31475.36
827.824	31425.42
828.151	31586.99
828.478	31379.32
828.805	31635.35
829.131	31470.16
829.458	31502.7
829.785	31175.93
830.111	31337.96
830.438	31479.88
830.764	31429.94
831.09	31502.7
831.417	31323.95
831.743	31536.6
832.069	31392.2
832.395	31344.51
832.722	31432.2
833.048	31172.54
833.374	31403.95
833.7	31204.63
834.026	31285.08
834.351	31175.25
834.677	31164.18
835.003	31036.5
835.329	31098.42
835.654	31123.96
835.98	31032.21
836.306	31149.27
836.631	30884.19
836.956	31043.96
837.282	30949.04
837.607	30944.07
837.932	30945.66
838.258	30802.61
838.583	30744.98
838.908	30614.36
839.233	30720.8
839.558	30545.89
839.883	30575.04
840.208	30363.98
840.533	30470.41
840.858	30393.13
841.182	30473.35
841.507	30452.11
841.832	30318.55
842.156	30220.7
842.481	30246.46
842.805	30157.88
843.13	30041.95
843.454	30035.62
843.778	29988.62
844.103	29860.03
844.427	29935.96
844.751	29826.36
845.075	29569.19
845.399	29738.46
845.723	29507.73
846.047	29540.95
846.371	29309.99
846.695	29165.14
847.019	29042.43
847.343	28928.31
847.666	28824.58
847.99	28630.46
848.313	28564.7
848.637	28523.35
848.96	28497.81
849.284	28410.13
849.607	28098.72
849.931	28142.34
850.254	28089.91
850.577	27778.96
850.9	27666.42
851.223	27757.72
851.546	27682.24
851.869	27306.88
852.192	27657.38
852.515	27151.86
852.838	27082.71
853.161	27181.46
853.483	26823.28
853.806	26835.03
854.129	26809.72
854.451	26660.8
854.774	26476.85
855.096	26498.54
855.419	26397.75
855.741	26441.59
856.063	26075.05
856.385	26106.01
856.708	26032.11
857.03	25932.23
857.352	25848.61
857.674	25769.52
857.996	25688.39
858.318	25528.85
858.64	25619.69
858.961	25407.04
859.283	25442.98
859.605	25275.97
859.926	25274.39
860.248	25178.12
860.57	25110.33
860.891	25109.88
861.212	25007.96
861.534	25019.26
861.855	24815.42
862.176	24892.71
862.498	24952.14
862.819	24802.09
863.14	24686.38
863.461	24658.14
863.782	24691.81
864.103	24647.06
864.424	24495.88
864.745	24567.52
865.065	24344.02
865.386	24308.77
865.707	24332.72
866.027	24269.9
866.348	24310.8
866.668	24288.43
866.989	24261.31
867.309	23963.69
867.63	24040.75
867.95	24116.91
868.27	23900.64
868.59	24000.98
868.91	23919.17
869.23	23836.24
869.55	23724.83
869.87	23895.67
870.19	23725.73
870.51	23812.96
870.83	23700.2
871.15	23597.6
871.469	23532.06
871.789	23680.76
872.109	23558.96
872.428	23473.31
872.748	23460.88
873.067	23467.89
873.386	23511.05
873.706	23353.09
874.025	23274.44
874.344	23217.95
874.663	23260.89
874.982	23105.18
875.301	23196.48
875.62	23023.15
875.939	23042.36
876.258	23102.02
876.577	22905.19
876.896	22921.46
877.214	22814.57
877.533	22968.01
877.852	22887.79
878.17	22929.82
878.489	22786.1
878.807	22667.45
879.125	22738.19
879.444	22641.24
879.762	22529.83
880.08	22669.94
880.398	22487.35
880.716	22551.53
881.034	22430.62
881.352	22533
881.67	22454.13
881.988	22278.54
882.306	22273.57
882.624	22199.22
882.941	22145.89
883.259	22117.41
883.577	22060.01
883.894	21972.11
884.212	22041.93
884.529	21926.68
884.846	21779.57
885.164	21773.47
885.481	21544.55
885.798	21824.77
886.115	21476.07
886.432	21582.96
886.75	21584.77
887.067	21550.2
887.383	21441.05
887.7	21384.32
888.017	21147.72
888.334	21199.47
888.651	21096.2
888.967	21135.52
889.284	20981.62
889.6	20988.4
889.917	20966.48
890.233	20956.99
890.55	20757.45
890.866	20919.93
891.182	20818.92
891.498	20761.06
891.815	20507.96
892.131	20559.04
892.447	20546.15
892.763	20386.84
893.079	20361.98
893.395	20280.62
893.71	20240.4
894.026	20149.1
894.342	20160.85
894.657	19984.81
894.973	20053.06
895.289	19964.93
895.604	19928.32
895.92	19779.4
896.235	19727.87
896.55	19646.29
896.865	19621.66
897.181	19574.88
897.496	19510.93
897.811	19373.53
898.126	19321.33
898.441	19283.59
898.756	19177.6
899.071	19157.04
899.386	19135.57
899.7	18968.57
900.015	18881.79
900.33	18675.92
900.644	18722.25
900.959	18678.41
901.273	18643.61
901.588	18491.97
901.902	18593.21
902.216	18450.39
902.531	18363.39
902.845	18289.49
903.159	18304.86
903.473	18071.87
903.787	18038.88
904.101	18078.42
904.415	18036.39
904.729	17966.11
905.042	17847.69
905.356	17830.07
905.67	17758.43
905.984	17781.03
906.297	17588.04
906.611	17478.66
906.924	17482.51
907.237	17445.9
907.551	17276.41
907.864	17274.15
908.177	17251.33
908.491	17071.44
908.804	17035.29
909.117	16949.41
909.43	16895.18
909.743	16833.94
910.056	16763.88
910.368	16809.53
910.681	16659.25
910.994	16557.78
911.307	16512.81
911.619	16245.02
911.932	16437.34
912.244	16159.38
912.557	16126.84
912.869	16011.58
913.181	16104.24
913.494	16066.05
913.806	15983.56
914.118	15881.42
914.43	15880.51
914.742	15856.33
915.054	15700.63
915.366	15660.86
915.678	15603.46
915.99	15551.26
916.302	15512.84
916.613	15410.47
916.925	15389.23
917.236	15315.11
917.548	15157.37
917.859	15273.3
918.171	15063.36
918.482	14957.6
918.794	14909.69
919.105	14909.47
919.416	14794.44
919.727	14812.29
920.038	14657.27
920.349	14648.46
920.66	14528.91
920.971	14595.35
921.282	14489.36
921.593	14446.43
921.903	14297.51
922.214	14233.33
922.525	14206.89
922.835	14132.31
923.146	13982.71
923.456	13983.39
923.767	13947.01
924.077	13924.41
924.387	13934.13
924.697	13741.36
925.008	13750.18
925.318	13662.95
925.628	13655.04
925.938	13603.51
926.248	13488.49
926.558	13329.17
926.867	13398.55
927.177	13310.41
927.487	13202.39
927.796	13146.8
928.106	13233.58
928.416	13167.82
928.725	13108.84
929.034	12923.3
929.344	13042.4
929.653	12960.37
929.962	12785.91
930.271	12797.21
930.581	12792.01
930.89	12665.01
931.199	12618.45
931.508	12519.93
931.817	12546.37
932.125	12446.25
932.434	12384.79
932.743	12284.68
933.051	12207.62
933.36	12177.34
933.669	12097.56
933.977	12034.06
934.286	12075.42
934.594	11933.73
934.902	11898.47
935.21	11867.96
935.519	11765.14
935.827	11766.27
936.135	11653.28
936.443	11693.05
936.751	11586.16
937.059	11526.73
937.367	11397.47
937.674	11478.37
937.982	11360.86
938.29	11415.77
938.597	11368.54
938.905	11169.9
939.213	11202.45
939.52	11175.33
939.827	11118.38
940.135	11015.78
940.442	11006.29
940.749	10992.73
941.056	10993.86
941.363	10814.89
941.67	10788.45
941.977	10741.44
942.284	10744.15
942.591	10666.64
942.898	10661.89
943.205	10635
943.511	10536.47
943.818	10519.53
944.125	10413.77
944.431	10364.73
944.738	10407.89
945.044	10309.14
945.35	10260.1
945.657	10212.42
945.963	10166.99
946.269	10076.83
946.575	10138.97
946.881	10043.15
947.187	9960.44
947.493	9901.69
947.799	9888.81
948.105	9824.18
948.41	9819.88
948.716	9767.23
949.022	9725.2
949.327	9654.24
949.633	9622.37
949.938	9616.27
950.244	9528.82
950.549	9438.88
950.854	9442.27
951.16	9422.61
951.465	9321.82
951.77	9301.25
952.075	9162.5
952.38	9289.95
952.685	9190.97
952.99	9073.46
953.294	9139.45
953.599	9069.17
953.904	8985.33
954.209	8958.44
954.513	8887.25
954.818	8907.14
955.122	8922.73
955.426	8881.15
955.731	8749.63
956.035	8704.21
956.339	8747.14
956.643	8680.93
956.948	8626.47
957.252	8548.5
957.556	8568.39
957.86	8493.82
958.163	8487.94
958.467	8469.41
958.771	8423.08
959.075	8387.83
959.378	8303.09
959.682	8248.4
959.985	8303.99
960.289	8178.57
960.592	8163.88
960.896	8150.55
961.199	8134.28
961.502	8130.89
961.805	8009.31
962.108	7976.54
962.411	7924.57
962.714	7911.01
963.017	7846.38
963.32	7883.21
963.623	7794.63
963.926	7746.49
964.228	7746.27
964.531	7695.87
964.833	7670.79
965.136	7523.9
965.438	7589.66
965.741	7489.77
966.043	7532.03
966.345	7445.48
966.648	7453.17
966.95	7432.83
967.252	7393.73
967.554	7386.27
967.856	7274.41
968.158	7286.16
968.46	7254.75
968.761	7227.41
969.063	7158.48
969.365	7126.85
969.666	7068.77
969.968	7073.06
970.269	7022.89
970.571	7027.64
970.872	6951.26
971.174	6935.21
971.475	6907.19
971.776	6848.66
972.077	6842.79
972.378	6814.99
972.679	6835.1
972.98	6748.33
973.281	6713.07
973.582	6706.07
973.883	6638.27
974.183	6601.44
974.484	6581.32
974.785	6578.84
975.085	6522.34
975.386	6517.82
975.686	6444.38
975.986	6416.58
976.287	6378.17
976.587	6387.66
976.887	6351.95
977.187	6370.03
977.487	6333.65
977.787	6236.25
978.087	6231.05
978.387	6194.22
978.687	6144.27
978.987	6151.73
979.286	6149.47
979.586	6103.37
979.885	6031.73
980.185	6068.8
980.484	5952.64
980.784	5969.14
981.083	5915.35
981.382	5958.06
981.682	5899.99
981.981	5922.81
982.28	5887.56
982.579	5820.89
982.878	5794.23
983.177	5742.02
983.475	5740.44
983.774	5701.57
984.073	5686.43
984.372	5636.04
984.67	5617.73
984.969	5630.84
985.267	5579.77
985.566	5555.36
985.864	5532.99
986.162	5526.44
986.461	5454.57
986.759	5430.17
987.057	5403.05
987.355	5375.93
987.653	5313.11
987.951	5350.85
988.249	5291.19
988.547	5269.72
988.844	5203.96
989.142	5290.74
989.44	5209.16
989.737	5230.63
990.035	5137.97
990.332	5089.16
990.63	5101.82
990.927	5086.9
991.224	5054.58
991.521	5051.65
991.819	5018.43
992.116	4995.15
992.413	4904.53
992.71	4921.93
993.006	4921.93
993.303	4851.65
993.6	4837.87
993.897	4813.01
994.193	4842.39
994.49	4749.51
994.787	4729.62
995.083	4667.02
995.379	4742.05
995.676	4727.59
995.972	4601.49
996.268	4646.69
996.565	4627.7
996.861	4552
997.157	4507.93
997.453	4543.19
997.749	4514.94
998.044	4466.35
998.34	4497.76
998.636	4478.78
998.932	4416.41
999.227	4394.71
999.523	4366.47
999.818	4375.05
1000.114	4317.2
1000.409	4284.21
1000.704	4259.13
1001	4249.63
1001.295	4198.11
1001.59	4191.1
1001.885	4214.38
1002.18	4151.56
1002.475	4133.7
1002.77	4084.44
1003.065	4068.17
1003.359	4055.29
1003.654	4025.69
1003.949	4022.07
1004.243	4005.8
1004.538	3923.99
1004.832	3917.89
1005.127	3923.54
1005.421	3915.18
1005.715	3860.27
1006.009	3861.4
1006.304	3808.06
1006.598	3771.91
1006.892	3725.13
1007.186	3748.86
1007.48	3714.51
1007.773	3651.68
1008.067	3692.36
1008.361	3646.03
1008.655	3659.14
1008.948	3614.4
1009.242	3575.3
1009.535	3568.52
1009.829	3530.56
1010.122	3506.83
1010.415	3521.29
1010.708	3491.24
1011.001	3443.55
1011.295	3451.91
1011.588	3448.98
1011.881	3380.05
1012.173	3346.15
1012.466	3338.92
1012.759	3332.82
1013.052	3333.5
1013.344	3325.36
1013.637	3284.01
1013.93	3240.62
1014.222	3227.74
1014.514	3194.97
1014.807	3208.76
1015.099	3134.18
1015.391	3143.22
1015.683	3074.52
1015.976	3069.55
1016.268	3115.65
1016.56	3082.21
1016.851	3034.75
1017.143	2976.22
1017.435	2988.88
1017.727	2979.16
1018.018	2937.13
1018.31	2915.43
1018.602	2926.5
1018.893	2872.5
1019.185	2863
1019.476	2844.25
1019.767	2843.8
1020.058	2816.23
1020.35	2794.31
1020.641	2779.62
1020.932	2751.14
1021.223	2763.57
1021.514	2704.59
1021.804	2690.8
1022.095	2656.68
1022.386	2632.28
1022.677	2643.57
1022.967	2630.92
1023.258	2585.27
1023.548	2576.01
1023.839	2572.84
1024.129	2512.5
1024.419	2534.42
1024.709	2476.12
1025	2486.52
1025.29	2457.36
1025.58	2428.89
1025.87	2420.3
1026.16	2395.67
1026.449	2379.4
1026.739	2378.04
1027.029	2357.48
1027.319	2339.85
1027.608	2346.63
1027.898	2325.84
1028.187	2273.19
1028.477	2268.22
1028.766	2273.87
1029.055	2251.04
1029.344	2229.57
1029.634	2219.63
1029.923	2210.82
1030.212	2176.92
1030.501	2141.89
1030.79	2131.95
1031.078	2126.53
1031.367	2115.45
1031.656	2090.14
1031.945	2101.44
1032.233	2063.48
1032.522	2039.07
1032.81	2035
1033.099	1987.55
1033.387	1986.19
1033.675	2001.56
1033.963	1970.82
1034.251	1977.83
1034.54	1962.69
1034.828	1930.6
1035.116	1916.81
1035.403	1919.98
1035.691	1873.2
1035.979	1863.48
1036.267	1829.58
1036.554	1838.85
1036.842	1828.68
1037.129	1792.75
1037.417	1811.73
1037.704	1798.17
1037.992	1763.82
1038.279	1743.94
1038.566	1718.4
1038.853	1718.4
1039.14	1718.4
