Data from 199_FLMS001491_005.txt Node
Date: Thu Apr 19 16:33:00 BST 2018
User: hsy
Spectrometer: FLMS00149
Trigger mode: 0
Integration Time (sec): 1.000000E-2
Scans to average: 10
Electric dark correction enabled: true
Nonlinearity correction enabled: false
Boxcar width: 0
XAxis mode: Wavelengths
Number of Pixels in Spectrum: 2048
>>>>>Begin Spectral Data<<<<<
341.393	-12.95
341.776	-12.95
342.16	-12.95
342.543	-77.13
342.927	-60.63
343.31	-56.57
343.693	-70.13
344.077	-47.53
344.46	-56.79
344.843	-46.17
345.226	-44.36
345.61	-20.64
345.993	-29.22
346.376	-5.27
346.759	19.14
347.142	29.76
347.525	49.65
347.908	44
348.291	70.89
348.674	89.87
349.057	73.37
349.44	117.44
349.823	147.5
350.206	172.58
350.588	227.72
350.971	260.94
351.354	282.18
351.737	294.84
352.119	301.39
352.502	310.66
352.884	333.48
353.267	346.36
353.65	353.59
354.032	359.02
354.414	344.78
354.797	365.57
355.179	363.99
355.562	377.77
355.944	394.04
356.326	374.38
356.709	395.63
357.091	408.73
357.473	407.83
357.855	418.22
358.238	402.63
358.62	405.34
359.002	407.38
359.384	393.37
359.766	406.25
360.148	397.66
360.53	385
360.912	397.43
361.294	399.01
361.676	403.99
362.057	401.05
362.439	391.78
362.821	410.31
363.203	380.48
363.584	387.49
363.966	403.76
364.348	390.2
364.729	403.31
365.111	387.26
365.493	406.7
365.874	387.04
366.256	377.55
366.637	394.04
367.019	391.33
367.4	387.94
367.781	396.76
368.163	382.97
368.544	375.96
368.925	393.59
369.306	383.2
369.688	392.46
370.069	392.01
370.45	382.97
370.831	408.73
371.212	396.53
371.593	360.6
371.974	403.53
372.355	407.15
372.736	402.18
373.117	397.89
373.498	416.19
373.879	410.31
374.26	404.21
374.641	417.09
375.021	407.38
375.402	409.86
375.783	434.95
376.163	442.63
376.544	421.61
376.925	422.07
377.305	427.71
377.686	437.88
378.066	411.22
378.447	438.34
378.827	438.34
379.208	451.22
379.588	437.21
379.968	443.31
380.349	429.3
380.729	435.17
381.109	453.93
381.489	456.87
381.87	433.14
382.25	477.43
382.63	453.93
383.01	453.48
383.39	472.23
383.77	455.51
384.15	473.14
384.53	462.97
384.91	485.11
385.29	479.01
385.67	485.57
386.049	506.36
386.429	485.57
386.809	479.01
387.189	501.39
387.568	492.57
387.948	493.48
388.328	514.94
388.707	488.96
389.087	521.5
389.466	509.75
389.846	500.03
390.225	513.81
390.605	526.24
390.984	526.47
391.363	514.04
391.743	523.76
392.122	522.85
392.501	544.1
392.881	518.79
393.26	543.19
393.639	554.27
394.018	541.61
394.397	537.09
394.776	543.64
395.155	549.97
395.534	574.15
395.913	554.04
396.292	566.47
396.671	598.11
397.05	589.07
397.429	566.92
397.808	567.6
398.186	568.95
398.565	583.19
398.944	607.37
399.323	579.35
399.701	586.13
400.08	604.66
400.458	594.94
400.837	599.69
401.215	622.06
401.594	613.02
401.972	626.81
402.351	623.19
402.729	626.35
403.107	662.51
403.486	626.81
403.864	643.75
404.242	656.41
404.62	667.93
404.999	665
405.377	681.49
405.755	668.16
406.133	706.8
406.511	674.71
406.889	696.63
407.267	688.5
407.645	701.61
408.023	719.91
408.401	703.41
408.779	739.8
409.156	749.97
409.534	752.45
409.912	766.24
410.29	751.77
410.667	772.34
411.045	775.5
411.422	754.49
411.8	796.52
412.178	796.74
412.555	808.5
412.933	806.01
413.31	805.56
413.687	853.24
414.065	848.27
414.442	838.33
414.819	867.48
415.197	863.41
415.574	853.69
415.951	848.27
416.328	902.05
416.705	908.61
417.082	883.52
417.46	897.08
417.837	915.61
418.214	934.14
418.591	937.53
418.967	955.61
419.344	949.96
419.721	974.59
420.098	950.86
420.475	962.84
420.852	952.67
421.228	978.66
421.605	973.46
421.982	994.48
422.358	1020.92
422.735	986.12
423.111	1023.63
423.488	1016.4
423.864	1023.86
424.241	1039
424.617	1012.78
424.994	1061.6
425.37	1039.22
425.746	1061.37
426.123	1062.95
426.499	1085.78
426.875	1115.83
427.251	1130.3
427.627	1142.27
428.003	1135.49
428.379	1168.71
428.756	1168.26
429.132	1171.42
429.507	1194.02
429.883	1204.87
430.259	1227.02
430.635	1264.08
431.011	1246.68
431.387	1262.72
431.763	1294.58
432.138	1304.75
432.514	1300.01
432.89	1315.83
433.265	1336.84
433.641	1372.55
434.016	1348.59
434.392	1388.14
434.767	1393.11
435.143	1414.13
435.518	1406.22
435.894	1434.69
436.269	1466.56
436.644	1480.79
437.02	1500.91
437.395	1498.65
437.77	1491.19
438.145	1540.45
438.52	1533.67
438.895	1551.3
439.271	1557.4
439.646	1580.23
440.021	1576.39
440.395	1565.99
440.77	1583.16
441.145	1599.66
441.52	1647.12
441.895	1612.09
442.27	1663.16
442.645	1643.73
443.019	1658.64
443.394	1649.83
443.769	1669.72
444.143	1665.65
444.518	1708.13
444.892	1704.97
445.267	1723.73
445.641	1699.09
446.016	1732.99
446.39	1760.34
446.764	1763.05
447.139	1753.33
447.513	1762.59
447.887	1797.17
448.262	1793.33
448.636	1798.07
449.01	1838.98
449.384	1837.17
449.758	1862.93
450.132	1854.57
450.506	1910.39
450.88	1911.74
451.254	1889.37
451.628	1938.41
452.002	1932.08
452.376	1975.92
452.75	1963.49
453.123	1972.98
453.497	2003.94
453.871	2050.72
454.244	2090.5
454.618	2101.8
454.992	2104.73
455.365	2145.64
455.739	2180.44
456.112	2186.09
456.486	2186.99
456.859	2217.72
457.232	2303.15
457.606	2266.31
457.979	2336.14
458.352	2339.3
458.725	2361.22
459.099	2396.48
459.472	2432.63
459.845	2426.31
460.218	2465.18
460.591	2475.8
460.964	2522.35
461.337	2553.53
461.71	2640.99
462.083	2593.08
462.456	2640.54
462.829	2665.62
463.201	2700.88
463.574	2682.12
463.947	2757.15
464.32	2794.21
464.692	2793.08
465.065	2849.12
465.438	2911.27
465.81	2842.79
466.183	2909.46
466.555	2958.72
466.928	2998.49
467.3	2998.72
467.672	3022.22
468.045	3085.72
468.417	3106.51
468.789	3154.65
469.161	3131.15
469.534	3204.36
469.906	3234.65
470.278	3244.14
470.65	3300.63
471.022	3336.79
471.394	3385.6
471.766	3443.23
472.138	3499.05
472.51	3619.27
472.882	3589.89
473.253	3584.92
473.625	3660.17
473.997	3734.75
474.369	3740.85
474.74	3823.33
475.112	3899.94
475.484	3916.66
475.855	3980.39
476.227	4052.93
476.598	4144.45
476.97	4197.56
477.341	4263.77
477.713	4319.82
478.084	4358.01
478.455	4434.84
478.827	4478.23
479.198	4595.29
479.569	4671.67
479.94	4762.74
480.311	4845.68
480.682	4872.8
481.053	5027.59
481.424	5139.46
481.795	5168.61
482.166	5243.18
482.537	5309.39
482.908	5402.05
483.279	5470.52
483.65	5592.32
484.021	5674.36
484.391	5753.45
484.762	5793.9
485.133	5867.35
485.503	5941.02
485.874	6040.22
486.244	6128.36
486.615	6266.43
486.985	6314.79
487.356	6499.42
487.726	6503.04
488.097	6651.96
488.467	6709.58
488.837	6886.3
489.207	6910.26
489.578	7081.1
489.948	7169.01
490.318	7293.07
490.688	7296.23
491.058	7413.07
491.428	7529
491.798	7596.79
492.168	7690.12
492.538	7797.92
492.908	7899.16
493.278	8009.44
493.648	8010.79
494.017	8146.83
494.387	8271.8
494.757	8355.64
495.126	8359.48
495.496	8422.98
495.866	8527.61
496.235	8623.21
496.605	8730.32
496.974	8733.49
497.344	8825.01
497.713	8861.84
498.082	8940.71
498.452	9046.25
498.821	9107.26
499.19	9159.69
499.559	9185
499.928	9310.19
500.298	9402.85
500.667	9470.64
501.036	9422.28
501.405	9547.25
501.774	9545.67
502.143	9668.15
502.512	9721.26
502.88	9832.21
503.249	9851.87
503.618	9926
503.987	9902.49
504.356	9971.19
504.724	10057.29
505.093	10058.42
505.462	10160.57
505.83	10256.61
506.199	10347.68
506.567	10367.57
506.936	10376.38
507.304	10496.38
507.672	10613.66
508.041	10604.62
508.409	10736.14
508.777	10825.18
509.145	10926.42
509.514	10852.07
509.882	11033.09
510.25	11038.06
510.618	11096.81
510.986	11150.14
511.354	11235.34
511.722	11397.37
512.09	11427.43
512.458	11386.97
512.826	11569.79
513.193	11579.96
513.561	11694.76
513.929	11767.08
514.297	11855.66
514.664	11876.91
515.032	12060.86
515.4	12123.68
515.767	12177.24
516.135	12241.19
516.502	12191.25
516.869	12431.47
517.237	12530.9
517.604	12480.96
517.972	12633.5
518.339	12785.81
518.706	12821.29
519.073	12901.51
519.44	12934.28
519.808	13122.97
520.175	13215.4
520.542	13287.72
520.909	13432.34
521.276	13407.94
521.643	13705.11
522.009	13689.06
522.376	13859.23
522.743	13970.41
523.11	14197.3
523.477	14264.19
523.843	14329.95
524.21	14477.06
524.577	14639.09
524.943	14687.45
525.31	14813.33
525.676	15058.74
526.043	15148.68
526.409	15183.03
526.776	15393.65
527.142	15468.22
527.508	15546.19
527.874	15759.97
528.241	15811.49
528.607	15964.93
528.973	16121.54
529.339	16153.4
529.705	16314.08
530.071	16434.07
530.437	16601.53
530.803	16683.11
531.169	16751.58
531.535	16869.32
531.901	16997.9
532.267	17067.28
532.632	17297.55
532.998	17272.02
533.364	17427.49
533.73	17566.02
534.095	17633.82
534.461	17755.17
534.826	17856.41
535.192	17882.62
535.557	18074.48
535.923	18070.41
536.288	18120.58
536.653	18332.1
537.019	18355.38
537.384	18470.4
537.749	18493
538.114	18561.7
538.479	18684.18
538.845	18743.39
539.21	18803.05
539.575	18893.9
539.94	18917.85
540.305	19045.3
540.67	19085.08
541.034	19229.25
541.399	19246.2
541.764	19296.82
542.129	19416.37
542.494	19452.3
542.858	19560.09
543.223	19571.39
543.587	19692.07
543.952	19654.55
544.316	19866.07
544.681	19755.12
545.045	19988.56
545.41	20026.75
545.774	20016.35
546.138	20230.36
546.503	20270.81
546.867	20295.21
547.231	20479.16
547.595	20464.7
547.959	20525.27
548.324	20624.7
548.688	20703.34
549.052	20687.52
549.416	20693.62
549.779	20856.78
550.143	20823.11
550.507	21055.87
550.871	21091.35
551.235	21117.34
551.599	21258.58
551.962	21404.34
552.326	21510.55
552.689	21454.73
553.053	21465.35
553.417	21612.47
553.78	21847.72
554.143	21928.62
554.507	21924.1
554.87	22101.27
555.234	22254.26
555.597	22249.51
555.96	22343.52
556.323	22550.97
556.686	22584.42
557.05	22849.72
557.413	22866.22
557.776	22820.57
558.139	23085.65
558.502	23125.65
558.865	23153.44
559.228	23289.03
559.59	23477.28
559.953	23668.46
560.316	23820.09
560.679	23882.47
561.041	24068.22
561.404	24234.77
561.767	24335.11
562.129	24343.02
562.492	24661.43
562.854	24649.45
563.217	24701.65
563.579	24896.68
563.941	25161.08
564.304	25332.6
564.666	25575.08
565.028	25606.71
565.39	25818.91
565.753	25949.08
566.115	26044.67
566.477	26366.02
566.839	26533.47
567.201	26741.15
567.563	26797.19
567.925	27013
568.287	27131.65
568.648	27330.74
569.01	27571.18
569.372	27851.4
569.734	27824.28
570.095	28221.79
570.457	28339.3
570.819	28446.64
571.18	28509.46
571.542	28846.63
571.903	28897.93
572.265	29179.5
572.626	29272.61
572.987	29505.82
573.349	29637.34
573.71	29935.87
574.071	30110.55
574.432	30366.14
574.794	30541.27
575.155	30684.09
575.516	30608.62
575.877	30932.68
576.238	30938.55
576.599	31207.7
576.96	31278.43
577.32	31407.47
577.681	31635.48
578.042	31855.36
578.403	31917.73
578.763	31899.88
579.124	32034.34
579.485	32265.3
579.845	32525.63
580.206	32491.73
580.566	32588
580.927	32646.53
581.287	32915
581.648	32941.44
582.008	33095.33
582.368	33296.68
582.728	33262.78
583.089	33427.07
583.449	33518.14
583.809	33719.95
584.169	34026.38
584.529	33942.99
584.889	34396.09
585.249	34322.19
585.609	34384.11
585.969	34725.34
586.329	34835.85
586.688	35136.41
587.048	35268.38
587.408	35227.25
587.768	35463.4
588.127	35790.85
588.487	35973.45
588.846	36539.53
589.206	36454.56
589.565	36890.48
589.925	37385.84
590.284	37442.56
590.643	37838.71
591.003	38213.84
591.362	38801.85
591.721	39093.59
592.08	39261.04
592.44	39935.38
592.799	40192.54
593.158	40734.68
593.517	40814
593.876	41364.27
594.235	41736.69
594.593	42207.63
594.952	42593.61
595.311	42926.03
595.67	43598.78
596.029	44131.42
596.387	44635.82
596.746	45267.21
597.104	45357.38
597.463	45888.21
597.822	46647.29
598.18	46836.44
598.538	47116.2
598.897	47744.44
599.255	47976.52
599.613	48942.37
599.972	48906.44
600.33	49564.5
600.688	49827.77
601.046	50204.71
601.404	50834.07
601.762	51062.09
602.12	51540.95
602.478	51862.52
602.836	52140.71
603.194	52333.02
603.552	52786.11
603.91	52991.08
604.268	53452.76
604.625	53736.82
604.983	53991.28
605.341	54190.82
605.698	54651.6
606.056	55092.27
606.413	55135.43
606.771	55597.11
607.128	55780.61
607.485	55969.53
607.843	56240.48
608.2	56551.66
608.557	56823.97
608.914	57010.41
609.272	57281.36
609.629	57603.61
609.986	57810.84
610.343	57910.72
610.7	58311.62
611.057	58402.01
611.414	58527.66
611.771	58858.95
612.127	59013.07
612.484	59256.68
612.841	59416.45
613.198	59468.87
613.554	59710.22
613.911	59971.91
614.267	60149.53
614.624	60207.39
614.98	60387.27
615.337	60694.38
615.693	60796.97
616.05	60854.6
616.406	61112.45
616.762	61164.42
617.118	61303.63
617.475	61386.56
617.831	61626.11
618.187	61738.42
618.543	61804.41
618.899	62042.82
619.255	62060.9
619.611	62159.88
619.967	62318.52
620.323	62502.92
620.678	62497.72
621.034	62511.28
621.39	62638.73
621.746	62699.52
622.101	62960.31
622.457	62862.23
622.812	63047.09
623.168	63157.59
623.523	63142.68
623.879	63276.23
624.234	63199.85
624.589	63401.88
624.945	63465.83
625.3	63485.27
625.655	63513.97
626.01	63513.51
626.365	63523.46
626.72	63523.46
627.075	63523.46
627.43	63523
627.785	63523.46
628.14	63523.46
628.495	63523.46
628.85	63523.46
629.205	63523.46
629.559	63523.46
629.914	63523.46
630.269	63523.46
630.623	63523.46
630.978	63523.46
631.332	63523.46
631.687	63523.46
632.041	63523.46
632.396	63523.46
632.75	63523.46
633.104	63523.46
633.459	63523.46
633.813	63523.46
634.167	63523.46
634.521	63523.46
634.875	63523.46
635.229	63523.46
635.583	63523.46
635.937	63523.46
636.291	63523.46
636.645	63523.46
636.999	63523.46
637.352	63523.46
637.706	63523.46
638.06	63523.46
638.413	63523.46
638.767	63523.46
639.121	63523.46
639.474	63523.46
639.828	63523.46
640.181	63523.46
640.534	63523.46
640.888	63523.46
641.241	63523.46
641.594	63523.46
641.947	63523.46
642.301	63523.46
642.654	63523.46
643.007	63523.46
643.36	63523.46
643.713	63523.46
644.066	63523.46
644.419	63522.78
644.771	63393.74
645.124	63174.54
645.477	63237.14
645.83	63062.23
646.182	63067.65
646.535	63065.62
646.888	63098.61
647.24	62998.05
647.593	63118.95
647.945	63052.06
648.298	63001.66
648.65	62847.32
649.002	62758.28
649.355	62686.19
649.707	62686.64
650.059	62648.45
650.411	63042.57
650.763	63145.84
651.115	63500.86
651.467	63390.13
651.819	63347.64
652.171	63301.99
652.523	63240.07
652.875	63243.24
653.227	63125.73
653.578	63337.02
653.93	63253.41
654.282	63087.54
654.633	63153.52
654.985	63131.15
655.337	63124.82
655.688	63107.65
656.039	63196.69
656.391	62946.3
656.742	62991.95
657.094	62995.56
657.445	62993.53
657.796	63085.5
658.147	62990.36
658.498	63065.16
658.849	63102
659.2	63052.96
659.551	62992.17
659.902	63094.32
660.253	62964.38
660.604	63045.73
660.955	62915.11
661.306	63054.09
661.656	62983.58
662.007	63035.11
662.358	63016.35
662.708	63003.02
663.059	62943.36
663.409	62876.92
663.76	62983.36
664.11	62982.91
664.461	63060.64
664.811	63038.5
665.161	62981.78
665.511	62899.29
665.862	62956.47
666.212	63012.96
666.562	62993.53
666.912	62949.23
667.262	62891.84
667.612	62938.61
667.962	62936.81
668.312	62920.31
668.662	63066.75
669.011	62933.42
669.361	62929.35
669.711	62939.74
670.06	62891.38
670.41	62854.1
670.76	62849.58
671.109	62953.3
671.459	62879.18
671.808	62876.92
672.157	62918.95
672.507	62763.7
672.856	62829.46
673.205	62797.6
673.554	62891.84
673.904	62786.75
674.253	62937.94
674.602	62817.94
674.951	62568.91
675.3	62424.05
675.649	62869.69
675.998	62793.08
676.346	62799.63
676.695	62800.09
677.044	62704.5
677.393	62733.87
677.741	62796.7
678.09	62706.53
678.438	62650.94
678.787	62728.9
679.135	62731.84
679.484	62521.68
679.832	62598.74
680.181	62540.66
680.529	62627.66
680.877	62438.06
681.225	62475.12
681.573	62659.07
681.922	62452.52
682.27	62417.72
682.618	62398.51
682.966	62368.23
683.314	62356.26
683.661	62317.61
684.009	62169.82
684.357	62125.53
684.705	62119.2
685.053	62216.6
685.4	62084.62
685.748	62002.82
686.095	62063.83
686.443	61944.74
686.79	61901.35
687.138	61927.11
687.485	61841.69
687.832	61711.08
688.18	61780
688.527	61654.35
688.874	61693.45
689.221	61649.83
689.568	61540.23
689.915	61393.34
690.262	61404.42
690.609	61363.29
690.956	61273.12
691.303	61254.14
691.65	61165.1
691.997	61118.32
692.344	60976.63
692.69	60982.28
693.037	61020.25
693.383	60795.62
693.73	60850.08
694.077	60753.13
694.423	60671.33
694.769	60622.97
695.116	60552.69
695.462	60510.2
695.808	60392.47
696.155	60453.93
696.501	60319.93
696.847	60301.39
697.193	60070.21
697.539	60160.83
697.885	60010.33
698.231	59923.33
698.577	59911.35
698.923	59882.65
699.269	59705.48
699.614	59636.33
699.96	59581.41
700.306	59597.01
700.651	59475.2
700.997	59387.75
701.342	59394.07
701.688	59319.73
702.033	59210.35
702.379	59238.6
702.724	59067.3
703.069	59132.39
703.415	58867.76
703.76	58927.19
704.105	58887.65
704.45	58780.3
704.795	58677.93
705.14	58572.17
705.485	58635
705.83	58449.69
706.175	58554.55
706.52	58457.6
706.865	58390.03
707.209	58258.28
707.554	58231.17
707.899	58207.89
708.243	58071.62
708.588	58014.68
708.932	57937.62
709.277	57989.14
709.621	57796.38
709.966	57649.26
710.31	57782.82
710.654	57555.48
710.998	57644.06
711.342	57569.26
711.687	57431.19
712.031	57433
712.375	57367.91
712.719	57312.09
713.063	57243.17
713.407	57362.71
713.75	57251.08
714.094	57221.48
714.438	57099.22
714.782	57076.39
715.125	56904.42
715.469	57057.19
715.812	56859.68
716.156	56883.63
716.499	56806.35
716.843	56862.62
717.186	56696.07
717.53	56723.18
717.873	56693.58
718.216	56597.54
718.559	56520.03
718.902	56262.86
719.246	56398.22
719.589	56412.23
719.932	56301.27
720.275	56275.06
720.617	56218.34
720.96	56162.07
721.303	56139.24
721.646	56136.08
721.989	56028.96
722.331	56120.94
722.674	55990.32
723.016	55978.34
723.359	55847.05
723.701	55934.5
724.044	55793.49
724.386	55625.59
724.729	55785.81
725.071	55726.6
725.413	55704.91
725.755	55616.32
726.097	55486.83
726.439	55435.08
726.782	55417
727.124	55563.67
727.465	55458.13
727.807	55380.62
728.149	55434.18
728.491	55237.12
728.833	55304.24
729.175	55231.25
729.516	55108.08
729.858	55193.51
730.199	55206.16
730.541	55098.82
730.882	55036.45
731.224	55022.21
731.565	54890.92
731.906	54937.02
732.248	55039.61
732.589	54730.02
732.93	54796.23
733.271	54806.85
733.612	54746.96
733.953	54831.71
734.294	54661.77
734.635	54570.92
734.976	54729.56
735.317	54632.62
735.658	54610.47
735.999	54513.98
736.339	54490.47
736.68	54498.16
737.021	54447.31
737.361	54348.56
737.702	54594.65
738.042	54373.19
738.383	54348.33
738.723	54370.7
739.063	54237.83
739.404	54323.7
739.744	54227.66
740.084	54084.16
740.424	54138.62
740.764	54144.27
741.104	54110.15
741.444	53985.4
741.784	53982.46
742.124	54059.98
742.464	53991.5
742.804	53939.3
743.143	53830.38
743.483	53900.66
743.823	53777.95
744.162	53721
744.502	53721.91
744.841	53624.06
745.181	53724.62
745.52	53626.32
745.86	53645.07
746.199	53589.48
746.538	53559.2
746.877	53670.83
747.216	53561.46
747.556	53464.96
747.895	53558.75
748.234	53444.4
748.573	53467.9
748.911	53330.73
749.25	53329.83
749.589	53158.53
749.928	53196.27
750.267	53260
750.605	53135.93
750.944	53156.27
751.283	53069.95
751.621	53160.34
751.96	52951.31
752.298	52956.73
752.636	52909.5
752.975	52772.33
753.313	52755.15
753.651	52884.64
753.989	52650.75
754.327	52626.12
754.666	52433.13
755.004	52475.84
755.342	52522.62
755.679	52414.6
756.017	52294.6
756.355	52409.85
756.693	52209.63
757.031	52311.77
757.368	52003.53
757.706	52042.85
758.044	51967.15
758.381	51905.91
758.719	51689.42
759.056	51807.61
759.394	51596.31
759.731	51472.93
760.068	51380.5
760.405	51451.01
760.743	51194.74
761.08	51275.64
761.417	51183.44
761.754	51003.79
762.091	50897.8
762.428	50726.96
762.765	50613.51
763.102	50712.95
763.438	50474.31
763.775	50412.62
764.112	50403.58
764.449	50392.05
764.785	50133.07
765.122	49870.93
765.458	49824.16
765.795	49724.5
766.131	49806.3
766.467	49627.78
766.804	49336.26
767.14	49258.97
767.476	49183.95
767.812	49065.31
768.148	49119.54
768.485	48901.92
768.821	48679.55
769.157	48611.53
769.492	48548.03
769.828	48421.03
770.164	48135.16
770.5	47901.27
770.836	47984.43
771.171	47867.15
771.507	47643.42
771.842	47433.94
772.178	47501.05
772.513	47314.39
772.849	47122.76
773.184	47107.62
773.519	46994.63
773.855	46777.91
774.19	46770.9
774.525	46474.87
774.86	46472.61
775.195	46366.62
775.53	46138.83
775.865	45899.51
776.2	45764.6
776.535	45569.13
776.87	45515.79
777.205	45378.4
777.539	45094.11
777.874	45104.96
778.209	44633.11
778.543	44729.83
778.878	44493.67
779.212	44387.24
779.547	44132.33
779.881	44336.16
780.215	43893.01
780.55	43918.77
780.884	43516.53
781.218	43607.6
781.552	43512.68
781.886	43300.71
782.22	43192.92
782.554	42996.31
782.888	42815.07
783.222	42630.9
783.556	42358.82
783.889	42217.58
784.223	42178.93
784.557	42125.38
784.89	42106.17
785.224	41833.63
785.557	41491.04
785.891	41565.62
786.224	41486.75
786.558	41257.83
786.891	41039.53
787.224	40755.02
787.557	40660.56
787.891	40587.79
788.224	40535.36
788.557	40350.51
788.89	40280.9
789.223	40270.06
789.556	39993.91
789.888	39864.19
790.221	39609.74
790.554	39520.7
790.887	39443.86
791.219	39202.29
791.552	39233.93
791.884	38931.34
792.217	38883.88
792.549	38785.12
792.882	38432.82
793.214	38235.08
793.546	38300.84
793.879	38212.03
794.211	37722.1
794.543	38173.61
794.875	37903.11
795.207	37845.26
795.539	37798.03
795.871	37633.97
796.203	37574.76
796.535	37215
796.867	37170.7
797.198	36992.63
797.53	36903.59
797.862	36702.02
798.193	36759.87
798.525	36488.46
798.856	36526.43
799.188	36208.92
799.519	36088.92
799.85	35999.21
800.182	35963.5
800.513	36007.57
800.844	35545.66
801.175	35791.08
801.506	35685.09
801.837	35425.89
802.168	35335.5
802.499	35340.92
802.83	35150.42
803.161	35031.78
803.491	34986.58
803.822	34936.19
804.153	34733.25
804.483	34519.47
804.814	34354.96
805.145	34412.36
805.475	34347.27
805.805	34248.07
806.136	34349.76
806.466	33988.41
806.796	34056.21
807.126	33749.1
807.457	33792.26
807.787	33838.81
808.117	33699.83
808.447	33513.62
808.777	33547.07
809.107	33300.97
809.436	33159.96
809.766	33229.79
810.096	33237.47
810.426	32902.79
810.755	33060.08
811.085	32946.18
811.414	32886.75
811.744	32605.63
812.073	32510.94
812.403	32427.33
812.732	32409.25
813.061	32487.21
813.39	32084.96
813.719	32100.55
814.049	32232.75
814.378	32074.34
814.707	31948.69
815.036	31933.78
815.365	31736.27
815.693	31708.93
816.022	31586.9
816.351	31544.41
816.68	31407.47
817.008	31553.22
817.337	31205.44
817.665	31362.04
817.994	31200.01
818.322	31205.44
818.651	31106
818.979	31016.06
819.307	31054.25
819.636	30859.68
819.964	30722.74
820.292	30864.65
820.62	30712.79
820.948	30878.89
821.276	30872.56
821.604	30793.24
821.932	30858.55
822.259	30855.62
822.587	30723.42
822.915	30624.21
823.243	30821.27
823.57	30553.7
823.898	30876.18
824.225	30719.12
824.553	30573.81
824.88	30787.37
825.207	30769.29
825.535	30452.69
825.862	30786.01
826.189	30534.04
826.516	30960.02
826.843	30803.87
827.17	30878.44
827.497	30857.88
827.824	30815.62
828.151	30895.39
828.478	30734.94
828.805	30830.53
829.131	30796.18
829.458	30911.66
829.785	30580.37
830.111	30599.8
830.438	30763.19
830.764	30776.97
831.09	30788.27
831.417	30591.44
831.743	30821.72
832.069	30640.03
832.395	30516.42
832.722	30779.46
833.048	30493.36
833.374	30637.77
833.7	30492.23
834.026	30572.23
834.351	30430.09
834.677	30640.25
835.003	30541.73
835.329	30567.71
835.654	30443.2
835.98	30258.79
836.306	30461.05
836.631	30232.58
836.956	30277.1
837.282	30273.48
837.607	30235.07
837.932	30330.21
838.258	30051.79
838.583	30097.44
838.908	30111.91
839.233	30103.77
839.558	29928.86
839.883	29896.54
840.208	29685.93
840.533	29749.2
840.858	29819.26
841.182	29845.47
841.507	29742.42
841.832	29573.84
842.156	29513.73
842.481	29534.52
842.805	29463.79
843.13	29289.33
843.454	29292.04
843.778	29097.24
844.103	29162.1
844.427	29058.37
844.751	29028.77
845.075	28944.71
845.399	28866.52
845.723	28655.45
846.047	28837.36
846.371	28483.02
846.695	28505.17
847.019	28358.96
847.343	28141.11
847.666	28149.7
847.99	27890.04
848.313	27833.55
848.637	27820.44
848.96	27703.38
849.284	27757.62
849.607	27311.53
849.931	27392.66
850.254	27370.06
850.577	27169.38
850.9	27093.68
851.223	27016.17
851.546	26829.28
851.869	26726.46
852.192	26973.01
852.515	26448.95
852.838	26465
853.161	26450.31
853.483	26249.63
853.806	26300.71
854.129	26094.61
854.451	26144.33
854.774	25921.06
855.096	25903.88
855.419	25727.16
855.741	25712.7
856.063	25600.84
856.385	25484.68
856.708	25405.59
857.03	25277.91
857.352	25352.94
857.674	25176.67
857.996	25132.38
858.318	24978.48
858.64	25031.14
858.961	24847.19
859.283	24792.95
859.605	24588.21
859.926	24700.75
860.248	24616.68
860.57	24470.02
860.891	24457.59
861.212	24379.18
861.534	24316.8
861.855	24133.76
862.176	24247.65
862.498	24249.01
862.819	24398.16
863.14	24215.34
863.461	24220.76
863.782	24033.65
864.103	24016.47
864.424	23840.66
864.745	23919.3
865.065	23792.07
865.386	23733.54
865.707	23698.52
866.027	23790.72
866.348	23564.96
866.668	23728.8
866.989	23591.85
867.309	23379.43
867.63	23465.98
867.95	23557.05
868.27	23411.74
868.59	23481.12
868.91	23335.81
869.23	23219.88
869.55	23082.49
869.87	23308.92
870.19	23134.69
870.51	23000.91
870.83	23060.11
871.15	22928.82
871.469	23018.31
871.789	23008.36
872.109	22947.12
872.428	22897.63
872.748	22834.13
873.067	22842.04
873.386	22917.07
873.706	22849.27
874.025	22710.97
874.344	22729.28
874.663	22692.21
874.982	22647.7
875.301	22698.09
875.62	22472.11
875.939	22512.78
876.258	22596.4
876.577	22414.48
876.896	22392.11
877.214	22480.69
877.533	22503.29
877.852	22294.48
878.17	22335.61
878.489	22358.66
878.807	22167.03
879.125	22131.32
879.444	22132.91
879.762	22139.91
880.08	22133.58
880.398	22021.27
880.716	21959.58
881.034	21944.89
881.352	21828.51
881.67	21904.89
881.988	21739.24
882.306	21731.56
882.624	21735.18
882.941	21593.94
883.259	21593.71
883.577	21658.57
883.894	21561.17
884.212	21556.2
884.529	21348.97
884.846	21323.89
885.164	21237.56
885.481	21266.04
885.798	21214.96
886.115	21148.98
886.432	21099.49
886.75	21076.21
887.067	21101.52
887.383	20969.55
887.7	20910.34
888.017	20779.04
888.334	20827.86
888.651	20736.33
888.967	20711.48
889.284	20483.91
889.6	20497.02
889.917	20407.53
890.233	20551.93
890.55	20411.6
890.866	20353.74
891.182	20398.26
891.498	20202.11
891.815	20066.97
892.131	19986.97
892.447	20093.86
892.763	19967.54
893.079	19928.67
893.395	19825.4
893.71	19872.63
894.026	19812.97
894.342	19761.22
894.657	19583.37
894.973	19559.64
895.289	19482.35
895.604	19379.98
895.92	19325.97
896.235	19303.15
896.55	19308.35
896.865	19161.91
897.181	19082.37
897.496	19101.12
897.811	19014.34
898.126	18842.6
898.441	18893.44
898.756	18899.32
899.071	18767.12
899.386	18775.03
899.7	18489.61
900.015	18442.61
900.33	18315.61
900.644	18313.8
900.959	18305.66
901.273	18227.47
901.588	18160.13
901.902	18180.24
902.216	18069.28
902.531	18037.65
902.845	17950.87
903.159	17848.95
903.473	17796.07
903.787	17797.2
904.101	17645.57
904.415	17687.6
904.729	17477.44
905.042	17431.79
905.356	17360.83
905.67	17325.12
905.984	17320.83
906.297	17299.14
906.611	17120.84
906.924	17051.46
907.237	17032.25
907.551	16883.78
907.864	16926.26
908.177	16806.49
908.491	16741.41
908.804	16681.52
909.117	16564.69
909.43	16462.1
909.743	16414.87
910.056	16464.13
910.368	16295.55
910.681	16262.33
910.994	16185.04
911.307	16134.42
911.619	16054.65
911.932	16048.55
912.244	15807.65
912.557	15772.4
912.869	15731.49
913.181	15759.52
913.494	15699.63
913.806	15592.06
914.118	15510.03
914.43	15411.5
914.742	15305.97
915.054	15300.32
915.366	15255.35
915.678	15256.03
915.99	15144.16
916.302	15078.63
916.613	15040.21
916.925	14973.1
917.236	14937.84
917.548	14872.76
917.859	14820.78
918.171	14673.44
918.482	14628.25
918.794	14629.83
919.105	14477.51
919.416	14412.21
919.727	14398.19
920.038	14386.9
920.349	14247.46
920.66	14174.47
920.971	14232.55
921.282	14150.07
921.593	14013.8
921.903	13899.9
922.214	13916.4
922.525	13892.9
922.835	13863.07
923.146	13681.15
923.456	13676.86
923.767	13595.96
924.077	13556.64
924.387	13485.68
924.697	13403.64
925.008	13432.12
925.318	13367.94
925.628	13284.1
925.938	13258.79
926.248	13124.78
926.558	13067.16
926.867	13110.55
927.177	13001.17
927.487	12951.23
927.796	12888.63
928.106	12919.36
928.416	12794.17
928.725	12740.16
929.034	12722.08
929.344	12731.35
929.653	12651.8
929.962	12504.01
930.271	12503.78
930.581	12380.39
930.89	12362.54
931.199	12269.21
931.508	12219.27
931.817	12299.27
932.125	12180.4
932.434	12108.99
932.743	11948.54
933.051	11997.58
933.36	11924.36
933.669	11856.11
933.977	11881.2
934.286	11765.5
934.594	11748.55
934.902	11592.62
935.21	11577.48
935.519	11533.19
935.827	11525.95
936.135	11467.42
936.443	11362.79
936.751	11340.65
937.059	11349.24
937.367	11181.1
937.674	11256.81
937.982	11191.73
938.29	11090.26
938.597	11102.24
938.905	11063.14
939.213	10952.18
939.52	10885.29
939.827	10912.18
940.135	10907.67
940.442	10820.44
940.749	10724.62
941.056	10742.25
941.363	10628.58
941.67	10617.05
941.977	10534.12
942.284	10466.55
942.591	10419.99
942.898	10466.09
943.205	10383.61
943.511	10370.05
943.818	10319.21
944.125	10142.26
944.431	10052.55
944.738	10143.39
945.044	10098.42
945.35	10030.17
945.657	10041.25
945.963	9955.83
946.269	9917.63
946.575	9899.56
946.881	9816.62
947.187	9737.53
947.493	9691.2
947.799	9623.41
948.105	9609.62
948.41	9509.96
948.716	9552.67
949.022	9440.59
949.327	9456.63
949.633	9414.37
949.938	9296.86
950.244	9309.52
950.549	9252.79
950.854	9307.93
951.16	9181.16
951.465	9116.3
951.77	9078.79
952.075	9068.17
952.38	9040.82
952.685	8995.85
952.99	8909.75
953.294	8966.93
953.599	8854.16
953.904	8846.7
954.209	8759.25
954.513	8825.91
954.818	8686.03
955.122	8731.68
955.426	8689.87
955.731	8585.69
956.035	8607.39
956.339	8523.32
956.643	8535.98
956.948	8413.72
957.252	8350.44
957.556	8368.07
957.86	8344.79
958.163	8385.02
958.467	8221.41
958.771	8205.14
959.075	8199.26
959.378	8116.78
959.682	8124.01
959.985	8049.44
960.289	7994.75
960.592	7947.29
960.896	7912.04
961.199	7945.48
961.502	7847.86
961.805	7868.88
962.108	7754.08
962.411	7808.76
962.714	7722.44
963.017	7614.64
963.32	7649.67
963.623	7655.77
963.926	7601.54
964.228	7568.54
964.531	7532.39
964.833	7534.65
965.136	7429.79
965.438	7390.24
965.741	7377.14
966.043	7305.5
966.345	7311.83
966.648	7313.64
966.95	7289.91
967.252	7237.48
967.554	7204.03
967.856	7160.65
968.158	7134.43
968.46	7120.19
968.761	7134.66
969.063	6981.89
969.365	6998.84
969.666	6943.93
969.968	6885.85
970.269	6884.27
970.571	6888.11
970.872	6847.21
971.174	6794.55
971.475	6798.62
971.776	6763.82
972.077	6687.21
972.378	6726.08
972.679	6664.84
972.98	6613.99
973.281	6617.16
973.582	6567.89
973.883	6482.92
974.183	6490.61
974.484	6449.25
974.785	6383.72
975.085	6389.82
975.386	6447.67
975.686	6400.67
975.986	6378.52
976.287	6307.79
976.587	6186.43
976.887	6208.58
977.187	6235.25
977.487	6189.6
977.787	6112.76
978.087	6141.91
978.387	6103.27
978.687	6071.63
978.987	5991.64
979.286	6019.88
979.586	6022.14
979.885	5919.55
980.185	5903.5
980.484	5889.27
980.784	5840.91
981.083	5847.91
981.382	5826.22
981.682	5823.28
981.981	5786.44
982.28	5693.79
982.579	5666.9
982.878	5701.93
983.177	5628.48
983.475	5600.46
983.774	5579.9
984.073	5553.46
984.372	5522.72
984.67	5588.48
984.969	5563.4
985.267	5521.82
985.566	5501.25
985.864	5397.75
986.162	5355.72
986.461	5338.09
986.759	5352.56
987.057	5293.58
987.355	5261.03
987.653	5247.93
987.951	5182.62
988.249	5221.71
988.547	5173.35
988.844	5114.6
989.142	5110.98
989.44	5092.45
989.737	5125.22
990.035	5068.5
990.332	5053.13
990.63	5003.41
990.927	5005.22
991.224	4939.69
991.521	4899.91
991.819	4889.97
992.116	4953.7
992.413	4872.12
992.71	4841.84
993.006	4850.2
993.303	4787.83
993.6	4786.24
993.897	4769.07
994.193	4741.5
994.49	4687.26
994.787	4686.13
995.083	4641.84
995.379	4622.18
995.676	4669.86
995.972	4547.83
996.268	4553.93
996.565	4518.91
996.861	4509.42
997.157	4518.68
997.453	4441.17
997.749	4410.43
998.044	4398.68
998.34	4405.92
998.636	4346.26
998.932	4376.31
999.227	4275.07
999.523	4296.99
999.818	4266.03
1000.114	4269.42
1000.409	4186.94
1000.704	4206.82
1001	4187.16
1001.295	4099.71
1001.59	4129.54
1001.885	4102.65
1002.18	4067.85
1002.475	4052.48
1002.77	4047.05
1003.065	4011.35
1003.359	3972.93
1003.654	3973.84
1003.949	3965.25
1004.243	3893.84
1004.538	3856.1
1004.832	3816.1
1005.127	3844.57
1005.421	3787.85
1005.715	3791.92
1006.009	3833.73
1006.304	3751.92
1006.598	3740.4
1006.892	3715.99
1007.186	3684.13
1007.48	3687.29
1007.773	3656.1
1008.067	3595.54
1008.361	3566.62
1008.655	3556.45
1008.948	3550.57
1009.242	3513.74
1009.535	3523.23
1009.829	3478.93
1010.122	3440.06
1010.415	3441.42
1010.708	3416.11
1011.001	3424.02
1011.295	3354.19
1011.588	3344.7
1011.881	3291.82
1012.173	3318.26
1012.466	3301.76
1012.759	3271.71
1013.052	3253.4
1013.344	3220.18
1013.637	3200.07
1013.93	3173.63
1014.222	3159.17
1014.514	3151.71
1014.807	3130.47
1015.099	3146.51
1015.391	3081.88
1015.683	3072.16
1015.976	3062.45
1016.268	2990.13
1016.56	2999.4
1016.851	2978.61
1017.143	2939.74
1017.435	2941.32
1017.727	2922.11
1018.018	2905.39
1018.31	2843.24
1018.602	2864.49
1018.893	2862.45
1019.185	2861.78
1019.476	2796.69
1019.767	2796.24
1020.058	2754.66
1020.35	2737.94
1020.641	2734.09
1020.932	2700.65
1021.223	2670.14
1021.514	2664.94
1021.804	2638.05
1022.095	2612.97
1022.386	2579.97
1022.677	2564.61
1022.967	2591.73
1023.258	2544.5
1023.548	2539.98
1023.839	2534.55
1024.129	2481.9
1024.419	2476.93
1024.709	2470.15
1025	2462.69
1025.29	2435.8
1025.58	2418.17
1025.87	2404.16
1026.16	2379.53
1026.449	2374.33
1026.739	2350.83
1027.029	2351.51
1027.319	2280.55
1027.608	2262.69
1027.898	2286.2
1028.187	2235.35
1028.477	2244.84
1028.766	2234.67
1029.055	2228.12
1029.344	2194.45
1029.634	2154.9
1029.923	2175.24
1030.212	2115.13
1030.501	2122.36
1030.79	2121.91
1031.078	2097.95
1031.367	2067.22
1031.656	2061.57
1031.945	2038.07
1032.233	2031.51
1032.522	2034.68
1032.81	1993.32
1033.099	1973.44
1033.387	1987
1033.675	1951.97
1033.963	1915.59
1034.251	1909.03
1034.54	1902.48
1034.828	1881.46
1035.116	1882.14
1035.403	1868.58
1035.691	1840.33
1035.979	1857.51
1036.267	1818.41
1036.554	1803.27
1036.842	1810.73
1037.129	1801.69
1037.417	1781.35
1037.704	1750.17
1037.992	1758.08
1038.279	1763.95
1038.566	1717.17
1038.853	1717.17
1039.14	1717.17
