Data from 199_FLMS001491_010.txt Node
Date: Thu Apr 19 16:33:14 BST 2018
User: hsy
Spectrometer: FLMS00149
Trigger mode: 0
Integration Time (sec): 1.000000E-2
Scans to average: 10
Electric dark correction enabled: true
Nonlinearity correction enabled: false
Boxcar width: 0
XAxis mode: Wavelengths
Number of Pixels in Spectrum: 2048
>>>>>Begin Spectral Data<<<<<
341.393	-3.35
341.776	-3.35
342.16	-3.35
342.543	-46.96
342.927	-79.5
343.31	-73.85
343.693	-62.55
344.077	-59.62
344.46	-53.06
344.843	-51.26
345.226	-41.99
345.61	-47.19
345.993	-20.3
346.376	1.62
346.759	12.02
347.142	16.54
347.525	41.17
347.908	43.21
348.291	95.18
348.674	91.34
349.057	108.74
349.44	118.01
349.823	148.97
350.206	187.38
350.588	246.82
350.971	265.35
351.354	273.93
351.737	278.45
352.119	310.99
352.502	339.69
352.884	333.82
353.267	347.38
353.65	350.99
354.032	345.57
354.414	355.29
354.797	354.84
355.179	383.54
355.562	353.93
355.944	376.53
356.326	416.53
356.709	391.67
357.091	377.66
357.473	388.05
357.855	390.99
358.238	391.44
358.62	410.65
359.002	369.07
359.384	403.2
359.766	395.96
360.148	390.77
360.53	383.54
360.912	400.48
361.294	415.85
361.676	398.22
362.057	390.77
362.439	396.64
362.821	391.9
363.203	409.52
363.584	398.45
363.966	397.09
364.348	381.73
364.729	409.3
365.111	383.31
365.493	366.13
365.874	380.82
366.256	374.27
366.637	386.47
367.019	377.21
367.4	390.09
367.781	374.5
368.163	379.69
368.544	388.51
368.925	368.85
369.306	365.91
369.688	392.8
370.069	394.16
370.45	397.32
370.831	395.51
371.212	396.64
371.593	385.12
371.974	397.09
372.355	399.58
372.736	376.08
373.117	390.31
373.498	386.92
373.879	390.54
374.26	406.13
374.641	402.07
375.021	408.39
375.402	409.3
375.783	427.38
376.163	414.04
376.544	415.85
376.925	409.98
377.305	409.98
377.686	422.18
378.066	417.66
378.447	431.44
378.827	425.79
379.208	411.56
379.588	420.82
379.968	429.64
380.349	432.12
380.729	433.03
381.109	441.39
381.489	442.29
381.87	423.31
382.25	443.65
382.63	457.21
383.01	430.31
383.39	457.88
383.77	440.03
384.15	474.38
384.53	442.97
384.91	459.69
385.29	482.74
385.67	456.75
386.049	480.71
386.429	488.39
386.809	486.81
387.189	466.24
387.568	468.73
387.948	465.57
388.328	472.35
388.707	475.06
389.087	497.88
389.466	499.24
389.846	525.68
390.225	486.36
390.605	509.63
390.984	502.4
391.363	503.53
391.743	509.41
392.122	508.73
392.501	525.23
392.881	525.9
393.26	546.02
393.639	521.61
394.018	510.76
394.397	524.77
394.776	557.32
395.155	560.03
395.534	539.46
395.913	547.82
396.292	554.83
396.671	565
397.05	554.83
397.429	564.55
397.808	554.15
398.186	555.28
398.565	586.69
398.944	553.47
399.323	568.16
399.701	577.88
400.08	567.71
400.458	599.57
400.837	592.34
401.215	594.38
401.594	574.04
401.972	597.77
402.351	602.51
402.729	606.81
403.107	619.01
403.486	597.77
403.864	612
404.242	612.23
404.62	639.57
404.999	611.55
405.377	630.53
405.755	641.38
406.133	642.06
406.511	658.33
406.889	664.21
407.267	670.31
407.645	674.83
408.023	652.23
408.401	679.8
408.779	707.82
409.156	686.8
409.534	710.31
409.912	696.97
410.29	722.06
410.667	702.62
411.045	738.55
411.422	755.95
411.8	752.11
412.178	753.92
412.555	768.16
412.933	786.46
413.31	768.61
413.687	778.33
414.065	779
414.442	787.82
414.819	815.39
415.197	807.7
415.574	823.98
415.951	830.75
416.328	817.2
416.705	850.42
417.082	832.79
417.46	837.53
417.837	841.15
418.214	867.59
418.591	880.7
418.967	884.76
419.344	869.85
419.721	890.19
420.098	870.98
420.475	901.49
420.852	889.74
421.228	901.94
421.605	925.22
421.982	915.27
422.358	919.34
422.735	899
423.111	951.2
423.488	936.97
423.864	982.84
424.241	971.54
424.617	978.77
424.994	979
425.37	1007.02
425.746	985.55
426.123	1034.59
426.499	1013.12
426.875	1045.44
427.251	1016.06
427.627	1071.43
428.003	1082.27
428.379	1087.02
428.756	1093.57
429.132	1101.71
429.507	1114.59
429.883	1122.27
430.259	1111.88
430.635	1144.42
431.011	1154.59
431.387	1175.15
431.763	1205.21
432.138	1198.2
432.514	1220.12
432.89	1218.99
433.265	1241.59
433.641	1250.63
434.016	1271.2
434.392	1283.4
434.767	1291.76
435.143	1292.21
435.518	1324.08
435.894	1339.89
436.269	1355.49
436.644	1390.06
437.02	1395.94
437.395	1387.35
437.77	1418.99
438.145	1397.07
438.52	1412.89
438.895	1452.43
439.271	1459.89
439.646	1449.27
440.021	1480.68
440.395	1495.14
440.77	1462.6
441.145	1526.78
441.52	1508.93
441.895	1499.21
442.27	1537.63
442.645	1515.03
443.019	1521.13
443.394	1515.93
443.769	1548.25
444.143	1562.49
444.518	1559.1
444.892	1587.12
445.267	1609.27
445.641	1556.61
446.016	1631.86
446.39	1626.67
446.764	1645.2
447.139	1610.17
447.513	1640
447.887	1679.09
448.262	1642.94
448.636	1677.06
449.01	1694.46
449.384	1696.49
449.758	1704.4
450.132	1726.32
450.506	1718.19
450.88	1761.8
451.254	1735.14
451.628	1804.97
452.002	1818.75
452.376	1795.7
452.75	1833.67
453.123	1807.68
453.497	1841.35
453.871	1863.5
454.244	1909.37
454.618	1919.09
454.992	1934.68
455.365	1960.89
455.739	1999.54
456.112	2001.12
456.486	2040.67
456.859	2082.93
457.232	2107.78
457.606	2101.68
457.979	2114.34
458.352	2144.17
458.725	2166.54
459.099	2194.11
459.472	2216.48
459.845	2242.92
460.218	2312.52
460.591	2285.41
460.964	2318.63
461.337	2329.92
461.71	2379.41
462.083	2424.61
462.456	2409.7
462.829	2409.7
463.201	2454.67
463.574	2476.59
463.947	2500.54
464.32	2550.26
464.692	2554.1
465.065	2601.1
465.438	2607.21
465.81	2648.79
466.183	2656.24
466.555	2716.36
466.928	2739.41
467.3	2677.94
467.672	2799.74
468.045	2832.28
468.417	2812.4
468.789	2838.84
469.161	2853.75
469.534	2913.41
469.906	2973.75
470.278	2978.04
470.65	3047.65
471.022	3093.07
471.394	3110.02
471.766	3152.28
472.138	3132.84
472.51	3255.1
472.882	3248.77
473.253	3296.23
473.625	3326.28
473.997	3405.15
474.369	3390.01
474.74	3469.78
475.112	3559.72
475.484	3522.89
475.855	3613.51
476.227	3676.78
476.598	3784.35
476.97	3787.06
477.341	3873.39
477.713	3913.16
478.084	3935.76
478.455	4062.99
478.827	4008.75
479.198	4154.28
479.569	4178.24
479.94	4286.03
480.311	4316.09
480.682	4446.25
481.053	4502.07
481.424	4647.15
481.795	4643.99
482.166	4723.76
482.537	4801.27
482.908	4886.69
483.279	4952.45
483.65	5063.64
484.021	5082.17
484.391	5203.75
484.762	5241.94
485.133	5275.16
485.503	5410.75
485.874	5493.46
486.244	5589.27
486.615	5640.12
486.985	5729.16
487.356	5787.01
487.726	5790.85
488.097	5998.08
488.467	5986.1
488.837	6109.03
489.207	6250.5
489.578	6331.18
489.948	6400.33
490.318	6475.8
490.688	6528.46
491.058	6591.28
491.428	6755.8
491.798	6779.07
492.168	6916.02
492.538	6989.46
492.908	7084.6
493.278	7125.96
493.648	7207.76
494.017	7312.39
494.387	7342.45
494.757	7424.48
495.126	7497.7
495.496	7548.77
495.866	7614.31
496.235	7736.11
496.605	7824.92
496.974	7838.71
497.344	7927.07
497.713	7993.96
498.082	8010.68
498.452	8145.36
498.821	8184.69
499.19	8219.94
499.559	8261.52
499.928	8364.57
500.298	8447.73
500.667	8490.44
501.036	8447.5
501.405	8539.48
501.774	8564.56
502.143	8639.59
502.512	8755.29
502.88	8812.47
503.249	8798.23
503.618	8903.31
503.987	8923.88
504.356	8954.84
504.724	9066.7
505.093	9107.6
505.462	9111.22
505.83	9203.19
506.199	9226.47
506.567	9386.24
506.936	9392.11
507.304	9509.62
507.672	9505.1
508.041	9599.56
508.409	9685.44
508.777	9668.04
509.145	9782.38
509.514	9805.66
509.882	9863.96
510.25	9924.53
510.618	9993
510.986	9965.43
511.354	10107.57
511.722	10179.21
512.09	10315.25
512.458	10234.8
512.826	10406.1
513.193	10421.92
513.561	10531.06
513.929	10556.83
514.297	10642.25
514.664	10647.45
515.032	10791.85
515.4	10797.05
515.767	10942.35
516.135	11040.88
516.502	10962.69
516.869	11152.74
517.237	11206.08
517.604	11237.49
517.972	11400.87
518.339	11442.91
518.706	11595.67
519.073	11544.15
519.44	11572.85
519.808	11783.46
520.175	11806.96
520.542	12011.03
520.909	12065.04
521.276	12129.67
521.643	12232.49
522.009	12317.91
522.376	12522.65
522.743	12514.97
523.11	12640.84
523.477	12850.33
523.843	12877.9
524.21	13100.94
524.577	13171.67
524.943	13227.27
525.31	13266.13
525.676	13441.72
526.043	13621.61
526.409	13725.11
526.776	13785.44
527.142	13902.73
527.508	14014.14
527.874	14150.63
528.241	14254.58
528.607	14358.99
528.973	14543.61
529.339	14505.2
529.705	14665.65
530.071	14826.32
530.437	14909.93
530.803	15084.17
531.169	15101.11
531.535	15132.98
531.901	15241
532.267	15389.24
532.632	15511.27
532.998	15673.08
533.364	15760.98
533.73	15778.61
534.095	15991.94
534.461	15955.33
534.826	16026.74
535.192	16240.29
535.557	16202.55
535.923	16301.76
536.288	16381.08
536.653	16511.92
537.019	16466.95
537.384	16537.91
537.749	16662.66
538.114	16666.72
538.479	16815.42
538.845	16857.68
539.21	16878.92
539.575	17035.07
539.94	17091.34
540.305	17223.09
540.67	17247.27
541.034	17342.19
541.399	17379.92
541.764	17586.47
542.129	17534.5
542.494	17591.22
542.858	17583.53
543.223	17679.58
543.587	17804.09
543.952	17778.56
544.316	17847.71
544.681	17889.74
545.045	18094.93
545.41	18140.36
545.774	18190.3
546.138	18102.84
546.503	18388.03
546.867	18306.45
547.231	18422.61
547.595	18496.05
547.959	18688.59
548.324	18625.99
548.688	18691.53
549.052	18868.47
549.416	18735.14
549.779	18857.85
550.143	18935.14
550.507	19034.57
550.871	19176.94
551.235	19194.34
551.599	19441.11
551.962	19450.38
552.326	19501.22
552.689	19623.03
553.053	19592.97
553.417	19688.56
553.78	19897.6
554.143	19847.2
554.507	19983.02
554.87	20020.98
555.234	20231.37
555.597	20124.03
555.96	20366.96
556.323	20286.74
556.686	20473.18
557.05	20630.69
557.413	20746.62
557.776	20787.07
558.139	20902.09
558.502	20950.45
558.865	21001.75
559.228	21368.97
559.59	21438.12
559.953	21511.12
560.316	21686.48
560.679	21768.51
561.041	21872.01
561.404	22040.59
561.767	22236.75
562.129	22226.35
562.492	22465.44
562.854	22534.82
563.217	22597.64
563.579	22729.61
563.941	22863.62
564.304	23128.02
564.666	23318.3
565.028	23325.98
565.39	23375.7
565.753	23687.1
566.115	23876.93
566.477	23961.22
566.839	24203.93
567.201	24481.88
567.563	24494.54
567.925	24759.84
568.287	24762.78
568.648	24965.49
569.01	25240.06
569.372	25437.11
569.734	25548.98
570.095	25777.22
570.457	25921.85
570.819	26051.79
571.18	26097.44
571.542	26400.25
571.903	26468.5
572.265	26737.42
572.626	27001.37
572.987	27153.45
573.349	27175.15
573.71	27373.56
574.071	27496.49
574.432	27764.74
574.794	28112.3
575.155	28093.31
575.516	28100.77
575.877	28380.09
576.238	28440.42
576.599	28705.05
576.96	28627.99
577.32	28827.08
577.681	28956.34
578.042	29189.33
578.403	29233.17
578.763	29467.74
579.124	29391.36
579.485	29655.76
579.845	29914.06
580.206	29833.61
580.566	30077.22
580.927	30064.34
581.287	30319.25
581.648	30265.01
582.008	30544.1
582.368	30632.46
582.728	30789.74
583.089	30769.85
583.449	30917.65
583.809	31099.79
584.169	31309.28
584.529	31334.13
584.889	31781.81
585.249	31698.19
585.609	31730.96
585.969	32173.43
586.329	32039.88
586.688	32509.02
587.048	32574.33
587.408	32833.3
587.768	33015.67
588.127	33278.72
588.487	33466.73
588.846	34028.98
589.206	34094.97
589.565	34407.73
589.925	34933.36
590.284	35174.94
590.643	35511.2
591.003	35798.88
591.362	36380.78
591.721	36564.28
592.08	37050.82
592.44	37665.04
592.799	37801.76
593.158	38164.91
593.517	38568.29
593.876	39077.43
594.235	39544.09
594.593	39858.43
594.952	40437.17
595.311	40831.06
595.67	41475.79
596.029	42065.38
596.387	42591.46
596.746	43067.61
597.104	43320.71
597.463	43846.8
597.822	44577.18
598.18	44936.26
598.538	45489.02
598.897	46304.59
599.255	46481.31
599.613	47421.85
599.972	47530.32
600.33	48067.93
600.688	48507.47
601.046	48983.39
601.404	49568.46
601.762	49929.13
602.12	50457.47
602.478	50995.76
602.836	51308.98
603.194	51336.09
603.552	51855.4
603.91	52107.15
604.268	52597.76
604.625	52909.61
604.983	53289.94
605.341	53461.69
605.698	54057.6
606.056	54473.64
606.413	54525.61
606.771	54936.68
607.128	55173.73
607.485	55340.96
607.843	55673.83
608.2	56001.73
608.557	56357.2
608.914	56493.25
609.272	56808.72
609.629	57125.32
609.986	57424.52
610.343	57510.17
610.7	57886.66
611.057	57996.48
611.414	58183.6
611.771	58483.7
612.127	58712.17
612.484	58894.76
612.841	59120.97
613.198	59154.65
613.554	59368.2
613.911	59633.5
614.267	59868.98
614.624	59912.82
614.98	60201.62
615.337	60420.37
615.693	60459.7
616.05	60598.9
616.406	60830.08
616.762	60978.1
617.118	61105.33
617.475	61111.66
617.831	61429.39
618.187	61554.36
618.543	61704.18
618.899	61865.53
619.255	61947.11
619.611	62004.06
619.967	62243.38
620.323	62372.19
620.678	62413.09
621.034	62424.39
621.39	62497.38
621.746	62608.79
622.101	62902.8
622.457	62715
622.812	62994.77
623.168	63074.77
623.523	63068.44
623.879	63209.91
624.234	63162.22
624.589	63270.47
624.945	63385.95
625.3	63442.22
625.655	63498.71
626.01	63512.95
626.365	63524.47
626.72	63506.85
627.075	63524.47
627.43	63524.47
627.785	63524.47
628.14	63524.47
628.495	63524.47
628.85	63524.47
629.205	63524.47
629.559	63524.47
629.914	63524.47
630.269	63524.47
630.623	63524.47
630.978	63524.47
631.332	63524.47
631.687	63524.47
632.041	63524.47
632.396	63524.47
632.75	63524.47
633.104	63524.47
633.459	63524.47
633.813	63524.47
634.167	63524.47
634.521	63524.47
634.875	63524.47
635.229	63524.47
635.583	63524.47
635.937	63524.47
636.291	63524.47
636.645	63524.47
636.999	63524.47
637.352	63524.47
637.706	63524.47
638.06	63524.47
638.413	63524.47
638.767	63524.47
639.121	63524.47
639.474	63524.47
639.828	63524.47
640.181	63524.47
640.534	63524.47
640.888	63524.47
641.241	63524.47
641.594	63524.47
641.947	63524.47
642.301	63524.47
642.654	63524.47
643.007	63524.47
643.36	63524.47
643.713	63524.47
644.066	63524.47
644.419	63524.47
644.771	63447.41
645.124	63249.9
645.477	63254.42
645.83	63153.86
646.182	63115.9
646.535	63058.05
646.888	63117.25
647.24	63039.97
647.593	63161.55
647.945	63076.8
648.298	62988.22
648.65	62900.76
649.002	62759.07
649.355	62797.26
649.707	62704.38
650.059	62696.25
650.411	63028.67
650.763	63127.2
651.115	63466.85
651.467	63357.92
651.819	63400.86
652.171	63270.47
652.523	63268.21
652.875	63271.6
653.227	63180.98
653.578	63407.41
653.93	63287.42
654.282	63197.48
654.633	63142.56
654.985	63191.83
655.337	63131.26
655.688	63170.36
656.039	63169.45
656.391	62955.9
656.742	63048.55
657.094	63078.61
657.445	63130.59
657.796	63123.13
658.147	62972.17
658.498	63141.43
658.849	63142.56
659.2	63058.27
659.551	63026.18
659.902	63168.55
660.253	63024.37
660.604	63132.62
660.955	62994.32
661.306	63111.38
661.656	63077.03
662.007	63027.99
662.358	63074.77
662.708	63099.85
663.059	63076.8
663.409	62932.17
663.76	63043.81
664.11	63060.76
664.461	63096.69
664.811	63035.9
665.161	63007.2
665.511	63001.1
665.862	63018.5
666.212	63064.82
666.562	63060.31
666.912	63037.93
667.262	63026.86
667.612	62957.48
667.962	63044.49
668.312	62956.58
668.662	63051.94
669.011	63048.33
669.361	63019.63
669.711	63001.32
670.06	62959.52
670.41	62930.37
670.76	62908.9
671.109	62995.45
671.459	62929.24
671.808	62935.79
672.157	62964.94
672.507	62821.44
672.856	62813.76
673.205	62900.08
673.554	62900.08
673.904	62779.41
674.253	63017.82
674.602	62842.01
674.951	62548.23
675.3	62431.85
675.649	62844.94
675.998	62842.23
676.346	62881.78
676.695	62839.97
677.044	62684.95
677.393	62784.15
677.741	62856.69
678.09	62773.08
678.438	62695.34
678.787	62773.53
679.135	62778.05
679.484	62634.33
679.832	62676.36
680.181	62627.55
680.529	62642.24
680.877	62529.92
681.225	62469.59
681.573	62716.81
681.922	62497.38
682.27	62443.15
682.618	62496.48
682.966	62354.56
683.314	62380.78
683.661	62379.87
684.009	62262.81
684.357	62147.79
684.705	62153.21
685.053	62145.53
685.4	62056.49
685.748	62023.95
686.095	62005.64
686.443	61912.76
686.79	61887
687.138	61919.54
687.485	61851.75
687.832	61773.11
688.18	61841.13
688.527	61649.27
688.874	61696.95
689.221	61542.15
689.568	61540.8
689.915	61420.35
690.262	61567.24
690.609	61460.8
690.956	61335.15
691.303	61341.93
691.65	61259.67
691.997	61229.62
692.344	61071.88
692.69	61002.28
693.037	61080.7
693.383	60876.41
693.73	60926.35
694.077	60815.84
694.423	60847.93
694.769	60702.18
695.116	60676.64
695.462	60568.62
695.808	60521.39
696.155	60569.52
696.501	60373.14
696.847	60429.19
697.193	60258.57
697.539	60305.58
697.885	60086.6
698.231	60018.58
698.577	60069.42
698.923	60030.1
699.269	59864.01
699.614	59739.04
699.96	59720.96
700.306	59701.98
700.651	59616.1
700.997	59475.09
701.342	59490.68
701.688	59427.41
702.033	59344.24
702.379	59326.62
702.724	59151.26
703.069	59213.17
703.415	59016.57
703.76	58936.57
704.105	59018.15
704.45	58927.08
704.795	58843.47
705.14	58739.29
705.485	58778.84
705.83	58590.37
706.175	58637.6
706.52	58550.14
706.865	58464.27
707.209	58448
707.554	58325.97
707.899	58340.66
708.243	58245.97
708.588	58164.61
708.932	58054.11
709.277	58021.12
709.621	57876.94
709.966	57808.92
710.31	57882.59
710.654	57699.99
710.998	57716.26
711.342	57732.99
711.687	57589.49
712.031	57546.33
712.375	57428.81
712.719	57419.78
713.063	57363.28
713.407	57462.71
713.75	57303.17
714.094	57278.76
714.438	57148.14
714.782	57156.96
715.125	57073.57
715.469	57117.64
715.812	56907.7
716.156	56851.65
716.499	56879.68
716.843	56874.03
717.186	56769.17
717.53	56962.61
717.873	56761.49
718.216	56808.49
718.559	56642.39
718.902	56439.91
719.246	56528.73
719.589	56416.86
719.932	56288.96
720.275	56370.99
720.617	56399.24
720.96	56253.7
721.303	56242.41
721.646	56269.98
721.989	56186.81
722.331	56177.1
722.674	56050.32
723.016	56083.54
723.359	55947.5
723.701	55938.68
724.044	55883.77
724.386	55785.69
724.729	55832.7
725.071	55799.71
725.413	55752.02
725.755	55717.67
726.097	55611.24
726.439	55621.18
726.782	55441.07
727.124	55633.16
727.465	55483.56
727.807	55396.33
728.149	55382.77
728.491	55288.76
728.833	55397.46
729.175	55334.86
729.516	55239.95
729.858	55180.06
730.199	55320.4
730.541	55202.21
730.882	55103.45
731.224	55185.26
731.565	55002.21
731.906	55046.5
732.248	55061.19
732.589	54802.44
732.93	54921.99
733.271	54898.49
733.612	54882.44
733.953	54867.75
734.294	54819.17
734.635	54747.98
734.976	54860.97
735.317	54604.03
735.658	54617.59
735.999	54608.1
736.339	54510.25
736.68	54614.43
737.021	54545.27
737.361	54476.12
737.702	54637.02
738.042	54397.26
738.383	54470.93
738.723	54450.36
739.063	54348.9
739.404	54437.71
739.744	54244.94
740.084	54179.18
740.424	54234.1
740.764	54128.11
741.104	54261.89
741.444	54024.16
741.784	54007.21
742.124	54184.38
742.464	53962.24
742.804	53965.86
743.143	53849.93
743.483	53966.98
743.823	53919.08
744.162	53792.3
744.502	53846.08
744.841	53665.52
745.181	53867.78
745.52	53694.45
745.86	53725.18
746.199	53715.47
746.538	53681.12
746.877	53740.55
747.216	53597.28
747.556	53576.03
747.895	53582.81
748.234	53470.27
748.573	53497.62
748.911	53485.64
749.25	53419.2
749.589	53286.32
749.928	53381.46
750.267	53314.35
750.605	53193.45
750.944	53109.61
751.283	53154.8
751.621	53215.82
751.96	52928.82
752.298	53002.26
752.636	53023.51
752.975	52875.49
753.313	52832.78
753.651	52840.91
753.989	52666.23
754.327	52806.56
754.666	52479.11
755.004	52635.49
755.342	52587.81
755.679	52479.34
756.017	52386.91
756.355	52444.09
756.693	52263.75
757.031	52405.44
757.368	52064.21
757.706	52015.17
758.044	51965.68
758.381	51948.05
758.719	51849.3
759.056	51843.65
759.394	51752.13
759.731	51467.62
760.068	51472.59
760.405	51583.09
760.743	51359.82
761.08	51313.27
761.417	51198.02
761.754	51147.85
762.091	51201.86
762.428	50908.31
762.765	50702.66
763.102	50795.54
763.438	50668.31
763.775	50417.02
764.112	50561.65
764.449	50469
764.785	50302.9
765.122	50063.13
765.458	49916.7
765.795	50006.64
766.131	49857.49
766.467	49809.58
766.804	49504.28
767.14	49465.41
767.476	49306.99
767.812	49274.9
768.148	49149.48
768.485	48998.98
768.821	48817.97
769.157	48797.18
769.492	48754.92
769.828	48568.03
770.164	48375.95
770.5	48178.89
770.836	48186.57
771.171	47903.64
771.507	47886.69
771.842	47682.63
772.178	47609.19
772.513	47486.93
772.849	47252.36
773.184	47263.43
773.519	47001.52
773.855	46884.91
774.19	46784.35
774.525	46584.13
774.86	46621.87
775.195	46465.71
775.53	46249.9
775.865	45943.69
776.2	45657.37
776.535	45542.8
776.87	45547.09
777.205	45411.5
777.539	45260.55
777.874	45363.82
778.209	44997.05
778.543	44909.37
778.878	44593.67
779.212	44620.56
779.547	44319.33
779.881	44226.68
780.215	43994.59
780.55	44116.17
780.884	43714.37
781.218	43511.44
781.552	43668.72
781.886	43428.5
782.22	43199.13
782.554	42985.8
782.888	42822.87
783.222	42666.94
783.556	42480.28
783.889	42346.5
784.223	42133.17
784.557	42032.16
784.89	42185.15
785.224	41768.44
785.557	41571.6
785.891	41418.39
786.224	41475.34
786.558	41294.55
786.891	41085.52
787.224	40810.49
787.557	40718.75
787.891	40685.98
788.224	40436.95
788.557	40370.73
788.89	40230.17
789.223	40175.26
789.556	39910.63
789.888	39903.4
790.221	39668.83
790.554	39478.33
790.887	39413.24
791.219	39295.96
791.552	39268.84
791.884	39109.07
792.217	38877.89
792.549	38898.68
792.882	38496.43
793.214	38517.45
793.546	38456.43
793.879	38313.84
794.211	38051.92
794.543	38170.56
794.875	38022.77
795.207	37799.95
795.539	37696.23
795.871	37972.15
796.203	37400.19
796.535	37332.62
796.867	37201.1
797.198	37114.77
797.53	37040.88
797.862	36800.88
798.193	36828
798.525	36701.68
798.856	36800.88
799.188	36189.6
799.519	36171.07
799.85	35996.61
800.182	36105.76
800.513	36068.25
800.844	35655.6
801.175	35883.17
801.506	35738.99
801.837	35489.28
802.168	35484.08
802.499	35415.16
802.83	35233.47
803.161	35006.35
803.491	35087.03
803.822	35082.51
804.153	34727.94
804.483	34639.58
804.814	34485.92
805.145	34614.73
805.475	34551
805.805	34371.57
806.136	34257.9
806.466	34199.82
806.796	34080.73
807.126	33837.8
807.457	33826.5
807.787	33903.33
808.117	33692.26
808.447	33647.52
808.777	33697.69
809.107	33311.48
809.436	33301.09
809.766	33221.32
810.096	33236.91
810.426	32934.54
810.755	33169.57
811.085	33047.99
811.414	33005.95
811.744	32629.92
812.073	32771.84
812.403	32570.49
812.732	32423.37
813.061	32579.3
813.39	32264.96
813.719	32228.12
814.049	32395.57
814.378	32223.83
814.707	31972.76
815.036	32090.5
815.365	31868.36
815.693	31771.64
816.022	31685.31
816.351	31700.45
816.68	31567.57
817.008	31661.36
817.337	31323.29
817.665	31308.82
817.994	31398.54
818.322	31301.59
818.651	31188.15
818.979	31009.17
819.307	31062.95
819.636	31008.94
819.964	30883.52
820.292	30947.7
820.62	30812.11
820.948	30909.29
821.276	30934.82
821.604	30904.31
821.932	30985.67
822.259	30815.73
822.587	30821.83
822.915	30855.95
823.243	30920.81
823.57	30635.17
823.898	30966.01
824.225	30828.38
824.553	30726.92
824.88	30809.18
825.207	30765.79
825.535	30554.49
825.862	30913.35
826.189	30780.7
826.516	30891.66
826.843	31065.89
827.17	30924.65
827.497	30915.61
827.824	30913.58
828.151	30917.42
828.478	30781.15
828.805	30978.89
829.131	30879
829.458	30965.1
829.785	30681.27
830.111	30725.79
830.438	30951.09
830.764	30761.04
831.09	30884.2
831.417	30659.12
831.743	30816.18
832.069	30771.44
832.395	30712.91
832.722	30795.62
833.048	30745.9
833.374	30841.94
833.7	30583.42
834.026	30657.77
834.351	30564.66
834.677	30644.43
835.003	30467.72
835.329	30635.4
835.654	30577.77
835.98	30366.7
836.306	30528.28
836.631	30378.68
836.956	30397.44
837.282	30380.03
837.607	30296.42
837.932	30116.76
838.258	30221.62
838.583	30216.42
838.908	30084.9
839.233	30175.07
839.558	29913.61
839.883	29900.27
840.208	29803.55
840.533	29913.38
840.858	29900.27
841.182	29781.18
841.507	29766.49
841.832	29644.23
842.156	29638.59
842.481	29600.62
842.805	29512.49
843.13	29362.43
843.454	29409.66
843.778	29253.06
844.103	29280.4
844.427	29152.04
844.751	29047.64
845.075	29040.86
845.399	28942.56
845.723	28831.15
846.047	28817.82
846.371	28728.1
846.695	28532.4
847.019	28340.09
847.343	28274.33
847.666	28272.29
847.99	28084.5
848.313	27845.64
848.637	28007.22
848.96	27869.59
849.284	27905.75
849.607	27527.68
849.931	27536.04
850.254	27345.54
850.577	27146.9
850.9	27054.02
851.223	27011.76
851.546	26910.3
851.869	26769.51
852.192	26855.61
852.515	26660.58
852.838	26424.88
853.161	26431.89
853.483	26335.17
853.806	26170.43
854.129	26160.94
854.451	26123.42
854.774	25936.08
855.096	25894.95
855.419	25783.77
855.741	25833.94
856.063	25598.47
856.385	25551.69
856.708	25507.85
857.03	25465.36
857.352	25310.56
857.674	25234.18
857.996	25117.12
858.318	24918.26
858.64	25051.14
858.961	24847.3
859.283	24876.22
859.605	24775.89
859.926	24742.44
860.248	24647.53
860.57	24509
860.891	24535.22
861.212	24525.5
861.534	24434.65
861.855	24288.22
862.176	24424.26
862.498	24342
862.819	24391.94
863.14	24091.39
863.461	24201.89
863.782	24045.51
864.103	24119.18
864.424	23990.82
864.745	24008.45
865.065	23890.94
865.386	23835.57
865.707	23765.07
866.027	23811.17
866.348	23825.63
866.668	23775.46
866.989	23706.31
867.309	23564.85
867.63	23584.51
867.95	23569.14
868.27	23348.36
868.59	23482.36
868.91	23320.56
869.23	23341.58
869.55	23216.83
869.87	23345.87
870.19	23166.44
870.51	23154.01
870.83	23162.82
871.15	23097.29
871.469	22946.11
871.789	23155.82
872.109	23091.64
872.428	23005.09
872.748	22977.07
873.067	22973.45
873.386	22849.84
873.706	22846.67
874.025	22756.73
874.344	22634.25
874.663	22742.04
874.982	22639.9
875.301	22624.31
875.62	22600.8
875.939	22588.15
876.258	22554.7
876.577	22379.11
876.896	22409.17
877.214	22433.35
877.533	22351.32
877.852	22316.52
878.17	22297.99
878.489	22326.01
878.807	22216.41
879.125	22234.49
879.444	22177.54
879.762	22088.05
880.08	22182.06
880.398	21989.97
880.716	22035.62
881.034	21876.98
881.352	21940.93
881.67	21882.4
881.988	21805.57
882.306	21784.1
882.624	21792.01
882.941	21672.24
883.259	21661.17
883.577	21476.99
883.894	21472.25
884.212	21418.69
884.529	21316.54
884.846	21300.95
885.164	21274.51
885.481	21331.23
885.798	21249.65
886.115	21054.86
886.432	21169.2
886.75	20994.97
887.067	21096.66
887.383	20933.96
887.7	21002.65
888.017	20798.37
888.334	20891.24
888.651	20762.66
888.967	20749.55
889.284	20599.5
889.6	20522.67
889.917	20394.31
890.233	20323.35
890.55	20289
890.866	20414.42
891.182	20276.57
891.498	20353.18
891.815	20196.8
892.131	20083.36
892.447	20045.17
892.763	19940.31
893.079	19916.58
893.395	19819.18
893.71	19765.85
894.026	19822.35
894.342	19783.03
894.657	19653.54
894.973	19592.07
895.289	19554.78
895.604	19441.11
895.92	19358.86
896.235	19261.46
896.55	19273.89
896.865	19206.99
897.181	19178.97
897.496	19131.97
897.811	18993.89
898.126	18973.1
898.441	18931.75
898.756	18915.7
899.071	18701.02
899.386	18818.98
899.7	18536.96
900.015	18562.49
900.33	18366.79
900.644	18392.1
900.959	18414.47
901.273	18257.87
901.588	18206.12
901.902	18169.96
902.216	18040.47
902.531	18077.08
902.845	17941.94
903.159	17841.61
903.473	17812.23
903.787	17737.2
904.101	17610.43
904.415	17663.98
904.729	17531.78
905.042	17288.63
905.356	17439.81
905.67	17385.12
905.984	17346.7
906.297	17276.88
906.611	17138.35
906.924	17120.04
907.237	17019.71
907.551	16965.02
907.864	16922.54
908.177	16999.14
908.491	16835.76
908.804	16740.62
909.117	16603.22
909.43	16391.48
909.743	16495.43
910.056	16474.86
910.368	16302.66
910.681	16295.43
910.994	16151.93
911.307	16072.16
911.619	16038.94
911.932	16096.12
912.244	15887.76
912.557	15929.12
912.869	15839.63
913.181	15781.77
913.494	15689.8
913.806	15617.71
914.118	15562.35
914.43	15515.57
914.742	15474.66
915.054	15342.01
915.366	15297.95
915.678	15309.92
915.99	15319.64
916.302	15185.41
916.613	15056.82
916.925	15065.18
917.236	15062.7
917.548	14848.92
917.859	14902.25
918.171	14804.4
918.482	14632.88
918.794	14627
919.105	14610.05
919.416	14521.92
919.727	14477.85
920.038	14440.79
920.349	14367.12
920.66	14280.12
920.971	14246.9
921.282	14135.26
921.593	14065.21
921.903	13989.73
922.214	14024.98
922.525	13937.3
922.835	13884.42
923.146	13748.16
923.456	13753.58
923.767	13680.81
924.077	13556.75
924.387	13596.3
924.697	13396.75
925.008	13352.91
925.318	13429.52
925.628	13324.66
925.938	13348.62
926.248	13160.37
926.558	13031.34
926.867	13118.34
927.177	13049.19
927.487	13021.62
927.796	12825.69
928.106	12899.82
928.416	12796.54
928.725	12657.11
929.034	12733.94
929.344	12718.58
929.653	12629.54
929.962	12518.58
930.271	12450.34
930.581	12475.19
930.89	12415.08
931.199	12261.19
931.508	12273.17
931.817	12175.77
932.125	12182.55
932.434	12156.56
932.743	12048.54
933.051	11940.52
933.36	11955.21
933.669	11958.15
933.977	11840.41
934.286	11810.81
934.594	11675.67
934.902	11689.68
935.21	11643.35
935.519	11597.25
935.827	11589.12
936.135	11465.05
936.443	11409.23
936.751	11330.82
937.059	11283.36
937.367	11230.03
937.674	11222.12
937.982	11193.87
938.29	11219.86
938.597	11052.86
938.905	11004.27
939.213	10936.03
939.52	10994.56
939.827	10924.5
940.135	10772.64
940.442	10781.91
940.749	10724.28
941.056	10784.39
941.363	10613.32
941.67	10574.68
941.977	10553.44
942.284	10522.7
942.591	10444.51
942.898	10449.94
943.205	10383.27
943.511	10371.3
943.818	10347.11
944.125	10245.2
944.431	10171.53
944.738	10110.29
945.044	10128.14
945.35	9999.78
945.657	10016.5
945.963	9910.52
946.269	9870.74
946.575	9875.94
946.881	9830.74
947.187	9795.04
947.493	9671.88
947.799	9656.51
948.105	9596.4
948.41	9558.44
948.716	9589.62
949.022	9525.22
949.327	9495.61
949.633	9365.9
949.938	9326.8
950.244	9332.9
950.549	9266.69
950.854	9144.21
951.16	9203.64
951.465	9207.71
951.77	9192.8
952.075	9073.48
952.38	9101.72
952.685	8989.18
952.99	8901.05
953.294	8920.26
953.599	8857.66
953.904	8845.01
954.209	8799.36
954.513	8742.41
954.818	8760.04
955.122	8733.6
955.426	8640.49
955.731	8594.17
956.035	8607.05
956.339	8465.58
956.643	8513.04
956.948	8443.44
957.252	8409.76
957.556	8455.19
957.86	8317.79
958.163	8286.38
958.467	8294.51
958.771	8233.72
959.075	8203.22
959.378	8172.48
959.682	8115.08
959.985	8096.1
960.289	8057.91
960.592	8014.97
960.896	7962.77
961.199	7957.12
961.502	7917.8
961.805	7785.15
962.108	7811.36
962.411	7777.69
962.714	7771.82
963.017	7748.77
963.32	7709.67
963.623	7615.89
963.926	7628.77
964.228	7562.1
964.531	7494.31
964.833	7546.74
965.136	7445.27
965.438	7454.54
965.741	7379.51
966.043	7365.95
966.345	7281.66
966.648	7302.68
966.95	7294.77
967.252	7248.21
967.554	7244.37
967.856	7159.85
968.158	7127.31
968.46	7089.8
968.761	7019.97
969.063	7042.34
969.365	7019.07
969.666	6971.61
969.968	6929.58
970.269	6989.92
970.571	6940.88
970.872	6881.22
971.174	6796.47
971.475	6785.4
971.776	6764.16
972.077	6735.46
972.378	6725.97
972.679	6718.06
972.98	6629.47
973.281	6612.52
973.582	6577.95
973.883	6492.75
974.183	6522.58
974.484	6511.06
974.785	6456.37
975.085	6410.95
975.386	6446.43
975.686	6364.85
975.986	6317.62
976.287	6302.48
976.587	6307.67
976.887	6251.63
977.187	6283.94
977.487	6197.17
977.787	6174.12
978.087	6151.52
978.387	6087.34
978.687	6069.26
978.987	6050.05
979.286	5976.61
979.586	6064.97
979.885	5979.77
980.185	5930.96
980.484	5857.52
980.784	5873.11
981.083	5840.57
981.382	5857.52
981.682	5827.46
981.981	5784.52
982.28	5824.07
982.579	5745.43
982.878	5696.16
983.177	5664.53
983.475	5640.35
983.774	5574.36
984.073	5592.21
984.372	5532.1
984.67	5514.25
984.969	5525.09
985.267	5446.9
985.566	5451.65
985.864	5439.67
986.162	5363.97
986.461	5373.01
986.759	5310.86
987.057	5309.96
987.355	5237.64
987.653	5258.44
987.951	5269.28
988.249	5243.52
988.547	5207.36
988.844	5184.76
989.142	5161.94
989.44	5098.21
989.737	5099.34
990.035	5035.84
990.332	5018.67
990.63	4962.85
990.927	5020.48
991.224	4979.57
991.521	4917.88
991.819	4907.48
992.116	4895.73
992.413	4904.55
992.71	4846.92
993.006	4826.36
993.303	4819.58
993.6	4808.96
993.897	4762.4
994.193	4758.11
994.49	4769.86
994.787	4755.85
995.083	4692.57
995.379	4619.36
995.676	4597.44
995.972	4548.17
996.268	4576.42
996.565	4586.36
996.861	4530.32
997.157	4521.73
997.453	4454.84
997.749	4434.28
998.044	4424.78
998.34	4386.59
998.636	4373.26
998.932	4370.1
999.227	4288.97
999.523	4328.52
999.818	4287.61
1000.114	4211.68
1000.409	4216.88
1000.704	4207.16
1001	4147.73
1001.295	4142.31
1001.59	4124.45
1001.885	4124
1002.18	4081.74
1002.475	4034.74
1002.77	4019.15
1003.065	4001.75
1003.359	3983.21
1003.654	3934.18
1003.949	3930.11
1004.243	3926.72
1004.538	3912.71
1004.832	3837.46
1005.127	3860.51
1005.421	3851.92
1005.715	3811.69
1006.009	3760.62
1006.304	3773.95
1006.598	3748.42
1006.892	3728.08
1007.186	3664.8
1007.48	3656.9
1007.773	3605.6
1008.067	3593.85
1008.361	3594.98
1008.655	3573.06
1008.948	3539.84
1009.242	3534.19
1009.535	3537.8
1009.829	3532.83
1010.122	3419.39
1010.415	3466.17
1010.708	3428.88
1011.001	3417.35
1011.295	3414.42
1011.588	3384.81
1011.881	3294.87
1012.173	3277.47
1012.466	3323.57
1012.759	3271.82
1013.052	3245.83
1013.344	3256.68
1013.637	3230.24
1013.93	3169.22
1014.222	3176.23
1014.514	3143.69
1014.807	3093.52
1015.099	3112.5
1015.391	3086.06
1015.683	3087.87
1015.976	3046.97
1016.268	3036.35
1016.56	3012.62
1016.851	2974.43
1017.143	2955.22
1017.435	2966.29
1017.727	2931.49
1018.018	2892.62
1018.31	2903.24
1018.602	2863.92
1018.893	2846.07
1019.185	2775.79
1019.476	2766.75
1019.767	2752.74
1020.058	2792.96
1020.35	2753.42
1020.641	2679.07
1020.932	2704.6
1021.223	2694.66
1021.514	2676.36
1021.804	2657.6
1022.095	2622.35
1022.386	2593.65
1022.677	2585.96
1022.967	2576.7
1023.258	2572.18
1023.548	2548.22
1023.839	2499.41
1024.129	2515.91
1024.419	2474.55
1024.709	2456.93
1025	2430.71
1025.29	2438.17
1025.58	2406.53
1025.87	2391.62
1026.16	2370.15
1026.449	2354.1
1026.739	2318.17
1027.029	2333.77
1027.319	2316.37
1027.608	2307.55
1027.898	2270.94
1028.187	2249.25
1028.477	2229.36
1028.766	2184.17
1029.055	2218.74
1029.344	2204.5
1029.634	2168.57
1029.923	2145.97
1030.212	2129.93
1030.501	2126.99
1030.79	2120.89
1031.078	2083.38
1031.367	2105.3
1031.656	2060.1
1031.945	2037.95
1032.233	2028.46
1032.522	2024.85
1032.81	1999.76
1033.099	1955.25
1033.387	1970.61
1033.675	1956.6
1033.963	1948.01
1034.251	1951.4
1034.54	1882.48
1034.828	1907.11
1035.116	1866.89
1035.403	1869.37
1035.691	1855.13
1035.979	1846.77
1036.267	1830.28
1036.554	1835.25
1036.842	1828.02
1037.129	1811.07
1037.417	1770.17
1037.704	1749.37
1037.992	1747.79
1038.279	1761.35
1038.566	1742.6
1038.853	1742.6
1039.14	1742.6
