Data from 199_FLMS001491_008.txt Node
Date: Thu Apr 19 16:33:08 BST 2018
User: hsy
Spectrometer: FLMS00149
Trigger mode: 0
Integration Time (sec): 1.000000E-2
Scans to average: 10
Electric dark correction enabled: true
Nonlinearity correction enabled: false
Boxcar width: 0
XAxis mode: Wavelengths
Number of Pixels in Spectrum: 2048
>>>>>Begin Spectral Data<<<<<
341.393	-25.3
341.776	-25.3
342.16	-25.3
342.543	-46.31
342.927	-65.29
343.31	-83.6
343.693	-83.15
344.077	-53.09
344.46	-75.01
344.843	-30.27
345.226	-51.28
345.61	-10.83
345.993	-25.07
346.376	-3.83
346.759	15.38
347.142	7.92
347.525	36.85
347.908	65.32
348.291	93.8
348.674	87.7
349.057	109.16
349.44	141.03
349.823	135.6
350.206	205.88
350.588	227.35
350.971	256.05
351.354	263.28
351.737	293.11
352.119	300.35
352.502	319.1
352.884	322.72
353.267	340.8
353.65	348.48
354.032	337.63
354.414	331.08
354.797	364.3
355.179	377.86
355.562	383.28
355.944	371.53
356.326	380.34
356.709	383.73
357.091	376.28
357.473	393.68
357.855	414.69
358.238	412.21
358.62	386.44
359.002	407.69
359.384	393.9
359.766	393.68
360.148	381.25
360.53	407.69
360.912	401.59
361.294	387.57
361.676	395.26
362.057	376.05
362.439	384.64
362.821	386.67
363.203	383.28
363.584	382.83
363.966	391.64
364.348	408.14
364.729	393
365.111	385.09
365.493	372.21
365.874	397.97
366.256	384.41
366.637	385.77
367.019	389.16
367.4	402.49
367.781	389.83
368.163	398.2
368.544	384.41
368.925	386.67
369.306	411.98
369.688	381.02
370.069	371.76
370.45	379.44
370.831	391.64
371.212	394.58
371.593	402.26
371.974	394.13
372.355	375.6
372.736	403.62
373.117	410.62
373.498	389.38
373.879	395.26
374.26	379.21
374.641	375.37
375.021	394.58
375.402	401.59
375.783	423.05
376.163	432.55
376.544	424.86
376.925	433
377.305	414.01
377.686	418.76
378.066	436.84
378.447	433.45
378.827	452.88
379.208	432.32
379.588	433.22
379.968	417.4
380.349	435.03
380.729	447.91
381.109	444.75
381.489	436.84
381.87	460.79
382.25	454.01
382.63	457.18
383.01	469.61
383.39	487.46
383.77	443.62
384.15	464.41
384.53	470.51
384.91	471.64
385.29	465.99
385.67	473.22
386.049	464.41
386.429	477.97
386.809	477.74
387.189	487.46
387.568	478.19
387.948	510.51
388.328	494.69
388.707	470.51
389.087	482.04
389.466	511.87
389.846	519.32
390.225	527.23
390.605	514.58
390.984	518.87
391.363	529.49
391.743	516.61
392.122	524.29
392.501	543.5
392.881	534.46
393.26	544.18
393.639	561.13
394.018	535.59
394.397	542.82
394.776	546.21
395.155	549.6
395.534	552.77
395.913	541.69
396.292	565.2
396.671	594.35
397.05	570.85
397.429	586.21
397.808	571.3
398.186	585.76
398.565	596.61
398.944	608.81
399.323	586.67
399.701	582.15
400.08	614.01
400.458	610.17
400.837	614.24
401.215	625.76
401.594	640
401.972	644.52
402.351	639.77
402.729	634.12
403.107	644.97
403.486	642.71
403.864	654.46
404.242	647.68
404.62	671.41
404.999	640.45
405.377	648.36
405.755	691.75
406.133	691.97
406.511	678.41
406.889	693.33
407.267	690.62
407.645	724.51
408.023	711.41
408.401	719.32
408.779	740.79
409.156	722.26
409.534	770.62
409.912	760.22
410.29	776.49
410.667	768.36
411.045	781.01
411.422	790.05
411.8	803.38
412.178	776.94
412.555	799.09
412.933	837.73
413.31	811.29
413.687	842.25
414.065	847.45
414.442	857.84
414.819	869.37
415.197	860.78
415.574	899.88
415.951	889.03
416.328	870.95
416.705	888.8
417.082	907.56
417.46	941.46
417.837	908.69
418.214	917.05
418.591	908.46
418.967	940.1
419.344	954.57
419.721	953.66
420.098	939.42
420.475	960.89
420.852	955.92
421.228	980.33
421.605	990.72
421.982	975.58
422.358	1014.45
422.735	1020.1
423.111	1027.33
423.488	1028.46
423.864	1031.85
424.241	1031.63
424.617	1058.74
424.994	1038.86
425.37	1065.75
425.746	1082.47
426.123	1074.79
426.499	1115.01
426.875	1101.91
427.251	1143.26
427.627	1122.7
428.003	1157.05
428.379	1164.96
428.756	1192.3
429.132	1185.07
429.507	1196.59
429.883	1204.05
430.259	1220.1
430.635	1248.12
431.011	1228.46
431.387	1287.44
431.763	1312.52
432.138	1281.34
432.514	1322.24
432.89	1316.14
433.265	1335.35
433.641	1397.27
434.016	1377.83
434.392	1423.03
434.767	1418.73
435.143	1450.82
435.518	1424.38
435.894	1472.97
436.269	1487.43
436.644	1509.58
437.02	1517.26
437.395	1519.97
437.77	1519.07
438.145	1551.61
438.52	1540.99
438.895	1580.09
439.271	1553.87
439.646	1608.56
440.021	1587.09
440.395	1624.38
440.77	1576.92
441.145	1648.78
441.52	1637.26
441.895	1644.26
442.27	1683.36
442.645	1679.52
443.019	1701.44
443.394	1691.04
443.769	1708.44
444.143	1711.16
444.518	1707.54
444.892	1724.04
445.267	1738.73
445.641	1747.76
446.016	1776.24
446.39	1750.02
446.764	1798.16
447.139	1778.5
447.513	1799.29
447.887	1846.07
448.262	1838.84
448.636	1821.89
449.01	1848.1
449.384	1842.9
449.758	1860.08
450.132	1918.61
450.506	1913.86
450.88	1919.74
451.254	1936.91
451.628	1983.69
452.002	1956.12
452.376	1982.11
452.75	2036.8
453.123	2035.44
453.497	2083.58
453.871	2072.28
454.244	2114.99
454.618	2127.42
454.992	2133.52
455.365	2167.64
455.739	2201.99
456.112	2251.71
456.486	2254.64
456.859	2258.03
457.232	2328.31
457.606	2320.41
457.979	2364.47
458.352	2400.85
458.725	2423
459.099	2442.89
459.472	2479.27
459.845	2516.78
460.218	2530.8
460.591	2540.96
460.964	2566.5
461.337	2612.6
461.71	2660.06
462.083	2665.03
462.456	2719.94
462.829	2674.75
463.201	2761.3
463.574	2761.75
463.947	2796.78
464.32	2778.92
464.692	2819.6
465.065	2877.68
465.438	2921.29
465.81	2951.57
466.183	2959.26
466.555	3021.18
466.928	3056.66
467.3	3066.83
467.672	3088.52
468.045	3155.86
468.417	3167.61
468.789	3156.77
469.161	3219.82
469.534	3257.78
469.906	3302.75
470.278	3336.88
470.65	3421.62
471.022	3451.45
471.394	3460.71
471.766	3484.89
472.138	3556.53
472.51	3666.36
472.882	3645.57
473.253	3706.13
473.625	3757.2
473.997	3834.04
474.369	3889.4
474.74	3900.93
475.112	3948.61
475.484	4087.14
475.855	4052.34
476.227	4142.05
476.598	4222.28
476.97	4285.1
477.341	4347.24
477.713	4398.32
478.084	4473.57
478.455	4546.34
478.827	4570.52
479.198	4700.46
479.569	4737.52
479.94	4850.06
480.311	4911.75
480.682	4978.87
481.053	5177.51
481.424	5175.47
481.795	5250.95
482.166	5363.49
482.537	5436.03
482.908	5495.01
483.279	5610.49
483.65	5729.81
484.021	5753.08
484.391	5862.91
484.762	5960.54
485.133	6027.43
485.503	6102.9
485.874	6241.43
486.244	6269.68
486.615	6371.15
486.985	6520.52
487.356	6603.23
487.726	6656.56
488.097	6823.56
488.467	6829.89
488.837	7090.45
489.207	7079.38
489.578	7219.49
489.948	7311.01
490.318	7384.9
490.688	7471.68
491.058	7523.88
491.428	7694.95
491.798	7709.19
492.168	7901.73
492.538	7983.31
492.908	8066.02
493.278	8168.84
493.648	8223.07
494.017	8311.89
494.387	8398.44
494.757	8496.29
495.126	8608.83
495.496	8616.28
495.866	8712.33
496.235	8831.65
496.605	8914.36
496.974	8941.25
497.344	8975.15
497.713	9072.32
498.082	9135.14
498.452	9234.12
498.821	9236.38
499.19	9322.71
499.559	9410.39
499.928	9434.57
500.298	9502.14
500.667	9621
501.036	9650.16
501.405	9667.1
501.774	9780.77
502.143	9878.62
502.512	9934.22
502.88	9971.5
503.249	9970.83
503.618	10104.61
503.987	10129.47
504.356	10189.12
504.724	10173.53
505.093	10272.51
505.462	10332.17
505.83	10399.51
506.199	10458.04
506.567	10598.15
506.936	10663.69
507.304	10746.4
507.672	10752.73
508.041	10819.84
508.409	10948.43
508.777	10988.65
509.145	11075.88
509.514	11103
509.882	11184.58
510.25	11201.75
510.618	11344.8
510.986	11248.98
511.354	11418.02
511.722	11563.55
512.09	11632.93
512.458	11615.53
512.826	11704.34
513.193	11751.8
513.561	11833.6
513.929	11966.25
514.297	12071.34
514.664	12081.28
515.032	12213.25
515.4	12312.01
515.767	12342.74
516.135	12443.3
516.502	12340.03
516.869	12566.01
517.237	12720.81
517.604	12711.54
517.972	12853.24
518.339	12875.83
518.706	12978.2
519.073	13005.1
519.44	13176.39
519.808	13337.06
520.175	13369.83
520.542	13481.69
520.909	13700.22
521.276	13748.35
521.643	13950.16
522.009	14041.9
522.376	14113.54
522.743	14162.81
523.11	14352.86
523.477	14419.3
523.843	14569.8
524.21	14740.42
524.577	14913.07
524.943	14996.23
525.31	15009.34
525.676	15280.06
526.043	15348.09
526.409	15519.61
526.776	15620.39
527.142	15693.61
527.508	15777.68
527.874	15955.3
528.241	16116.2
528.607	16163.88
528.973	16371.34
529.339	16373.14
529.705	16621.72
530.071	16819.46
530.437	16852
530.803	17022.62
531.169	17085.67
531.535	17228.71
531.901	17273.01
532.267	17327.69
532.632	17477.29
532.998	17487.24
533.364	17727.01
533.73	17779.43
534.095	17922.03
534.461	17975.13
534.826	18175.81
535.192	18249.25
535.557	18362.02
535.923	18404.05
536.288	18440.21
536.653	18604.04
537.019	18680.88
537.384	18744.61
537.749	18799.97
538.114	18919.52
538.479	18884.72
538.845	19126.74
539.21	19137.59
539.575	19197.93
539.94	19250.58
540.305	19417.13
540.67	19378.49
541.034	19617.58
541.399	19562.66
541.764	19630.01
542.129	19695.32
542.494	19867.51
542.858	19897.34
543.223	19802.88
543.587	19945.7
543.952	19958.81
544.316	20063.44
544.681	20139.82
545.045	20316.09
545.41	20401.06
545.774	20324.23
546.138	20429.76
546.503	20528.74
546.867	20620.49
547.231	20783.42
547.595	20775.51
547.959	20892.12
548.324	20913.14
548.688	21012.12
549.052	21147.93
549.416	21180.47
549.779	21275.16
550.143	21209.85
550.507	21361.49
550.871	21590.18
551.235	21527.58
551.599	21709.27
551.962	21812.32
552.326	21770.52
552.689	21889.38
553.053	21813.45
553.417	21949.72
553.78	22212.76
554.143	22254.57
554.507	22407.79
554.87	22454.79
555.234	22622.92
555.597	22679.19
555.96	22788.12
556.323	23000.09
556.686	22974.1
557.05	23209.35
557.413	23209.57
557.776	23320.08
558.139	23501.32
558.502	23540.86
558.865	23607.53
559.228	23999.84
559.59	23864.47
559.953	24090.45
560.316	24373.38
560.679	24347.17
561.041	24487.28
561.404	24751.23
561.767	24911.68
562.129	24962.52
562.492	25252.01
562.854	25264.66
563.217	25292.46
563.579	25452.68
563.941	25797.53
564.304	25910.07
564.666	26271.64
565.028	26242.49
565.39	26422.6
565.753	26709.59
566.115	26848.57
566.477	27036.14
566.839	27041.11
567.201	27439.74
567.563	27436.58
567.925	27775.33
568.287	27815.55
568.648	28106.85
569.01	28402.88
569.372	28666.83
569.734	28754.51
570.095	29028.63
570.457	29286.02
570.819	29399.92
571.18	29565.79
571.542	29818.44
571.903	29914.71
572.265	30119.22
572.626	30515.82
572.987	30585.65
573.349	30924.85
573.71	30894.57
574.071	31388.12
574.432	31444.84
574.794	31843.47
575.155	31865.39
575.516	31951.26
575.877	32112.39
576.238	32258.83
576.599	32449.78
576.96	32538.59
577.32	32693.17
577.681	32794.18
578.042	33221.51
578.403	33238.46
578.763	33316.2
579.124	33491.34
579.485	33630.32
579.845	33914.15
580.206	33954.15
580.566	34087.71
580.927	34040.48
581.287	34427.81
581.648	34312.33
582.008	34608.14
582.368	34665.54
582.728	34905.54
583.089	34913.45
583.449	35046.55
583.809	35149.82
584.169	35481.79
584.529	35416.48
584.889	35850.82
585.249	35707.1
585.609	35839.52
585.969	36201.1
586.329	36175.56
586.688	36498.94
587.048	36674.3
587.408	36863.68
587.768	37186.83
588.127	37442.65
588.487	37509.54
588.846	37977.55
589.206	37927.6
589.565	38193.36
589.925	38819.33
590.284	38952.21
590.643	39375.02
591.003	39742.47
591.362	40279.18
591.721	40523.02
592.08	40781.54
592.44	41337.01
592.799	41529.77
593.158	42004.11
593.517	42218.11
593.876	42821.94
594.235	43161.59
594.593	43577.17
594.952	44043.6
595.311	44397.26
595.67	44868.89
596.029	45519.72
596.387	45930.11
596.746	46450.54
597.104	46572.35
597.463	47109.74
597.822	47644.64
598.18	47862.71
598.538	48373.21
598.897	48922.34
599.255	49017.93
599.613	49967.97
599.972	50026.72
600.33	50502.87
600.688	50735.18
601.046	51318.89
601.404	51777.86
601.762	52000.45
602.12	52481.8
602.478	52685.63
602.836	53075.23
603.194	53210.37
603.552	53662.78
603.91	53843.12
604.268	54336.44
604.625	54561.97
604.983	54857.33
605.341	55020.49
605.698	55475.17
606.056	55860.24
606.413	55883.52
606.771	56343.84
607.128	56477.63
607.485	56696.6
607.843	56906.77
608.2	57224.05
608.557	57544.04
608.914	57678.5
609.272	57948.32
609.629	58213.85
609.986	58506.95
610.343	58518.93
610.7	58896.09
611.057	58972.02
611.414	59097.22
611.771	59471.9
612.127	59643.42
612.484	59857.65
612.841	60069.85
613.198	60035.72
613.554	60185.32
613.911	60503.73
614.267	60671.64
614.624	60794.35
614.98	60930.39
615.337	61214.22
615.693	61328.35
616.05	61397.95
616.406	61651.73
616.762	61676.81
617.118	61801.1
617.475	61961.32
617.831	62126.74
618.187	62240.41
618.543	62334.42
618.899	62531.7
619.255	62575.77
619.611	62633.4
619.967	62868.64
620.323	62987.06
620.678	62917.68
621.034	62954.29
621.39	63099.37
621.746	63248.52
622.101	63487.38
622.457	63373.49
622.812	63511.79
623.168	63522.86
623.523	63522.86
623.879	63522.86
624.234	63522.86
624.589	63522.86
624.945	63522.86
625.3	63522.86
625.655	63522.86
626.01	63522.86
626.365	63522.86
626.72	63522.86
627.075	63522.86
627.43	63522.86
627.785	63522.86
628.14	63522.86
628.495	63522.86
628.85	63522.86
629.205	63522.86
629.559	63522.86
629.914	63522.86
630.269	63522.86
630.623	63522.86
630.978	63522.86
631.332	63522.86
631.687	63522.86
632.041	63522.86
632.396	63522.86
632.75	63522.86
633.104	63522.86
633.459	63522.86
633.813	63522.86
634.167	63522.86
634.521	63522.86
634.875	63522.86
635.229	63522.86
635.583	63522.86
635.937	63522.86
636.291	63522.86
636.645	63522.86
636.999	63522.86
637.352	63522.86
637.706	63522.86
638.06	63522.86
638.413	63522.86
638.767	63522.86
639.121	63522.86
639.474	63522.86
639.828	63522.86
640.181	63522.86
640.534	63522.86
640.888	63522.86
641.241	63522.86
641.594	63522.86
641.947	63522.86
642.301	63522.86
642.654	63522.86
643.007	63522.86
643.36	63522.86
643.713	63522.86
644.066	63522.86
644.419	63522.86
644.771	63522.86
645.124	63522.86
645.477	63522.86
645.83	63514.95
646.182	63498.01
646.535	63488.29
646.888	63519.02
647.24	63422.75
647.593	63518.8
647.945	63498.68
648.298	63388.86
648.65	63309.31
649.002	63237
649.355	63165.13
649.707	63154.96
650.059	63165.81
650.411	63474.5
650.763	63502.98
651.115	63522.86
651.467	63522.86
651.819	63522.86
652.171	63522.19
652.523	63522.86
652.875	63522.86
653.227	63511.34
653.578	63522.86
653.93	63522.86
654.282	63494.16
654.633	63483.99
654.985	63507.27
655.337	63522.86
655.688	63510.21
656.039	63517.21
656.391	63400.16
656.742	63471.79
657.094	63431.34
657.445	63477.89
657.796	63469.76
658.147	63440.61
658.498	63463.66
658.849	63479.93
659.2	63387.5
659.551	63364.22
659.902	63488.74
660.253	63385.24
660.604	63455.97
660.955	63337.78
661.306	63447.16
661.656	63412.36
662.007	63397.22
662.358	63391.57
662.708	63431.79
663.059	63405.35
663.409	63283.1
663.76	63409.19
664.11	63394.51
664.461	63437.44
664.811	63415.52
665.161	63428.85
665.511	63368.29
665.862	63430.89
666.212	63450.32
666.562	63471.11
666.912	63386.14
667.262	63315.41
667.612	63421.4
667.962	63403.77
668.312	63305.47
668.662	63471.79
669.011	63423.88
669.361	63320.16
669.711	63451
670.06	63336.43
670.41	63305.24
670.76	63293.04
671.109	63354.05
671.459	63293.04
671.808	63321.74
672.157	63349.08
672.507	63221.18
672.856	63265.7
673.205	63250.33
673.554	63300.04
673.904	63215.08
674.253	63453.49
674.602	63265.02
674.951	62948.64
675.3	62815.54
675.649	63224.34
675.998	63192.02
676.346	63258.24
676.695	63304.56
677.044	63147.05
677.393	63170.78
677.741	63177.34
678.09	63107.96
678.438	63067.51
678.787	63151.8
679.135	63066.83
679.484	62972.82
679.832	63068.19
680.181	62937.57
680.529	62984.8
680.877	62917
681.225	62896.21
681.573	63098.92
681.922	62838.36
682.27	62808.98
682.618	62841.98
682.966	62784.13
683.314	62798.81
683.661	62686.5
684.009	62606.5
684.357	62577.58
684.705	62522.89
685.053	62525.6
685.4	62442.89
685.748	62407.19
686.095	62414.42
686.443	62276.12
686.79	62263.24
687.138	62282.9
687.485	62221.2
687.832	62119.06
688.18	62149.57
688.527	62054.65
688.874	62039.74
689.221	62070.92
689.568	61907.09
689.915	61849.24
690.262	61849.46
690.609	61802.23
690.956	61717.04
691.303	61699.18
691.65	61530.15
691.997	61535.35
692.344	61437.49
692.69	61404.05
693.037	61399.53
693.383	61225.07
693.73	61308.23
694.077	61192.08
694.423	61164.28
694.769	61057.84
695.116	61015.58
695.462	60914.57
695.808	60833.22
696.155	60858.75
696.501	60678.42
696.847	60760.45
697.193	60569.04
697.539	60650.85
697.885	60388.48
698.231	60395.26
698.577	60396.84
698.923	60330.41
699.269	60160.24
699.614	60117.76
699.96	59980.81
700.306	60009.28
700.651	59916.4
700.997	59852
701.342	59795.05
701.688	59770.19
702.033	59637.99
702.379	59621.95
702.724	59520.93
703.069	59546.25
703.415	59307.38
703.76	59261.73
704.105	59269.19
704.45	59257.67
704.795	59151
705.14	59058.8
705.485	59000.04
705.83	58863.78
706.175	59027.16
706.52	58902.19
706.865	58790.33
707.209	58676.66
707.554	58604.8
707.899	58606.38
708.243	58550.11
708.588	58512.83
708.932	58387.63
709.277	58386.5
709.621	58201.2
709.966	58167.98
710.31	58231.48
710.654	58022.9
710.998	58089.79
711.342	58018.6
711.687	57997.13
712.031	57846.18
712.375	57741.77
712.719	57778.61
713.063	57729.57
713.407	57780.87
713.75	57637.82
714.094	57679.18
714.438	57456.81
714.782	57444.61
715.125	57437.6
715.469	57526.19
715.812	57276.7
716.156	57282.8
716.499	57250.94
716.843	57235.57
717.186	57094.33
717.53	57183.14
717.873	57179.53
718.216	57072.64
718.559	57009.14
718.902	56742.93
719.246	56847.78
719.589	56768.24
719.932	56734.57
720.275	56655.02
720.617	56750.16
720.96	56621.58
721.303	56608.92
721.646	56675.81
721.989	56440.11
722.331	56531.64
722.674	56412.32
723.016	56408.7
723.359	56249.16
723.701	56353.56
724.044	56221.36
724.386	56104.75
724.729	56247.12
725.071	56092.1
725.413	56012.55
725.755	56094.36
726.097	56026.11
726.439	55881.03
726.782	55899.79
727.124	55945.21
727.465	55860.92
727.807	55778.66
728.149	55792.9
728.491	55678.1
728.833	55831.31
729.175	55714.03
729.516	55595.61
729.858	55582.28
730.199	55691.66
730.541	55596.97
730.882	55483.75
731.224	55526.69
731.565	55450.08
731.906	55439.69
732.248	55411.66
732.589	55243.31
732.93	55227.49
733.271	55216.64
733.612	55173.7
733.953	55254.61
734.294	55115.18
734.635	55025.01
734.976	55149.52
735.317	55072.92
735.658	55043.99
735.999	54953.82
736.339	54876.54
736.68	54971.9
737.021	54901.85
737.361	54763.77
737.702	54894.16
738.042	54829.31
738.383	54839.25
738.723	54830.66
739.063	54675.19
739.404	54751.79
739.744	54668.18
740.084	54638.8
740.424	54634.74
740.764	54534.4
741.104	54622.31
741.444	54493.5
741.784	54447.62
742.124	54491.24
742.464	54513.16
742.804	54351.35
743.143	54362.43
743.483	54399.49
743.823	54239.72
744.162	54245.59
744.502	54218.7
744.841	54109.1
745.181	54266.61
745.52	54115.88
745.86	54192.04
746.199	54102.32
746.538	54033.4
746.877	54140.74
747.216	54046.28
747.556	53959.5
747.895	54011.25
748.234	53928.54
748.573	53950.91
748.911	53807.64
749.25	53664.14
749.589	53669.56
749.928	53691.03
750.267	53691.71
750.605	53625.72
750.944	53664.37
751.283	53555.22
751.621	53602.45
751.96	53432.73
752.298	53366.75
752.636	53353.87
752.975	53308.22
753.313	53227.77
753.651	53415.33
753.989	53103.02
754.327	53159.52
754.666	52943.71
755.004	52956.59
755.342	52952.52
755.679	52948.45
756.017	52741.23
756.355	52880.21
756.693	52716.37
757.031	52755.92
757.368	52533.32
757.706	52521.57
758.044	52404.96
758.381	52473.21
758.719	52300.56
759.056	52340.11
759.394	52126.78
759.731	51896.05
760.068	51988.7
760.405	51898.99
760.743	51734.93
761.08	51772.66
761.417	51580.58
761.754	51561.6
762.091	51585.78
762.428	51412.9
762.765	51222.62
763.102	51211.1
763.438	51181.27
763.775	50838
764.112	50812.46
764.449	50885.23
764.785	50687.27
765.122	50502.64
765.458	50391.23
765.795	50357.11
766.131	50331.35
766.467	50188.3
766.804	50068.98
767.14	49801.64
767.476	49709.22
767.812	49652.49
768.148	49719.16
768.485	49500.18
768.821	49300.19
769.157	49093.19
769.492	49039.4
769.828	48956.92
770.164	48749.47
770.5	48553.77
770.836	48564.39
771.171	48429.93
771.507	48194.45
771.842	48019.54
772.178	47956.95
772.513	47972.76
772.849	47800.79
773.184	47655.03
773.519	47453.68
773.855	47366.9
774.19	47254.59
774.525	47066.8
774.86	47095.27
775.195	46853.25
775.53	46674.27
775.865	46574.38
776.2	46216.88
776.535	45918.81
776.87	45970.56
777.205	45675.88
777.539	45723.33
777.874	45720.17
778.209	45307.98
778.543	45439.72
778.878	45108.88
779.212	45100.98
779.547	44682.46
779.881	44817.14
780.215	44457.6
780.55	44470.71
780.884	44020.78
781.218	43995.69
781.552	44064.84
781.886	43898.52
782.22	43678.41
782.554	43456.05
782.888	43218.54
783.222	43089.73
783.556	42831.43
783.889	42772.45
784.223	42549.86
784.557	42526.35
784.89	42702.39
785.224	42245.68
785.557	42106.03
785.891	42047.95
786.224	41880.27
786.558	41913.94
786.891	41587.85
787.224	41365.48
787.557	41281.87
787.891	41216.78
788.224	40972.04
788.557	41048.43
788.89	40926.4
789.223	40804.59
789.556	40464.03
789.888	40398.5
790.221	40219.75
790.554	40003.26
790.887	39959.19
791.219	39729.14
791.552	39822.92
791.884	39651.85
792.217	39499.09
792.549	39360.79
792.882	39033.56
793.214	38905.66
793.546	39102.04
793.879	38656.17
794.211	38505.22
794.543	38613.24
794.875	38507.25
795.207	38361.49
795.539	38282.62
795.871	38245.11
796.203	37982.07
796.535	37712.69
796.867	37856.19
797.198	37494.17
797.53	37642.87
797.862	37133.28
798.193	37431.8
798.525	37076.33
798.856	37105.03
799.188	36757.92
799.519	36674.3
799.85	36449
800.182	36414.42
800.513	36702.78
800.844	36107.77
801.175	36295.56
801.506	36215.56
801.837	36026.41
802.168	35948.67
802.499	35871.61
802.83	35606.54
803.161	35519.98
803.491	35493.54
803.822	35529.02
804.153	35299.65
804.483	35029.83
804.814	34896.5
805.145	34887.01
805.475	34811.75
805.805	34744.19
806.136	34647.01
806.466	34515.72
806.796	34514.13
807.126	34348.72
807.457	34188.95
807.787	34198.89
808.117	34058.33
808.447	33883.87
808.777	33932.23
809.107	33753.25
809.436	33634.16
809.766	33641.62
810.096	33565.69
810.426	33333.6
810.755	33442.52
811.085	33279.37
811.414	33297.9
811.744	33012.48
812.073	33145.13
812.403	32895.87
812.732	32762.32
813.061	32863.78
813.39	32598.48
813.719	32638.25
814.049	32701.53
814.378	32635.99
814.707	32427.18
815.036	32482.55
815.365	32295.89
815.693	31972.51
816.022	32154.2
816.351	31972.96
816.68	31792.4
817.008	31840.08
817.337	31665.62
817.665	31552.63
817.994	31537.49
818.322	31591.73
818.651	31415.69
818.979	31359.42
819.307	31497.94
819.636	31365.74
819.964	31301.56
820.292	31388.34
820.62	31082.13
820.948	31298.85
821.276	31335.24
821.604	31210.04
821.932	31316.25
822.259	31116.71
822.587	31104.51
822.915	31125.52
823.243	31195.35
823.57	30970.27
823.898	31256.82
824.225	31054.56
824.553	31031.06
824.88	31066.54
825.207	31080.55
825.535	30904.29
825.862	31085.75
826.189	31033.32
826.516	31251.85
826.843	31256.37
827.17	31248.01
827.497	31228.8
827.824	31242.81
828.151	31240.77
828.478	31130.27
828.805	31262.92
829.131	31181.34
829.458	31220.66
829.785	30845.53
830.111	31020.22
830.438	31230.38
830.764	31031.97
831.09	31118.52
831.417	31000.55
831.743	31204.39
832.069	30998.97
832.395	31046.66
832.722	31058.41
833.048	31023.15
833.374	31017.28
833.7	31004.85
834.026	30927.79
834.351	30896.38
834.677	31036.49
835.003	30909.94
835.329	30833.55
835.654	30817.73
835.98	30502.94
836.306	30773.67
836.631	30704.29
836.956	30837.85
837.282	30805.76
837.607	30652.54
837.932	30605.99
838.258	30466.78
838.583	30498.42
838.908	30396.73
839.233	30509.27
839.558	30406.9
839.883	30225.21
840.208	30116.51
840.533	30260.46
840.858	30111.99
841.182	30108.15
841.507	30148.6
841.832	29899.34
842.156	30008.04
842.481	29947.7
842.805	29731.66
843.13	29630.65
843.454	29746.8
843.778	29497.54
844.103	29550.42
844.427	29526.02
844.751	29402.4
845.075	29236.76
845.399	29249.41
845.723	29222.3
846.047	29191.11
846.371	28989.53
846.695	28840.16
847.019	28794.06
847.343	28563.33
847.666	28610.79
847.99	28261.64
848.313	28355.2
848.637	28275.2
848.96	28180.74
849.284	28194.75
849.607	27909.56
849.931	27807.19
850.254	27778.27
850.577	27517.71
850.9	27358.39
851.223	27425.51
851.546	27218.51
851.869	27034.56
852.192	27212.86
852.515	26905.52
852.838	26771.06
853.161	26788.01
853.483	26555.25
853.806	26515.7
854.129	26483.16
854.451	26462.6
854.774	26292.43
855.096	26209.95
855.419	26106.22
855.741	25937.64
856.063	25846.11
856.385	25753.91
856.708	25845.66
857.03	25643.86
857.352	25650.19
857.674	25668.49
857.996	25421.27
858.318	25195.96
858.64	25312.79
858.961	25204.55
859.283	25102.4
859.605	25032.35
859.926	25113.03
860.248	25013.14
860.57	24810.66
860.891	24798.91
861.212	24727.73
861.534	24708.07
861.855	24598.24
862.176	24606.15
862.498	24662.64
862.819	24592.36
863.14	24430.56
863.461	24494.06
863.782	24318.7
864.103	24287.06
864.424	24128.42
864.745	24257.91
865.065	24052.94
865.386	24106.05
865.707	24045.03
866.027	24094.07
866.348	24117.8
866.668	24006.84
866.989	23953.06
867.309	23766.85
867.63	23766.85
867.95	23853.4
868.27	23630.35
868.59	23745.83
868.91	23648.66
869.23	23595.78
869.55	23409.79
869.87	23625.61
870.19	23302.23
870.51	23403.69
870.83	23342
871.15	23260.19
871.469	23214.77
871.789	23346.52
872.109	23263.13
872.428	23279.18
872.748	23228.33
873.067	23181.78
873.386	23227.43
873.706	23114.21
874.025	23037.6
874.344	22849.36
874.663	22954.44
874.982	22918.96
875.301	22780.43
875.62	22806.42
875.939	22658.85
876.258	22722.35
876.577	22645.52
876.896	22624.05
877.214	22605.3
877.533	22628.35
877.852	22535.24
878.17	22581.12
878.489	22555.81
878.807	22400.78
879.125	22415.02
879.444	22371.63
879.762	22405.07
880.08	22428.35
880.398	22130.28
880.716	22215.25
881.034	22163.5
881.352	22220.22
881.67	22060.68
881.988	22076.5
882.306	22056.16
882.624	22046.21
882.941	21884.41
883.259	21874.47
883.577	21806.45
883.894	21718.31
884.212	21664.98
884.529	21504.99
884.846	21617.75
885.164	21392.67
885.481	21409.39
885.798	21441.03
886.115	21359.68
886.432	21398.1
886.75	21244.43
887.067	21329.85
887.383	21190.87
887.7	21169.63
888.017	21015.96
888.334	21030.42
888.651	20939.12
888.967	20893.7
889.284	20846.92
889.6	20733.48
889.917	20629.53
890.233	20785.46
890.55	20659.13
890.866	20564.67
891.182	20473.83
891.498	20515.63
891.815	20307.05
892.131	20338.69
892.447	20290.78
892.763	20258.92
893.079	20151.35
893.395	20060.96
893.71	20111.58
894.026	20060.05
894.342	20039.94
894.657	19855.09
894.973	19810.79
895.289	19796.56
895.604	19711.13
895.92	19658.03
896.235	19496
896.55	19560.63
896.865	19450.12
897.181	19511.37
897.496	19389.56
897.811	19249
898.126	19196.57
898.441	19130.58
898.756	19105.95
899.071	18943.7
899.386	19060.98
899.7	18804.27
900.015	18764.49
900.33	18539.41
900.644	18555.46
900.959	18547.32
901.273	18427.78
901.588	18443.15
901.902	18384.39
902.216	18303.49
902.531	18277.27
902.845	18229.59
903.159	18070.05
903.473	18028.01
903.787	17954.8
904.101	17885.65
904.415	17785.99
904.729	17781.69
905.042	17569.04
905.356	17605.88
905.67	17546.45
905.984	17454.7
906.297	17441.36
906.611	17344.87
906.924	17226.45
907.237	17207.7
907.551	17284.31
907.864	17069.17
908.177	17025.1
908.491	16985.56
908.804	16924.09
909.117	16816.3
909.43	16648.62
909.743	16590.54
910.056	16670.99
910.368	16517.77
910.681	16466.47
910.994	16335.86
911.307	16327.95
911.619	16176.76
911.932	16242.07
912.244	16034.62
912.557	16080.72
912.869	15907.39
913.181	15896.55
913.494	15911.46
913.806	15831.01
914.118	15685.93
914.43	15632.6
914.742	15665.14
915.054	15539.49
915.366	15427.41
915.678	15414.75
915.99	15396.67
916.302	15327.75
916.613	15162.55
916.925	15154.64
917.236	15193.96
917.548	15038.49
917.859	15012.73
918.171	14915.78
918.482	14884.14
918.794	14789.91
919.105	14726.41
919.416	14622.23
919.727	14592.4
920.038	14557.6
920.349	14412.52
920.66	14318.73
920.971	14324.16
921.282	14353.99
921.593	14090.04
921.903	14145.18
922.214	14059.31
922.525	14092.3
922.835	13978.4
923.146	13915.81
923.456	13908.35
923.767	13739.54
924.077	13728.92
924.387	13715.13
924.697	13545.42
925.008	13591.3
925.318	13542.93
925.628	13406.67
925.938	13432.88
926.248	13321.92
926.558	13191.98
926.867	13183.17
927.177	13201.93
927.487	13093.23
927.796	13043.06
928.106	13010.07
928.416	13007.13
928.725	12876.51
929.034	12896.4
929.344	12852.56
929.653	12696.63
929.962	12592.45
930.271	12612.11
930.581	12522.4
930.89	12492.57
931.199	12468.61
931.508	12468.16
931.817	12356.07
932.125	12362.63
932.434	12320.59
932.743	12087.61
933.051	12036.31
933.36	12056.19
933.669	11916.31
933.977	11899.59
934.286	11836.31
934.594	11845.13
934.902	11764
935.21	11684.9
935.519	11601.74
935.827	11557
936.135	11516.1
936.443	11487.62
936.751	11463.89
937.059	11437.91
937.367	11333.28
937.674	11327.63
937.982	11326.5
938.29	11194.75
938.597	11126.95
938.905	10945.04
939.213	11071.14
939.52	11002.21
939.827	11011.7
940.135	11000.4
940.442	10858.03
940.749	10843.8
941.056	10840.63
941.363	10678.83
941.67	10660.52
941.977	10576.91
942.284	10599.28
942.591	10550.7
942.898	10563.58
943.205	10455.56
943.511	10394.32
943.818	10456.69
944.125	10287.88
944.431	10272.06
944.738	10231.84
945.044	10204.27
945.35	10067.55
945.657	10040.43
945.963	10043.37
946.269	9998.4
946.575	9912.3
946.881	9895.57
947.187	9814.9
947.493	9789.81
947.799	9800.21
948.105	9689.48
948.41	9676.82
948.716	9708.46
949.022	9569.03
949.327	9556.82
949.633	9429.6
949.938	9497.62
950.244	9442.93
950.549	9376.26
950.854	9282.48
951.16	9325.64
951.465	9251.07
951.77	9221.92
952.075	9137.18
952.38	9077.52
952.685	9135.59
952.99	9053.34
953.294	9074.8
953.599	8957.07
953.904	8870.74
954.209	8827.35
954.513	8827.8
954.818	8833.91
955.122	8755.49
955.426	8732.44
955.731	8669.84
956.035	8650.41
956.339	8623.06
956.643	8642.95
956.948	8543.52
957.252	8491.99
957.556	8534.93
957.86	8425.33
958.163	8405.67
958.467	8397.08
958.771	8368.61
959.075	8292.23
959.378	8256.07
959.682	8197.09
959.985	8220.81
960.289	8099.69
960.592	8069.86
960.896	8080.93
961.199	8023.31
961.502	7944.44
961.805	7906.7
962.108	7896.76
962.411	7858.79
962.714	7812.01
963.017	7793.26
963.32	7769.98
963.623	7678.23
963.926	7714.61
964.228	7651.79
964.531	7584.22
964.833	7576.76
965.136	7542.87
965.438	7554.84
965.741	7457.45
966.043	7453.38
966.345	7375.87
966.648	7407.28
966.95	7367.96
967.252	7274.17
967.554	7299.48
967.856	7311.46
968.158	7130.9
968.46	7241.63
968.761	7145.59
969.063	7160.73
969.365	7058.13
969.666	7003.67
969.968	6991.69
970.269	6977.46
970.571	6914.18
970.872	6944.24
971.174	6857.23
971.475	6895.2
971.776	6823.79
972.077	6735.66
972.378	6755.54
972.679	6722.1
972.98	6697.24
973.281	6673.74
973.582	6642.1
973.883	6609.56
974.183	6603.46
974.484	6544.02
974.785	6463.12
975.085	6469
975.386	6497.02
975.686	6383.12
975.986	6361.43
976.287	6367.3
976.587	6310.81
976.887	6303.8
977.187	6260.19
977.487	6290.47
977.787	6212.73
978.087	6126.86
978.387	6199.85
978.687	6124.6
978.987	6118.72
979.286	6045.05
979.586	6003.02
979.885	6004.38
980.185	6003.47
980.484	5946.52
980.784	5935.9
981.083	5911.72
981.382	5882.35
981.682	5877.15
981.981	5854.32
982.28	5806.87
982.579	5758.51
982.878	5749.47
983.177	5672.63
983.475	5697.27
983.774	5646.87
984.073	5635.57
984.372	5559.87
984.67	5600.77
984.969	5497.95
985.267	5509.47
985.566	5464.73
985.864	5445.52
986.162	5455.69
986.461	5368.91
986.759	5385.18
987.057	5340.89
987.355	5310.38
987.653	5315.13
987.951	5274.45
988.249	5241.91
988.547	5245.53
988.844	5189.93
989.142	5144.51
989.44	5180.89
989.737	5097.28
990.035	5096.6
990.332	5120.78
990.63	5038.07
990.927	5052.99
991.224	5027.68
991.521	5027
991.819	4941.13
992.116	4951.75
992.413	4901.58
992.71	4871.75
993.006	4869.04
993.303	4832.66
993.6	4808.48
993.897	4777.52
994.193	4753.34
994.49	4774.58
994.787	4717.86
995.083	4684.64
995.379	4704.07
995.676	4641.93
995.972	4573.91
996.268	4598.31
996.565	4568.48
996.861	4571.19
997.157	4488.48
997.453	4504.98
997.749	4440.12
998.044	4383.85
998.34	4463.85
998.636	4389.96
998.932	4349.05
999.227	4364.87
999.523	4334.36
999.818	4327.81
1000.114	4298.66
1000.409	4239.22
1000.704	4190.86
1001	4210.07
1001.295	4173.01
1001.59	4130.53
1001.885	4158.1
1002.18	4119.23
1002.475	4021.15
1002.77	4112
1003.065	4020.02
1003.359	3965.11
1003.654	4017.99
1003.949	3966.24
1004.243	3924.88
1004.538	3904.77
1004.832	3895.05
1005.127	3866.58
1005.421	3831.33
1005.715	3825.45
1006.009	3862.96
1006.304	3788.84
1006.598	3735.74
1006.892	3770.08
1007.186	3709.3
1007.48	3687.15
1007.773	3685.11
1008.067	3728.96
1008.361	3646.92
1008.655	3586.36
1008.948	3584.1
1009.242	3548.85
1009.535	3526.93
1009.829	3509.07
1010.122	3494.16
1010.415	3455.74
1010.708	3398.34
1011.001	3410.77
1011.295	3389.98
1011.588	3367.16
1011.881	3327.61
1012.173	3317.44
1012.466	3326.03
1012.759	3312.02
1013.052	3261.17
1013.344	3298.68
1013.637	3220.72
1013.93	3254.39
1014.222	3209.42
1014.514	3145.92
1014.807	3138.91
1015.099	3130.55
1015.391	3106.15
1015.683	3110.44
1015.976	3050.56
1016.268	3047.17
1016.56	3010.1
1016.851	2982.31
1017.143	2978.01
1017.435	2968.3
1017.727	2946.6
1018.018	2942.76
1018.31	2883.1
1018.602	2886.94
1018.893	2887.62
1019.185	2827.28
1019.476	2829.09
1019.767	2815.08
1020.058	2770.11
1020.35	2761.98
1020.641	2695.76
1020.932	2717.46
1021.223	2717
1021.514	2679.49
1021.804	2658.93
1022.095	2628.19
1022.386	2658.48
1022.677	2603.56
1022.967	2591.13
1023.258	2551.81
1023.548	2551.81
1023.839	2530.8
1024.129	2495.77
1024.419	2505.26
1024.709	2498.71
1025	2470.01
1025.29	2446.5
1025.58	2431.36
1025.87	2398.6
1026.16	2397.92
1026.449	2367.18
1026.739	2371.7
1027.029	2326.73
1027.319	2321.99
1027.608	2288.99
1027.898	2284.25
1028.187	2254.19
1028.477	2241.99
1028.766	2243.34
1029.055	2209
1029.344	2184.36
1029.634	2177.13
1029.923	2181.88
1030.212	2140.75
1030.501	2111.15
1030.79	2081.32
1031.078	2127.87
1031.367	2054.65
1031.656	2054.65
1031.945	2042.9
1032.233	2045.16
1032.522	2009.23
1032.81	2007.64
1033.099	2015.1
1033.387	1980.75
1033.675	1953.86
1033.963	1946.63
1034.251	1949.34
1034.54	1935.33
1034.828	1932.62
1035.116	1911.15
1035.403	1900.98
1035.691	1862.34
1035.979	1873.19
1036.267	1851.26
1036.554	1844.26
1036.842	1820.08
1037.129	1792.74
1037.417	1795.45
1037.704	1786.63
1037.992	1755
1038.279	1786.63
1038.566	1731.49
1038.853	1731.49
1039.14	1731.49
