Data from 199_FLMS001491_001.txt Node
Date: Thu Apr 19 16:32:50 BST 2018
User: hsy
Spectrometer: FLMS00149
Trigger mode: 0
Integration Time (sec): 1.000000E-2
Scans to average: 10
Electric dark correction enabled: true
Nonlinearity correction enabled: false
Boxcar width: 0
XAxis mode: Wavelengths
Number of Pixels in Spectrum: 2048
>>>>>Begin Spectral Data<<<<<
341.393	-15.99
341.776	-15.99
342.16	-15.99
342.543	-63.22
342.927	-84.46
343.31	-75.65
343.693	-58.25
344.077	-65.25
344.46	-54.18
344.843	-66.38
345.226	-58.47
345.61	-15.31
345.993	-35.65
346.376	-16.44
346.759	25.37
347.142	22.88
347.525	46.61
347.908	59.72
348.291	70.79
348.674	86.16
349.057	134.06
349.44	123.67
349.823	150.34
350.206	164.57
350.588	249.54
350.971	253.61
351.354	280.73
351.737	277.79
352.119	296.77
352.502	311.01
352.884	324.57
353.267	323.44
353.65	340.16
354.032	348.75
354.414	356.88
354.797	368.63
355.179	353.72
355.562	388.29
355.944	388.75
356.326	396.2
356.709	380.39
357.091	394.17
357.473	378.8
357.855	407.96
358.238	395.3
358.62	393.27
359.002	408.63
359.384	409.09
359.766	398.01
360.148	377.45
360.53	386.94
360.912	407.5
361.294	405.47
361.676	378.13
362.057	393.27
362.439	395.53
362.821	396.66
363.203	366.37
363.584	366.37
363.966	385.58
364.348	389.65
364.729	389.88
365.111	391.46
365.493	383.55
365.874	414.51
366.256	384.91
366.637	390.1
367.019	392.59
367.4	381.06
367.781	373.38
368.163	390.1
368.544	398.46
368.925	399.37
369.306	401.63
369.688	374.51
370.069	368.41
370.45	376.09
370.831	401.63
371.212	396.2
371.593	386.49
371.974	380.61
372.355	391.91
372.736	400.95
373.117	384
373.498	403.89
373.879	387.84
374.26	369.76
374.641	394.17
375.021	429.42
375.402	407.73
375.783	407.28
376.163	433.27
376.544	403.66
376.925	426.71
377.305	431.23
377.686	423.55
378.066	415.64
378.447	428.52
378.827	425.36
379.208	429.2
379.588	424.9
379.968	441.85
380.349	438.46
380.729	459.71
381.109	430.55
381.489	455.19
381.87	444.79
382.25	448.63
382.63	437.56
383.01	453.38
383.39	457.67
383.77	459.03
384.15	470.33
384.53	469.2
384.91	473.49
385.29	465.35
385.67	465.13
386.049	469.87
386.429	488.63
386.809	480.72
387.189	491.12
387.568	487.5
387.948	508.29
388.328	498.57
388.707	501.29
389.087	493.83
389.466	518.23
389.846	513.26
390.225	531.79
390.605	497.44
390.984	525.01
391.363	526.82
391.743	523.21
392.122	522.98
392.501	536.99
392.881	554.17
393.26	553.49
393.639	531.79
394.018	544.45
394.397	545.35
394.776	546.48
395.155	534.73
395.534	558.01
395.913	550.1
396.292	544
396.671	572.7
397.05	560.95
397.429	580.61
397.808	561.4
398.186	586.26
398.565	584.22
398.944	582.41
399.323	574.73
399.701	594.62
400.08	605.92
400.458	593.94
400.837	612.02
401.215	596.65
401.594	614.73
401.972	617.44
402.351	620.15
402.729	626.25
403.107	626.03
403.486	631
403.864	631.23
404.242	665.58
404.62	631.45
404.999	649.53
405.377	661.06
405.755	671
406.133	678.68
406.511	642.53
406.889	676.87
407.267	684.33
407.645	689.76
408.023	718.46
408.401	728.4
408.779	720.94
409.156	696.08
409.534	740.83
409.912	746.03
410.29	760.04
410.667	761.39
411.045	776.08
411.422	779.02
411.8	774.5
412.178	785.35
412.555	795.06
412.933	780.37
413.31	837.55
413.687	807.04
414.065	820.37
414.442	810.43
414.819	846.36
415.197	872.12
415.574	854.72
415.951	865.12
416.328	863.08
416.705	876.42
417.082	892.46
417.46	862.41
417.837	882.29
418.214	889.07
418.591	893.14
418.967	900.37
419.344	912.57
419.721	902.86
420.098	920.94
420.475	947.38
420.852	953.7
421.228	942.18
421.605	938.79
421.982	986.7
422.358	968.62
422.735	992.8
423.111	998.67
423.488	1011.56
423.864	1006.36
424.241	1016.07
424.617	1036.64
424.994	1019.92
425.37	1039.58
425.746	1064.44
426.123	1060.59
426.499	1058.56
426.875	1090.88
427.251	1084.55
427.627	1124.77
428.003	1122.74
428.379	1133.59
428.756	1147.82
429.132	1161.61
429.507	1169.07
429.883	1168.16
430.259	1216.07
430.635	1225.79
431.011	1246.13
431.387	1220.82
431.763	1250.42
432.138	1277.99
432.514	1287.25
432.89	1285.9
433.265	1335.84
433.641	1354.82
434.016	1337.42
434.392	1329.06
434.767	1384.65
435.143	1382.62
435.518	1384.65
435.894	1379
436.269	1449.96
436.644	1449.51
437.02	1441.6
437.395	1454.71
437.77	1491.99
438.145	1480.47
438.52	1522.73
438.895	1517.3
439.271	1525.89
439.646	1552.11
440.021	1559.79
440.395	1546.68
440.77	1555.95
441.145	1557.98
441.52	1614.25
441.895	1617.64
442.27	1608.83
442.645	1611.09
443.019	1641.82
443.394	1603.4
443.769	1663.52
444.143	1668.71
444.518	1680.24
444.892	1682.27
445.267	1684.98
445.641	1716.17
446.016	1715.49
446.39	1700.12
446.764	1713.46
447.139	1749.39
447.513	1745.1
447.887	1745.32
448.262	1766.56
448.636	1755.26
449.01	1796.62
449.384	1819.9
449.758	1836.84
450.132	1837.3
450.506	1844.08
450.88	1882.27
451.254	1843.62
451.628	1926.56
452.002	1925.66
452.376	1903.28
452.75	1950.51
453.123	1948.03
453.497	1985.77
453.871	1971.53
454.244	2040.23
454.618	2056.95
454.992	2057.18
455.365	2096.5
455.739	2131.07
456.112	2155.03
456.486	2192.77
456.859	2197.96
457.232	2213.33
457.606	2275.93
457.979	2275.25
458.352	2276.83
458.725	2291.97
459.099	2362.48
459.472	2363.16
459.845	2410.39
460.218	2416.49
460.591	2439.09
460.964	2450.39
461.337	2507.56
461.71	2574.45
462.083	2586.2
462.456	2575.58
462.829	2578.52
463.201	2609.25
463.574	2666.65
463.947	2699.87
464.32	2710.49
464.692	2764.96
465.065	2762.24
465.438	2834.11
465.81	2845.41
466.183	2841.34
466.555	2918.85
466.928	2956.81
467.3	2945.74
467.672	2979.19
468.045	3056.47
468.417	3052.18
468.789	3053.31
469.161	3126.75
469.534	3128.11
469.906	3241.1
470.278	3210.37
470.65	3252.4
471.022	3277.48
471.394	3312.29
471.766	3376.24
472.138	3464.37
472.51	3495.78
472.882	3547.99
473.253	3545.5
473.625	3614.42
473.997	3717.7
474.369	3708.21
474.74	3730.58
475.112	3812.84
475.484	3850.58
475.855	3925.38
476.227	3962.89
476.598	4095.32
476.97	4134.86
477.341	4156.33
477.713	4257.35
478.084	4308.64
478.455	4363.11
478.827	4435.42
479.198	4545.93
479.569	4578.02
479.94	4653.27
480.311	4712.25
480.682	4792.47
481.053	4958.34
481.424	4996.54
481.795	5009.64
482.166	5163.31
482.537	5157.66
482.908	5318.11
483.279	5398.33
483.65	5438.78
484.021	5609.63
484.391	5645.33
484.762	5697.08
485.133	5754.03
485.503	5877.19
485.874	5974.59
486.244	6044.64
486.615	6193.34
486.985	6265.88
487.356	6350.85
487.726	6468.14
488.097	6538.87
488.467	6578.64
488.837	6734.79
489.207	6746.32
489.578	6947.9
489.948	7003.26
490.318	7134.33
490.688	7188.57
491.058	7288.9
491.428	7328.9
491.798	7407.55
492.168	7599.18
492.538	7607.54
492.908	7728.67
493.278	7836.23
493.648	7829.68
494.017	8025.38
494.387	8162.78
494.757	8139.5
495.126	8272.38
495.496	8271.48
495.866	8372.94
496.235	8512.6
496.605	8537.91
496.974	8577.68
497.344	8706.95
497.713	8774.29
498.082	8783.33
498.452	8898.35
498.821	9000.5
499.19	8964.57
499.559	9081.4
499.928	9136.99
500.298	9158.69
500.667	9268.97
501.036	9289.76
501.405	9452.01
501.774	9419.02
502.143	9532.01
502.512	9573.14
502.88	9640.93
503.249	9621.05
503.618	9740.37
503.987	9807.26
504.356	9869.63
504.724	9877.31
505.093	9928.61
505.462	9963.41
505.83	10128.38
506.199	10083.18
506.567	10239.79
506.936	10252.89
507.304	10383.29
507.672	10398.65
508.041	10467.8
508.409	10510.97
508.777	10635.03
509.145	10701.02
509.514	10763.84
509.882	10797.74
510.25	10860.11
510.618	10984.4
510.986	10922.48
511.354	11099.2
511.722	11185.07
512.09	11209.03
512.458	11268.69
512.826	11350.94
513.193	11441.56
513.561	11429.81
513.929	11592.07
514.297	11700.77
514.664	11764.27
515.032	11785.51
515.4	11990.93
515.767	12009.23
516.135	12031.38
516.502	12044.49
516.869	12312.28
517.237	12273.86
517.604	12229.34
517.972	12484.93
518.339	12599.73
518.706	12648.99
519.073	12622.78
519.44	12821.64
519.808	12932.82
520.175	13034.06
520.542	13163.33
520.909	13246.04
521.276	13279.26
521.643	13458.69
522.009	13484
522.376	13611.9
522.743	13750.88
523.11	13953.81
523.477	14074.49
523.843	14153.13
524.21	14328.49
524.577	14408.72
524.943	14536.17
525.31	14600.8
525.676	14854.58
526.043	14844.19
526.409	15048.02
526.776	15177.96
527.142	15269.03
527.508	15360.33
527.874	15568.23
528.241	15602.58
528.607	15663.6
528.973	15991.73
529.339	15993.31
529.705	16217.03
530.071	16336.8
530.437	16430.58
530.803	16529.34
531.169	16546.06
531.535	16699.28
531.901	16789.9
532.267	16816.11
532.632	17101.53
532.998	17224.46
533.364	17308.08
533.73	17344.69
534.095	17548.07
534.461	17601.4
534.826	17623.55
535.192	17777.44
535.557	17969.53
535.923	17938.12
536.288	18020.6
536.653	18272.34
537.019	18173.82
537.384	18317.77
537.749	18320.03
538.114	18515.73
538.479	18503.52
538.845	18720.24
539.21	18639.34
539.575	18647.25
539.94	18795.95
540.305	18931.54
540.67	18952.55
541.034	18997.98
541.399	19171.53
541.764	19278.87
542.129	19283.39
542.494	19254.47
542.858	19461.92
543.223	19416.5
543.587	19614.46
543.952	19605.64
544.316	19607.9
544.681	19696.04
545.045	19900.1
545.41	20008.12
545.774	19948.01
546.138	20045.18
546.503	20122.69
546.867	20188.9
547.231	20318.17
547.595	20359.97
547.959	20483.59
548.324	20512.96
548.688	20543.25
549.052	20639.29
549.416	20675.45
549.779	20724.71
550.143	20836.12
550.507	20968.54
550.871	20944.36
551.235	21119.05
551.599	21394.75
551.962	21366.5
552.326	21444.01
552.689	21637.45
553.053	21547.51
553.417	21634.74
553.78	21892.81
554.143	21910.21
554.507	22108.85
554.87	22145.24
555.234	22288.96
555.597	22153.82
555.96	22388.85
556.323	22543.42
556.686	22536.41
557.05	22806.24
557.413	22903.41
557.776	22938.21
558.139	23035.83
558.502	23180.92
558.865	23177.98
559.228	23357.86
559.59	23484.41
559.953	23538.19
560.316	23932.76
560.679	23862.71
561.041	24100.21
561.404	24246.42
561.767	24440.32
562.129	24582.91
562.492	24792.85
562.854	24816.58
563.217	24951.49
563.579	25142.45
563.941	25291.82
564.304	25450.01
564.666	25712.83
565.028	25773.39
565.39	26044.57
565.753	26148.75
566.115	26254.51
566.477	26518
566.839	26638.45
567.201	26960.7
567.563	26994.6
567.925	27139.91
568.287	27349.17
568.648	27394.82
569.01	27605.66
569.372	28158.19
569.734	28166.77
570.095	28396.37
570.457	28548.68
570.819	28703.48
571.18	28700.77
571.542	29037.94
571.903	29202.45
572.265	29333.3
572.626	29674.53
572.987	29824.81
573.349	30004.24
573.71	30103.22
574.071	30363.1
574.432	30520.84
574.794	30772.13
575.155	30856.19
575.516	30881.96
575.877	31174.38
576.238	31218.22
576.599	31559.9
576.96	31474.03
577.32	31752.67
577.681	31918.09
578.042	32194.01
578.403	32239.43
578.763	32230.62
579.124	32442.59
579.485	32645.53
579.845	32889.36
580.206	32800.1
580.566	32930.72
580.927	33095.01
581.287	33323.93
581.648	33233.53
582.008	33477.37
582.368	33546.97
582.728	33708.32
583.089	33796.46
583.449	33905.83
583.809	34051.36
584.169	34278.25
584.529	34279.61
584.889	34681.86
585.249	34594.4
585.609	34610.67
585.969	35021.73
586.329	35099.02
586.688	35447.26
587.048	35600.25
587.408	35716.63
587.768	35932.22
588.127	36159.78
588.487	36550.28
588.846	36976.03
589.206	37003.15
589.565	37213.32
589.925	37802.68
590.284	38072.73
590.643	38236.79
591.003	38704.8
591.362	39272.47
591.721	39610.09
592.08	39920.59
592.44	40561.93
592.799	40669.95
593.158	41193.55
593.517	41360.32
593.876	42073.3
594.235	42391.71
594.593	42720.06
594.952	43439.59
595.311	43706.48
595.67	44226.01
596.029	44767.47
596.387	45458.75
596.746	45952.29
597.104	46111.16
597.463	46570.81
597.822	47191.36
598.18	47461.86
598.538	47959.47
598.897	48527.82
599.255	48722.84
599.613	49573.44
599.972	49607.57
600.33	50158.06
600.688	50405.28
601.046	50866.97
601.404	51512.83
601.762	51773.38
602.12	52149.87
602.478	52620.14
602.836	52924.09
603.194	52984.65
603.552	53338.99
603.91	53625.99
604.268	54022.82
604.625	54304.62
604.983	54693.53
605.341	54759.29
605.698	55269.56
606.056	55646.95
606.413	55709.78
606.771	56166.94
607.128	56392.92
607.485	56470.21
607.843	56799.69
608.2	57069.74
608.557	57370.3
608.914	57553.35
609.272	57840.34
609.629	58123.05
609.986	58357.84
610.343	58535.69
610.7	58866.53
611.057	59020.2
611.414	59138.84
611.771	59433.3
612.127	59601.88
612.484	59789.67
612.841	59998.25
613.198	60092.49
613.554	60228.76
613.911	60536.77
614.267	60672.13
614.624	60790.32
614.98	61000.94
615.337	61200.71
615.693	61336.07
616.05	61422.62
616.406	61676.17
616.762	61721.37
617.118	61835.04
617.475	61929.73
617.831	62144.64
618.187	62254.69
618.543	62328.14
618.899	62609.94
619.255	62626.66
619.611	62698.29
619.967	62913.43
620.323	63016.03
620.678	62985.74
621.034	63071.39
621.39	63145.51
621.746	63225.96
622.101	63515.9
622.457	63397.26
622.812	63517.71
623.168	63518.61
623.523	63518.61
623.879	63518.61
624.234	63518.61
624.589	63518.61
624.945	63518.61
625.3	63518.61
625.655	63518.61
626.01	63518.61
626.365	63518.61
626.72	63518.61
627.075	63518.61
627.43	63518.61
627.785	63518.61
628.14	63518.61
628.495	63518.61
628.85	63518.61
629.205	63518.61
629.559	63518.61
629.914	63518.61
630.269	63518.61
630.623	63518.61
630.978	63518.61
631.332	63518.61
631.687	63518.61
632.041	63518.61
632.396	63518.61
632.75	63518.61
633.104	63518.61
633.459	63518.61
633.813	63518.61
634.167	63518.61
634.521	63518.61
634.875	63518.61
635.229	63518.61
635.583	63518.61
635.937	63518.61
636.291	63518.61
636.645	63518.61
636.999	63518.61
637.352	63518.61
637.706	63518.61
638.06	63518.61
638.413	63518.61
638.767	63518.61
639.121	63518.61
639.474	63518.61
639.828	63518.61
640.181	63518.61
640.534	63518.61
640.888	63518.61
641.241	63518.61
641.594	63518.61
641.947	63518.61
642.301	63518.61
642.654	63518.61
643.007	63518.61
643.36	63518.61
643.713	63518.61
644.066	63518.61
644.419	63518.61
644.771	63518.61
645.124	63518.61
645.477	63518.61
645.83	63510.93
646.182	63503.25
646.535	63517.03
646.888	63518.61
647.24	63484.94
647.593	63518.61
647.945	63508.9
648.298	63493.75
648.65	63412.63
649.002	63285.85
649.355	63284.49
649.707	63210.37
650.059	63220.77
650.411	63479.52
650.763	63518.61
651.115	63518.61
651.467	63518.61
651.819	63518.61
652.171	63518.61
652.523	63518.61
652.875	63518.61
653.227	63518.61
653.578	63518.61
653.93	63518.61
654.282	63518.61
654.633	63518.61
654.985	63518.61
655.337	63518.61
655.688	63518.61
656.039	63518.61
656.391	63484.94
656.742	63518.61
657.094	63518.39
657.445	63518.61
657.796	63512.51
658.147	63500.08
658.498	63516.35
658.849	63518.61
659.2	63501.66
659.551	63512.51
659.902	63497.82
660.253	63496.24
660.604	63518.61
660.955	63510.7
661.306	63518.61
661.656	63465.51
662.007	63502.34
662.358	63495.56
662.708	63482.68
663.059	63466.64
663.409	63427.77
663.76	63484.04
664.11	63493.08
664.461	63505.28
664.811	63501.21
665.161	63486.07
665.511	63439.07
665.862	63495.56
666.212	63498.95
666.562	63514.54
666.912	63449.01
667.262	63430.48
667.612	63448.33
667.962	63471.83
668.312	63395.9
668.662	63498.73
669.011	63486.97
669.361	63442.91
669.711	63427.09
670.06	63385.96
670.41	63373.98
670.76	63477.03
671.109	63478.61
671.459	63453.3
671.808	63404.94
672.157	63457.37
672.507	63294.89
672.856	63349.13
673.205	63378.73
673.554	63427.99
673.904	63361.33
674.253	63496.47
674.602	63368.79
674.951	63088.79
675.3	62944.62
675.649	63344.15
675.998	63344.61
676.346	63381.89
676.695	63408.78
677.044	63267.32
677.393	63303.7
677.741	63349.58
678.09	63292.86
678.438	63298.51
678.787	63266.42
679.135	63269.81
679.484	63118.62
679.832	63234.1
680.181	63131.05
680.529	63185.29
680.877	63014.44
681.225	63067.78
681.573	63172.86
681.922	62980.1
682.27	62922.92
682.618	62980.77
682.966	62889.48
683.314	62919.98
683.661	62920.21
684.009	62777.61
684.357	62788.24
684.705	62737.62
685.053	62801.8
685.4	62611.97
685.748	62596.83
686.095	62546.89
686.443	62385.53
686.79	62393.22
687.138	62506.89
687.485	62499.66
687.832	62325.88
688.18	62378.98
688.527	62244.97
688.874	62237.74
689.221	62193.22
689.568	62100.8
689.915	62016.05
690.262	62051.08
690.609	62020.12
690.956	61931.99
691.303	61896.51
691.65	61817.19
691.997	61710.52
692.344	61591.88
692.69	61597.53
693.037	61609.06
693.383	61420.81
693.73	61493.35
694.077	61328.39
694.423	61311.89
694.769	61237.32
695.116	61201.16
695.462	61099.69
695.808	61046.36
696.155	61071.45
696.501	60939.7
696.847	60920.71
697.193	60757.55
697.539	60826.48
697.885	60631.68
698.231	60582.87
698.577	60560.5
698.923	60532.93
699.269	60282.99
699.614	60303.78
699.96	60165.03
700.306	60198.93
700.651	60111.02
700.997	60025.14
701.342	59986.28
701.688	59905.15
702.033	59898.37
702.379	59902.66
702.724	59728.66
703.069	59809.11
703.415	59454.31
703.76	59543.12
704.105	59501.09
704.45	59459.51
704.795	59414.54
705.14	59278.05
705.485	59258.61
705.83	59062.01
706.175	59160.99
706.52	59037.15
706.865	58986.08
707.209	58989.92
707.554	58844.38
707.899	58813.2
708.243	58717.61
708.588	58691.39
708.932	58616.37
709.277	58637.16
709.621	58544.05
709.966	58382.48
710.31	58498.41
710.654	58253.44
710.998	58343.61
711.342	58285.53
711.687	58239.88
712.031	58103.84
712.375	58032.43
712.719	58011.19
713.063	57895.94
713.407	58076.5
713.75	57940.91
714.094	57835.15
714.438	57737.97
714.782	57741.36
715.125	57602.61
715.469	57753.11
715.812	57506.34
716.156	57402.84
716.499	57460.69
716.843	57431.99
717.186	57421.6
717.53	57461.6
717.873	57478.09
718.216	57350.19
718.559	57188.84
718.902	56994.94
719.246	57081.72
719.589	57086.47
719.932	56930.31
720.275	57023.42
720.617	56992.68
720.96	56896.19
721.303	56854.15
721.646	56926.02
721.989	56686.25
722.331	56721.28
722.674	56642.18
723.016	56675.18
723.359	56595.4
723.701	56593.6
724.044	56526.71
724.386	56371
724.729	56445.13
725.071	56397.44
725.413	56384.34
725.755	56339.59
726.097	56219.6
726.439	56158.35
726.782	56128.07
727.124	56281.51
727.465	56251.46
727.807	56098.69
728.149	56162.65
728.491	55980.96
728.833	56043.78
729.175	55965.59
729.516	55880.62
729.858	55841.07
730.199	55939.6
730.541	55893.73
730.882	55698.48
731.224	55747.74
731.565	55631.59
731.906	55646.95
732.248	55671.36
732.589	55366.51
732.93	55464.36
733.271	55425.94
733.612	55414.19
733.953	55544.58
734.294	55355.21
734.635	55249.9
734.976	55404.48
735.317	55255.33
735.658	55282.9
735.999	55159.74
736.339	55197.25
736.68	55255.78
737.021	55093.52
737.361	55006.97
737.702	55175.55
738.042	55064.15
738.383	55010.59
738.723	55052.62
739.063	54874.32
739.404	54986.41
739.744	54985.5
740.084	54806.75
740.424	54875.22
740.764	54771.72
741.104	54946.41
741.444	54732.63
741.784	54739.86
742.124	54772.85
742.464	54595.91
742.804	54562.92
743.143	54595.46
743.483	54534.67
743.823	54451.05
744.162	54411.51
744.502	54489.92
744.841	54366.31
745.181	54472.75
745.52	54295.8
745.86	54336.03
746.199	54341.45
746.538	54323.37
746.877	54339.87
747.216	54257.61
747.556	54255.81
747.895	54204.05
748.234	54148.46
748.573	54132.19
748.911	54009.03
749.25	54004.51
749.589	53914.8
749.928	53975.13
750.267	54028.92
750.605	53844.06
750.944	53840.45
751.283	53758.64
751.621	53883.61
751.96	53597.97
752.298	53651.53
752.636	53663.28
752.975	53497.41
753.313	53382.38
753.651	53603.17
753.989	53351.2
754.327	53374.92
754.666	53158.88
755.004	53241.14
755.342	53195.49
755.679	53184.19
756.017	52995.27
756.355	53095.61
756.693	52911.21
757.031	53105.78
757.368	52732.46
757.706	52727.94
758.044	52683.87
758.381	52617.66
758.719	52556.64
759.056	52549.64
759.394	52406.36
759.731	52273.26
760.068	52128.4
760.405	52116.65
760.743	51989.2
761.08	52083.88
761.417	51838.24
761.754	51827.39
762.091	51861.52
762.428	51615.42
762.765	51532.94
763.102	51523.9
763.438	51435.77
763.775	51231.03
764.112	51131.14
764.449	51201.42
764.785	50970.02
765.122	50854.76
765.458	50724.15
765.795	50670.14
766.131	50593.3
766.467	50493.42
766.804	50416.81
767.14	50171.62
767.476	50107.44
767.812	50019.31
768.148	50109.93
768.485	50009.14
768.821	49748.58
769.157	49587.23
769.492	49486.89
769.828	49424.97
770.164	49003.51
770.5	48936.85
770.836	48986.79
771.171	48844.65
771.507	48688.27
771.842	48400.59
772.178	48524.88
772.513	48368.05
772.849	48283.31
773.184	48057.55
773.519	48062.97
773.855	47841.51
774.19	47667.05
774.525	47474.74
774.86	47465.7
775.195	47283.78
775.53	47167.63
775.865	46918.6
776.2	46730.35
776.535	46448.55
776.87	46411.49
777.205	46228.22
777.539	46149.35
777.874	46116.58
778.209	45835.24
778.543	45635.47
778.878	45348.24
779.212	45489.71
779.547	45055.14
779.881	45185.31
780.215	44938.08
780.55	45031.41
780.884	44593.01
781.218	44512.33
781.552	44702.84
781.886	44237.54
782.22	44096.07
782.554	43796.19
782.888	43771.56
783.222	43512.58
783.556	43212.03
783.889	43162.99
784.223	42897.69
784.557	42861.08
784.89	43031.47
785.224	42683.23
785.557	42348.32
785.891	42279.4
786.224	42269.45
786.558	42209.57
786.891	41977.48
787.224	41412.75
787.557	41639.64
787.891	41557.83
788.224	41314.68
788.557	41223.15
788.89	41152.19
789.223	41011.41
789.556	40697.97
789.888	40675.82
790.221	40484.64
790.554	40203.52
790.887	40295.49
791.219	39945.67
791.552	39999.91
791.884	39818.22
792.217	39707.26
792.549	39533.48
792.882	39307.95
793.214	39214.62
793.546	39288.06
793.879	39030.22
794.211	38864.8
794.543	38883.1
794.875	38593.62
795.207	38630.45
795.539	38427.29
795.871	38370.12
796.203	38159.05
796.535	37793.64
796.867	38013.75
797.198	37821.66
797.53	37594.55
797.862	37519.75
798.193	37659.18
798.525	37293.09
798.856	37267.33
799.188	36938.97
799.519	36800.9
799.85	36731.52
800.182	36694.91
800.513	36868.01
800.844	36239.33
801.175	36528.36
801.506	36496.05
801.837	36298.09
802.168	36129.95
802.499	36132.44
802.83	35816.52
803.161	35853.13
803.491	35757.08
803.822	35729.51
804.153	35564.32
804.483	35357.77
804.814	35120.04
805.145	35272.58
805.475	35208.62
805.805	35030.77
806.136	35014.73
806.466	34885.92
806.796	34756.43
807.126	34508.98
807.457	34541.3
807.787	34565.93
808.117	34402.09
808.447	34193.96
808.777	34284.58
809.107	34129.1
809.436	33883.91
809.766	33877.13
810.096	33829.68
810.426	33701.32
810.755	33695.44
811.085	33513.3
811.414	33492.28
811.744	33348.78
812.073	33356.47
812.403	33225.4
812.732	33036.25
813.061	33280.09
813.39	32976.36
813.719	32889.81
814.049	33025.85
814.378	32829.7
814.707	32808.69
815.036	32650.95
815.365	32477.39
815.693	32360.34
816.022	32280.34
816.351	32191.53
816.68	32078.54
817.008	32219.77
817.337	31772.78
817.665	31840.8
817.994	31818.2
818.322	31916.28
818.651	31760.13
818.979	31653.69
819.307	31725.1
819.636	31744.31
819.964	31397.65
820.292	31474.71
820.62	31530.75
820.948	31557.42
821.276	31616.4
821.604	31488.95
821.932	31578.44
822.259	31394.49
822.587	31531.88
822.915	31276.3
823.243	31415.5
823.57	31215.51
823.898	31361.49
824.225	31341.38
824.553	31451.88
824.88	31403.3
825.207	31457.31
825.535	31257.99
825.862	31453.24
826.189	31300.7
826.516	31603.97
826.843	31564.65
827.17	31477.19
827.497	31603.07
827.824	31602.84
828.151	31548.15
828.478	31330.31
828.805	31618.21
829.131	31463.64
829.458	31455.27
829.785	31320.59
830.111	31351.1
830.438	31514.26
830.764	31462.51
831.09	31521.94
831.417	31432.22
831.743	31543.41
832.069	31375.5
832.395	31332.11
832.722	31465.22
833.048	31254.83
833.374	31380.02
833.7	31288.73
834.026	31315.39
834.351	31261.16
834.677	31344.54
835.003	31171.21
835.329	31118.56
835.654	31148.16
835.98	30934.16
836.306	31199.46
836.631	30989.07
836.956	31121.05
837.282	31079.69
837.607	30899.13
837.932	30962.63
838.258	30800.38
838.583	30862.07
838.908	30822.97
839.233	30684.22
839.558	30539.82
839.883	30535.07
840.208	30405.81
840.533	30567.61
840.858	30545.24
841.182	30425.25
841.507	30305.47
841.832	30181.86
842.156	30266.15
842.481	30100.51
842.805	29997.91
843.13	29911.13
843.454	29990.91
843.778	29830.91
844.103	29733.06
844.427	29692.61
844.751	29754.08
845.075	29532.84
845.399	29610.8
845.723	29425.05
846.047	29585.49
846.371	29211.72
846.695	29166.97
847.019	28993.42
847.343	28907.09
847.666	28684.05
847.99	28621.22
848.313	28532.87
848.637	28571.73
848.96	28472.75
849.284	28357.95
849.607	28067.57
849.931	27996.38
850.254	27851.98
850.577	27766.56
850.9	27626
851.223	27589.61
851.546	27491.54
851.869	27290.86
852.192	27456.28
852.515	27024.66
852.838	26944.66
853.161	26890.65
853.483	26773.36
853.806	26911.21
854.129	26828.05
854.451	26739.01
854.774	26439.14
855.096	26412.92
855.419	26348.52
855.741	26369.53
856.063	26088.41
856.385	26039.37
856.708	25943.78
857.03	25935.42
857.352	25964.57
857.674	25842.31
857.996	25723.67
858.318	25500.85
858.64	25597.58
858.961	25509.89
859.283	25268.32
859.605	25388.09
859.926	25235.33
860.248	25144.71
860.57	25077.14
860.891	25000.3
861.212	25041.66
861.534	24836.69
861.855	24958.5
862.176	24836.47
862.498	24846.63
862.819	24781.55
863.14	24585.85
863.461	24560.54
863.782	24531.61
864.103	24600.09
864.424	24573.42
864.745	24511.5
865.065	24376.36
865.386	24188.12
865.707	24329.81
866.027	24403.71
866.348	24222.24
866.668	24229.02
866.989	24213.21
867.309	23951.97
867.63	24045.3
867.95	24059.76
868.27	23864.06
868.59	23871.29
868.91	23807.79
869.23	23816.61
869.55	23683.28
869.87	23758.08
870.19	23533
870.51	23704.97
870.83	23565.76
871.15	23461.13
871.469	23502.26
871.789	23641.02
872.109	23568.93
872.428	23476.95
872.748	23446.45
873.067	23340.91
873.386	23369.39
873.706	23416.62
874.025	23193.12
874.344	23146.34
874.663	23164.65
874.982	23256.39
875.301	23037.64
875.62	23000.81
875.939	22926.91
876.258	23003.07
876.577	22958.77
876.896	22895.5
877.214	22827.93
877.533	22866.12
877.852	22762.4
878.17	22766.69
878.489	22821.15
878.807	22669.74
879.125	22677.43
879.444	22686.69
879.762	22544.1
880.08	22601.5
880.398	22490.09
880.716	22473.82
881.034	22425.91
881.352	22389.98
881.67	22345.68
881.988	22326.93
882.306	22159.47
882.624	22193.37
882.941	22246.48
883.259	22162.64
883.577	22106.82
883.894	21973.26
884.212	21934.4
884.529	21959.48
884.846	21857.11
885.164	21696.66
885.481	21710.67
885.798	21774.17
886.115	21514.52
886.432	21564.69
886.75	21451.02
887.067	21626.83
887.383	21485.82
887.7	21386.61
888.017	21180.06
888.334	21162.44
888.651	21117.69
888.967	21168.09
889.284	21103.91
889.6	21039.73
889.917	20903.24
890.233	20938.94
890.55	20883.12
890.866	20856.01
891.182	20797.48
891.498	20780.3
891.815	20607.2
892.131	20585.05
892.447	20536.47
892.763	20523.81
893.079	20347.32
893.395	20431.84
893.71	20318.84
894.026	20266.19
894.342	20178.51
894.657	20063.26
894.973	19986.88
895.289	20027.1
895.604	19876.37
895.92	19851.74
896.235	19838.18
896.55	19719.76
896.865	19648.58
897.181	19597.96
897.496	19573.33
897.811	19454.01
898.126	19400
898.441	19352.77
898.756	19261.47
899.071	19225.99
899.386	19218.53
899.7	18961.37
900.015	18926.34
900.33	18788.26
900.644	18800.01
900.959	18843.4
901.273	18731.77
901.588	18627.36
901.902	18516.41
902.216	18493.36
902.531	18437.09
902.845	18224.44
903.159	18164.78
903.473	18142.4
903.787	18109.41
904.101	18027.61
904.415	18031.9
904.729	18045.23
905.042	17946.03
905.356	17848.85
905.67	17801.85
905.984	17679.37
906.297	17683.43
906.611	17612.93
906.924	17363.44
907.237	17417.68
907.551	17365.7
907.864	17257.91
908.177	17292.48
908.491	17141.07
908.804	17121.41
909.117	16919.39
909.43	16911.93
909.743	16873.06
910.056	16892.04
910.368	16803.46
910.681	16718.71
910.994	16632.84
911.307	16622.44
911.619	16392.62
911.932	16446.18
912.244	16225.39
912.557	16304.26
912.869	16143.59
913.181	16142.23
913.494	16098.39
913.806	15985.4
914.118	15995.79
914.43	15870.6
914.742	15703.6
915.054	15695.69
915.366	15667.22
915.678	15605.3
915.99	15550.83
916.302	15430.84
916.613	15383.15
916.925	15366.43
917.236	15210.28
917.548	15172.09
917.859	15224.51
918.171	15048.7
918.482	15013.9
918.794	14971.64
919.105	14876.5
919.416	14840.8
919.727	14820.01
920.038	14708.6
920.349	14634.7
920.66	14603.74
920.971	14518.32
921.282	14475.38
921.593	14363.07
921.903	14294.14
922.214	14268.83
922.525	14229.74
922.835	14153.36
923.146	14104.32
923.456	14032.23
923.767	13938
924.077	13877.88
924.387	13852.57
924.697	13775.74
925.008	13759.69
925.318	13635.18
925.628	13645.8
925.938	13567.84
926.248	13423.66
926.558	13340.72
926.867	13381.4
927.177	13267.28
927.487	13240.84
927.796	13185.92
928.106	13179.37
928.416	13106.6
928.725	13005.59
929.034	12865.03
929.344	12922.43
929.653	12889.21
929.962	12755.2
930.271	12725.37
930.581	12659.16
930.89	12641.31
931.199	12550.23
931.508	12452.38
931.817	12482.89
932.125	12448.32
932.434	12342.33
932.743	12248.32
933.051	12223.24
933.36	12245.38
933.669	12172.84
933.977	12091.72
934.286	12102.11
934.594	11952.74
934.902	11912.96
935.21	11868.44
935.519	11828.67
935.827	11772.85
936.135	11767.88
936.443	11652.63
936.751	11595.01
937.059	11559.75
937.367	11499.19
937.674	11458.96
937.982	11402.24
938.29	11384.62
938.597	11339.87
938.905	11229.59
939.213	11186.2
939.52	11068.47
939.827	11105.53
940.135	11008.13
940.442	10938.75
940.749	10956.83
941.056	10908.02
941.363	10790.51
941.67	10835.03
941.977	10762.49
942.284	10727.46
942.591	10696.5
942.898	10673.67
943.205	10586.9
943.511	10543.06
943.818	10528.14
944.125	10444.53
944.431	10377.41
944.738	10348.26
945.044	10307.13
945.35	10239.79
945.657	10175.38
945.963	10130.64
946.269	10087.47
946.575	10153.01
946.881	10033.92
947.187	9993.24
947.493	9847.26
947.799	9930.64
948.105	9825.56
948.41	9814.94
948.716	9734.26
949.022	9629.63
949.327	9670.76
949.633	9499.47
949.938	9623.08
950.244	9561.39
950.549	9446.81
950.854	9419.7
951.16	9369.75
951.465	9351.9
951.77	9327.95
952.075	9335.4
952.38	9202.53
952.685	9198.01
952.99	9134.96
953.294	9146.48
953.599	9047.73
953.904	8980.16
954.209	8984.68
954.513	8947.62
954.818	8903.55
955.122	8887.05
955.426	8870.78
955.731	8748.3
956.035	8744.46
956.339	8657
956.643	8685.48
956.948	8573.62
957.252	8640.28
957.556	8596.67
957.86	8610.68
958.163	8514.86
958.467	8452.49
958.771	8442.55
959.075	8403
959.378	8417.46
959.682	8324.36
959.985	8293.4
960.289	8238.94
960.592	8211.37
960.896	8168.2
961.199	8154.87
961.502	8101.09
961.805	8016.79
962.108	7951.26
962.411	7967.76
962.714	7870.58
963.017	7884.37
963.32	7909.23
963.623	7840.53
963.926	7834.65
964.228	7720.53
964.531	7756.91
964.833	7660.42
965.136	7611.38
965.438	7562.12
965.741	7576.35
966.043	7555.11
966.345	7552.85
966.648	7437.15
966.95	7481.67
967.252	7416.58
967.554	7413.42
967.856	7393.08
968.158	7295.01
968.46	7291.84
968.761	7257.27
969.063	7203.26
969.365	7139.76
969.666	7124.16
969.968	7045.75
970.269	7046.2
970.571	7032.41
970.872	7024.5
971.174	6946.54
971.475	6965.75
971.776	6911.51
972.077	6871.97
972.378	6838.97
972.679	6760.56
972.98	6772.76
973.281	6729.6
973.582	6674.23
973.883	6695.93
974.183	6615.02
974.484	6602.59
974.785	6520.79
975.085	6554.69
975.386	6577.51
975.686	6455.25
975.986	6435.14
976.287	6440.11
976.587	6348.82
976.887	6380.23
977.187	6359.89
977.487	6372.09
977.787	6224.07
978.087	6256.62
978.387	6233.79
978.687	6193.11
978.987	6141.82
979.286	6113.12
979.586	6147.69
979.885	6070.63
980.185	6075.15
980.484	5998.32
980.784	6008.03
981.083	5904.08
981.382	5969.62
981.682	5947.92
981.981	5894.14
982.28	5852.78
982.579	5793.8
982.878	5774.14
983.177	5780.24
983.475	5756.74
983.774	5712.45
984.073	5681.72
984.372	5628.38
984.67	5649.17
984.969	5578.44
985.267	5564.2
985.566	5538.22
985.864	5534.6
986.162	5506.8
986.461	5433.13
986.759	5500.7
987.057	5412.34
987.355	5356.3
987.653	5348.16
987.951	5336.87
988.249	5303.19
988.547	5286.92
988.844	5299.8
989.142	5251.67
989.44	5183.65
989.737	5148.4
990.035	5175.74
990.332	5175.06
990.63	5096.19
990.927	5080.83
991.224	5062.75
991.521	5028.17
991.819	5050.55
992.116	4936.42
992.413	4988.63
992.71	4957.89
993.006	4904.79
993.303	4902.3
993.6	4886.93
993.897	4876.99
994.193	4846.93
994.49	4782.08
994.787	4742.98
995.083	4720.84
995.379	4703.44
995.676	4692.59
995.972	4687.84
996.268	4651.46
996.565	4640.16
996.861	4602.65
997.157	4573.04
997.453	4575.53
997.749	4520.62
998.044	4487.17
998.34	4453.95
998.636	4472.26
998.932	4450.56
999.227	4402.43
999.523	4373.05
999.818	4349.09
1000.114	4320.62
1000.409	4288.31
1000.704	4261.19
1001	4251.02
1001.295	4237.69
1001.59	4206.73
1001.885	4250.57
1002.18	4203.34
1002.475	4133.06
1002.77	4133.96
1003.065	4061.19
1003.359	4090.34
1003.654	4102.1
1003.949	4033.17
1004.243	3990.46
1004.538	3953.17
1004.832	3954.08
1005.127	3917.92
1005.421	3876.79
1005.715	3872.72
1006.009	3898.26
1006.304	3820.52
1006.598	3801.31
1006.892	3804.25
1007.186	3744.59
1007.48	3719.05
1007.773	3690.58
1008.067	3697.13
1008.361	3671.6
1008.655	3636.8
1008.948	3617.81
1009.242	3620.98
1009.535	3577.82
1009.829	3523.58
1010.122	3549.79
1010.415	3502.56
1010.708	3462.79
1011.001	3456.24
1011.295	3462.34
1011.588	3411.49
1011.881	3376.01
1012.173	3362
1012.466	3383.92
1012.759	3343.7
1013.052	3327.65
1013.344	3282.91
1013.637	3253.08
1013.93	3220.08
1014.222	3205.85
1014.514	3198.39
1014.807	3192.97
1015.099	3150.48
1015.391	3138.96
1015.683	3140.99
1015.976	3113.19
1016.268	3100.54
1016.56	3058.96
1016.851	3042.69
1017.143	3032.29
1017.435	3038.39
1017.727	2981
1018.018	3001.56
1018.31	2932.86
1018.602	2928.12
1018.893	2894.67
1019.185	2880.88
1019.476	2869.36
1019.767	2846.99
1020.058	2830.26
1020.35	2809.7
1020.641	2807.21
1020.932	2747.78
1021.223	2738.74
1021.514	2710.04
1021.804	2725.41
1022.095	2664.17
1022.386	2653.09
1022.677	2667.78
1022.967	2615.58
1023.258	2592.3
1023.548	2557.05
1023.839	2577.62
1024.129	2527.45
1024.419	2519.99
1024.709	2483.16
1025	2498.75
1025.29	2447
1025.58	2426.43
1025.87	2431.86
1026.16	2417.62
1026.449	2406.09
1026.739	2374.46
1027.029	2348.24
1027.319	2335.36
1027.608	2354.12
1027.898	2304.85
1028.187	2295.59
1028.477	2266.44
1028.766	2277.74
1029.055	2254.46
1029.344	2203.39
1029.634	2170.85
1029.923	2187.8
1030.212	2189.6
1030.501	2177.17
1030.79	2118.19
1031.078	2167.91
1031.367	2102.15
1031.656	2092.66
1031.945	2062.38
1032.233	2081.58
1032.522	2045.43
1032.81	2046.33
1033.099	2024.18
1033.387	2027.57
1033.675	1982.38
1033.963	2017.4
1034.251	1970.85
1034.54	1969.95
1034.828	1931.98
1035.116	1895.83
1035.403	1904.87
1035.691	1894.24
1035.979	1873
1036.267	1854.02
1036.554	1856.73
1036.842	1817.18
1037.129	1800.46
1037.417	1807.24
1037.704	1797.3
1037.992	1767.24
1038.279	1749.62
1038.566	1761.37
1038.853	1761.37
1039.14	1761.37
