Data from 199_FLMS001491_006.txt Node
Date: Thu Apr 19 16:33:02 BST 2018
User: hsy
Spectrometer: FLMS00149
Trigger mode: 0
Integration Time (sec): 1.000000E-2
Scans to average: 10
Electric dark correction enabled: true
Nonlinearity correction enabled: false
Boxcar width: 0
XAxis mode: Wavelengths
Number of Pixels in Spectrum: 2048
>>>>>Begin Spectral Data<<<<<
341.393	-43.59
341.776	-43.59
342.16	-43.59
342.543	-49.01
342.927	-65.05
343.31	-58.28
343.693	-67.99
344.077	-74.09
344.46	-55.34
344.843	-57.6
345.226	-39.52
345.61	-33.42
345.993	-17.15
346.376	-8.56
346.759	26.02
347.142	7.71
347.525	28.95
347.908	61.04
348.291	75.05
348.674	114.38
349.057	98.78
349.44	113.47
349.823	153.92
350.206	155.73
350.588	254.03
350.971	259.46
351.354	264.43
351.737	304.65
352.119	295.61
352.502	306.91
352.884	324.31
353.267	332.22
353.65	349.17
354.032	350.53
354.414	367.25
354.797	360.47
355.179	370.41
355.562	376.52
355.944	390.98
356.326	385.33
356.709	380.58
357.091	401.37
357.473	392.56
357.855	402.28
358.238	412.45
358.62	395.05
359.002	409.06
359.384	404.76
359.766	391.2
360.148	403.63
360.53	389.17
360.912	374.26
361.294	395.72
361.676	410.86
362.057	393.46
362.439	380.13
362.821	394.82
363.203	388.72
363.584	393.24
363.966	395.72
364.348	380.36
364.729	379.23
365.111	372
365.493	376.97
365.874	376.06
366.256	388.27
366.637	391.66
367.019	374.03
367.4	372
367.781	382.84
368.163	383.97
368.544	388.27
368.925	384.42
369.306	399.34
369.688	386.68
370.069	357.98
370.45	383.97
370.831	390.3
371.212	394.82
371.593	377.19
371.974	402.73
372.355	391.43
372.736	397.98
373.117	406.8
373.498	379.91
373.879	403.86
374.26	382.84
374.641	373.35
375.021	407.48
375.402	398.89
375.783	401.37
376.163	421.03
376.544	423.52
376.925	404.09
377.305	413.35
377.686	434.37
378.066	432.79
378.447	410.19
378.827	425.78
379.208	442.05
379.588	404.76
379.968	427.59
380.349	434.59
380.729	452.22
381.109	419.45
381.489	439.34
381.87	430.53
382.25	456.06
382.63	439.34
383.01	435.95
383.39	454.25
383.77	449.06
384.15	462.84
384.53	462.84
384.91	478.43
385.29	470.07
385.67	473.69
386.049	484.08
386.429	470.75
386.809	469.17
387.189	483.18
387.568	463.97
387.948	463.74
388.328	482.28
388.707	484.76
389.087	482.28
389.466	500.35
389.846	513.69
390.225	498.55
390.605	489.51
390.984	519.34
391.363	487.7
391.743	515.72
392.122	534.03
392.501	542.61
392.881	534.7
393.26	514.82
393.639	548.71
394.018	544.65
394.397	527.7
394.776	545.32
395.155	566.34
395.534	555.95
395.913	564.08
396.292	539.68
396.671	539.22
397.05	561.82
397.429	571.31
397.808	547.81
398.186	565.89
398.565	581.71
398.944	586.68
399.323	571.54
399.701	568.15
400.08	610.18
400.458	572.89
400.837	581.48
401.215	593.01
401.594	590.97
401.972	621.25
402.351	615.15
402.729	619
403.107	619
403.486	646.34
403.864	618.09
404.242	628.49
404.62	636.4
404.999	656.28
405.377	645.89
405.755	671.2
406.133	658.09
406.511	672.55
406.889	658.99
407.267	663.51
407.645	666
408.023	700.57
408.401	692.89
408.779	694.25
409.156	704.87
409.534	719.11
409.912	745.32
410.29	724.98
410.667	751.65
411.045	767.47
411.422	745.77
411.8	748.94
412.178	766.11
412.555	770.63
412.933	787.35
413.31	784.87
413.687	817.41
414.065	804.53
414.442	834.81
414.819	828.93
415.197	811.31
415.574	818.09
415.951	837.29
416.328	870.51
416.705	869.61
417.082	858.08
417.46	893.79
417.837	898.08
418.214	894.47
418.591	892.43
418.967	886.78
419.344	893.11
419.721	901.25
420.098	918.87
420.475	895.82
420.852	931.08
421.228	917.97
421.605	937.18
421.982	913.22
422.358	955.03
422.735	981.02
423.111	953.9
423.488	1001.13
423.864	983.05
424.241	987.35
424.617	1010.17
424.994	1008.82
425.37	1023.28
425.746	1033.45
426.123	1035.03
426.499	1067.34
426.875	1046.78
427.251	1058.98
427.627	1072.09
428.003	1092.2
428.379	1118.19
428.756	1124.52
429.132	1113.67
429.507	1136.72
429.883	1132.43
430.259	1178.53
430.635	1184.63
431.011	1207.68
431.387	1223.95
431.763	1223.5
432.138	1224.18
432.514	1278.64
432.89	1244.74
433.265	1284.51
433.641	1297.4
434.016	1296.04
434.392	1293.1
434.767	1357.51
435.143	1364.74
435.518	1353.21
435.894	1360.67
436.269	1407.67
436.644	1427.34
437.02	1430.5
437.395	1417.17
437.77	1467.56
438.145	1441.57
438.52	1483.15
438.895	1467.56
439.271	1506.2
439.646	1505.75
440.021	1538.52
440.395	1530.16
440.77	1504.17
441.145	1521.34
441.52	1559.08
441.895	1559.08
442.27	1587.56
442.645	1556.6
443.019	1590.49
443.394	1585.98
443.769	1607.67
444.143	1598.63
444.518	1634.34
444.892	1651.96
445.267	1625.07
445.641	1657.39
446.016	1678.18
446.39	1684.28
446.764	1691.74
447.139	1692.64
447.513	1698.06
447.887	1694
448.262	1711.62
448.636	1751.39
449.01	1743.94
449.384	1747.33
449.758	1781.68
450.132	1800.88
450.506	1819.87
450.88	1821.68
451.254	1829.36
451.628	1861.9
452.002	1850.83
452.376	1909.13
452.75	1889.7
453.123	1922.24
453.497	1955.91
453.871	1960.65
454.244	2026.64
454.618	2000.43
454.992	2043.82
455.365	2015.79
455.739	2073.42
456.112	2093.53
456.486	2164.94
456.859	2151.38
457.232	2190.03
457.606	2168.56
457.979	2223.7
458.352	2254.88
458.725	2269.57
459.099	2279.06
459.472	2307.76
459.845	2343.02
460.218	2366.29
460.591	2398.38
460.964	2382.11
461.337	2459.62
461.71	2482
462.083	2497.59
462.456	2520.64
462.829	2503.24
463.201	2559.96
463.574	2588.89
463.947	2632.95
464.32	2662.56
464.692	2657.13
465.065	2698.94
465.438	2751.37
465.81	2761.09
466.183	2744.81
466.555	2825.04
466.928	2881.08
467.3	2852.61
467.672	2893.96
468.045	2959.27
468.417	2961.76
468.789	2994.07
469.161	3013.96
469.534	3047.86
469.906	3100.51
470.278	3160.85
470.65	3158.82
471.022	3213.05
471.394	3267.74
471.766	3270.45
472.138	3320.62
472.51	3371.69
472.882	3400.62
473.253	3459.82
473.625	3548.64
473.997	3570.56
474.369	3624.11
474.74	3661.85
475.112	3719.93
475.484	3769.65
475.855	3846.93
476.227	3882.41
476.598	3988.4
476.97	4001.5
477.341	4061.39
477.713	4110.43
478.084	4180.03
478.455	4267.03
478.827	4318.33
479.198	4408.5
479.569	4479.23
479.94	4565.33
480.311	4623.18
480.682	4740.69
481.053	4806.23
481.424	4894.36
481.795	4911.76
482.166	5010.97
482.537	5038.31
482.908	5166.22
483.279	5220
483.65	5288.93
484.021	5427
484.391	5535.02
484.762	5503.16
485.133	5587.68
485.503	5752.65
485.874	5829.48
486.244	5888.24
486.615	6026.99
486.985	6036.93
487.356	6192.18
487.726	6246.87
488.097	6419.07
488.467	6420.2
488.837	6509.91
489.207	6647.09
489.578	6778.16
489.948	6773.86
490.318	6920.52
490.688	6970.92
491.058	7071.93
491.428	7203.68
491.798	7208.65
492.168	7396.9
492.538	7398.7
492.908	7553.28
493.278	7553.05
493.648	7703.1
494.017	7707.85
494.387	7851.12
494.757	7924.34
495.126	7959.14
495.496	7994.62
495.866	8140.61
496.235	8158.68
496.605	8307.38
496.974	8349.64
497.344	8479.58
497.713	8486.58
498.082	8575.62
498.452	8594.15
498.821	8666.24
499.19	8754.83
499.559	8803.19
499.928	8848.61
500.298	8892.45
500.667	8990.3
501.036	8994.37
501.405	9052.22
501.774	9122.27
502.143	9233.68
502.512	9306.68
502.88	9336.96
503.249	9376.96
503.618	9500.57
503.987	9452.66
504.356	9560.68
504.724	9597.97
505.093	9618.53
505.462	9659.89
505.83	9718.87
506.199	9891.75
506.567	9986.43
506.936	9985.08
507.304	10082.7
507.672	10117.95
508.041	10221.45
508.409	10237.27
508.777	10280.89
509.145	10388.23
509.514	10402.69
509.882	10416.93
510.25	10491.73
510.618	10636.13
510.986	10585.06
511.354	10790.7
511.722	10832.29
512.09	11027.08
512.458	10952.73
512.826	11058.49
513.193	11103.01
513.561	11173.29
513.929	11262.78
514.297	11359.05
514.664	11451.25
515.032	11495.32
515.4	11557.01
515.767	11617.8
516.135	11697.8
516.502	11763.33
516.869	11829.55
517.237	11989.77
517.604	11944.12
517.972	12187.73
518.339	12149.77
518.706	12267.95
519.073	12317.9
519.44	12344.79
519.808	12528.96
520.175	12658.68
520.542	12834.72
520.909	12850.54
521.276	12908.16
521.643	13128.72
522.009	13115.62
522.376	13278.55
522.743	13380.47
523.11	13575.04
523.477	13710.85
523.843	13706.11
524.21	13889.38
524.577	14038.3
524.943	14121.01
525.31	14187.68
525.676	14485.07
526.043	14522.81
526.409	14618.85
526.776	14761.45
527.142	14920.31
527.508	14977.94
527.874	15086.41
528.241	15178.39
528.607	15250.7
528.973	15452.96
529.339	15459.06
529.705	15664.02
530.071	15852.49
530.437	15929.33
530.803	16117.57
531.169	16159.83
531.535	16233.05
531.901	16310.33
532.267	16405.7
532.632	16514.17
532.998	16580.38
533.364	16773.37
533.73	16884.78
534.095	16961.84
534.461	16971.79
534.826	17094.04
535.192	17247.26
535.557	17441.6
535.923	17434.6
536.288	17526.35
536.653	17613.8
537.019	17653.35
537.384	17759.11
537.749	17821.71
538.114	17935.83
538.479	17917.52
538.845	18240.23
539.21	18089.5
539.575	18059.67
539.94	18209.04
540.305	18361.58
540.67	18412.65
541.034	18477.06
541.399	18574.68
541.764	18711.4
542.129	18640.89
542.494	18821.68
542.858	18933.32
543.223	18854.9
543.587	18996.36
543.952	19014.44
544.316	19155
544.681	19169.24
545.045	19268.67
545.41	19329.69
545.774	19385.73
546.138	19379.41
546.503	19521.1
546.867	19645.61
547.231	19764.48
547.595	19813.97
547.959	19985.94
548.324	19940.29
548.688	20071.36
549.052	20012.16
549.416	20171.48
549.779	20270.23
550.143	20317.01
550.507	20400.62
550.871	20445.59
551.235	20487.85
551.599	20701.63
551.962	20667.73
552.326	20945.92
552.689	20883.32
553.053	20879.25
553.417	21127.83
553.78	21220.71
554.143	21324.67
554.507	21406.25
554.87	21434.49
555.234	21689.85
555.597	21588.16
555.96	21722.85
556.323	21874.71
556.686	22023.18
557.05	22093.46
557.413	22100.92
557.776	22249.39
558.139	22490.96
558.502	22502.04
558.865	22586.1
559.228	22815.7
559.59	22877.17
559.953	22977.28
560.316	23290.49
560.679	23254.56
561.041	23481.44
561.404	23500.2
561.767	23786.75
562.129	23723.02
562.492	24034.2
562.854	24147.19
563.217	24294.08
563.579	24323.68
563.941	24687.74
564.304	24795.76
564.666	25062.19
565.028	25047.51
565.39	25292.24
565.753	25451.34
566.115	25613.59
566.477	25799.8
566.839	26016.52
567.201	26189.85
567.563	26236.63
567.925	26447.47
568.287	26616.5
568.648	26861.24
569.01	27013.78
569.372	27327.67
569.734	27445.86
570.095	27618.06
570.457	27876.58
570.819	27869.35
571.18	28042
571.542	28312.28
571.903	28528.09
572.265	28684.92
572.626	28804.69
572.987	28982.77
573.349	29146.61
573.71	29388.18
574.071	29564.22
574.432	29788.62
574.794	30009.86
575.155	30140.25
575.516	30115.62
575.877	30363.75
576.238	30510.41
576.599	30644.65
576.96	30791.54
577.32	30916.96
577.681	30996.05
578.042	31306.78
578.403	31408.69
578.763	31400.33
579.124	31503.83
579.485	31855.01
579.845	31941.56
580.206	31900.43
580.566	32072.63
580.927	32048.9
581.287	32330.7
581.648	32336.35
582.008	32542.68
582.368	32694.54
582.728	32783.12
583.089	32779.51
583.449	32940.41
583.809	33171.13
584.169	33328.42
584.529	33272.6
584.889	33646.83
585.249	33486.38
585.609	33631.46
585.969	34103.54
586.329	34102.18
586.688	34392.57
587.048	34530.65
587.408	34825.55
587.768	34817.87
588.127	35273.9
588.487	35443.39
588.846	35796.83
589.206	35740.11
589.565	36199.53
589.925	36591.83
590.284	36739.4
590.643	37171.71
591.003	37445.82
591.362	38076.32
591.721	38334.16
592.08	38585
592.44	39118.55
592.799	39435.6
593.158	39689.15
593.517	40128.24
593.876	40686.19
594.235	40929.8
594.593	41334.53
594.952	41947.4
595.311	42319.14
595.67	42713.03
596.029	43455.83
596.387	43874.13
596.746	44434.57
597.104	44588.01
597.463	45069.13
597.822	45841.53
598.18	45945.94
598.538	46429.54
598.897	47138.9
599.255	47207.37
599.613	48307.91
599.972	48413.9
600.33	48773.89
600.688	49275.57
601.046	49670.59
601.404	50340.85
601.762	50649.09
602.12	51155.75
602.478	51368.17
602.836	51814.03
603.194	51896.06
603.552	52371.08
603.91	52561.58
604.268	52984.62
604.625	53338.74
604.983	53714.77
605.341	53712.51
605.698	54357.92
606.056	54700.28
606.413	54805.82
606.771	55218.24
607.128	55405.58
607.485	55596.76
607.843	55839.01
608.2	56257.08
608.557	56502.5
608.914	56639.22
609.272	57010.05
609.629	57295.24
609.986	57548.8
610.343	57631.06
610.7	58099.97
611.057	58105.62
611.414	58261.55
611.771	58558.49
612.127	58745.38
612.484	58914.19
612.841	59148.53
613.198	59228.53
613.554	59409.99
613.911	59700.38
614.267	59905.35
614.624	59977.89
614.98	60240.03
615.337	60502.39
615.693	60608.83
616.05	60723.86
616.406	60906.9
616.762	61009.72
617.118	61168.59
617.475	61219.66
617.831	61436.83
618.187	61506.66
618.543	61725.64
618.899	61882.69
619.255	61968.12
619.611	62037.04
619.967	62186.19
620.323	62387.09
620.678	62309.12
621.034	62390.7
621.39	62524.03
621.746	62561.1
622.101	62926.06
622.457	62775.55
622.812	62957.47
623.168	63006.28
623.523	63009.44
623.879	63186.84
624.234	63179.38
624.589	63249.89
624.945	63333.5
625.3	63386.84
625.655	63436.1
626.01	63513.84
626.365	63505.7
626.72	63515.87
627.075	63509.77
627.43	63521.97
627.785	63521.97
628.14	63521.97
628.495	63521.97
628.85	63521.97
629.205	63521.97
629.559	63521.97
629.914	63521.97
630.269	63521.97
630.623	63521.97
630.978	63521.97
631.332	63521.97
631.687	63521.97
632.041	63521.97
632.396	63521.97
632.75	63521.97
633.104	63521.97
633.459	63521.97
633.813	63521.97
634.167	63521.97
634.521	63521.97
634.875	63521.97
635.229	63521.97
635.583	63521.97
635.937	63521.97
636.291	63521.97
636.645	63521.97
636.999	63521.97
637.352	63521.97
637.706	63521.97
638.06	63521.97
638.413	63521.97
638.767	63521.97
639.121	63521.97
639.474	63521.97
639.828	63521.97
640.181	63521.97
640.534	63521.97
640.888	63521.97
641.241	63521.97
641.594	63521.97
641.947	63521.97
642.301	63521.97
642.654	63521.97
643.007	63508.41
643.36	63521.97
643.713	63510.22
644.066	63521.97
644.419	63521.97
644.771	63332.15
645.124	63082.44
645.477	63114.75
645.83	63007.41
646.182	63023
646.535	62980.07
646.888	63058.94
647.24	62976.9
647.593	63069.33
647.945	62976.23
648.298	62907.53
648.65	62796.34
649.002	62701.43
649.355	62677.02
649.707	62583.47
650.059	62614.65
650.411	62879.05
650.763	62991.59
651.115	63362.43
651.467	63266.61
651.819	63280.85
652.171	63271.36
652.523	63168.54
652.875	63196.56
653.227	63106.17
653.578	63244.24
653.93	63149.78
654.282	63036.56
654.633	63053.29
654.985	63122.44
655.337	63110.91
655.688	63046.05
656.039	63146.62
656.391	62881.09
656.742	62938.49
657.094	62959.73
657.445	63012.61
657.796	62983.23
658.147	62950.69
658.498	62918.6
658.849	63037.69
659.2	62979.84
659.551	62895.1
659.902	63087.86
660.253	62881.09
660.604	62981.65
660.955	62848.77
661.306	63041.31
661.656	62930.12
662.007	62952.05
662.358	62960.41
662.708	62946.4
663.059	62877.25
663.409	62840.86
663.76	62964.02
664.11	62932.84
664.461	62977.36
664.811	62965.38
665.161	62955.21
665.511	62862.56
665.862	62938.03
666.212	62935.32
666.562	62997.47
666.912	62892.61
667.262	62869.79
667.612	62842.22
667.962	62863.69
668.312	62802.22
668.662	62954.76
669.011	62957.24
669.361	62849.9
669.711	62831.6
670.06	62830.01
670.41	62773.52
670.76	62775.55
671.109	62892.61
671.459	62778.04
671.808	62785.27
672.157	62814.65
672.507	62694.88
672.856	62701.43
673.205	62734.65
673.554	62801.31
673.904	62703.46
674.253	62936
674.602	62750.69
674.951	62474.32
675.3	62332.63
675.649	62708.44
675.998	62698.72
676.346	62745.95
676.695	62764.48
677.044	62582.56
677.393	62696.01
677.741	62743.01
678.09	62609.46
678.438	62559.74
678.787	62602
679.135	62576.01
679.484	62478.16
679.832	62534.2
680.181	62437.71
680.529	62492.62
680.877	62411.49
681.225	62349.8
681.573	62554.54
681.922	62410.82
682.27	62352.29
682.618	62331.95
682.966	62302.57
683.314	62340.76
683.661	62265.28
684.009	62183.03
684.357	62138.06
684.705	62081.11
685.053	62137.83
685.4	62000.43
685.748	61893.32
686.095	61905.97
686.443	61817.16
686.79	61841.57
687.138	61865.75
687.485	61879.53
687.832	61728.57
688.18	61735.81
688.527	61602.25
688.874	61607.22
689.221	61575.36
689.568	61469.37
689.915	61352.31
690.262	61397.51
690.609	61391.63
690.956	61259.21
691.303	61213.56
691.65	61114.13
691.997	61132.66
692.344	60975.37
692.69	61018.08
693.037	60946.9
693.383	60737.19
693.73	60817.86
694.077	60650.86
694.423	60655.38
694.769	60548.49
695.116	60523.63
695.462	60458.1
695.808	60429.4
696.155	60400.47
696.501	60215.62
696.847	60304.43
697.193	60110.09
697.539	60124.1
697.885	59983.76
698.231	59944.21
698.577	59908.96
698.923	59886.82
699.269	59683.88
699.614	59575.41
699.96	59574.96
700.306	59542.64
700.651	59442.53
700.997	59372.03
701.342	59273.5
701.688	59259.04
702.033	59149.66
702.379	59135.65
702.724	59002.09
703.069	59074.41
703.415	58776.56
703.76	58734.98
704.105	58833.06
704.45	58688.88
704.795	58551.48
705.14	58491.82
705.485	58603.01
705.83	58371.83
706.175	58379.51
706.52	58382.45
706.865	58166.63
707.209	58150.36
707.554	58101.1
707.899	58088.67
708.243	57934.78
708.588	57955.11
708.932	57813.88
709.277	57853.87
709.621	57735.91
709.966	57608.91
710.31	57671.96
710.654	57505.18
710.998	57572.07
711.342	57602.58
711.687	57443.94
712.031	57317.84
712.375	57277.17
712.719	57201.69
713.063	57133.44
713.407	57281.01
713.75	57159.88
714.094	57148.81
714.438	56989.72
714.782	57046.21
715.125	56875.59
715.469	57036.49
715.812	56745.65
716.156	56735.26
716.499	56725.32
716.843	56762.38
717.186	56606
717.53	56707.01
717.873	56693.9
718.216	56582.72
718.559	56538.43
718.902	56321.03
719.246	56331.43
719.589	56279.45
719.932	56265.67
720.275	56243.52
720.617	56287.36
720.96	56103.64
721.303	56119.91
721.646	56185.67
721.989	55949.52
722.331	56054.37
722.674	55949.07
723.016	55891.21
723.359	55862.97
723.701	55879.91
724.044	55786.36
724.386	55690.77
724.729	55742.29
725.071	55711.78
725.413	55715.85
725.755	55722.63
726.097	55583.65
726.439	55539.81
726.782	55453.49
727.124	55527.16
727.465	55431.11
727.807	55346.14
728.149	55418.91
728.491	55238.58
728.833	55321.74
729.175	55223.43
729.516	55158.8
729.858	55158.8
730.199	55215.98
730.541	55106.38
730.882	55055.98
731.224	55030.9
731.565	54973.5
731.906	54936.44
732.248	54996.32
732.589	54766.95
732.93	54757.68
733.271	54816.89
733.612	54658.7
733.953	54821.86
734.294	54593.17
734.635	54536.9
734.976	54684.47
735.317	54556.11
735.658	54445.38
735.999	54457.35
736.339	54435.21
736.68	54456.22
737.021	54290.8
737.361	54251.03
737.702	54474.75
738.042	54300.52
738.383	54208.09
738.723	54301.65
739.063	54177.13
739.404	54228.43
739.744	54077.93
740.084	54101.2
740.424	54136.68
740.764	54088.55
741.104	54201.31
741.444	53948.44
741.784	53898.27
742.124	53929.23
742.464	53975.56
742.804	53782.57
743.143	53728.56
743.483	53897.59
743.823	53711.38
744.162	53663.25
744.502	53798.61
744.841	53617.38
745.181	53792.51
745.52	53545.96
745.86	53616.25
746.199	53525.85
746.538	53512.75
746.877	53529.47
747.216	53539.41
747.556	53429.13
747.895	53426.87
748.234	53366.53
748.573	53315.46
748.911	53202.02
749.25	53232.07
749.589	53098.29
749.928	53219.87
750.267	53163.83
750.605	53090.61
750.944	53063.27
751.283	52990.95
751.621	52978.75
751.96	52758.87
752.298	52855.14
752.636	52805.42
752.975	52673.9
753.313	52667.34
753.651	52687.91
753.989	52521.81
754.327	52648.14
754.666	52303.29
755.004	52560
755.342	52392.32
755.679	52412.44
756.017	52203.18
756.355	52278.2
756.693	52188.26
757.031	52139.9
757.368	51951.88
757.706	51966.57
758.044	51837.31
758.381	51884.99
758.719	51724.09
759.056	51693.81
759.394	51636.41
759.731	51391.45
760.068	51390.09
760.405	51398.9
760.743	51194.39
761.08	51329.75
761.417	51027.61
761.754	50906.94
762.091	50917.11
762.428	50667.4
762.765	50557.79
763.102	50573.39
763.438	50438.25
763.775	50238.03
764.112	50260.4
764.449	50254.98
764.785	50116.22
765.122	49807.76
765.458	49778.38
765.795	49714.88
766.131	49635.56
766.467	49527.09
766.804	49360.99
767.14	49207.32
767.476	49091.62
767.812	49054.33
768.148	49041
768.485	48789.03
768.821	48615.93
769.157	48451.18
769.492	48345.88
769.828	48357.17
770.164	48020.23
770.5	47947.92
770.836	47878.54
771.171	47718.32
771.507	47578.66
771.842	47344.09
772.178	47273.59
772.513	47232.91
772.849	47026.81
773.184	46937.55
773.519	46767.16
773.855	46653.26
774.19	46500.05
774.525	46433.38
774.86	46328.53
775.195	46180.73
775.53	45885.38
775.865	45739.62
776.2	45412.17
776.535	45268.44
776.87	45237.03
777.205	45016.47
777.539	44771.96
777.874	44874.55
778.209	44568.35
778.543	44628.46
778.878	44331.52
779.212	44325.87
779.547	43937.4
779.881	43982.6
780.215	43648.15
780.55	43836.84
780.884	43380.81
781.218	43345.56
781.552	43304.65
781.886	43187.37
782.22	42919.8
782.554	42674.39
782.888	42334.51
783.222	42288.18
783.556	42083.22
783.889	41922.99
784.223	41816.33
784.557	41808.42
784.89	41934.07
785.224	41421.76
785.557	41304.48
785.891	41232.16
786.224	41199.17
786.558	41119.17
786.891	40876.69
787.224	40611.84
787.557	40518.51
787.891	40504.05
788.224	40255.47
788.557	40118.97
788.89	40047.56
789.223	40093.44
789.556	39721.47
789.888	39637.18
790.221	39448.48
790.554	39281.03
790.887	39240.58
791.219	39145.89
791.552	38847.82
791.884	38746.58
792.217	38839.01
792.549	38535.06
792.882	38153.6
793.214	38116.54
793.546	38110.44
793.879	37989.09
794.211	37729.43
794.543	37987.05
794.875	37712.93
795.207	37582.99
795.539	37536.44
795.871	37478.82
796.203	37287.18
796.535	36968.77
796.867	36966.97
797.198	36681.55
797.53	36665.73
797.862	36546.19
798.193	36562.46
798.525	36359.52
798.856	36452.18
799.188	35998.63
799.519	35904.62
799.85	35871.18
800.182	35897.84
800.513	35779.2
800.844	35385.54
801.175	35599.54
801.506	35617.4
801.837	35407.01
802.168	35274.13
802.499	35299.89
802.83	34988.03
803.161	34837.53
803.491	34845.44
803.822	34837.98
804.153	34723.41
804.483	34406.36
804.814	34308.5
805.145	34392.8
805.475	34367.26
805.805	34145.8
806.136	34137.44
806.466	34009.76
806.796	33838.46
807.126	33621.97
807.457	33789.87
807.787	33684.34
808.117	33583.1
808.447	33430.11
808.777	33539.94
809.107	33149.67
809.436	33107.41
809.766	33029.44
810.096	33185.14
810.426	32904.02
810.755	32947.18
811.085	32798.71
811.414	32962.55
811.744	32618.15
812.073	32559.85
812.403	32422
812.732	32281.44
813.061	32462
813.39	32170.03
813.719	32103.14
814.049	32227.43
814.378	32066.76
814.707	31898.62
815.036	32011.39
815.365	31726.65
815.693	31562.14
816.022	31534.79
816.351	31389.94
816.68	31248.92
817.008	31360.33
817.337	31151.53
817.665	31187
817.994	31089.38
818.322	31247.12
818.651	31041.7
818.979	30838.99
819.307	30813
819.636	30809.16
819.964	30853.91
820.292	30720.8
820.62	30788.6
820.948	30748.37
821.276	30789.28
821.604	30674.7
821.932	30864.08
822.259	30642.39
822.587	30637.19
822.915	30565.33
823.243	30650.75
823.57	30492.33
823.898	30678.54
824.225	30580.02
824.553	30580.24
824.88	30613.91
825.207	30624.08
825.535	30385.9
825.862	30610.97
826.189	30459.34
826.516	30790.86
826.843	30677.41
827.17	30846.67
827.497	30648.26
827.824	30603.74
828.151	30700.01
828.478	30449.17
828.805	30646.45
829.131	30599.9
829.458	30494.59
829.785	30387.48
830.111	30581.82
830.438	30738.88
830.764	30548.15
831.09	30608.26
831.417	30486.68
831.743	30582.95
832.069	30446.69
832.395	30305.45
832.722	30499.57
833.048	30402.17
833.374	30467.25
833.7	30314.71
834.026	30480.58
834.351	30287.59
834.677	30443.75
835.003	30323.3
835.329	30246.24
835.654	30234.04
835.98	30029.75
836.306	30195.17
836.631	30102.06
836.956	30160.14
837.282	30203.98
837.607	30102.06
837.932	29999.92
838.258	29831.79
838.583	29923.76
838.908	29854.16
839.233	30021.16
839.558	29732.13
839.883	29756.76
840.208	29663.66
840.533	29661.62
840.858	29589.31
841.182	29623.43
841.507	29524
841.832	29511.34
842.156	29419.82
842.481	29282.2
842.805	29379.14
843.13	29176.44
843.454	29232.71
843.778	29018.47
844.103	28985.71
844.427	28933.28
844.751	29100.28
845.075	28937.35
845.399	28755.2
845.723	28579.84
846.047	28679.73
846.371	28396.57
846.695	28216.69
847.019	28314.99
847.343	28118.61
847.666	27974.89
847.99	28050.59
848.313	27723.59
848.637	27762.69
848.96	27653.31
849.284	27626.19
849.607	27420.78
849.931	27476.59
850.254	27240.22
850.577	27040.45
850.9	26896.5
851.223	26867.12
851.546	26726.78
851.869	26579.22
852.192	26812.88
852.515	26395.27
852.838	26350.75
853.161	26430.07
853.483	26141.49
853.806	26089.51
854.129	26095.16
854.451	26047.7
854.774	25774.27
855.096	25786.02
855.419	25749.86
855.741	25617.66
856.063	25531.11
856.385	25430.09
856.708	25288.18
857.03	25264.45
857.352	25301.96
857.674	25178.35
857.996	25033.72
858.318	24832.14
858.64	24957.56
858.961	24842.76
859.283	24809.32
859.605	24610.23
859.926	24598.93
860.248	24523.23
860.57	24444.36
860.891	24396.67
861.212	24275.1
861.534	24276.23
861.855	24126.17
862.176	24115.55
862.498	24237.58
862.819	24158.72
863.14	24120.07
863.461	23996.91
863.782	23962.79
864.103	24012.96
864.424	23935.44
864.745	23937.93
865.065	23650.25
865.386	23631.72
865.707	23831.04
866.027	23649.35
866.348	23699.97
866.668	23618.16
866.989	23601.44
867.309	23344.95
867.63	23350.83
867.95	23557.15
868.27	23277.61
868.59	23363.03
868.91	23329.36
869.23	23283.48
869.55	23227.67
869.87	23202.13
870.19	23028.58
870.51	23189.7
870.83	23095.69
871.15	23013.66
871.469	22983.83
871.789	23098.63
872.109	22980.44
872.428	22730.28
872.748	22890.05
873.067	22852.76
873.386	22865.42
873.706	22826.09
874.025	22658.42
874.344	22646.89
874.663	22603.5
874.982	22626.33
875.301	22563.05
875.62	22565.31
875.939	22431.98
876.258	22444.18
876.577	22325.09
876.896	22386.11
877.214	22367.35
877.533	22386.78
877.852	22242.38
878.17	22199.67
878.489	22312.89
878.807	22151.54
879.125	22057.08
879.444	22068.15
879.762	22056.62
880.08	22151.99
880.398	21949.28
880.716	21893.92
881.034	21887.81
881.352	21867.25
881.67	21677.42
881.988	21758.1
882.306	21607.37
882.624	21643.53
882.941	21540.25
883.259	21488.28
883.577	21522.85
883.894	21405.79
884.212	21375.74
884.529	21263.88
884.846	21239.7
885.164	21161.51
885.481	21102.98
885.798	21197.66
886.115	21027.05
886.432	20980.04
886.75	21026.82
887.067	20941.85
887.383	20874.06
887.7	20876.32
888.017	20677.68
888.334	20711.12
888.651	20591.13
888.967	20587.96
889.284	20541.41
889.6	20440.62
889.917	20407.63
890.233	20395.2
890.55	20280.17
890.866	20333.28
891.182	20144.58
891.498	20129.22
891.815	20022.33
892.131	19947.07
892.447	19956.11
892.763	19862.56
893.079	19879.51
893.395	19800.64
893.71	19819.62
894.026	19693.3
894.342	19721.77
894.657	19402.91
894.973	19467.31
895.289	19404.04
895.604	19369.91
895.92	19244.49
896.235	19265.28
896.55	19101.45
896.865	19157.49
897.181	19011.73
897.496	18999.3
897.811	18934.9
898.126	18882.92
898.441	18803.6
898.756	18863.26
899.071	18577.17
899.386	18765.64
899.7	18417.4
900.015	18466.66
900.33	18244.97
900.644	18271.64
900.959	18298.3
901.273	18159.32
901.588	18155.03
901.902	18116.16
902.216	17914.59
902.531	18040.68
902.845	17920.91
903.159	17730.18
903.473	17698.09
903.787	17693.8
904.101	17574.26
904.415	17566.57
904.729	17516.63
905.042	17467.14
905.356	17402.51
905.67	17300.14
905.984	17198.9
906.297	17204.1
906.611	17032.57
906.924	17023.54
907.237	16905.35
907.551	16919.13
907.864	16794.39
908.177	16813.82
908.491	16733.6
908.804	16678.01
909.117	16536.77
909.43	16450.67
909.743	16419.94
910.056	16363.89
910.368	16201.64
910.681	16235.31
910.994	16112.15
911.307	16008.65
911.619	15976.11
911.932	15989.21
912.244	15812.95
912.557	15813.85
912.869	15677.13
913.181	15633.06
913.494	15594.65
913.806	15447.76
914.118	15487.08
914.43	15369.12
914.742	15351.94
915.054	15302
915.366	15174.09
915.678	15162.79
915.99	15072.17
916.302	15022.46
916.613	14976.36
916.925	14994.21
917.236	14892.74
917.548	14837.38
917.859	14770.71
918.171	14675.8
918.482	14499.31
918.794	14598.51
919.105	14530.72
919.416	14470.16
919.727	14394.9
920.038	14365.3
920.349	14258.64
920.66	14238.52
920.971	14187.68
921.282	14094.57
921.593	13995.59
921.903	14017.96
922.214	13910.85
922.525	13853.9
922.835	13746.79
923.146	13725.09
923.456	13598.09
923.767	13551.99
924.077	13564.87
924.387	13504.08
924.697	13386.57
925.008	13307.7
925.318	13296.4
925.628	13291.88
925.938	13248.49
926.248	13100.02
926.558	13043.98
926.867	12975.05
927.177	12977.31
927.487	12886.02
927.796	12799.24
928.106	12825
928.416	12756.53
928.725	12774.61
929.034	12693.25
929.344	12654.84
929.653	12647.83
929.962	12415.97
930.271	12418.23
930.581	12439.02
930.89	12290.55
931.199	12220.27
931.508	12218.92
931.817	12143.89
932.125	12104.79
932.434	12108.86
932.743	11965.36
933.051	11902.77
933.36	11916.78
933.669	11815.31
933.977	11741.87
934.286	11757.69
934.594	11709.1
934.902	11637.69
935.21	11564.24
935.519	11481.53
935.827	11467.98
936.135	11347.98
936.443	11327.41
936.751	11224.37
937.059	11244.25
937.367	11266.17
937.674	11202.22
937.982	11122.45
938.29	11060.08
938.597	11086.06
938.905	10966.29
939.213	10897.14
939.52	10899.63
939.827	10883.36
940.135	10772.17
940.442	10688.56
940.749	10690.82
941.056	10712.51
941.363	10598.17
941.67	10588.9
941.977	10569.24
942.284	10489.02
942.591	10467.78
942.898	10409.47
943.205	10353.2
943.511	10283.6
943.818	10219.19
944.125	10178.97
944.431	10128.12
944.738	10098.07
945.044	10078.41
945.35	10098.29
945.657	9942.59
945.963	9880.67
946.269	9905.08
946.575	9872.99
946.881	9742.82
947.187	9734.46
947.493	9646.33
947.799	9635.48
948.105	9647.68
948.41	9496.95
948.716	9546.44
949.022	9472.55
949.327	9490.4
949.633	9342.83
949.938	9366.79
950.244	9351.42
950.549	9230.97
950.854	9176.96
951.16	9156.85
951.465	9110.75
951.77	9107.81
952.075	9084.08
952.38	9053.35
952.685	8936.06
952.99	8825.78
953.294	8877.53
953.599	8837.76
953.904	8809.97
954.209	8708.27
954.513	8800.93
954.818	8651.55
955.122	8751.66
955.426	8637.54
955.731	8543.76
956.035	8546.47
956.339	8493.14
956.643	8498.34
956.948	8387.38
957.252	8388.73
957.556	8376.31
957.86	8250.88
958.163	8230.77
958.467	8301.28
958.771	8184.67
959.075	8151.68
959.378	8081.62
959.682	8079.14
959.985	8077.56
960.289	7959.37
960.592	7982.64
960.896	7905.58
961.199	7890.22
961.502	7916.43
961.805	7895.87
962.108	7781.74
962.411	7707.17
962.714	7678.02
963.017	7621.75
963.32	7647.96
963.623	7583.56
963.926	7562.32
964.228	7546.04
964.531	7486.84
964.833	7472.6
965.136	7406.39
965.438	7396.67
965.741	7389.21
966.043	7374.3
966.345	7271.48
966.648	7313.28
966.95	7244.36
967.252	7200.97
967.554	7140.86
967.856	7124.81
968.158	7073.97
968.46	7040.52
968.761	7046.17
969.063	7008.21
969.365	6965.27
969.666	6940.86
969.968	6902.9
970.269	6836.46
970.571	6819.51
970.872	6760.75
971.174	6771.38
971.475	6766.18
971.776	6675.56
972.077	6715.11
972.378	6655.45
972.679	6636.69
972.98	6682.79
973.281	6627.65
973.582	6551.95
973.883	6493.42
974.183	6433.08
974.484	6437.15
974.785	6382.23
975.085	6402.12
975.386	6422.01
975.686	6377.94
975.986	6282.12
976.287	6276.47
976.587	6215.91
976.887	6169.81
977.187	6156.93
977.487	6145.18
977.787	6111.51
978.087	6089.36
978.387	6059.3
978.687	6056.59
978.987	5991.74
979.286	5975.46
979.586	6016.82
979.885	5928.69
980.185	5870.38
980.484	5860.67
980.784	5789.93
981.083	5800.1
981.382	5751.74
981.682	5783.6
981.981	5775.02
982.28	5723.04
982.579	5685.08
982.878	5665.42
983.177	5655.25
983.475	5658.86
983.774	5579.32
984.073	5536.83
984.372	5452.09
984.67	5480.79
984.969	5477.85
985.267	5470.84
985.566	5420.9
985.864	5410.73
986.162	5371.64
986.461	5359.66
986.759	5323.96
987.057	5247.12
987.355	5239.66
987.653	5190.17
987.951	5218.42
988.249	5213.45
988.547	5144.53
988.844	5126.45
989.142	5095.04
989.44	5127.8
989.737	5102.27
990.035	5061.14
990.332	4960.12
990.63	5002.83
990.927	4994.02
991.224	4981.59
991.521	4911.76
991.819	4916.74
992.116	4870.18
992.413	4870.18
992.71	4825.44
993.006	4835.83
993.303	4791.77
993.6	4730.07
993.897	4719.68
994.193	4723.07
994.49	4706.57
994.787	4715.84
995.083	4579.79
995.379	4611.66
995.676	4645.78
995.972	4540.93
996.268	4553.81
996.565	4514.71
996.861	4464.54
997.157	4487.59
997.453	4494.6
997.749	4418.67
998.044	4393.36
998.34	4368.73
998.636	4365.34
998.932	4343.87
999.227	4315.85
999.523	4276.07
999.818	4246.92
1000.114	4283.31
1000.409	4178
1000.704	4187.49
1001	4191.56
1001.295	4117.66
1001.59	4088.96
1001.885	4088.51
1002.18	4036.98
1002.475	4047.38
1002.77	4070.43
1003.065	4046.02
1003.359	3997.21
1003.654	3940.04
1003.949	3898.91
1004.243	3922.86
1004.538	3864.56
1004.832	3894.84
1005.127	3863.43
1005.421	3810.78
1005.715	3791.57
1006.009	3796.76
1006.304	3756.54
1006.598	3699.82
1006.892	3732.81
1007.186	3648.07
1007.48	3660.95
1007.773	3616.43
1008.067	3580.05
1008.361	3566.94
1008.655	3573.95
1008.948	3518.13
1009.242	3542.99
1009.535	3500.5
1009.829	3504.57
1010.122	3463.67
1010.415	3427.06
1010.708	3385.02
1011.001	3370.79
1011.295	3364.46
1011.588	3360.17
1011.881	3342.31
1012.173	3291.02
1012.466	3273.39
1012.759	3321.52
1013.052	3227.06
1013.344	3230
1013.637	3190.45
1013.93	3170.57
1014.222	3150.45
1014.514	3129.66
1014.807	3105.94
1015.099	3048.99
1015.391	3068.87
1015.683	3058.03
1015.976	3030.23
1016.268	2947.75
1016.56	2988.2
1016.851	2960.63
1017.143	2961.53
1017.435	2923.12
1017.727	2895.55
1018.018	2919.73
1018.31	2878.6
1018.602	2873.4
1018.893	2805.83
1019.185	2809.9
1019.476	2750.01
1019.767	2743.91
1020.058	2743.46
1020.35	2728.09
1020.641	2714.99
1020.932	2696.68
1021.223	2681.54
1021.514	2670.47
1021.804	2604.93
1022.095	2616
1022.386	2607.64
1022.677	2597.93
1022.967	2552.96
1023.258	2525.16
1023.548	2502.79
1023.839	2521.09
1024.129	2493.07
1024.419	2472.51
1024.709	2467.99
1025	2431.6
1025.29	2418.04
1025.58	2439.29
1025.87	2380.98
1026.16	2345.28
1026.449	2336.69
1026.739	2343.24
1027.029	2287.88
1027.319	2330.59
1027.608	2285.17
1027.898	2270.03
1028.187	2223.7
1028.477	2233.64
1028.766	2205.17
1029.055	2192.29
1029.344	2209.91
1029.634	2161.1
1029.923	2153.87
1030.212	2123.59
1030.501	2128.33
1030.79	2079.97
1031.078	2096.02
1031.367	2057.38
1031.656	2019.18
1031.945	2016.47
1032.233	2001.33
1032.522	1999.52
1032.81	1998.17
1033.099	1972.18
1033.387	1964.27
1033.675	1972.18
1033.963	1920.2
1034.251	1918.85
1034.54	1888.11
1034.828	1914.1
1035.116	1900.32
1035.403	1863.71
1035.691	1824.84
1035.979	1866.87
1036.267	1841.34
1036.554	1802.47
1036.842	1806.76
1037.129	1790.04
1037.417	1774.9
1037.704	1768.57
1037.992	1736.71
1038.279	1703.49
1038.566	1739.19
1038.853	1739.19
1039.14	1739.19
