Data from 199_FLMS001491_003.txt Node
Date: Thu Apr 19 16:32:55 BST 2018
User: hsy
Spectrometer: FLMS00149
Trigger mode: 0
Integration Time (sec): 1.000000E-2
Scans to average: 10
Electric dark correction enabled: true
Nonlinearity correction enabled: false
Boxcar width: 0
XAxis mode: Wavelengths
Number of Pixels in Spectrum: 2048
>>>>>Begin Spectral Data<<<<<
341.393	12.25
341.776	12.25
342.16	12.25
342.543	-65.49
342.927	-68.66
343.31	-77.7
343.693	-70.46
344.077	-62.55
344.46	-68.66
344.843	-61.42
345.226	-39.5
345.61	-26.62
345.993	-10.58
346.376	0.72
346.759	7.27
347.142	19.48
347.525	23.77
347.908	57.89
348.291	81.17
348.674	108.51
349.057	118.68
349.44	138.12
349.823	152.58
350.206	198.91
350.588	236.65
350.971	262.63
351.354	274.84
351.737	301.28
352.119	295.18
352.502	319.36
352.884	342.63
353.267	336.76
353.65	333.59
354.032	342.18
354.414	347.38
354.797	378.34
355.179	376.08
355.562	397.55
355.944	386.47
356.326	419.92
356.709	378.11
357.091	388.96
357.473	391.67
357.855	423.99
358.238	407.49
358.62	379.92
359.002	395.06
359.384	425.57
359.766	396.87
360.148	399.13
360.53	421.27
360.912	423.31
361.294	393.93
361.676	397.32
362.057	402.97
362.439	399.58
362.821	400.71
363.203	399.13
363.584	405
363.966	381.05
364.348	397.32
364.729	386.92
365.111	414.95
365.493	402.52
365.874	398.45
366.256	378.56
366.637	398.22
367.019	396.87
367.4	400.94
367.781	381.95
368.163	390.77
368.544	406.36
368.925	394.38
369.306	413.36
369.688	416.08
370.069	387.38
370.45	403.65
370.831	415.17
371.212	393.48
371.593	370.43
371.974	389.18
372.355	391.67
372.736	419.47
373.117	392.8
373.498	402.74
373.879	372.69
374.26	416.08
374.641	391.67
375.021	381.73
375.402	428.73
375.783	442.74
376.163	445.68
376.544	426.47
376.925	424.89
377.305	445.91
377.686	445.23
378.066	426.02
378.447	431.9
378.827	423.76
379.208	441.16
379.588	429.64
379.968	460.37
380.349	448.17
380.729	448.84
381.109	456.75
381.489	456.98
381.87	448.62
382.25	443.19
382.63	449.97
383.01	472.57
383.39	463.76
383.77	451.1
384.15	459.24
384.53	486.58
384.91	474.15
385.29	481.61
385.67	496.07
386.049	487.49
386.429	482.06
386.809	479.58
387.189	485.68
387.568	494.72
387.948	504.44
388.328	504.89
388.707	497.43
389.087	493.36
389.466	500.37
389.846	492.46
390.225	532.68
390.605	527.94
390.984	540.82
391.363	517.54
391.743	546.69
392.122	534.94
392.501	540.82
392.881	557.09
393.26	533.81
393.639	539.01
394.018	573.13
394.397	576.52
394.776	560.03
395.155	556.64
395.534	560.48
395.913	567.26
396.292	565.9
396.671	599.57
397.05	579.01
397.429	556.64
397.808	587.6
398.186	611.55
398.565	610.2
398.944	600.7
399.323	613.36
399.701	620.82
400.08	616.3
400.458	616.52
400.837	637.09
401.215	624.66
401.594	641.16
401.972	643.19
402.351	666.92
402.729	655.17
403.107	636.18
403.486	650.65
403.864	657.88
404.242	638.67
404.62	653.81
404.999	684.54
405.377	680.7
405.755	700.36
406.133	700.81
406.511	677.99
406.889	705.79
407.267	706.01
407.645	717.31
408.023	739.68
408.401	701.27
408.779	729.51
409.156	741.72
409.534	738.33
409.912	761.38
410.29	769.51
410.667	766.8
411.045	749.85
411.422	775.39
411.8	805.9
412.178	813.13
412.555	817.42
412.933	842.51
413.31	847.48
413.687	844.77
414.065	862.84
414.442	845.22
414.819	852
415.197	890.87
415.574	887.93
415.951	911.2
416.328	873.69
416.705	888.38
417.082	901.26
417.46	919.11
417.837	903.97
418.214	924.09
418.591	927.7
418.967	937.42
419.344	938.55
419.721	946.91
420.098	939
420.475	969.96
420.852	995.27
421.228	974.93
421.605	989.39
421.982	1000.47
422.358	1005.21
422.735	1003.41
423.111	1009.28
423.488	1027.36
423.864	1063.74
424.241	1061.71
424.617	1060.35
424.994	1062.61
425.37	1102.39
425.746	1096.74
426.123	1079.56
426.499	1091.77
426.875	1115.04
427.251	1106.91
427.627	1142.16
428.003	1190.29
428.379	1164.53
428.756	1189.84
429.132	1191.88
429.507	1173.12
429.883	1219.9
430.259	1212.44
430.635	1254.25
431.011	1263.74
431.387	1295.15
431.763	1291.31
432.138	1310.06
432.514	1311.19
432.89	1317.07
433.265	1368.37
433.641	1362.72
434.016	1368.37
434.392	1416.73
434.767	1405.43
435.143	1426.22
435.518	1458.31
435.894	1443.39
436.269	1488.14
436.644	1501.25
437.02	1511.64
437.395	1494.92
437.77	1548.48
438.145	1543.28
438.52	1551.41
438.895	1580.79
439.271	1573.79
439.646	1587.35
440.021	1595.48
440.395	1616.05
440.77	1569.94
441.145	1602.71
441.52	1631.64
441.895	1642.49
442.27	1682.03
442.645	1637.97
443.019	1677.51
443.394	1682.26
443.769	1693.11
444.143	1693.56
444.518	1724.74
444.892	1722.48
445.267	1715.7
445.641	1744.18
446.016	1752.09
446.39	1780.79
446.764	1774.91
447.139	1774.68
447.513	1781.92
447.887	1774.68
448.262	1813.55
448.636	1832.99
449.01	1866.43
449.384	1876.6
449.758	1868.24
450.132	1893.55
450.506	1907.11
450.88	1917.28
451.254	1913.89
451.628	1954.12
452.002	1958.86
452.376	2004.28
452.75	1989.14
453.123	2035.24
453.497	2034.34
453.871	2076.82
454.244	2112.76
454.618	2123.38
454.992	2140.1
455.365	2155.47
455.739	2185.52
456.112	2195.92
456.486	2202.47
456.859	2268.91
457.232	2287.44
457.606	2289.02
457.979	2329.92
458.352	2375.57
458.725	2397.04
459.099	2390.26
459.472	2439.75
459.845	2482.24
460.218	2494.89
460.591	2503.93
460.964	2555.68
461.337	2597.49
461.71	2594.55
462.083	2648.56
462.456	2649.69
462.829	2715.45
463.201	2754.77
463.574	2757.26
463.947	2784.38
464.32	2799.74
464.692	2818.95
465.065	2859.85
465.438	2842.68
465.81	2926.29
466.183	2949.12
466.555	2985.27
466.928	3053.07
467.3	2991.83
467.672	3056.69
468.045	3148.66
468.417	3106.18
468.789	3133.97
469.161	3187.98
469.534	3256.91
469.906	3267.98
470.278	3319.05
470.65	3338.49
471.022	3383.23
471.394	3426.84
471.766	3464.81
472.138	3544.13
472.51	3598.82
472.882	3637.23
473.253	3670
473.625	3709.32
473.997	3770.11
474.369	3806.72
474.74	3832.48
475.112	3925.14
475.484	3945.48
475.855	4013.5
476.227	4112.7
476.598	4159.03
476.97	4214.62
477.341	4306.82
477.713	4330.1
478.084	4411.9
478.455	4469.53
478.827	4537.55
479.198	4702.74
479.569	4706.13
479.94	4840.82
480.311	4822.06
480.682	4956.52
481.053	5071.32
481.424	5130.08
481.795	5200.58
482.166	5249.17
482.537	5372.33
482.908	5496.17
483.279	5544.76
483.65	5612.1
484.021	5722.15
484.391	5764.41
484.762	5880.79
485.133	5925.31
485.503	6044.4
485.874	6127.56
486.244	6169.6
486.615	6314
486.985	6442.81
487.356	6522.58
487.726	6611.62
488.097	6789.02
488.467	6799.86
488.837	6964.83
489.207	6973.87
489.578	7161.21
489.948	7174.99
490.318	7308.1
490.688	7308.32
491.058	7513.97
491.428	7583.57
491.798	7646.17
492.168	7797.8
492.538	7848.42
492.908	7959.38
493.278	8066.04
493.648	8134.29
494.017	8241.63
494.387	8265.36
494.757	8369.31
495.126	8499.93
495.496	8523.21
495.866	8610.66
496.235	8656.99
496.605	8765.69
496.974	8889.98
497.344	8946.7
497.713	9069.86
498.082	9044.32
498.452	9157.09
498.821	9205
499.19	9197.99
499.559	9364.54
499.928	9447.25
500.298	9436.18
500.667	9555.5
501.036	9527.93
501.405	9637.08
501.774	9658.32
502.143	9783.97
502.512	9859.67
502.88	9913.91
503.249	9933.11
503.618	9991.42
503.987	10078.42
504.356	10154.13
504.724	10197.06
505.093	10246.55
505.462	10233.45
505.83	10237.06
506.199	10395.02
506.567	10552.31
506.936	10585.07
507.304	10667.33
507.672	10598.63
508.041	10794.33
508.409	10851.73
508.777	10905.74
509.145	10958.17
509.514	10963.14
509.882	11157.04
510.25	11141.67
510.618	11216.24
510.986	11288.56
511.354	11313.19
511.722	11546.63
512.09	11534.2
512.458	11559.96
512.826	11692.84
513.193	11689.68
513.561	11870.24
513.929	11956.11
514.297	11991.37
514.664	12079.05
515.032	12164.24
515.4	12273.39
515.767	12341.19
516.135	12406.95
516.502	12352.26
516.869	12611.46
517.237	12656.21
517.604	12550.9
517.972	12872.47
518.339	12820.04
518.706	12994.95
519.073	13009.42
519.44	13154.72
519.808	13306.81
520.175	13359.92
520.542	13568.95
520.909	13614.37
521.276	13658.44
521.643	13886
522.009	13999.45
522.376	14078.09
522.743	14120.35
523.11	14342.49
523.477	14467.91
523.843	14483.28
524.21	14772.99
524.577	14810.27
524.943	14876.94
525.31	15063.38
525.676	15288
526.043	15398.28
526.409	15415.91
526.776	15617.03
527.142	15753.75
527.508	15836.24
527.874	15987.42
528.241	16077.59
528.607	16242.55
528.973	16411.14
529.339	16400.74
529.705	16747.4
530.071	16782.43
530.437	16945.81
530.803	17031.68
531.169	17144.45
531.535	17243.66
531.901	17278.68
532.267	17392.35
532.632	17597.09
532.998	17539.92
533.364	17803.64
533.73	17845.9
534.095	17983.52
534.461	18024.88
534.826	18165.89
535.192	18287.25
535.557	18452.89
535.923	18321.59
536.288	18590.51
536.653	18645.43
537.019	18676.39
537.384	18804.07
537.749	18886.33
538.114	19109.82
538.479	19073.89
538.845	19178.3
539.21	19173.78
539.575	19302.13
539.94	19449.25
540.305	19490.83
540.67	19510.94
541.034	19690.37
541.399	19658.73
541.764	19711.39
542.129	19809.47
542.494	19917.48
542.858	19910.93
543.223	19922.68
543.587	20084.94
543.952	20218.49
544.316	20241.77
544.681	20282.9
545.045	20425.72
545.41	20498.71
545.774	20472.72
546.138	20618.71
546.503	20658.03
546.867	20708.2
547.231	20965.14
547.595	20941.41
547.959	21045.14
548.324	21098.92
548.688	21174.63
549.052	21226.38
549.416	21284.68
549.779	21342.08
550.143	21455.52
550.507	21574.39
550.871	21631.34
551.235	21649.42
551.599	21836.08
551.962	21926.92
552.326	22075.85
552.689	22060.03
553.053	21995.17
553.417	22227.48
553.78	22602.39
554.143	22554.93
554.507	22566.91
554.87	22718.09
555.234	22955.6
555.597	22758.77
555.96	23013.9
556.323	23069.27
556.686	23163.28
557.05	23338.64
557.413	23438.97
557.776	23502.48
558.139	23640.1
558.502	23754.9
558.865	23950.6
559.228	24068.11
559.59	24110.14
559.953	24294.09
560.316	24606.63
560.679	24524.37
561.041	24821.08
561.404	24939.27
561.767	25197.57
562.129	25205.03
562.492	25457.9
562.854	25494.51
563.217	25543.1
563.579	25742.87
563.941	25960.72
564.304	26105.34
564.666	26348.73
565.028	26418.1
565.39	26598.21
565.753	26864.19
566.115	26916.4
566.477	27207.46
566.839	27228.93
567.201	27649.48
567.563	27732.65
567.925	27986.65
568.287	28062.36
568.648	28224.16
569.01	28386.64
569.372	28759.06
569.734	28830.7
570.095	29131.71
570.457	29300.74
570.819	29507.52
571.18	29524.69
571.542	29855.3
571.903	29968.29
572.265	30274.95
572.626	30404.44
572.987	30499.13
573.349	30800.81
573.71	30909.74
574.071	31231.54
574.432	31416.17
574.794	31623.17
575.155	31522.83
575.516	31734.35
575.877	32021.12
576.238	31935.25
576.599	32215.47
576.96	32459.75
577.32	32591.95
577.681	32687.09
578.042	32935.45
578.403	32988.78
578.763	33163.24
579.124	33144.26
579.485	33547.63
579.845	33606.62
580.206	33699.04
580.566	33747.4
580.927	33996.21
581.287	34178.8
581.648	34123.89
582.008	34421.96
582.368	34469.42
582.728	34537.67
583.089	34666.93
583.449	34814.95
583.809	35059.23
584.169	35282.96
584.529	35152.79
584.889	35573.12
585.249	35431.88
585.609	35627.35
585.969	35998.42
586.329	35962.94
586.688	36359.09
587.048	36482.25
587.408	36687.21
587.768	37031.39
588.127	37249.01
588.487	37361.32
588.846	37976.44
589.206	37948.65
589.565	38400.84
589.925	38910.66
590.284	39069.75
590.643	39462.28
591.003	39888.26
591.362	40250.51
591.721	40685.07
592.08	41029.92
592.44	41506.52
592.799	41908.54
593.158	42267.63
593.517	42605.93
593.876	43107.16
594.235	43501.72
594.593	43936.97
594.952	44334.47
595.311	44834.34
595.67	45369.92
596.029	45875.22
596.387	46560.85
596.746	47013.95
597.104	47225.47
597.463	47742.06
597.822	48285.78
598.18	48525.55
598.538	48897.51
598.897	49539.53
599.255	49729.58
599.613	50616.34
599.972	50662.21
600.33	51038.7
600.688	51278.24
601.046	51796.87
601.404	52378.1
601.762	52580.35
602.12	52995.03
602.478	53289.49
602.836	53618.29
603.194	53927.89
603.552	54267.77
603.91	54338.95
604.268	54913.85
604.625	55081.31
604.983	55482.2
605.341	55590.67
605.698	55951.11
606.056	56417.77
606.413	56510.87
606.771	56885.33
607.128	57054.81
607.485	57184.53
607.843	57391.53
608.2	57718.07
608.557	58051.62
608.914	58189.92
609.272	58474.66
609.629	58745.62
609.986	59043.46
610.343	59120.07
610.7	59507.4
611.057	59536.56
611.414	59666.95
611.771	59956.21
612.127	60244.11
612.484	60381.73
612.841	60602.97
613.198	60697.88
613.554	60778.33
613.911	61073.69
614.267	61235.95
614.624	61326.34
614.98	61527.24
615.337	61845.87
615.693	61837.06
616.05	62026.66
616.406	62202.47
616.762	62236.37
617.118	62329.7
617.475	62474.56
617.831	62729.01
618.187	62818.73
618.543	62924.72
618.899	63170.36
619.255	63164.03
619.611	63246.29
619.967	63417.13
620.323	63516.79
620.678	63498.26
621.034	63518.15
621.39	63523.34
621.746	63523.34
622.101	63523.34
622.457	63523.34
622.812	63523.34
623.168	63523.34
623.523	63523.34
623.879	63523.34
624.234	63523.34
624.589	63523.34
624.945	63523.34
625.3	63523.34
625.655	63523.34
626.01	63523.34
626.365	63523.34
626.72	63523.34
627.075	63523.34
627.43	63523.34
627.785	63523.34
628.14	63523.34
628.495	63523.34
628.85	63523.34
629.205	63523.34
629.559	63523.34
629.914	63523.34
630.269	63523.34
630.623	63523.34
630.978	63523.34
631.332	63523.34
631.687	63523.34
632.041	63523.34
632.396	63523.34
632.75	63523.34
633.104	63523.34
633.459	63523.34
633.813	63523.34
634.167	63523.34
634.521	63523.34
634.875	63523.34
635.229	63523.34
635.583	63523.34
635.937	63523.34
636.291	63523.34
636.645	63523.34
636.999	63523.34
637.352	63523.34
637.706	63523.34
638.06	63523.34
638.413	63523.34
638.767	63523.34
639.121	63523.34
639.474	63523.34
639.828	63523.34
640.181	63523.34
640.534	63523.34
640.888	63523.34
641.241	63523.34
641.594	63523.34
641.947	63523.34
642.301	63523.34
642.654	63523.34
643.007	63523.34
643.36	63523.34
643.713	63523.34
644.066	63523.34
644.419	63523.34
644.771	63523.34
645.124	63523.34
645.477	63523.34
645.83	63523.34
646.182	63523.34
646.535	63523.34
646.888	63523.34
647.24	63523.34
647.593	63523.34
647.945	63523.34
648.298	63523.34
648.65	63523.34
649.002	63523.34
649.355	63523.34
649.707	63523.34
650.059	63523.34
650.411	63523.34
650.763	63523.34
651.115	63523.34
651.467	63523.34
651.819	63523.34
652.171	63523.34
652.523	63523.34
652.875	63523.34
653.227	63523.34
653.578	63523.34
653.93	63523.34
654.282	63523.34
654.633	63523.34
654.985	63523.34
655.337	63523.34
655.688	63523.34
656.039	63523.34
656.391	63523.34
656.742	63523.34
657.094	63523.34
657.445	63523.34
657.796	63523.34
658.147	63523.34
658.498	63523.34
658.849	63523.34
659.2	63523.34
659.551	63523.34
659.902	63523.34
660.253	63523.34
660.604	63523.34
660.955	63523.34
661.306	63523.34
661.656	63523.34
662.007	63523.34
662.358	63523.34
662.708	63523.34
663.059	63523.34
663.409	63523.34
663.76	63523.34
664.11	63523.34
664.461	63523.34
664.811	63523.34
665.161	63523.34
665.511	63523.34
665.862	63523.34
666.212	63523.34
666.562	63523.34
666.912	63523.34
667.262	63523.34
667.612	63523.34
667.962	63523.34
668.312	63523.34
668.662	63523.34
669.011	63523.34
669.361	63523.34
669.711	63523.34
670.06	63523.34
670.41	63523.34
670.76	63523.34
671.109	63523.34
671.459	63523.34
671.808	63523.34
672.157	63523.34
672.507	63523.34
672.856	63523.34
673.205	63523.34
673.554	63523.34
673.904	63523.34
674.253	63523.34
674.602	63523.34
674.951	63485.15
675.3	63492.16
675.649	63523.34
675.998	63523.34
676.346	63523.34
676.695	63523.34
677.044	63523.34
677.393	63523.34
677.741	63523.34
678.09	63523.34
678.438	63523.34
678.787	63523.34
679.135	63523.34
679.484	63504.14
679.832	63523.34
680.181	63516.56
680.529	63511.59
680.877	63457.13
681.225	63498.71
681.573	63522.67
681.922	63493.97
682.27	63444.93
682.618	63420.07
682.966	63453.29
683.314	63370.13
683.661	63386.4
684.009	63260.3
684.357	63195.44
684.705	63180.53
685.053	63266.4
685.4	63076.12
685.748	63064.37
686.095	63010.36
686.443	62861.67
686.79	62867.99
687.138	62953.64
687.485	62901.44
687.832	62827.09
688.18	62790.93
688.527	62722.23
688.874	62671.61
689.221	62659.41
689.568	62512.07
689.915	62466.42
690.262	62534.22
690.609	62427.78
690.956	62340.55
691.303	62352.53
691.65	62171.06
691.997	62223.27
692.344	62037.51
692.69	61999.54
693.037	62111.86
693.383	61856.5
693.73	61979.66
694.077	61788.02
694.423	61813.78
694.769	61731.53
695.116	61676.16
695.462	61538.54
695.808	61476.39
696.155	61490.63
696.501	61302.84
696.847	61336.28
697.193	61265.32
697.539	61282.5
697.885	61061.04
698.231	61055.84
698.577	60984.88
698.923	60963.86
699.269	60826.01
699.614	60772.91
699.96	60689.07
700.306	60741.27
700.651	60578.11
700.997	60496.3
701.342	60470.77
701.688	60431.67
702.033	60302.86
702.379	60358.23
702.724	60270.32
703.069	60251.11
703.415	60000.95
703.76	60047.5
704.105	60033.04
704.45	59973.15
704.795	59877.11
705.14	59783.78
705.485	59749.43
705.83	59623.56
706.175	59668.76
706.52	59621.07
706.865	59468.99
707.209	59378.82
707.554	59426.73
707.899	59404.36
708.243	59221.08
708.588	59233.51
708.932	59123.69
709.277	59128.88
709.621	59029.9
709.966	58869.45
710.31	58941.77
710.654	58775.67
710.998	58747.2
711.342	58801.66
711.687	58655
712.031	58628.33
712.375	58548.11
712.719	58517.15
713.063	58455.91
713.407	58521.89
713.75	58343.59
714.094	58377.72
714.438	58287.32
714.782	58232.86
715.125	58097.95
715.469	58237.61
715.812	57959.2
716.156	57942.7
716.499	57937.05
716.843	58006.2
717.186	57879.42
717.53	57912.42
717.873	57894.11
718.216	57813.44
718.559	57740.22
718.902	57504.07
719.246	57616.61
719.589	57533.44
719.932	57518.98
720.275	57517.63
720.617	57454.58
720.96	57373.9
721.303	57438.53
721.646	57387.91
721.989	57195.37
722.331	57221.14
722.674	57179.1
723.016	57149.27
723.359	57097.07
723.701	57072.67
724.044	57032.22
724.386	56904.31
724.729	56956.74
725.071	56952.9
725.413	56841.94
725.755	56869.96
726.097	56707.7
726.439	56734.82
726.782	56655.95
727.124	56735.5
727.465	56652.56
727.807	56607.37
728.149	56604.43
728.491	56455.96
728.833	56497.54
729.175	56484.66
729.516	56441.95
729.858	56365.11
730.199	56432.91
730.541	56466.35
730.882	56270.88
731.224	56350.43
731.565	56064.56
731.906	56225.23
732.248	56206.7
732.589	56026.82
732.93	56087.61
733.271	56066.82
733.612	55963.09
733.953	56059.13
734.294	55905.24
734.635	55898.46
734.976	55975.97
735.317	55795.86
735.658	55797.45
735.999	55715.64
736.339	55699.82
736.68	55741.85
737.021	55642.42
737.361	55571.46
737.702	55648.97
738.042	55618.92
738.383	55592.03
738.723	55691.91
739.063	55433.61
739.404	55586.83
739.744	55491.92
740.084	55455.99
740.424	55413.05
740.764	55348.87
741.104	55441.3
741.444	55243.34
741.784	55233.17
742.124	55337.8
742.464	55264.13
742.804	55201.3
743.143	55162.66
743.483	55229.78
743.823	55064.58
744.162	55089.67
744.502	55067.52
744.841	55022.32
745.181	55057.8
745.52	54927.86
745.86	54917.69
746.199	54834.76
746.538	54830.69
746.877	54901.88
747.216	54926.28
747.556	54745.5
747.895	54788.43
748.234	54675.89
748.573	54687.64
748.911	54618.95
749.25	54649
749.589	54517.93
749.928	54460.08
750.267	54491.04
750.605	54458.95
750.944	54456.92
751.283	54324.72
751.621	54406.07
751.96	54208.33
752.298	54232.97
752.636	54162.46
752.975	54138.73
753.313	53956.82
753.651	54098.28
753.989	54014.89
754.327	53934.9
754.666	53753.43
755.004	53856.48
755.342	53814.22
755.679	53713.43
756.017	53599.99
756.355	53722.92
756.693	53545.08
757.031	53622.81
757.368	53321.35
757.706	53358.87
758.044	53283.39
758.381	53204.97
758.719	53158.42
759.056	53119.55
759.394	52968.59
759.731	52747.58
760.068	52827.13
760.405	52734.47
760.743	52616.96
761.08	52660.35
761.417	52493.58
761.754	52431.43
762.091	52394.6
762.428	52197.77
762.765	52023.99
763.102	52152.57
763.438	51932.91
763.775	51806.59
764.112	51824.89
764.449	51695.63
764.785	51596.2
765.122	51563.43
765.458	51399.37
765.795	51400.95
766.131	51285.7
766.467	51221.07
766.804	50901.75
767.14	50906.27
767.476	50807.75
767.812	50667.18
768.148	50742.66
768.485	50443.01
768.821	50203.02
769.157	50144.03
769.492	50084.6
769.828	50048.67
770.164	49698.85
770.5	49723.71
770.836	49704.05
771.171	49445.07
771.507	49277.39
771.842	49104.29
772.178	49109.94
772.513	48972.09
772.849	48884.86
773.184	48783.39
773.519	48591.99
773.855	48420.69
774.19	48360.58
774.525	48200.58
774.86	48008.05
775.195	47983.41
775.53	47723.99
775.865	47637.66
776.2	47360.6
776.535	47115.87
776.87	47081.29
777.205	47053.49
777.539	46791.13
777.874	46748.87
778.209	46469.1
778.543	46517.01
778.878	46282.44
779.212	46263.68
779.547	45872.96
779.881	45910.02
780.215	45565.62
780.55	45622.12
780.884	45427.1
781.218	45281.11
781.552	45326.99
781.886	45028.01
782.22	44625.76
782.554	44689.71
782.888	44343.96
783.222	44384.19
783.556	44222.16
783.889	43949.4
784.223	43797.31
784.557	43607.26
784.89	43719.8
785.224	43424.66
785.557	43193.93
785.891	43183.31
786.224	43104.45
786.558	42994.84
786.891	42791.69
787.224	42458.14
787.557	42363.9
787.891	42260.63
788.224	42162.32
788.557	41991.03
788.89	41979.5
789.223	41813.18
789.556	41607.99
789.888	41595.78
790.221	41288.67
790.554	41067.21
790.887	41145.4
791.219	40920.1
791.552	40760.78
791.884	40682.59
792.217	40427.91
792.549	40354.01
792.882	40161.47
793.214	39990.4
793.546	40007.35
793.879	39725.33
794.211	39530.98
794.543	39821.37
794.875	39563.75
795.207	39372.11
795.539	39224.1
795.871	39306.13
796.203	39039.02
796.535	38790.21
796.867	38782.07
797.198	38492.14
797.53	38627.95
797.862	38312.48
798.193	38322.42
798.525	38136.21
798.856	38229.09
799.188	37582.78
799.519	37587.3
799.85	37484.71
800.182	37404.26
800.513	37474.31
800.844	36992.97
801.175	37339.17
801.506	37270.25
801.837	36976.47
802.168	36901.44
802.499	36871.62
802.83	36613.99
803.161	36460.1
803.491	36481.34
803.822	36508.46
804.153	36342.36
804.483	35953.9
804.814	35976.5
805.145	35967.46
805.475	35958.19
805.805	35844.98
806.136	35681.14
806.466	35680.23
806.796	35585.32
807.126	35354.59
807.457	35321.15
807.787	35232.11
808.117	35129.51
808.447	34883.19
808.777	35020.82
809.107	34757.32
809.436	34715.74
809.766	34642.3
810.096	34588.51
810.426	34431.91
810.755	34555.74
811.085	34361.4
811.414	34353.26
811.744	33992.82
812.073	34127.96
812.403	34054.97
812.732	33805.93
813.061	33854.07
813.39	33662.66
813.719	33676.45
814.049	33758.02
814.378	33594.87
814.707	33384.7
815.036	33485.94
815.365	33209.11
815.693	32929.35
816.022	33084.6
816.351	32836.02
816.68	32860.42
817.008	32707.2
817.337	32568
817.665	32500.43
817.994	32572.07
818.322	32597.83
818.651	32477.83
818.979	32256.14
819.307	32425.18
819.636	32304.28
819.964	32015.25
820.292	32213.88
820.62	32091.85
820.948	31994
821.276	32246.65
821.604	31991.07
821.932	32287.33
822.259	32029.93
822.587	32093.89
822.915	31947
823.243	32049.37
823.57	31790.17
823.898	32116.94
824.225	31827
824.553	31818.41
824.88	31908.13
825.207	32118.52
825.535	31896.15
825.862	32016.83
826.189	31844.18
826.516	32255.92
826.843	32110.38
827.17	32121.23
827.497	32162.13
827.824	32212.98
828.151	32163.72
828.478	31998.98
828.805	32325.52
829.131	32158.74
829.458	32115.13
829.785	31865.65
830.111	31998.3
830.438	32193.55
830.764	32099.09
831.09	32131.63
831.417	31994.68
831.743	32104.73
832.069	31897.06
832.395	31904.74
832.722	31894.8
833.048	31937.06
833.374	31977.51
833.7	31726.21
834.026	31900.22
834.351	31806.66
834.677	31852.99
835.003	31901.58
835.329	31774.57
835.654	31681.02
835.98	31570.29
836.306	31693.67
836.631	31519.21
836.956	31716.04
837.282	31676.05
837.607	31360.35
837.932	31472.89
838.258	31429.72
838.583	31488.48
838.908	31338.2
839.233	31342.95
839.558	31294.13
839.883	31182.27
840.208	31050.75
840.533	31137.3
840.858	31073.58
841.182	31085.55
841.507	30980.92
841.832	30888.5
842.156	30773.47
842.481	30862.51
842.805	30675.17
843.13	30565.57
843.454	30702.51
843.778	30498.68
844.103	30439.69
844.427	30442.63
844.751	30295.52
845.075	30307.95
845.399	30204.45
845.723	30048.74
846.047	30053.49
846.371	29926.49
846.695	29737.11
847.019	29662.54
847.343	29495.54
847.666	29372.83
847.99	29247.86
848.313	29150.01
848.637	29236.34
848.96	29060.75
849.284	28953.63
849.607	28775.78
849.931	28745.5
850.254	28494.66
850.577	28358.17
850.9	28211.05
851.223	28154.1
851.546	27969.02
851.869	27775.36
852.192	27992.3
852.515	27734
852.838	27513.44
853.161	27560.9
853.483	27355.26
853.806	27380.34
854.129	27325.88
854.451	27149.39
854.774	27001.82
855.096	26993.91
855.419	26927.92
855.741	26714.37
856.063	26625.78
856.385	26610.19
856.708	26540.81
857.03	26488.16
857.352	26365.22
857.674	26233.93
857.996	26183.53
858.318	26059.7
858.64	26148.51
858.961	25958.23
859.283	25845.24
859.605	25783.32
859.926	25792.13
860.248	25671.91
860.57	25620.16
860.891	25617.22
861.212	25524.34
861.534	25456.32
861.855	25313.5
862.176	25387.62
862.498	25363.44
862.819	25296.55
863.14	25139.95
863.461	25183.56
863.782	25029.89
864.103	25097.46
864.424	24927.75
864.745	25019.5
865.065	24868.99
865.386	24682.33
865.707	24853.63
866.027	24738.6
866.348	24669
866.668	24776.34
866.989	24628.32
867.309	24419.51
867.63	24436.01
867.95	24597.81
868.27	24316.01
868.59	24496.35
868.91	24305.84
869.23	24251.38
869.55	24118.5
869.87	24215.68
870.19	24074.44
870.51	24110.59
870.83	24041.9
871.15	23961.45
871.469	23829.92
871.789	23960.09
872.109	23962.12
872.428	23815.91
872.748	23846.2
873.067	23864.95
873.386	23732.98
873.706	23724.16
874.025	23669.48
874.344	23552.87
874.663	23529.37
874.982	23559.87
875.301	23578.63
875.62	23536.37
875.939	23445.75
876.258	23406.88
876.577	23347.23
876.896	23302.25
877.214	23295.02
877.533	23212.77
877.852	23250.73
878.17	23233.33
878.489	23196.27
878.807	23045.76
879.125	23087.57
879.444	23119.89
879.762	22999.21
880.08	23010.96
880.398	22951.98
880.716	22922.83
881.034	22772.55
881.352	22945.65
881.67	22719.44
881.988	22757.64
882.306	22650.75
882.624	22644.19
882.941	22531.2
883.259	22509.73
883.577	22393.8
883.894	22453.01
884.212	22341.83
884.529	22264.99
884.846	22254.37
885.164	22065.68
885.481	22016.86
885.798	22084.21
886.115	21938.22
886.432	22058.67
886.75	21933.93
887.067	21970.31
887.383	21932.8
887.7	21810.54
888.017	21595.63
888.334	21583.2
888.651	21532.58
888.967	21554.73
889.284	21360.16
889.6	21386.37
889.917	21343.21
890.233	21412.81
890.55	21264.12
890.866	21213.5
891.182	21180.28
891.498	21109.09
891.815	21018.02
892.131	20969.43
892.447	20959.49
892.763	20838.14
893.079	20767.86
893.395	20767.18
893.71	20702.1
894.026	20572.61
894.342	20568.77
894.657	20415.78
894.973	20412.16
895.289	20384.82
895.604	20361.99
895.92	20210.81
896.235	20178.27
896.55	20122.68
896.865	19949.8
897.181	20027.31
897.496	20031.38
897.811	19798.84
898.126	19758.84
898.441	19834.1
898.756	19743.93
899.071	19575.35
899.386	19494.67
899.7	19414.22
900.015	19262.81
900.33	19178.52
900.644	19124.51
900.959	19203.61
901.273	19080.22
901.588	19085.42
901.902	18933.33
902.216	18820.79
902.531	18816.27
902.845	18676.84
903.159	18544.19
903.473	18613.11
903.787	18498.31
904.101	18397.75
904.415	18483.62
904.729	18302.84
905.042	18160.02
905.356	18111.43
905.67	18155.27
905.984	18089.51
906.297	17988.27
906.611	17957.76
906.924	17878.67
907.237	17956.41
907.551	17717.09
907.864	17717.99
908.177	17621.05
908.491	17521.16
908.804	17478
909.117	17382.64
909.43	17204.79
909.743	17206.6
910.056	17181.06
910.368	17078.24
910.681	17082.08
910.994	16950.11
911.307	16907.39
911.619	16724.35
911.932	16804.57
912.244	16649.32
912.557	16643.45
912.869	16561.87
913.181	16467.63
913.494	16355.77
913.806	16295.43
914.118	16130.47
914.43	16054.99
914.742	16138.15
915.054	16113.07
915.366	16050.92
915.678	15887.99
915.99	15829
916.302	15754.66
916.613	15699.74
916.925	15617.26
917.236	15628.56
917.548	15470.6
917.859	15465.4
918.171	15361.45
918.482	15324.61
918.794	15276.93
919.105	15188.34
919.416	15078.06
919.727	15087.1
920.038	14977.28
920.349	14931.4
920.66	14885.75
920.971	14857.05
921.282	14850.5
921.593	14659.09
921.903	14555.82
922.214	14572.31
922.525	14505.65
922.835	14400.34
923.146	14334.35
923.456	14333
923.767	14163.51
924.077	14159.22
924.387	14123.06
924.697	14129.84
925.008	13991.09
925.318	13931.88
925.628	13940.01
925.938	13866.34
926.248	13733.24
926.558	13629.51
926.867	13666.58
927.177	13587.26
927.487	13406.47
927.796	13455.96
928.106	13456.41
928.416	13302.97
928.725	13288.51
929.034	13309.75
929.344	13262.29
929.653	13138.68
929.962	13008.74
930.271	13005.35
930.581	12906.82
930.89	12881.74
931.199	12794.06
931.508	12710.44
931.817	12715.64
932.125	12634.74
932.434	12555.64
932.743	12472.48
933.051	12515.65
933.36	12488.3
933.669	12420.05
933.977	12279.95
934.286	12229.1
934.594	12155.2
934.902	12110.23
935.21	12100.06
935.519	12085.37
935.827	11936.23
936.135	11895.32
936.443	11783.01
936.751	11772.84
937.059	11796.57
937.367	11705.95
937.674	11675.67
937.982	11625.27
938.29	11507.31
938.597	11571.49
938.905	11384.83
939.213	11365.85
939.52	11315
939.827	11335.11
940.135	11286.98
940.442	11241.78
940.749	11156.59
941.056	11175.57
941.363	11042.46
941.67	11009.7
941.977	11019.64
942.284	10935.12
942.591	10895.58
942.898	10837.72
943.205	10885.63
943.511	10801.34
943.818	10682.02
944.125	10635.92
944.431	10554.34
944.738	10505.08
945.044	10479.09
945.35	10401.8
945.657	10341.47
945.963	10369.94
946.269	10338.53
946.575	10342.37
946.881	10214.69
947.187	10139.44
947.493	10163.39
947.799	10095.82
948.105	10046.33
948.41	9929.72
948.716	9917.52
949.022	9901.02
949.327	9855.83
949.633	9729.28
949.938	9739.67
950.244	9821.48
950.549	9724.76
950.854	9603.63
951.16	9622.16
951.465	9560.24
951.77	9458.32
952.075	9482.05
952.38	9424.43
952.685	9435.5
952.99	9305.56
953.294	9356.63
953.599	9252.45
953.904	9195.96
954.209	9128.39
954.513	9188.95
954.818	9092.23
955.122	9083.19
955.426	9031.44
955.731	8961.39
956.035	8926.59
956.339	8891.33
956.643	8840.04
956.948	8808.4
957.252	8780.38
957.556	8749.19
957.86	8678.23
958.163	8682.75
958.467	8608.86
958.771	8575.18
959.075	8526.15
959.378	8418.13
959.682	8424
959.985	8442.31
960.289	8281.86
960.592	8291.12
960.896	8296.77
961.199	8309.65
961.502	8221.97
961.805	8199.15
962.108	8146.49
962.411	8143.78
962.714	7976.1
963.017	8006.16
963.32	8047.06
963.623	7923.22
963.926	7876.22
964.228	7885.03
964.531	7871.93
964.833	7885.94
965.136	7768.2
965.438	7697.92
965.741	7643.46
966.043	7657.69
966.345	7542.67
966.648	7633.51
966.95	7609.56
967.252	7510.81
967.554	7470.58
967.856	7478.04
968.158	7418.6
968.46	7413.63
968.761	7411.37
969.063	7368.44
969.365	7299.51
969.666	7218.16
969.968	7191.72
970.269	7178.61
970.571	7165.73
970.872	7139.06
971.174	7069.46
971.475	7031.04
971.776	7002.57
972.077	6925.96
972.378	6942.91
972.679	6936.58
972.98	6907.66
973.281	6894.78
973.582	6814.1
973.883	6807.77
974.183	6779.3
974.484	6763.25
974.785	6645.29
975.085	6650.71
975.386	6712.41
975.686	6636.7
975.986	6609.36
976.287	6543.37
976.587	6502.92
976.887	6471.96
977.187	6524.62
977.487	6445.3
977.787	6417.27
978.087	6383.15
978.387	6325.75
978.687	6350.38
978.987	6286.88
979.286	6314.45
979.586	6247.79
979.885	6194.46
980.185	6204.62
980.484	6085.76
980.784	6078.3
981.083	6111.29
981.382	6065.19
981.682	6023.16
981.981	6020.9
982.28	5985.42
982.579	5882.15
982.878	5913.56
983.177	5853
983.475	5855.71
983.774	5762.83
984.073	5772.32
984.372	5778.42
984.67	5761.25
984.969	5695.94
985.267	5719.67
985.566	5641.02
985.864	5616.17
986.162	5611.65
986.461	5569.84
986.759	5547.47
987.057	5498.43
987.355	5504.08
987.653	5479.9
987.951	5424.76
988.249	5406.45
988.547	5345.44
988.844	5400.35
989.142	5363.07
989.44	5313.57
989.737	5274.93
990.035	5267.93
990.332	5171.66
990.63	5238.55
990.927	5189.06
991.224	5152.68
991.521	5128.04
991.819	5095.95
992.116	5078.33
992.413	5073.13
992.71	5047.59
993.006	5064.99
993.303	5006.46
993.6	4924.43
993.897	4977.31
994.193	4901.38
994.49	4860.03
994.787	4864.55
995.083	4790.2
995.379	4813.48
995.676	4793.59
995.972	4777.54
996.268	4763.98
996.565	4710.2
996.861	4719.01
997.157	4647.83
997.453	4640.15
997.749	4600.15
998.044	4533.03
998.34	4526.93
998.636	4537.55
998.932	4486.93
999.227	4458.23
999.523	4490.09
999.818	4411
1000.114	4434.05
1000.409	4367.84
1000.704	4371.68
1001	4321.06
1001.295	4278.57
1001.59	4303.66
1001.885	4269.76
1002.18	4263.89
1002.475	4238.57
1002.77	4164.23
1003.065	4133.49
1003.359	4147.96
1003.654	4123.32
1003.949	4114.28
1004.243	4118.35
1004.538	4070.9
1004.832	4038.13
1005.127	4016.43
1005.421	3971.46
1005.715	3939.37
1006.009	4017.11
1006.304	3915.42
1006.598	3859.6
1006.892	3863.67
1007.186	3810.11
1007.48	3802.88
1007.773	3761.98
1008.067	3779.6
1008.361	3694.63
1008.655	3710
1008.948	3687.63
1009.242	3701.87
1009.535	3640.85
1009.829	3605.15
1010.122	3612.38
1010.415	3585.71
1010.708	3534.19
1011.001	3519.95
1011.295	3498.48
1011.588	3523.34
1011.881	3481.08
1012.173	3427.97
1012.466	3452.38
1012.759	3386.62
1013.052	3398.6
1013.344	3370.12
1013.637	3320.63
1013.93	3291.48
1014.222	3317.02
1014.514	3254.87
1014.807	3250.8
1015.099	3255.1
1015.391	3234.53
1015.683	3179.17
1015.976	3169.22
1016.268	3147.76
1016.56	3132.16
1016.851	3092.39
1017.143	3077.02
1017.435	3043.8
1017.727	3048.1
1018.018	3003.81
1018.31	2994.31
1018.602	3009.68
1018.893	2956.35
1019.185	2904.37
1019.476	2901.21
1019.767	2927.87
1020.058	2894.88
1020.35	2843.81
1020.641	2823.7
1020.932	2835.45
1021.223	2790.48
1021.514	2763.81
1021.804	2760.2
1022.095	2745.51
1022.386	2703.7
1022.677	2692.85
1022.967	2684.27
1023.258	2677.94
1023.548	2619.41
1023.839	2621.22
1024.129	2563.14
1024.419	2574.44
1024.709	2552.52
1025	2544.61
1025.29	2536.02
1025.58	2486.3
1025.87	2479.07
1026.16	2469.58
1026.449	2449.7
1026.739	2397.72
1027.029	2380.32
1027.319	2371.28
1027.608	2389.58
1027.898	2373.54
1028.187	2352.3
1028.477	2274.56
1028.766	2283.37
1029.055	2309.13
1029.344	2251.51
1029.634	2235.46
1029.923	2235.69
1030.212	2192.75
1030.501	2229.59
1030.79	2171.06
1031.078	2168.57
1031.367	2171.28
1031.656	2107.11
1031.945	2129.48
1032.233	2087.67
1032.522	2099.42
1032.81	2082.7
1033.099	2036.15
1033.387	2056.26
1033.675	2035.02
1033.963	2014
1034.251	2000.89
1034.54	1967.45
1034.828	1991.63
1035.116	1968.13
1035.403	1941.46
1035.691	1944.4
1035.979	1930.84
1036.267	1898.52
1036.554	1870.73
1036.842	1842.25
1037.129	1846.77
1037.417	1824.85
1037.704	1805.64
1037.992	1809.03
1038.279	1801.8
1038.566	1770.39
1038.853	1770.39
1039.14	1770.39
