Data from 214_FLMS001491_001.txt Node
Date: Thu Apr 19 16:36:35 BST 2018
User: hsy
Spectrometer: FLMS00149
Trigger mode: 0
Integration Time (sec): 1.000000E-2
Scans to average: 10
Electric dark correction enabled: true
Nonlinearity correction enabled: false
Boxcar width: 0
XAxis mode: Wavelengths
Number of Pixels in Spectrum: 2048
>>>>>Begin Spectral Data<<<<<
341.393	-20.96
341.776	-20.96
342.16	-20.96
342.543	-59.83
342.927	-68.87
343.31	-75.87
343.693	-54.41
344.077	-79.04
344.46	-46.72
344.843	-47.63
345.226	-44.91
345.61	-35.65
345.993	-19.15
346.376	-12.15
346.759	-10.56
347.142	4.58
347.525	54.29
347.908	80.73
348.291	94.97
348.674	73.95
349.057	117.57
349.44	134.06
349.823	131.35
350.206	163.67
350.588	221.75
350.971	253.38
351.354	267.85
351.737	283.44
352.119	292.25
352.502	278.47
352.884	316.88
353.267	349.65
353.65	303.33
354.032	339.03
354.414	340.61
354.797	344.45
355.179	345.81
355.562	347.17
355.944	369.54
356.326	385.81
356.709	379.03
357.091	373.38
357.473	407.28
357.855	371.57
358.238	376.32
358.62	371.35
359.002	405.7
359.384	393.04
359.766	409.09
360.148	391.01
360.53	406.15
360.912	388.75
361.294	377.67
361.676	372.7
362.057	358.24
362.439	381.29
362.821	383.55
363.203	374.06
363.584	373.15
363.966	367.5
364.348	376.54
364.729	365.24
365.111	377
365.493	383.32
365.874	353.95
366.256	363.44
366.637	349.43
367.019	363.89
367.4	387.84
367.781	366.83
368.163	385.13
368.544	379.71
368.925	378.58
369.306	380.84
369.688	349.88
370.069	389.42
370.45	398.69
370.831	361.4
371.212	377.67
371.593	394.4
371.974	389.42
372.355	379.26
372.736	396.88
373.117	395.07
373.498	380.84
373.879	361.85
374.26	364.57
374.641	371.8
375.021	375.87
375.402	402.08
375.783	407.96
376.163	397.33
376.544	404.34
376.925	401.63
377.305	405.24
377.686	403.21
378.066	392.59
378.447	416.54
378.827	420.84
379.208	420.38
379.588	416.99
379.968	420.38
380.349	425.13
380.729	404.57
381.109	416.32
381.489	408.63
381.87	438.46
382.25	430.33
382.63	428.52
383.01	444.11
383.39	428.75
383.77	435.53
384.15	418.35
384.53	445.24
384.91	451.34
385.29	428.75
385.67	469.2
386.049	452.02
386.429	466.71
386.809	453.15
387.189	471.68
387.568	466.94
387.948	482.98
388.328	461.74
388.707	475.07
389.087	481.4
389.466	489.31
389.846	480.5
390.225	470.33
390.605	496.99
390.984	466.71
391.363	499.93
391.743	498.12
392.122	495.86
392.501	496.99
392.881	504
393.26	513.72
393.639	522.3
394.018	516.43
394.397	508.52
394.776	530.44
395.155	511.23
395.534	514.39
395.913	526.6
396.292	542.64
396.671	562.98
397.05	548.06
397.429	551.91
397.808	562.98
398.186	548.06
398.565	566.37
398.944	572.92
399.323	575.86
399.701	561.85
400.08	574.5
400.458	568.18
400.837	578.12
401.215	586.03
401.594	589.87
401.972	608.18
402.351	597.1
402.729	585.8
403.107	613.6
403.486	610.66
403.864	619.48
404.242	619.7
404.62	631.9
404.999	660.38
405.377	662.64
405.755	623.77
406.133	651.56
406.511	645.69
406.889	657.89
407.267	693.6
407.645	663.54
408.023	679.59
408.401	698.8
408.779	702.18
409.156	707.61
409.534	724.11
409.912	727.04
410.29	711.9
410.667	757.55
411.045	751.45
411.422	773.14
411.8	764.1
412.178	780.6
412.555	797.78
412.933	798.91
413.31	804.1
413.687	830.54
414.065	803.88
414.442	843.42
414.819	852.92
415.197	842.97
415.574	861.28
415.951	852.01
416.328	879.36
416.705	870.54
417.082	877.32
417.46	903.31
417.837	890.65
418.214	925.46
418.591	926.13
418.967	903.76
419.344	925
419.721	913.48
420.098	942.4
420.475	959.58
420.852	941.5
421.228	961.16
421.605	973.82
421.982	978.56
422.358	1011.78
422.735	977.88
423.111	1028.28
423.488	1018.33
423.864	1034.15
424.241	1045.68
424.617	1024.21
424.994	1052.68
425.37	1093.59
425.746	1061.5
426.123	1095.17
426.499	1081.16
426.875	1080.25
427.251	1134.26
427.627	1126.58
428.003	1148.27
428.379	1146.69
428.756	1162.96
429.132	1209.29
429.507	1172.46
429.883	1201.83
430.259	1229.18
430.635	1240.02
431.011	1247.71
431.387	1286.12
431.763	1281.38
432.138	1325.67
432.514	1339.68
432.89	1319.12
433.265	1342.62
433.641	1372.9
434.016	1335.61
434.392	1433.47
434.767	1461.26
435.143	1416.97
435.518	1444.54
435.894	1488.38
436.269	1456.74
436.644	1530.41
437.02	1529.51
437.395	1530.19
437.77	1508.04
438.145	1570.86
438.52	1579.45
438.895	1603.18
439.271	1595.49
439.646	1630.07
440.021	1627.58
440.395	1602.73
440.77	1610.86
441.145	1635.72
441.52	1681.82
441.895	1650.63
442.27	1695.83
442.645	1688.83
443.019	1718.43
443.394	1715.04
443.769	1704.87
444.143	1720.46
444.518	1715.94
444.892	1721.37
445.267	1721.37
445.641	1741.93
446.016	1746.9
446.39	1742.38
446.764	1766.56
447.139	1786.68
447.513	1777.18
447.887	1824.87
448.262	1832.1
448.636	1846.11
449.01	1865.32
449.384	1878.65
449.758	1898.54
450.132	1885.43
450.506	1934.24
450.88	1923.62
451.254	1936.95
451.628	1967.46
452.002	1983.73
452.376	2017.63
452.75	2011.98
453.123	2017.18
453.497	2037.29
453.871	2029.83
454.244	2069.15
454.618	2113
454.992	2124.75
455.365	2146.21
455.739	2178.3
456.112	2215.37
456.486	2209.72
456.859	2228.25
457.232	2265.31
457.606	2288.13
457.979	2280.9
458.352	2337.62
458.725	2355.02
459.099	2374.23
459.472	2391.18
459.845	2434.79
460.218	2442.25
460.591	2450.16
460.964	2507.56
461.337	2528.13
461.71	2575.81
462.083	2596.15
462.456	2590.95
462.829	2625.98
463.201	2624.85
463.574	2677.95
463.947	2683.83
464.32	2726.76
464.692	2715.01
465.065	2748.91
465.438	2787.33
465.81	2799.98
466.183	2814.45
466.555	2856.7
466.928	2923.14
467.3	2901.68
467.672	2944.61
468.045	2968.57
468.417	2997.49
468.789	2992.97
469.161	3041.11
469.534	3087.66
469.906	3132.86
470.278	3164.49
470.65	3190.26
471.022	3250.82
471.394	3276.81
471.766	3288.11
472.138	3335.34
472.51	3401.55
472.882	3446.07
473.253	3473.64
473.625	3476.35
473.997	3554.54
474.369	3584.37
474.74	3615.78
475.112	3653.75
475.484	3739.39
475.855	3765.83
476.227	3809.22
476.598	3848.77
476.97	3922.44
477.341	3985.49
477.713	4037.92
478.084	4055.54
478.455	4126.28
478.827	4130.34
479.198	4281.75
479.569	4268.87
479.94	4379.15
480.311	4415.08
480.682	4509.54
481.053	4591.57
481.424	4635.64
481.795	4712.7
482.166	4769.42
482.537	4790.21
482.908	4901.17
483.279	4966.71
483.65	5070.88
484.021	5136.42
484.391	5187.49
484.762	5274.27
485.133	5330.54
485.503	5385
485.874	5490.99
486.244	5512.23
486.615	5660.47
486.985	5685.33
487.356	5733.69
487.726	5803.75
488.097	5943.86
488.467	5901.14
488.837	6025.21
489.207	6134.36
489.578	6234.24
489.948	6261.13
490.318	6379.1
490.688	6392.88
491.058	6479.21
491.428	6466.33
491.798	6629.26
492.168	6752.87
492.538	6818.41
492.908	6803.72
493.278	6906.99
493.648	6889.14
494.017	7009.59
494.387	7103.82
494.757	7136.14
495.126	7200.09
495.496	7264.27
495.866	7281.45
496.235	7314.44
496.605	7420.43
496.974	7389.92
497.344	7491.84
497.713	7565.28
498.082	7621.78
498.452	7694.77
498.821	7663.36
499.19	7658.16
499.559	7795.33
499.928	7894.76
500.298	7797.82
500.667	7935.89
501.036	7941.77
501.405	7950.36
501.774	8019.73
502.143	8031.94
502.512	8085.72
502.88	8169.79
503.249	8159.84
503.618	8270.8
503.987	8266.05
504.356	8307.86
504.724	8334.3
505.093	8375.66
505.462	8407.07
505.83	8430.57
506.199	8529.78
506.567	8585.82
506.936	8566.84
507.304	8632.6
507.672	8656.1
508.041	8734.52
508.409	8753.95
508.777	8823.55
509.145	8806.38
509.514	8893.83
509.882	8874.85
510.25	8939.93
510.618	9019.93
510.986	9051.34
511.354	9080.72
511.722	9198.01
512.09	9256.99
512.458	9226.93
512.826	9274.39
513.193	9384.67
513.561	9380.6
513.929	9457.66
514.297	9511.9
514.664	9549.64
515.032	9555.06
515.4	9702.4
515.767	9749.4
516.135	9828.72
516.502	9778.78
516.869	9964.09
517.237	9982.84
517.604	9957.76
517.972	10134.93
518.339	10171.54
518.706	10235.95
519.073	10284.08
519.44	10280.46
519.808	10435.71
520.175	10480.91
520.542	10555.71
520.909	10590.29
521.276	10682.71
521.643	10805.87
522.009	10908.24
522.376	11052.42
522.743	11101.46
523.11	11215.58
523.477	11312.3
523.843	11351.85
524.21	11474.11
524.577	11603.14
524.943	11644.27
525.31	11725.17
525.676	11803.36
526.043	11979.63
526.409	11988.44
526.776	12116.8
527.142	12228.21
527.508	12322.67
527.874	12452.38
528.241	12519.95
528.607	12592.95
528.973	12751.13
529.339	12791.58
529.705	12914.97
530.071	13045.59
530.437	13137.11
530.803	13201.74
531.169	13263.66
531.535	13289.88
531.901	13434.51
532.267	13477.44
532.632	13547.27
532.998	13692.58
533.364	13724.89
533.73	13875.62
534.095	13957.43
534.461	13980.71
534.826	14146.13
535.192	14177.54
535.557	14257.31
535.923	14250.53
536.288	14449.39
536.653	14426.57
537.019	14499.34
537.384	14588.37
537.749	14692.1
538.114	14721.93
538.479	14653.68
538.845	14784.75
539.21	14740.91
539.575	14899.78
539.94	14925.99
540.305	15110.85
540.67	15059.1
541.034	15150.17
541.399	15196.04
541.764	15236.72
542.129	15324.17
542.494	15357.17
542.858	15373.66
543.223	15476.94
543.587	15527.11
543.952	15466.54
544.316	15610.04
544.681	15610.95
545.045	15765.07
545.41	15839.64
545.774	15753.31
546.138	15828.79
546.503	15984.27
546.867	16017.04
547.231	16041.44
547.595	16094.1
547.959	16152.4
548.324	16202.57
548.688	16319.63
549.052	16272.85
549.416	16263.13
549.779	16339.74
550.143	16515.1
550.507	16591.26
550.871	16597.36
551.235	16600.07
551.599	16714.42
551.962	16725.49
552.326	16819.95
552.689	16932.04
553.053	16833.06
553.417	16862.66
553.78	17179.04
554.143	17108.08
554.507	17209.32
554.87	17371.35
555.234	17607.28
555.597	17402.76
555.96	17497.45
556.323	17624.45
556.686	17682.53
557.05	17840.49
557.413	17870.55
557.776	17903.31
558.139	18134.04
558.502	18108.73
558.865	18264.21
559.228	18505.11
559.59	18425.33
559.953	18592.56
560.316	18889.5
560.679	18804.99
561.041	18986
561.404	19137.18
561.767	19329.27
562.129	19383.5
562.492	19615.59
562.854	19671.4
563.217	19707.56
563.579	19867.33
563.941	20096.03
564.304	20246.53
564.666	20355.45
565.028	20437.26
565.39	20720.42
565.753	20985.27
566.115	20993.4
566.477	21158.14
566.839	21276.79
567.201	21589.77
567.563	21745.47
567.925	21923.55
568.287	22024.34
568.648	22123.99
569.01	22417.09
569.372	22724.2
569.734	22669.06
570.095	23060.24
570.457	23231.99
570.819	23418.42
571.18	23459.1
571.542	23866.32
571.903	23835.81
572.265	24184.73
572.626	24351.73
572.987	24446.65
573.349	24629.92
573.71	24930.47
574.071	24993.3
574.432	25248.21
574.794	25552.6
575.155	25545.6
575.516	25672.15
575.877	25866.72
576.238	25888.19
576.599	26190.55
576.96	26311.91
577.32	26536.31
577.681	26726.36
578.042	26899.01
578.403	26989.18
578.763	27107.82
579.124	27196.63
579.485	27475.94
579.845	27639.1
580.206	27699.67
580.566	27788.93
580.927	27953.67
581.287	28128.81
581.648	28215.36
582.008	28507.33
582.368	28574.45
582.728	28778.96
583.089	28959.52
583.449	29077.48
583.809	29372.17
584.169	29519.51
584.529	29666.85
584.889	30093.05
585.249	30001.3
585.609	30069.32
585.969	30535.52
586.329	30752.47
586.688	30987.94
587.048	31199.24
587.408	31516.29
587.768	31778.66
588.127	32158.98
588.487	32249.15
588.846	33015.01
589.206	32908.57
589.565	33335.23
589.925	33858.83
590.284	34224.47
590.643	34641.18
591.003	35068.06
591.362	35476.86
591.721	35809.74
592.08	36239.33
592.44	36642.48
592.799	36971.51
593.158	37458.73
593.517	37792.51
593.876	38371.7
594.235	38602.21
594.593	39079.25
594.952	39494.16
595.311	39813.92
595.67	40469.05
596.029	41126.66
596.387	41576.36
596.746	42274.65
597.104	42376.8
597.463	42727.29
597.822	43480.27
598.18	43844.33
598.538	44146.24
598.897	44861.7
599.255	45092.88
599.613	45850.15
599.972	46009.24
600.33	46561.77
600.688	46764.02
601.046	47326.95
601.404	47889.87
601.762	48060.94
602.12	48676.06
602.478	49019.56
602.836	49377.74
603.194	49467
603.552	49914.9
603.91	50127.33
604.268	50534.77
604.625	50749.23
604.983	51313.28
605.341	51277.8
605.698	51793.95
606.056	52240.72
606.413	52224.67
606.771	52783.75
607.128	52850.64
607.485	53094.48
607.843	53306
608.2	53645.43
608.557	53982.14
608.914	54004.96
609.272	54372.41
609.629	54606.98
609.986	54929.01
610.343	55045.39
610.7	55304.37
611.057	55419.84
611.414	55457.36
611.771	55823.22
612.127	56027.96
612.484	56180.95
612.841	56365.81
613.198	56430.44
613.554	56516.08
613.911	56779.35
614.267	56865.68
614.624	56996.3
614.98	57221.15
615.337	57407.36
615.693	57503.18
616.05	57564.19
616.406	57823.85
616.762	57870.17
617.118	57965.99
617.475	58048.7
617.831	58155.82
618.187	58298.86
618.543	58444.4
618.899	58662.24
619.255	58651.17
619.611	58642.81
619.967	58880.77
620.323	58999.41
620.678	58982.46
621.034	59002.35
621.39	59064.72
621.746	59124.6
622.101	59483.01
622.457	59215.67
622.812	59497.7
623.168	59528.89
623.523	59549.23
623.879	59664.25
624.234	59612.5
624.589	59644.36
624.945	59780.41
625.3	59852.49
625.655	59863.12
626.01	59952.38
626.365	59977.69
626.72	59910.35
627.075	59960.06
627.43	59981.53
627.785	60029.66
628.14	60073.05
628.495	60154.86
628.85	60124.35
629.205	60090.23
629.559	60209.55
629.914	60101.98
630.269	60210.68
630.623	60047.74
630.978	60069.89
631.332	60209.32
631.687	60231.69
632.041	60192.15
632.396	60221.75
632.75	60130.68
633.104	60212.94
633.459	60107.18
633.813	60165.25
634.167	60119.38
634.521	60154.41
634.875	60168.19
635.229	60115.99
635.583	60009.1
635.937	60017.69
636.291	60017.46
636.645	60029.66
636.999	59877.58
637.352	60002.32
637.706	59843.45
638.06	59956.9
638.413	59886.62
638.767	59820.63
639.121	59875.77
639.474	59772.72
639.828	59718.26
640.181	59774.3
640.534	59816.79
640.888	59680.97
641.241	59593.97
641.594	59647.3
641.947	59721.2
642.301	59624.25
642.654	59679.84
643.007	59565.04
643.36	59684.36
643.713	59596
644.066	59707.19
644.419	59479.17
644.771	59281.44
645.124	59073.76
645.477	59067.2
645.83	58929.58
646.182	58928.9
646.535	58970.26
646.888	58944.95
647.24	58844.84
647.593	58960.77
647.945	58827.89
648.298	58747.89
648.65	58733.43
649.002	58543.38
649.355	58527.11
649.707	58537.05
650.059	58520.78
650.411	58841.67
650.763	58843.26
651.115	59295.9
651.467	59061.55
651.819	59102.23
652.171	59017.04
652.523	59001.22
652.875	59024.04
653.227	58897.49
653.578	59118.95
653.93	59047.09
654.282	58927.77
654.633	58838.96
654.985	58889.58
655.337	58871.5
655.688	58876.47
656.039	58965.74
656.391	58708.8
656.742	58800.77
657.094	58849.13
657.445	58756.48
657.796	58812.3
658.147	58773.88
658.498	58812.97
658.849	58827.21
659.2	58747.44
659.551	58681.23
659.902	58846.64
660.253	58724.84
660.604	58819.07
660.955	58643.49
661.306	58792.63
661.656	58687.1
662.007	58733.2
662.358	58691.39
662.708	58696.82
663.059	58712.19
663.409	58568.69
663.76	58699.08
664.11	58779.75
664.461	58715.8
664.811	58687.55
665.161	58760.09
665.511	58662.47
665.862	58671.51
666.212	58699.3
666.562	58742.69
666.912	58655.69
667.262	58520.55
667.612	58594
667.962	58600.78
668.312	58567.33
668.662	58784.95
669.011	58670.83
669.361	58616.59
669.711	58629.02
670.06	58615.69
670.41	58545.86
670.76	58515.58
671.109	58648.01
671.459	58567.78
671.808	58604.62
672.157	58568.91
672.507	58491.63
672.856	58462.7
673.205	58477.84
673.554	58519.2
673.904	58447.79
674.253	58601
674.602	58439.42
674.951	58134.57
675.3	58043.05
675.649	58461.8
675.998	58422.48
676.346	58501.12
676.695	58484.17
677.044	58337.28
677.393	58375.7
677.741	58438.07
678.09	58401.23
678.438	58291.63
678.787	58333.44
679.135	58383.15
679.484	58194.91
679.832	58276.72
680.181	58180.22
680.529	58250.95
680.877	58139.54
681.225	58113.1
681.573	58240.11
681.922	58076.27
682.27	57968.25
682.618	57980.68
682.966	57972.77
683.314	57955.14
683.661	57962.6
684.009	57848.03
684.357	57769.38
684.705	57699.33
685.053	57736.84
685.4	57645.77
685.748	57602.16
686.095	57587.92
686.443	57517.19
686.79	57395.84
687.138	57484.42
687.485	57454.37
687.832	57389.51
688.18	57356.51
688.527	57267.7
688.874	57236.07
689.221	57187.03
689.568	57055.51
689.915	56979.35
690.262	57039.69
690.609	56965.56
690.956	56868.84
691.303	56881.5
691.65	56769.86
691.997	56722.86
692.344	56570.77
692.69	56556.54
693.037	56575.29
693.383	56262.76
693.73	56479.02
694.077	56251.23
694.423	56260.27
694.769	56186.38
695.116	56124.46
695.462	55983.9
695.808	55921.52
696.155	56042.2
696.501	55722.89
696.847	55795.88
697.193	55670.91
697.539	55695.54
697.885	55394.53
698.231	55328.09
698.577	55363.57
698.923	55330.81
699.269	55159.06
699.614	55118.38
699.96	54948.22
700.306	54986.86
700.651	54862.34
700.997	54712.29
701.342	54634.55
701.688	54585.06
702.033	54634.1
702.379	54545.06
702.724	54417.61
703.069	54437.95
703.415	54176.03
703.76	54101.01
704.105	54244.51
704.45	54016.04
704.795	53903.27
705.14	53825.53
705.485	53821.24
705.83	53603.62
706.175	53692.66
706.52	53587.12
706.865	53459.22
707.209	53334.25
707.554	53422.83
707.899	53403.62
708.243	53268.71
708.588	53171.31
708.932	53033.69
709.277	53062.16
709.621	52896.07
709.966	52700.82
710.31	52758.9
710.654	52515.96
710.998	52605.23
711.342	52527.04
711.687	52517.32
712.031	52348.28
712.375	52271.22
712.719	52265.12
713.063	52128.18
713.407	52307.61
713.75	52063.55
714.094	52059.03
714.438	52010.89
714.782	51856.09
715.125	51720.28
715.469	51926.15
715.812	51642.77
716.156	51542.2
716.499	51604.58
716.843	51633.73
717.186	51371.59
717.53	51548.98
717.873	51499.04
718.216	51366.62
718.559	51275.09
718.902	50957.13
719.246	51043.46
719.589	50965.95
719.932	50832.39
720.275	50895.67
720.617	50848.66
720.96	50748.55
721.303	50854.54
721.646	50870.81
721.989	50634.66
722.331	50741.1
722.674	50525.28
723.016	50533.42
723.359	50361.9
723.701	50470.37
724.044	50266.31
724.386	50128.68
724.729	50361.22
725.071	50263.37
725.413	50256.59
725.755	50036.48
726.097	49905.41
726.439	49929.82
726.782	49682.14
727.124	49965.97
727.465	49775.7
727.807	49727.34
728.149	49833.77
728.491	49618.19
728.833	49714.23
729.175	49567.79
729.516	49561.01
729.858	49508.13
730.199	49664.74
730.541	49529.38
730.882	49287.12
731.224	49335.26
731.565	49194.92
731.906	49288.93
732.248	49305.43
732.589	49134.13
732.93	49005.1
733.271	49043.29
733.612	48984.31
733.953	49010.97
734.294	48955.38
734.635	48765.1
734.976	49128.48
735.317	48850.07
735.658	48848.49
735.999	48684.88
736.339	48655.27
736.68	48716.97
737.021	48601.72
737.361	48432.46
737.702	48604.88
738.042	48445.56
738.383	48449.18
738.723	48554.03
739.063	48262.52
739.404	48422.51
739.744	48153.59
740.084	48099.58
740.424	48193.82
740.764	48039.25
741.104	48120.83
741.444	48048.28
741.784	47808.52
742.124	48133.71
742.464	47964.22
742.804	47881.96
743.143	47812.13
743.483	47773.26
743.823	47607.17
744.162	47742.3
744.502	47749.99
744.841	47497.34
745.181	47643.78
745.52	47433.39
745.86	47468.86
746.199	47395.87
746.538	47452.59
746.877	47591.35
747.216	47347.29
747.556	47151.81
747.895	47205.82
748.234	47151.59
748.573	47147.97
748.911	46944.58
749.25	47003.11
749.589	46807.87
749.928	46895.77
750.267	46834.98
750.605	46745.04
750.944	46702.11
751.283	46609.68
751.621	46666.85
751.96	46422.79
752.298	46415.33
752.636	46398.16
752.975	46315.22
753.313	46160.42
753.651	46379.4
753.989	46124.49
754.327	46141.44
754.666	45739.87
755.004	45927.89
755.342	45909.58
755.679	45724.73
756.017	45426.21
756.355	45602.7
756.693	45498.07
757.031	45679.31
757.368	45425.98
757.706	45239.32
758.044	45077.97
758.381	45242.71
758.719	44921.81
759.056	45029.61
759.394	44816.73
759.731	44567.7
760.068	44501.03
760.405	44506.23
760.743	44346.69
761.08	44393.01
761.417	44182.62
761.754	44110.76
762.091	44055.17
762.428	43760.04
762.765	43652.02
763.102	43723.65
763.438	43629.87
763.775	43359.14
764.112	43340.84
764.449	43275.53
764.785	43159.37
765.122	42944.01
765.458	42694.08
765.795	42682.78
766.131	42663.34
766.467	42597.13
766.804	42296.8
767.14	42033.3
767.476	42123.24
767.812	41813.87
768.148	42015.45
768.485	41707.21
768.821	41436.48
769.157	41415.24
769.492	41290.72
769.828	41204.17
770.164	41049.6
770.5	40937.29
770.836	40807.35
771.171	40701.13
771.507	40542.95
771.842	40351.76
772.178	40267.25
772.513	40200.36
772.849	39939.8
773.184	40082.17
773.519	39738.9
773.855	39722.85
774.19	39609.18
774.525	39473.59
774.86	39444.9
775.195	39069.76
775.53	39001.52
775.865	38793.61
776.2	38694.86
776.535	38292.16
776.87	38244.93
777.205	38160.64
777.539	37943.69
777.874	37962.22
778.209	37725.84
778.543	37559.97
778.878	37472.97
779.212	37520.65
779.547	37085.86
779.881	37250.83
780.215	36882.25
780.55	36962.25
780.884	36589.6
781.218	36435.03
781.552	36495.82
781.886	36402.04
782.22	36324.75
782.554	36010.86
782.888	35755.05
783.222	35720.47
783.556	35546.24
783.889	35428.28
784.223	35235.51
784.557	35122.97
784.89	35296.98
785.224	35005.24
785.557	34675.98
785.891	34695.42
786.224	34597.11
786.558	34607.73
786.891	34271.02
787.224	34237.35
787.557	34112.61
787.891	34174.98
788.224	33979.5
788.557	33959.84
788.89	33780.19
789.223	33705.61
789.556	33451.61
789.888	33358.05
790.221	33194.21
790.554	32979.75
790.887	33061.11
791.219	32869.02
791.552	32706.77
791.884	32678.07
792.217	32434.01
792.549	32370.73
792.882	32159.89
793.214	32069.5
793.546	32011.19
793.879	31963.74
794.211	31712.44
794.543	31934.81
794.875	31750.18
795.207	31684.2
795.539	31538.21
795.871	31580.92
796.203	31206.47
796.535	31037.66
796.867	31164.43
797.198	30883.09
797.53	30970.99
797.862	30710.44
798.193	30738.46
798.525	30524.45
798.856	30625.47
799.188	30293.5
799.519	30212.6
799.85	30104.58
800.182	30054.86
800.513	30175.53
800.844	29601.54
801.175	29984.13
801.506	29874.3
801.837	29587.3
802.168	29630.92
802.499	29600.18
802.83	29346.18
803.161	29379.62
803.491	29231.6
803.822	29321.77
804.153	29039.29
804.483	28970.59
804.814	28701.67
805.145	28832.74
805.475	28716.36
805.805	28631.85
806.136	28727.21
806.466	28502.81
806.796	28424.85
807.126	28183.27
807.457	28192.08
807.787	28241.35
808.117	28112.09
808.447	27977.17
808.777	28018.3
809.107	27752.1
809.436	27720.46
809.766	27689.27
810.096	27599.33
810.426	27550.74
810.755	27612.44
811.085	27547.58
811.414	27462.61
811.744	27331.77
812.073	27302.62
812.403	27173.35
812.732	26938.56
813.061	27087.25
813.39	26951.21
813.719	26800.71
814.049	27048.61
814.378	26950.76
814.707	26640.26
815.036	26703.76
815.365	26485.24
815.693	26483.43
816.022	26445.91
816.351	26263.77
816.68	26091.8
817.008	26225.13
817.337	25941.75
817.665	26077.56
817.994	26007.28
818.322	26094.74
818.651	25843.67
818.979	25822.43
819.307	25842.77
819.636	25917.79
819.964	25621.76
820.292	25734.52
820.62	25705.6
820.948	25735.2
821.276	25807.74
821.604	25642.55
821.932	25756.89
822.259	25634.41
822.587	25507.41
822.915	25383.57
823.243	25678.48
823.57	25472.16
823.898	25666.27
824.225	25452.49
824.553	25510.8
824.88	25486.84
825.207	25696.33
825.535	25419.05
825.862	25526.62
826.189	25561.19
826.516	25724.13
826.843	25740.17
827.17	25662.43
827.497	25652.26
827.824	25703.34
828.151	25774.97
828.478	25545.83
828.805	25804.58
829.131	25727.52
829.458	25725.03
829.785	25562.1
830.111	25642.55
830.438	25792.37
830.764	25535.88
831.09	25774.29
831.417	25506.5
831.743	25760.28
832.069	25485.26
832.395	25470.57
832.722	25556.67
833.048	25480.29
833.374	25592.83
833.7	25429.22
834.026	25520.74
834.351	25486.62
834.677	25469.9
835.003	25355.32
835.329	25403
835.654	25337.24
835.98	25199.17
836.306	25344.7
836.631	25191.26
836.956	25333.63
837.282	25321.65
837.607	25145.84
837.932	25173.86
838.258	25149.68
838.583	25253.18
838.908	24991.49
839.233	25114.88
839.558	25024.03
839.883	24946.75
840.208	24822.23
840.533	24859.06
840.858	24822.68
841.182	24868.1
841.507	24918.05
841.832	24722.34
842.156	24665.4
842.481	24585.4
842.805	24523.71
843.13	24456.81
843.454	24403.26
843.778	24508.56
844.103	24320.32
844.427	24133.89
844.751	24294.11
845.075	24224.05
845.399	24124.17
845.723	23997.17
846.047	24055.92
846.371	23885.76
846.695	23766.44
847.019	23714.91
847.343	23519.44
847.666	23460.91
847.99	23382.49
848.313	23176.85
848.637	23226.11
848.96	23224.98
849.284	23119.45
849.607	22930.75
849.931	22853.24
850.254	22810.76
850.577	22713.36
850.9	22541.84
851.223	22356.3
851.546	22464.78
851.869	22188.85
852.192	22541.61
852.515	22100.72
852.838	22013.26
853.161	22058.91
853.483	21884.23
853.806	21839.93
854.129	21792.93
854.451	21683.55
854.774	21646.72
855.096	21507.29
855.419	21437.46
855.741	21377.12
856.063	21327.41
856.385	21148.65
856.708	21149.33
857.03	21072.04
857.352	21045.6
857.674	21049.22
857.996	20953.4
858.318	20818.49
858.64	20943.91
858.961	20831.37
859.283	20646.97
859.605	20589.35
859.926	20642.23
860.248	20580.08
860.57	20549.8
860.891	20410.37
861.212	20396.81
861.534	20371.72
861.855	20183.93
862.176	20267.77
862.498	20187.1
862.819	20196.14
863.14	20140.32
863.461	20079.75
863.782	20015.58
864.103	20075.23
864.424	19940.55
864.745	20001.79
865.065	19883.38
865.386	19755.92
865.707	19884.05
866.027	19780.55
866.348	19678.18
866.668	19744.17
866.989	19670.05
867.309	19637.73
867.63	19579.2
867.95	19591.18
868.27	19409.72
868.59	19628.69
868.91	19542.82
869.23	19411.52
869.55	19272.32
869.87	19367.91
870.19	19355.25
870.51	19399.77
870.83	19268.7
871.15	19186.67
871.469	19086.33
871.789	19267.35
872.109	19142.6
872.428	19075.26
872.748	19029.16
873.067	18983.96
873.386	19040.69
873.706	19067.13
874.025	18917.98
874.344	18897.19
874.663	18781.26
874.982	18794.14
875.301	18844.31
875.62	18790.52
875.939	18672.79
876.258	18814.25
876.577	18667.14
876.896	18732.9
877.214	18614.71
877.533	18577.87
877.852	18663.97
878.17	18562.51
878.489	18522.51
878.807	18508.27
879.125	18481.38
879.444	18384.21
879.762	18295.39
880.08	18403.87
880.398	18372.91
880.716	18323.42
881.034	18247.94
881.352	18241.84
881.67	18174.04
881.988	18162.97
882.306	18149.41
882.624	18165.45
882.941	18042.52
883.259	18049.75
883.577	18037.32
883.894	17994.84
884.212	17888.4
884.529	17900.15
884.846	17762.3
885.164	17695.86
885.481	17691.79
885.798	17782.19
886.115	17729.31
886.432	17570.44
886.75	17580.39
887.067	17602.76
887.383	17543.78
887.7	17408.64
888.017	17352.59
888.334	17287.96
888.651	17288.64
888.967	17224.69
889.284	17186.05
889.6	17157.8
889.917	17074.41
890.233	17130
890.55	17087.97
890.866	17028.76
891.182	16931.36
891.498	16857.47
891.815	16837.58
892.131	16651.14
892.447	16705.83
892.763	16637.13
893.079	16682.78
893.395	16637.81
893.71	16561.43
894.026	16441.88
894.342	16479.85
894.657	16275.11
894.973	16326.41
895.289	16327.99
895.604	16212.96
895.92	16158.5
896.235	16117.6
896.55	16086.41
896.865	16029.92
897.181	15942.46
897.496	15894.33
897.811	15869.24
898.126	15816.14
898.441	15860.2
898.756	15730.94
899.071	15634.22
899.386	15733.43
899.7	15504.73
900.015	15438.97
900.33	15315.81
900.644	15337.96
900.959	15339.54
901.273	15266.1
901.588	15252.99
901.902	15120.11
902.216	15031.75
902.531	15071.75
902.845	14958.76
903.159	14837.63
903.473	14903.39
903.787	14797.86
904.101	14695.26
904.415	14782.72
904.729	14797.86
905.042	14570.52
905.356	14544.31
905.67	14487.13
905.984	14479.22
906.297	14426.34
906.611	14352.67
906.924	14223.19
907.237	14178.89
907.551	14224.09
907.864	14070.42
908.177	14142.74
908.491	14088.5
908.804	13958.56
909.117	13926.02
909.43	13854.38
909.743	13793.37
910.056	13803.99
910.368	13722.18
910.681	13646.03
910.994	13557.89
911.307	13566.93
911.619	13409.2
911.932	13506.37
912.244	13317.67
912.557	13291.01
912.869	13183.66
913.181	13221.18
913.494	13182.08
913.806	13054.63
914.118	13013.5
914.43	12982.31
914.742	12929.66
915.054	12792.71
915.366	12785.48
915.678	12768.53
915.99	12768.53
916.302	12639.05
916.613	12619.39
916.925	12634.53
917.236	12514.08
917.548	12457.36
917.859	12436.79
918.171	12364.93
918.482	12332.61
918.794	12244.48
919.105	12226.18
919.416	12167.42
919.727	12192.96
920.038	12016.46
920.349	11931.72
920.66	11931.49
920.971	11916.58
921.282	11912.29
921.593	11804.04
921.903	11688.34
922.214	11719.52
922.525	11595.68
922.835	11616.02
923.146	11499.64
923.456	11482.47
923.767	11461.9
924.077	11403.15
924.387	11371.51
924.697	11319.98
925.008	11199.99
925.318	11235.24
925.628	11220.1
925.938	11114.11
926.248	10999.99
926.558	10974.91
926.867	10934.23
927.177	10909.6
927.487	10873.89
927.796	10796.83
928.106	10769.72
928.416	10783.28
928.725	10620.12
929.034	10626.67
929.344	10641.36
929.653	10593.45
929.962	10394.81
930.271	10429.61
930.581	10412.66
930.89	10389.84
931.199	10321.14
931.508	10281.59
931.817	10214.48
932.125	10260.58
932.434	10193.01
932.743	9967.48
933.051	10048.15
933.36	10046.35
933.669	9940.81
933.977	9857.65
934.286	9875.5
934.594	9832.34
934.902	9775.17
935.21	9732.23
935.519	9711.67
935.827	9683.87
936.135	9549.86
936.443	9533.59
936.751	9504.21
937.059	9557.77
937.367	9445.91
937.674	9473.03
937.982	9320.72
938.29	9349.19
938.597	9286.82
938.905	9200.94
939.213	9221.73
939.52	9137.9
939.827	9186.93
940.135	9044.34
940.442	9041.4
940.749	9034.4
941.056	9066.26
941.363	8906.26
941.67	8896.55
941.977	8871.01
942.284	8739.04
942.591	8714.63
942.898	8713.05
943.205	8670.79
943.511	8656.1
943.818	8623.56
944.125	8570
944.431	8508.99
944.738	8454.98
945.044	8497.23
945.35	8392.83
945.657	8322.32
945.963	8313.28
946.269	8274.19
946.575	8319.61
946.881	8234.87
947.187	8177.02
947.493	8148.54
947.799	8148.99
948.105	8068.32
948.41	8022.22
948.716	8025.38
949.022	7985.16
949.327	7949.23
949.633	7872.84
949.938	7889.79
950.244	7858.38
950.549	7782.68
950.854	7695.9
951.16	7703.81
951.465	7644.83
951.77	7618.61
952.075	7654.32
952.38	7598.05
952.685	7553.53
952.99	7546.52
953.294	7477.6
953.599	7406.42
953.904	7385.4
954.209	7324.16
954.513	7383.14
954.818	7302.01
955.122	7308.34
955.426	7314.67
955.731	7184.73
956.035	7176.36
956.339	7169.59
956.643	7143.6
956.948	7072.64
957.252	7052.98
957.556	7009.36
957.86	6932.53
958.163	6957.39
958.467	6974.56
958.771	6897.95
959.075	6892.98
959.378	6805.08
959.682	6847.33
959.985	6806.66
960.289	6795.81
960.592	6691.86
960.896	6712.2
961.199	6620.9
961.502	6646.21
961.805	6626.1
962.108	6555.82
962.411	6528.25
962.714	6512.65
963.017	6452.09
963.32	6453.45
963.623	6431.53
963.926	6450.28
964.228	6325.54
964.531	6406.44
964.833	6356.95
965.136	6331.87
965.438	6299.55
965.741	6213.23
966.043	6147.01
966.345	6131.65
966.648	6155.15
966.95	6113.79
967.252	6055.72
967.554	6087.81
967.856	6062.95
968.158	5964.42
968.46	6006.68
968.761	5948.6
969.063	5912.44
969.365	5868.6
969.666	5888.26
969.968	5893.23
970.269	5813.24
970.571	5787.7
970.872	5772.79
971.174	5707.48
971.475	5715.61
971.776	5675.16
972.077	5669.96
972.378	5656.63
972.679	5620.02
972.98	5600.81
973.281	5537.54
973.582	5586.8
973.883	5555.39
974.183	5483.08
974.484	5493.25
974.785	5403.08
975.085	5452.57
975.386	5405.79
975.686	5329.86
975.986	5339.13
976.287	5330.09
976.587	5268.62
976.887	5251.44
977.187	5277.21
977.487	5282.63
977.787	5201.95
978.087	5177.32
978.387	5155.85
978.687	5144.55
978.987	5106.36
979.286	5096.19
979.586	5046.03
979.885	5032.69
980.185	5004.67
980.484	4994.28
980.784	4942.75
981.083	4931.23
981.382	4973.71
981.682	4890.78
981.981	4953.15
982.28	4838.57
982.579	4847.16
982.878	4851.91
983.177	4760.61
983.475	4822.75
983.774	4747.73
984.073	4757.67
984.372	4711.35
984.67	4670.44
984.969	4682.87
985.267	4690.33
985.566	4582.76
985.864	4584.12
986.162	4580.95
986.461	4575.08
986.759	4557.68
987.057	4514.29
987.355	4467.96
987.653	4443.78
987.951	4416.21
988.249	4425.02
988.547	4417.57
988.844	4379.83
989.142	4309.1
989.44	4312.49
989.737	4347.06
990.035	4320.17
990.332	4266.61
990.63	4317.68
990.927	4214.18
991.224	4237.46
991.521	4200.62
991.819	4220.96
992.116	4171.47
992.413	4128.31
992.71	4120.4
993.006	4091.93
993.303	4082.66
993.6	4074.53
993.897	4009.67
994.193	4030.91
994.49	4076.56
994.787	3968.54
995.083	3954.53
995.379	3928.99
995.676	3911.82
995.972	3907.75
996.268	3881.08
996.565	3876.11
996.861	3870.69
997.157	3820.75
997.453	3779.39
997.749	3784.36
998.044	3753.4
998.34	3707.76
998.636	3722.67
998.932	3644.93
999.227	3631.6
999.523	3647.19
999.818	3606.52
1000.114	3619.4
1000.409	3604.71
1000.704	3552.51
1001	3580.98
1001.295	3524.71
1001.59	3557.7
1001.885	3561.54
1002.18	3499.17
1002.475	3505.95
1002.77	3404.94
1003.065	3380.08
1003.359	3425.28
1003.654	3369.01
1003.949	3333.53
1004.243	3334.88
1004.538	3324.94
1004.832	3286.75
1005.127	3284.94
1005.421	3261.67
1005.715	3260.54
1006.009	3218.73
1006.304	3210.14
1006.598	3177.6
1006.892	3142.8
1007.186	3157.04
1007.48	3136.02
1007.773	3121.1
1008.067	3088.79
1008.361	3052.41
1008.655	3006.53
1008.948	3011.05
1009.242	3046.3
1009.535	2999.3
1009.829	2964.5
1010.122	2954.56
1010.415	2976.93
1010.708	2937.61
1011.001	2903.48
1011.295	2839.3
1011.588	2850.6
1011.881	2849.47
1012.173	2855.35
1012.466	2801.34
1012.759	2753.66
1013.052	2785.97
1013.344	2755.92
1013.637	2735.35
1013.93	2739.65
1014.222	2712.98
1014.514	2676.82
1014.807	2708.91
1015.099	2635.47
1015.391	2622.59
1015.683	2632.3
1015.976	2606.77
1016.268	2609.93
1016.56	2566.54
1016.851	2528.35
1017.143	2536.49
1017.435	2512.31
1017.727	2503.04
1018.018	2483.61
1018.31	2455.13
1018.602	2427.56
1018.893	2428.69
1019.185	2431.86
1019.476	2393.67
1019.767	2391.86
1020.058	2378.3
1020.35	2361.12
1020.641	2328.81
1020.932	2287.45
1021.223	2308.47
1021.514	2324.97
1021.804	2269.6
1022.095	2247.68
1022.386	2231.41
1022.677	2264.63
1022.967	2213.33
1023.258	2176.27
1023.548	2150.51
1023.839	2145.31
1024.129	2138.08
1024.419	2138.98
1024.709	2122.49
1025	2113.67
1025.29	2115.26
1025.58	2065.09
1025.87	2080.23
1026.16	2061.92
1026.449	2026.67
1026.739	2040
1027.029	2038.87
1027.319	1972.21
1027.608	1981.93
1027.898	1940.34
1028.187	1965.2
1028.477	1931.76
1028.766	1897.18
1029.055	1902.61
1029.344	1892.66
1029.634	1884.53
1029.923	1872.1
1030.212	1842.72
1030.501	1841.36
1030.79	1822.83
1031.078	1805.21
1031.367	1805.43
1031.656	1781.25
1031.945	1776.51
1032.233	1752.1
1032.522	1759.33
1032.81	1712.33
1033.099	1730.86
1033.387	1723.18
1033.675	1712.55
1033.963	1675.04
1034.251	1659.45
1034.54	1644.76
1034.828	1625.1
1035.116	1611.31
1035.403	1631.2
1035.691	1590.07
1035.979	1598.43
1036.267	1611.31
1036.554	1568.38
1036.842	1531.77
1037.129	1569.96
1037.417	1545.1
1037.704	1535.38
1037.992	1526.57
1038.279	1507.81
1038.566	1496.74
1038.853	1496.74
1039.14	1496.74
