Data from 214_FLMS001491_007.txt Node
Date: Thu Apr 19 16:36:50 BST 2018
User: hsy
Spectrometer: FLMS00149
Trigger mode: 0
Integration Time (sec): 1.000000E-2
Scans to average: 10
Electric dark correction enabled: true
Nonlinearity correction enabled: false
Boxcar width: 0
XAxis mode: Wavelengths
Number of Pixels in Spectrum: 2048
>>>>>Begin Spectral Data<<<<<
341.393	-30.92
341.776	-30.92
342.16	-30.92
342.543	-53.06
342.927	-67.98
343.31	-74.53
343.693	-74.53
344.077	-53.29
344.46	-58.71
344.843	-57.81
345.226	-45.38
345.61	-31.37
345.993	-4.48
346.376	-12.61
346.759	9.08
347.142	19.48
347.525	38.01
347.908	64
348.291	67.39
348.674	81.17
349.057	133.6
349.44	128.4
349.823	129.3
350.206	158.91
350.588	230.09
350.971	242.52
351.354	266.02
351.737	282.52
352.119	305.12
352.502	291.11
352.884	283.2
353.267	319.81
353.65	303.31
354.032	328.17
354.414	344.21
354.797	358
355.179	356.64
355.562	379.47
355.944	357.77
356.326	382.41
356.709	380.37
357.091	345.8
357.473	376.76
357.855	382.63
358.238	374.72
358.62	380.82
359.002	368.17
359.384	383.31
359.766	399.35
360.148	393.03
360.53	372.91
360.912	390.54
361.294	379.24
361.676	358.45
362.057	365.91
362.439	369.3
362.821	398.9
363.203	374.95
363.584	384.89
363.966	376.3
364.348	357.55
364.729	374.5
365.111	374.5
365.493	378.34
365.874	372.91
366.256	367.72
366.637	368.17
367.019	370.43
367.4	377.66
367.781	371.78
368.163	384.89
368.544	377.21
368.925	374.5
369.306	376.08
369.688	386.02
370.069	367.72
370.45	383.76
370.831	358.23
371.212	363.87
371.593	371.33
371.974	370.65
372.355	396.19
372.736	386.92
373.117	365.91
373.498	359.58
373.879	381.28
374.26	379.24
374.641	358.23
375.021	372.91
375.402	389.18
375.783	401.61
376.163	411.11
376.544	423.31
376.925	415.62
377.305	416.53
377.686	415.85
378.066	390.99
378.447	410.2
378.827	405.23
379.208	403.65
379.588	416.3
379.968	417.66
380.349	446.13
380.729	416.75
381.109	430.77
381.489	413.14
381.87	438.22
382.25	439.8
382.63	420.37
383.01	432.35
383.39	433.48
383.77	423.76
384.15	454.04
384.53	433.48
384.91	439.35
385.29	439.58
385.67	451.78
386.049	469.63
386.429	463.31
386.809	473.48
387.189	470.54
387.568	476.19
387.948	466.02
388.328	460.6
388.707	490.2
389.087	471.67
389.466	467.6
389.846	473.93
390.225	490.42
390.605	489.75
390.984	485.68
391.363	490.65
391.743	501.05
392.122	495.85
392.501	479.8
392.881	508.73
393.26	527.94
393.639	509.63
394.018	517.54
394.397	520.93
394.776	497.66
395.155	537.66
395.534	543.53
395.913	519.8
396.292	565
396.671	565.23
397.05	541.72
397.429	547.37
397.808	578.11
398.186	561.16
398.565	570.87
398.944	580.59
399.323	568.39
399.701	558.67
400.08	570.2
400.458	582.63
400.837	600.03
401.215	581.04
401.594	610.87
401.972	608.61
402.351	602.96
402.729	604.77
403.107	611.55
403.486	612.46
403.864	623.08
404.242	630.31
404.62	634.6
404.999	650.19
405.377	655.39
405.755	663.3
406.133	642.74
406.511	662.4
406.889	685
407.267	676.63
407.645	687.26
408.023	680.02
408.401	690.42
408.779	701.94
409.156	734.03
409.534	720.7
409.912	748.05
410.29	728.84
410.667	749.85
411.045	751.66
411.422	737.65
411.8	749.63
412.178	776.97
412.555	802.73
412.933	777.2
413.31	793.92
413.687	811.77
414.065	809.96
414.442	814.94
414.819	828.5
415.197	827.37
415.574	859.91
415.951	867.14
416.328	877.08
416.705	868.27
417.082	912.56
417.46	868.27
417.837	897.87
418.214	902.39
418.591	935.61
418.967	927.93
419.344	921.83
419.721	942.39
420.098	919.79
420.475	959.79
420.852	984.65
421.228	970.64
421.605	979.9
421.982	970.64
422.358	985.78
422.735	1026.46
423.111	993.24
423.488	1016.51
423.864	1026
424.241	1043.63
424.617	1066.91
424.994	1063.07
425.37	1064.42
425.746	1080.24
426.123	1082.05
426.499	1093.8
426.875	1096.74
427.251	1137.19
427.627	1139.67
428.003	1147.81
428.379	1160.92
428.756	1176.73
429.132	1163.4
429.507	1190.07
429.883	1236.62
430.259	1233.23
430.635	1243.85
431.011	1238.65
431.387	1274.36
431.763	1272.55
432.138	1309.16
432.514	1302.61
432.89	1325.66
433.265	1352.55
433.641	1358.88
434.016	1380.8
434.392	1449.27
434.767	1440.68
435.143	1419.21
435.518	1439.78
435.894	1444.98
436.269	1481.81
436.644	1506.44
437.02	1522.49
437.395	1524.07
437.77	1512.32
438.145	1557.97
438.52	1563.84
438.895	1588.02
439.271	1566.1
439.646	1595.25
440.021	1647.46
440.395	1658.08
440.77	1590.96
441.145	1636.61
441.52	1655.37
441.895	1689.94
442.27	1701.47
442.645	1656.27
443.019	1720
443.394	1699.21
443.769	1674.35
444.143	1747.34
444.518	1749.15
444.892	1745.08
445.267	1751.86
445.641	1753.67
446.016	1757.06
446.39	1795.7
446.764	1797.74
447.139	1811.52
447.513	1828.02
447.887	1827.79
448.262	1848.58
448.636	1831.86
449.01	1851.29
449.384	1881.35
449.758	1869.6
450.132	1871.41
450.506	1879.77
450.88	1938.75
451.254	1969.26
451.628	1966.77
452.002	1983.04
452.376	2011.74
452.75	2016.71
453.123	2038.41
453.497	2072.08
453.871	2072.08
454.244	2108.01
454.618	2139.42
454.992	2139.65
455.365	2147.78
455.739	2215.58
456.112	2205.18
456.486	2244.28
456.859	2263.03
457.232	2292.64
457.606	2332.64
457.979	2308.68
458.352	2364.27
458.725	2403.14
459.099	2402.47
459.472	2423.03
459.845	2466.87
460.218	2478.4
460.591	2500.54
460.964	2538.28
461.337	2567.66
461.71	2577.15
462.083	2637.26
462.456	2646.53
462.829	2701.21
463.201	2684.72
463.574	2706.64
463.947	2718.16
464.32	2781.66
464.692	2787.77
465.065	2789.35
465.438	2790.93
465.81	2856.46
466.183	2882
466.555	2930.59
466.928	2949.34
467.3	2938.27
467.672	2976.01
468.045	3067.31
468.417	3084.93
468.789	3081.54
469.161	3115.67
469.534	3132.16
469.906	3155.67
470.278	3223.23
470.65	3255.1
471.022	3287.19
471.394	3305.04
471.766	3350.24
472.138	3412.83
472.51	3444.92
472.882	3475.21
473.253	3555.66
473.625	3572.83
473.997	3649.44
474.369	3682.88
474.74	3679.72
475.112	3750.45
475.484	3803.78
475.855	3843.11
476.227	3944.12
476.598	3984.57
476.97	4044.23
477.341	4087.84
477.713	4111.12
478.084	4179.59
478.455	4269.53
478.827	4279.03
479.198	4377.1
479.569	4363.54
479.94	4499.81
480.311	4540.26
480.682	4640.37
481.053	4735.74
481.424	4803.76
481.795	4861.16
482.166	4876.3
482.537	4987.48
482.908	5081.94
483.279	5161.49
483.65	5167.36
484.021	5306.57
484.391	5345.89
484.762	5378.66
485.133	5441.48
485.503	5542.72
485.874	5638.09
486.244	5696.16
486.615	5828.36
486.985	5874.69
487.356	5949.49
487.726	5997.85
488.097	6122.37
488.467	6166.89
488.837	6286.43
489.207	6349.03
489.578	6446.65
489.948	6507.44
490.318	6592.64
490.688	6601.45
491.058	6755.57
491.428	6809.13
491.798	6826.76
492.168	6968.22
492.538	7066.75
492.908	7102.68
493.278	7207.08
493.648	7221.55
494.017	7332.5
494.387	7389.68
494.757	7445.5
495.126	7545.61
495.496	7562.33
495.866	7600.97
496.235	7662.44
496.605	7764.13
496.974	7711.03
497.344	7812.72
497.713	7897.91
498.082	7966.16
498.452	7979.72
498.821	8078.47
499.19	8035.76
499.559	8140.62
499.928	8224.91
500.298	8252.03
500.667	8283.44
501.036	8330.22
501.405	8398.92
501.774	8366.83
502.143	8436.43
502.512	8450.22
502.88	8558.46
503.249	8528.63
503.618	8616.09
503.987	8625.13
504.356	8736.54
504.724	8774.5
505.093	8822.41
505.462	8838.68
505.83	8856.98
506.199	8824.67
506.567	8996.87
506.936	8983.31
507.304	9100.14
507.672	9131.33
508.041	9147.15
508.409	9183.53
508.777	9242.06
509.145	9384.43
509.514	9346.46
509.882	9447.93
510.25	9419.68
510.618	9470.98
510.986	9528.61
511.354	9683.18
511.722	9715.72
512.09	9820.35
512.458	9791.65
512.826	9808.6
513.193	9858.31
513.561	9902.83
513.929	9981.7
514.297	10020.34
514.664	10122.49
515.032	10190.96
515.4	10224.86
515.767	10205.42
516.135	10308.02
516.502	10283.16
516.869	10537.39
517.237	10510.27
517.604	10461.24
517.972	10669.59
518.339	10701.46
518.706	10762.7
519.073	10825.07
519.44	10851.51
519.808	11018.96
520.175	11047.89
520.542	11125.4
520.909	11277.94
521.276	11290.82
521.643	11429.57
522.009	11467.54
522.376	11533.75
522.743	11615.78
523.11	11743.69
523.477	11873.18
523.843	11874.98
524.21	11985.04
524.577	12225.03
524.943	12232.94
525.31	12368.08
525.676	12492.6
526.043	12552.93
526.409	12652.59
526.776	12831.57
527.142	12898.91
527.508	12908.4
527.874	13155.18
528.241	13165.12
528.607	13242.86
528.973	13452.12
529.339	13347.04
529.705	13570.98
530.071	13615.05
530.437	13721.72
530.803	13860.69
531.169	13965.1
531.535	13975.04
531.901	14129.84
532.267	14190.18
532.632	14314.24
532.998	14415.26
533.364	14504.97
533.73	14494.35
534.095	14651.18
534.461	14648.24
534.826	14748.81
535.192	14786.55
535.557	14977.5
535.923	14939.54
536.288	15082.36
536.653	15179.98
537.019	15132.07
537.384	15260.21
537.749	15351.73
538.114	15373.2
538.479	15412.74
538.845	15515.34
539.21	15454.1
539.575	15582.46
539.94	15631.72
540.305	15714.21
540.67	15813.41
541.034	15870.81
541.399	15917.82
541.764	15938.15
542.129	16094.31
542.494	16081.65
542.858	16021.99
543.223	16176.79
543.587	16261.31
543.952	16234.87
544.316	16181.76
544.681	16269.67
545.045	16422.89
545.41	16494.52
545.774	16411.14
546.138	16541.98
546.503	16629.21
546.867	16693.61
547.231	16752.37
547.595	16842.09
547.959	16924.8
548.324	16875.98
548.688	16939.48
549.052	17049.31
549.416	17053.61
549.779	16998.69
550.143	17078.46
550.507	17351
550.871	17332.92
551.235	17387.16
551.599	17603.65
551.962	17498.57
552.326	17499.02
552.689	17606.81
553.053	17618.34
553.417	17714.6
553.78	17845.67
554.143	17982.85
554.507	18063.52
554.87	18092
555.234	18201.6
555.597	18116.4
555.96	18363.4
556.323	18341.26
556.686	18448.37
557.05	18580.8
557.413	18554.81
557.776	18681.81
558.139	18889.94
558.502	18865.76
558.865	18962.26
559.228	19159.54
559.59	19300.1
559.953	19365.41
560.316	19618.51
560.679	19597.49
561.041	19707.32
561.404	19859.63
561.767	20203.35
562.129	19979.63
562.492	20279.96
562.854	20236.12
563.217	20386.62
563.579	20541.65
563.941	20793.62
564.304	20945.71
564.666	21133.5
565.028	21145.02
565.39	21286.71
565.753	21563.32
566.115	21643.54
566.477	21826.14
566.839	22030.2
567.201	22285.11
567.563	22290.76
567.925	22581.82
568.287	22481.71
568.648	22772.55
569.01	22944.98
569.372	23349.03
569.734	23342.71
570.095	23565.52
570.457	23826.99
570.819	23891.84
571.18	24043.7
571.542	24308.78
571.903	24295
572.265	24636.91
572.626	24812.95
572.987	24923.23
573.349	25188.98
573.71	25329.32
574.071	25535.87
574.432	25742.64
574.794	26029.41
575.155	25983.54
575.516	26160.03
575.877	26357.77
576.238	26390.99
576.599	26656.29
576.96	26718.44
577.32	26941.48
577.681	26989.62
578.042	27221.25
578.403	27296.05
578.763	27394.35
579.124	27547.57
579.485	27824.62
579.845	27975.58
580.206	28065.75
580.566	28187.78
580.927	28226.42
581.287	28664.6
581.648	28501.44
582.008	28831.83
582.368	28878.61
582.728	29036.79
583.089	29182.55
583.449	29326.28
583.809	29512.94
584.169	29750.67
584.529	29924.91
584.889	30322.18
585.249	30374.61
585.609	30435.85
585.969	30879.23
586.329	31109.28
586.688	31419.33
587.048	31648.7
587.408	31863.61
587.768	32045.98
588.127	32412.75
588.487	32627.43
588.846	33178.61
589.206	33330.01
589.565	33618.82
589.925	34156.88
590.284	34541.96
590.643	34860.14
591.003	35262.17
591.362	35816.95
591.721	36029.83
592.08	36449.03
592.44	37051.27
592.799	37413.75
593.158	37878.82
593.517	38093.96
593.876	38765.58
594.235	38980.26
594.593	39479.46
594.952	39912.67
595.311	40212.54
595.67	40893.88
596.029	41464.26
596.387	41916.45
596.746	42411.36
597.104	42495.65
597.463	43135.63
597.822	43624.66
598.18	43915.72
598.538	44363.62
598.897	45042.02
599.255	45198.18
599.613	46014.43
599.972	46239.05
600.33	46560.85
600.688	47015.98
601.046	47434.73
601.404	48045.11
601.762	48178.89
602.12	48817.06
602.478	49117.85
602.836	49463.37
603.194	49653.88
603.552	50044.83
603.91	50266.07
604.268	50630.8
604.625	51046.84
604.983	51318.24
605.341	51350.56
605.698	51902.86
606.056	52415.61
606.413	52358.67
606.771	52778.09
607.128	52952.32
607.485	53105.99
607.843	53372.2
608.2	53757.05
608.557	54023.25
608.914	54085.4
609.272	54473.86
609.629	54790.24
609.986	55018.26
610.343	55035.88
610.7	55436.1
611.057	55525.81
611.414	55613.72
611.771	55909.31
612.127	56051.9
612.484	56266.36
612.841	56434.04
613.198	56460.93
613.554	56538.44
613.911	56877.42
614.267	57049.39
614.624	57139.78
614.98	57268.14
615.337	57542.94
615.693	57591.3
616.05	57685.76
616.406	57868.35
616.762	57887.56
617.118	58006.88
617.475	58024.51
617.831	58288.91
618.187	58410.26
618.543	58442.12
618.899	58669.01
619.255	58653.42
619.611	58697.03
619.967	58967.31
620.323	59051.82
620.678	59047.3
621.034	59082.1
621.39	59088.88
621.746	59163.91
622.101	59478.03
622.457	59344.02
622.812	59485.48
623.168	59540.85
623.523	59592.37
623.879	59743.33
624.234	59645.71
624.589	59698.81
624.945	59772.48
625.3	59866.94
625.655	59933.61
626.01	59905.36
626.365	59991.91
626.72	59941.74
627.075	59924.12
627.43	60067.39
627.785	60063.77
628.14	60080.72
628.495	60086.37
628.85	60179.03
629.205	60104.45
629.559	60224.22
629.914	60106.71
630.269	60159.82
630.623	60092.02
630.978	60042.53
631.332	60210.89
631.687	60211.79
632.041	60195.3
632.396	60162.53
632.75	60108.74
633.104	60209.08
633.459	60079.37
633.813	60065.58
634.167	60075.3
634.521	60096.77
634.875	60086.15
635.229	60099.03
635.583	59962.99
635.937	59953.27
636.291	59925.92
636.645	59972.02
636.999	59899.94
637.352	60021.74
637.706	59820.62
638.06	59986.71
638.413	59899.94
638.767	59771.35
639.121	59849.99
639.474	59751.01
639.828	59767.28
640.181	59772.71
640.534	59811.13
640.888	59701.07
641.241	59588.31
641.594	59647.74
641.947	59716.21
642.301	59654.52
642.654	59663.11
643.007	59567.74
643.36	59590.11
643.713	59561.19
644.066	59645.71
644.419	59453.17
644.771	59240.29
645.124	58979.06
645.477	58938.83
645.83	58893.64
646.182	58865.39
646.535	58761.66
646.888	58876.69
647.24	58724.37
647.593	58914.43
647.945	58725.96
648.298	58712.85
648.65	58673.3
649.002	58556.92
649.355	58516.92
649.707	58514.21
650.059	58479.41
650.411	58813.64
650.763	58892.05
651.115	59195.77
651.467	59206.17
651.819	59171.37
652.171	59064.03
652.523	58970.47
652.875	59014.31
653.227	58901.32
653.578	59174.31
653.93	58969.79
654.282	58860.19
654.633	58876.23
654.985	58891.83
655.337	58917.59
655.688	58873.07
656.039	58971.6
656.391	58743.36
656.742	58762.11
657.094	58806.18
657.445	58814.99
657.796	58813.41
658.147	58719.4
658.498	58819.96
658.849	58806.41
659.2	58711.72
659.551	58687.09
659.902	58862.68
660.253	58701.32
660.604	58827.42
660.955	58675.34
661.306	58768.89
661.656	58693.19
662.007	58738.61
662.358	58714.88
662.708	58725.73
663.059	58721.44
663.409	58533.87
663.76	58720.76
664.11	58665.62
664.461	58778.16
664.811	58748.55
665.161	58676.01
665.511	58640.31
665.862	58680.31
666.212	58695.67
666.562	58700.42
666.912	58655
667.262	58645.96
667.612	58682.34
667.962	58702.91
668.312	58592.4
668.662	58751.49
669.011	58728.44
669.361	58621.1
669.711	58604.38
670.06	58560.76
670.41	58499.97
670.76	58481.44
671.109	58624.04
671.459	58613.87
671.808	58512.4
672.157	58582
672.507	58439.64
672.856	58510.37
673.205	58505.85
673.554	58530.71
673.904	58444.61
674.253	58693.41
674.602	58471.5
674.951	58161.45
675.3	58001.91
675.649	58485.51
675.998	58459.07
676.346	58470.14
676.695	58507.43
677.044	58305.4
677.393	58389.02
677.741	58451.61
678.09	58342.24
678.438	58253.2
678.787	58354.89
679.135	58338.17
679.484	58181.56
679.832	58268.57
680.181	58154.45
680.529	58247.55
680.877	58106.99
681.225	58067.67
681.573	58235.8
681.922	58117.61
682.27	58019.99
682.618	57957.84
682.966	57969.37
683.314	57920.1
683.661	57917.62
684.009	57864.96
684.357	57832.65
684.705	57723.04
685.053	57713.78
685.4	57605.31
685.748	57570.96
686.095	57612.54
686.443	57484.41
686.79	57437.4
687.138	57496.84
687.485	57455.48
687.832	57302.04
688.18	57359.66
688.527	57180.91
688.874	57201.93
689.221	57150.86
689.568	57061.59
689.915	56995.15
690.262	57013.91
690.609	56906.34
690.956	56852.11
691.303	56840.36
691.65	56646.01
691.997	56634.03
692.344	56502.96
692.69	56403.53
693.037	56547.03
693.383	56173.48
693.73	56340.48
694.077	56192.01
694.423	56147.72
694.769	56083.77
695.116	56034.05
695.462	55955.63
695.808	55934.39
696.155	55867.05
696.501	55626.6
696.847	55673.38
697.193	55554.51
697.539	55636.09
697.885	55426.16
698.231	55340.06
698.577	55347.29
698.923	55284.24
699.269	55089.89
699.614	55047.18
699.96	54874.98
700.306	54970.8
700.651	54790.01
700.997	54778.94
701.342	54657.14
701.688	54605.16
702.033	54553.86
702.379	54524.03
702.724	54386.41
703.069	54435.45
703.415	54095.34
703.76	54036.14
704.105	54056.25
704.45	54013.09
704.795	53908.23
705.14	53804.05
705.485	53857.38
705.83	53655.58
706.175	53679.31
706.52	53615.58
706.865	53487.9
707.209	53371.52
707.554	53355.93
707.899	53297.17
708.243	53195.25
708.588	53145.31
708.932	52843.62
709.277	53037.52
709.621	52877.52
709.966	52688.37
710.31	52727.47
710.654	52404.77
710.998	52643.18
711.342	52578.77
711.687	52460.36
712.031	52371.77
712.375	52163.42
712.719	52204.55
713.063	52135.62
713.407	52314.37
713.75	52105.56
714.094	51954.16
714.438	51796.87
714.782	51880.94
715.125	51696.31
715.469	51949.18
715.812	51588.52
716.156	51489.99
716.499	51553.04
716.843	51517.56
717.186	51341.52
717.53	51552.59
717.873	51397.79
718.216	51233.27
718.559	51214.29
718.902	50913.73
719.246	51098.59
719.589	50913.05
719.932	50793.06
720.275	50783.57
720.617	50866.5
720.96	50692.27
721.303	50741.08
721.646	50747.18
721.989	50472.16
722.331	50575.66
722.674	50463.35
723.016	50398.04
723.359	50338.38
723.701	50368.89
724.044	50302
724.386	50156.24
724.729	50284.37
725.071	50211.38
725.413	50138.61
725.755	50017.71
726.097	49885.28
726.439	49774.78
726.782	49840.31
727.124	49888.9
727.465	49840.31
727.807	49769.81
728.149	49805.06
728.491	49631.51
728.833	49608.46
729.175	49459.31
729.516	49461.57
729.858	49425.41
730.199	49592.64
730.541	49346.32
730.882	49352.19
731.224	49228.8
731.565	49083.5
731.906	49090.05
732.248	49124.4
732.589	49004.86
732.93	48874.01
733.271	48831.07
733.612	48757.63
733.953	48841.92
734.294	48767.57
734.635	48624.98
734.976	48841.92
735.317	48586.11
735.658	48582.72
735.999	48377.75
736.339	48323.52
736.68	48461.37
737.021	48398.09
737.361	48243.07
737.702	48507.02
738.042	48175.72
738.383	48369.17
738.723	48280.58
739.063	48087.37
739.404	48222.73
739.744	48105.22
740.084	47931.66
740.424	48063.64
740.764	47889.18
741.104	47928.5
741.444	47916.75
741.784	47764.21
742.124	47799.46
742.464	47709.3
742.804	47551.79
743.143	47620.94
743.483	47679.01
743.823	47643.31
744.162	47542.75
744.502	47570.09
744.841	47378.01
745.181	47557.89
745.52	47259.14
745.86	47358.12
746.199	47356.76
746.538	47153.15
746.877	47372.13
747.216	47210.78
747.556	47139.14
747.895	47131.23
748.234	46991.12
748.573	46974.85
748.911	46761.52
749.25	46839.04
749.589	46682.66
749.928	46710.9
750.267	46669.78
750.605	46576.22
750.944	46644.92
751.283	46568.31
751.621	46589.33
751.96	46443.79
752.298	46417.58
752.636	46457.13
752.975	46221.88
753.313	46204.7
753.651	46233.18
753.989	45925.16
754.327	46002.67
754.666	45573.31
755.004	45853.53
755.342	45829.57
755.679	45717.03
756.017	45538.28
756.355	45602.23
756.693	45351.62
757.031	45573.08
757.368	45304.84
757.706	45274.78
758.044	45160.44
758.381	45063.04
758.719	44930.84
759.056	44989.37
759.394	44887.68
759.731	44396.16
760.068	44502.83
760.405	44555.03
760.743	44342.61
761.08	44191.87
761.417	44050.41
761.754	44022.16
762.091	43982.39
762.428	43728.61
762.765	43614.49
763.102	43689.97
763.438	43508.95
763.775	43354.61
764.112	43343.54
764.449	43230.32
764.785	43032.81
765.122	42837.11
765.458	42697
765.795	42711.91
766.131	42703.33
766.467	42543.56
766.804	42192.15
767.14	42080.07
767.476	41994.87
767.812	41797.14
768.148	41754.88
768.485	41690.92
768.821	41529.8
769.157	41263.36
769.492	41264.49
769.828	41308.56
770.164	40940.21
770.5	40726.88
770.836	40696.6
771.171	40509.49
771.507	40530.05
771.842	40182.49
772.178	40087.35
772.513	40054.13
772.849	39873.12
773.184	39751.99
773.519	39757.42
773.855	39377.09
774.19	39321.72
774.525	39228.16
774.86	39104.32
775.195	39112.01
775.53	38812.58
775.865	38549.99
776.2	38534.17
776.535	38187.06
776.87	38138.7
777.205	37982.77
777.539	37791.82
777.874	38035.2
778.209	37482.67
778.543	37633.63
778.878	37423.24
779.212	37360.42
779.547	37052.4
779.881	36981.44
780.215	36790.94
780.55	36953.87
780.884	36598.4
781.218	36437.5
781.552	36472.98
781.886	36198.19
782.22	36052.43
782.554	35851.53
782.888	35747.8
783.222	35637.98
783.556	35402.05
783.889	35248.61
784.223	35081.83
784.557	35110.76
784.89	35088.84
785.224	34892.46
785.557	34859.69
785.891	34679.58
786.224	34485.69
786.558	34410.44
786.891	34260.61
787.224	34111.69
787.557	33984.91
787.891	33998.02
788.224	33725.71
788.557	33757.12
788.89	33656.78
789.223	33593.74
789.556	33256.8
789.888	33189.45
790.221	33100.64
790.554	32881.66
790.887	32930.25
791.219	32659.52
791.552	32622.91
791.884	32563.71
792.217	32344.05
792.549	32328.01
792.882	31983.38
793.214	31985.19
793.546	31814.57
793.879	31808.25
794.211	31481.93
794.543	31681.92
794.875	31562.6
795.207	31454.36
795.539	31357.64
795.871	31386.56
796.203	31302.95
796.535	30954.48
796.867	30984.31
797.198	30691.89
797.53	30767.37
797.862	30500.71
798.193	30665.9
798.525	30398.11
798.856	30523.53
799.188	30256.2
799.519	30119.7
799.85	29909.31
800.182	29928.97
800.513	30014.85
800.844	29620.73
801.175	29773.72
801.506	29756.1
801.837	29407.18
802.168	29449.21
802.499	29413.73
802.83	29181.65
803.161	29099.39
803.491	29081.54
803.822	29179.16
804.153	29040.86
804.483	28608.78
804.814	28660.31
805.145	28678.84
805.475	28568.78
805.805	28516.58
806.136	28477.94
806.466	28411.95
806.796	28314.1
807.126	28085.86
807.457	27981
807.787	28070.49
808.117	28088.8
808.447	27858.74
808.777	27955.92
809.107	27647.68
809.436	27643.84
809.766	27561.35
810.096	27570.62
810.426	27303.05
810.755	27534.01
811.085	27324.97
811.414	27304.18
811.744	27180.12
812.073	27138.54
812.403	27005.66
812.732	26907.36
813.061	27067.13
813.39	26769.96
813.719	26746.68
814.049	26871.88
814.378	26731.09
814.707	26603.64
815.036	26698.32
815.365	26517.31
815.693	26275.06
816.022	26283.19
816.351	26278.9
816.68	26162.07
817.008	26167.72
817.337	25861.51
817.665	26043.88
817.994	25919.36
818.322	25965.91
818.651	25811.34
818.979	25708.52
819.307	25780.61
819.636	25647.73
819.964	25506.72
820.292	25606.83
820.62	25625.58
820.948	25706.49
821.276	25600.5
821.604	25549.88
821.932	25681.63
822.259	25715.75
822.587	25544.46
822.915	25484.8
823.243	25538.81
823.57	25394.63
823.898	25562.08
824.225	25519.37
824.553	25356.66
824.88	25461.07
825.207	25599.37
825.535	25346.04
825.862	25515.3
826.189	25327.29
826.516	25588.3
826.843	25553.49
827.17	25528.41
827.497	25481.41
827.824	25551.69
828.151	25617.67
828.478	25454.06
828.805	25639.14
829.131	25461.29
829.458	25502.87
829.785	25271.92
830.111	25453.38
830.438	25548.75
830.764	25459.26
831.09	25473.95
831.417	25350.11
831.743	25539.94
832.069	25367.96
832.395	25402.99
832.722	25414.97
833.048	25304.01
833.374	25418.81
833.7	25274.63
834.026	25330.9
834.351	25218.14
834.677	25341.75
835.003	25275.99
835.329	25314.63
835.654	25176.33
835.98	25004.13
836.306	25218.59
836.631	25050.46
836.956	25325.48
837.282	25182.21
837.607	25097.24
837.932	24977.92
838.258	24992.38
838.583	25022.66
838.908	24939.05
839.233	25044.81
839.558	24876.45
839.883	24788.09
840.208	24716.68
840.533	24770.69
840.858	24768.2
841.182	24788.54
841.507	24642.78
841.832	24520.98
842.156	24549
842.481	24575.22
842.805	24373.41
843.13	24283.7
843.454	24274.66
843.778	24261.1
844.103	24189.01
844.427	24183.36
844.751	24226.3
845.075	24094.55
845.399	24048.9
845.723	23892.97
846.047	23938.17
846.371	23795.35
846.695	23692.53
847.019	23560.78
847.343	23448.24
847.666	23375.47
847.99	23243.05
848.313	23226.78
848.637	23098.42
848.96	22975.94
849.284	23039.21
849.607	22877.18
849.931	22724.87
850.254	22754.92
850.577	22605.32
850.9	22389.51
851.223	22495.72
851.546	22315.16
851.869	22171.89
852.192	22344.09
852.515	22120.14
852.838	22011.67
853.161	21980.71
853.483	21787.27
853.806	21779.81
854.129	21680.15
854.451	21660.72
854.774	21486.03
855.096	21446.94
855.419	21342.53
855.741	21238.13
856.063	21216.43
856.385	21165.36
856.708	21113.16
857.03	21170.56
857.352	21069.54
857.674	21027.29
857.996	20802.43
858.318	20807.63
858.64	20789.78
858.961	20720.4
859.283	20654.87
859.605	20543.68
859.926	20549.11
860.248	20550.69
860.57	20382.33
860.891	20327.42
861.212	20168.33
861.534	20258.72
861.855	20105.05
862.176	20166.52
862.498	20084.26
862.819	20150.47
863.14	20020.98
863.461	20072.06
863.782	20036.58
864.103	19907.77
864.424	19829.8
864.745	19957.26
865.065	19833.65
865.386	19653.76
865.707	19772.63
866.027	19711.16
866.348	19666.19
866.668	19621.22
866.989	19644.95
867.309	19452.19
867.63	19363.83
867.95	19572.41
868.27	19356.6
868.59	19490.6
868.91	19393.66
869.23	19390.94
869.55	19225.98
869.87	19316.14
870.19	19170.39
870.51	19224.17
870.83	19188.46
871.15	19168.8
871.469	19007.23
871.789	19154.34
872.109	19103.95
872.428	18987.11
872.748	19010.16
873.067	19044.29
873.386	18952.31
873.706	19031.63
874.025	18832.99
874.344	18821.24
874.663	18837.97
874.982	18780.11
875.301	18743.5
875.62	18678.42
875.939	18665.77
876.258	18691.75
876.577	18576.73
876.896	18616.05
877.214	18520.91
877.533	18573.79
877.852	18540.12
878.17	18560.46
878.489	18584.19
878.807	18441.59
879.125	18502.15
879.444	18367.47
879.762	18331.09
880.08	18411.99
880.398	18283.18
880.716	18202.5
881.034	18225.1
881.352	18251.54
881.67	18185.33
881.988	18159.34
882.306	18131.77
882.624	18103.75
882.941	18036.4
883.259	17935.39
883.577	17883.64
883.894	17866.01
884.212	17833.47
884.529	17839.57
884.846	17884.09
885.164	17620.82
885.481	17706.47
885.798	17604.78
886.115	17536.08
886.432	17595.51
886.75	17439.58
887.067	17529.98
887.383	17332.47
887.7	17420.15
888.017	17230.32
888.334	17324.11
888.651	17224.67
888.967	17255.18
889.284	17122.98
889.6	17036.88
889.917	16949.88
890.233	17015.19
890.55	16963.44
890.866	16978.8
891.182	16866.04
891.498	16829.43
891.815	16699.94
892.131	16692.48
892.447	16629.21
892.763	16542.66
893.079	16485.48
893.395	16490
893.71	16452.04
894.026	16379.27
894.342	16304.92
894.657	16199.16
894.973	16253.4
895.289	16200.75
895.604	16182.22
895.92	16056.34
896.235	16073.07
896.55	15916.46
896.865	15952.62
897.181	15823.81
897.496	15856.8
897.811	15802.34
898.126	15703.81
898.441	15670.59
898.756	15616.58
899.071	15515.34
899.386	15537.03
899.7	15463.36
900.015	15382.01
900.33	15325.06
900.644	15328.45
900.959	15307.44
901.273	15207.33
901.588	15136.37
901.902	14998.07
902.216	15049.14
902.531	14905.41
902.845	14923.72
903.159	14791.07
903.473	14848.69
903.787	14777.51
904.101	14637.4
904.415	14641.24
904.729	14621.13
905.042	14549.26
905.356	14527.34
905.67	14480.34
905.984	14351.08
906.297	14354.02
906.611	14199.22
906.924	14187.01
907.237	14105.66
907.551	14180.91
907.864	14049.16
908.177	14047.13
908.491	13975.04
908.804	13789.96
909.117	13810.53
909.43	13716.97
909.743	13653.92
910.056	13613.92
910.368	13596.07
910.681	13581.15
910.994	13459.35
911.307	13373.48
911.619	13352.69
911.932	13340.03
912.244	13141.17
912.557	13289.18
912.869	13143.2
913.181	13156.76
913.494	13043.54
913.806	12940.49
914.118	12946.59
914.43	12908.63
914.742	12828.86
915.054	12807.39
915.366	12787.05
915.678	12698.01
915.99	12612.14
916.302	12522.88
916.613	12464.12
916.925	12518.36
917.236	12420.96
917.548	12338.02
917.859	12322.2
918.171	12188.2
918.482	12121.31
918.794	12219.16
919.105	12065.94
919.416	12036.34
919.727	11949.11
920.038	11944.59
920.349	11843.35
920.66	11743.46
920.971	11780.3
921.282	11801.31
921.593	11605.84
921.903	11655.56
922.214	11590.47
922.525	11548.67
922.835	11532.17
923.146	11481.32
923.456	11431.15
923.767	11375.56
924.077	11283.81
924.387	11268.67
924.697	11162.91
925.008	11135.79
925.318	11075.46
925.628	11081.11
925.938	11073.2
926.248	10925.18
926.558	10949.36
926.867	10890.6
927.177	10811.74
927.487	10749.36
927.796	10687.67
928.106	10710.95
928.416	10592.76
928.725	10525.64
929.034	10640.21
929.344	10540.78
929.653	10488.13
929.962	10291.75
930.271	10324.97
930.581	10314.8
930.89	10261.69
931.199	10157.06
931.508	10260.56
931.817	10148.02
932.125	10147.12
932.434	10069.61
932.743	9974.47
933.051	9952.32
933.36	9900.8
933.669	9825.55
933.977	9808.82
934.286	9792.78
934.594	9772.21
934.902	9677.3
935.21	9607.02
935.519	9627.36
935.827	9624.65
936.135	9577.42
936.443	9437.76
936.751	9434.6
937.059	9410.42
937.367	9396.86
937.674	9390.08
937.982	9348.95
938.29	9267.37
938.597	9214.26
938.905	9193.7
939.213	9141.95
939.52	9105.11
939.827	9115.96
940.135	9021.73
940.442	8999.13
940.749	8927.27
941.056	8982.18
941.363	8866.02
941.67	8819.92
941.977	8822.64
942.284	8708.51
942.591	8687.72
942.898	8686.82
943.205	8668.74
943.511	8581.06
943.818	8556.65
944.125	8473.94
944.431	8489.76
944.738	8495.86
945.044	8431.91
945.35	8372.48
945.657	8302.2
945.963	8287.73
946.269	8318.02
946.575	8223.33
946.881	8190.79
947.187	8132.26
947.493	8142.2
947.799	8087.97
948.105	8077.57
948.41	8001.64
948.716	7918.7
949.022	7953.73
949.327	7932.04
949.633	7851.59
949.938	7820.63
950.244	7820.18
950.549	7778.59
950.854	7757.8
951.16	7751.03
951.465	7692.5
951.77	7626.28
952.075	7567.75
952.38	7549.67
952.685	7533.18
952.99	7431.71
953.294	7489.56
953.599	7386.51
953.904	7325.73
954.209	7343.58
954.513	7321.88
954.818	7283.69
955.122	7285.95
955.426	7228.78
955.731	7165.28
956.035	7127.31
956.339	7055.22
956.643	7081.44
956.948	7034.89
957.252	6999.63
957.556	6979.52
957.86	6950.59
958.163	6981.1
958.467	6867.43
958.771	6823.37
959.075	6826.76
959.378	6807.77
959.682	6806.42
959.985	6735.91
960.289	6700.88
960.592	6732.97
960.896	6675.8
961.199	6647.78
961.502	6642.81
961.805	6539.53
962.108	6503.15
962.411	6521.68
962.714	6428.57
963.017	6478.29
963.32	6426.99
963.623	6385.41
963.926	6363.04
964.228	6323.49
964.531	6282.36
964.833	6263.15
965.136	6244.62
965.438	6263.83
965.741	6229.94
966.043	6185.87
966.345	6089.37
966.648	6098.19
966.95	6118.3
967.252	6033.33
967.554	6020.45
967.856	6050.96
968.158	5962.37
968.46	5943.39
968.761	5896.16
969.063	5861.36
969.365	5858.42
969.666	5854.58
969.968	5791.08
970.269	5782.94
970.571	5788.14
970.872	5732.55
971.174	5706.78
971.475	5709.95
971.776	5647.35
972.077	5645.32
972.378	5644.19
972.679	5600.12
972.98	5567.58
973.281	5498.65
973.582	5520.8
973.883	5526.9
974.183	5447.81
974.484	5463.63
974.785	5395.38
975.085	5379.34
975.386	5406
975.686	5315.61
975.986	5287.36
976.287	5326.23
976.587	5269.51
976.887	5217.31
977.187	5219.11
977.487	5216.18
977.787	5185.44
978.087	5179.34
978.387	5150.19
978.687	5110.19
978.987	5049.85
979.286	5048.5
979.586	5045.56
979.885	5025.22
980.185	4957.2
980.484	4942.06
980.784	4898.44
981.083	4939.12
981.382	4915.85
981.682	4866.81
981.981	4876.75
982.28	4814.83
982.579	4792.23
982.878	4804.89
983.177	4773.93
983.475	4751.78
983.774	4717.88
984.073	4739.58
984.372	4656.64
984.67	4665
984.969	4622.52
985.267	4596.08
985.566	4550.43
985.864	4566.93
986.162	4573.26
986.461	4489.42
986.759	4523.99
987.057	4426.82
987.355	4424.33
987.653	4434.05
987.951	4441.28
988.249	4402.41
988.547	4360.38
988.844	4394.5
989.142	4396.08
989.44	4291.68
989.737	4284.22
990.035	4236.32
990.332	4236.32
990.63	4228.86
990.927	4202.87
991.224	4178.24
991.521	4188.63
991.819	4138.01
992.116	4152.7
992.413	4119.48
992.71	4110.22
993.006	4065.25
993.303	4064.34
993.6	4013.72
993.897	4003.33
994.193	3987.51
994.49	3940.05
994.787	3932.59
995.083	3908.41
995.379	3897.34
995.676	3856.89
995.972	3815.31
996.268	3846.49
996.565	3829.09
996.861	3801.07
997.157	3785.71
997.453	3786.38
997.749	3794.29
998.044	3736.22
998.34	3762.2
998.636	3683.11
998.932	3647.63
999.227	3638.36
999.523	3608.08
999.818	3606.5
1000.114	3612.15
1000.409	3564.02
1000.704	3558.14
1001	3526.96
1001.295	3536.67
1001.59	3499.84
1001.885	3491.48
1002.18	3486.96
1002.475	3387.3
1002.77	3427.3
1003.065	3392.95
1003.359	3358.6
1003.654	3361.31
1003.949	3342.78
1004.243	3319.05
1004.538	3301.2
1004.832	3251.93
1005.127	3244.02
1005.421	3223.23
1005.715	3204.25
1006.009	3192.95
1006.304	3207.42
1006.598	3153.63
1006.892	3184.59
1007.186	3112.95
1007.48	3082
1007.773	3093.29
1008.067	3097.14
1008.361	3053.07
1008.655	3012.62
1008.948	2994.99
1009.242	3005.84
1009.535	2991.83
1009.829	2963.13
1010.122	2918.61
1010.415	2885.16
1010.708	2886.29
1011.001	2893.3
1011.295	2865.28
1011.588	2838.16
1011.881	2832.06
1012.173	2806.75
1012.466	2807.43
1012.759	2774.88
1013.052	2763.13
1013.344	2743.02
1013.637	2759.97
1013.93	2693.76
1014.222	2669.58
1014.514	2705.28
1014.807	2676.81
1015.099	2618.73
1015.391	2622.12
1015.683	2574.89
1015.976	2599.52
1016.268	2587.09
1016.56	2538.05
1016.851	2547.09
1017.143	2519.07
1017.435	2515.91
1017.727	2479.3
1018.018	2493.54
1018.31	2455.12
1018.602	2415.35
1018.893	2414.22
1019.185	2393.2
1019.476	2429.36
1019.767	2382.8
1020.058	2326.08
1020.35	2329.47
1020.641	2307.78
1020.932	2323.82
1021.223	2318.17
1021.514	2284.73
1021.804	2233.88
1022.095	2259.42
1022.386	2215.58
1022.677	2218.29
1022.967	2210.15
1023.258	2163.83
1023.548	2156.82
1023.839	2179.65
1024.129	2148.46
1024.419	2111.63
1024.709	2131.06
1025	2096.71
1025.29	2108.91
1025.58	2012.42
1025.87	2057.62
1026.16	2014
1026.449	2028.92
1026.739	1973.55
1027.029	2012.42
1027.319	2001.57
1027.608	1939.65
1027.898	1950.5
1028.187	1922.48
1028.477	1908.92
1028.766	1878.19
1029.055	1877.06
1029.344	1858.3
1029.634	1868.92
1029.923	1847.45
1030.212	1833.67
1030.501	1839.77
1030.79	1795.93
1031.078	1818.75
1031.367	1789.83
1031.656	1818.98
1031.945	1781.69
1032.233	1737.85
1032.522	1748.47
1032.81	1704.86
1033.099	1736.72
1033.387	1674.12
1033.675	1684.52
1033.963	1678.87
1034.251	1650.85
1034.54	1653.56
1034.828	1640.45
1035.116	1637.29
1035.403	1594.12
1035.691	1604.75
1035.979	1604.52
1036.267	1589.15
1036.554	1563.39
1036.842	1558.42
1037.129	1572.2
1037.417	1519.32
1037.704	1516.84
1037.992	1509.38
1038.279	1495.37
1038.566	1498.08
1038.853	1498.08
1039.14	1498.08
